{
  "AcquisitionMatrixPE": 104,
  "AcquisitionNumber": 1,
  "AcquisitionTime": "18:20:18.372500",
  "BandwidthPerPixelPhaseEncode": 17.17,
  "BaseResolution": 104,
  "BodyPartExamined": "BRAIN",
  "CoilString": "HC1-7;NC1_2",
  "ConsistencyInfo": "N4_VE11C_LATEST_20160120",
  "ConversionSoftware": "dcm2niix",
  "ConversionSoftwareVersion": "v1.0.20190902",
  "DerivedVendorReportedEchoSpacing": 0.000560011,
  "DeviceSerialNumber": "167006",
  "DwellTime": 2.1e-06,
  "EchoTime": 0.037,
  "EchoTrainLength": 104,
  "EffectiveEchoSpacing": 0.000560011,
  "FlipAngle": 52,
  "ImageComments": "Unaliased_MB4_PE3_LB",
  "ImageOrientationPatientDICOM": [0.997334, 0.0495734, 0.0535494, -0.0271613, 0.933281, -0.358119],
  "ImageType": [
    "ORIGINAL",
    "PRIMARY",
    "M",
    "MB",
    "ND",
    "MOSAIC"
],
  "ImagingFrequency": 123.259,
  "InPlanePhaseEncodingDirectionDICOM": "COL",
  "InstitutionAddress": "Chemin_Queen-Mary_4565_Montreal_District_CA_H3W_1W5",
  "InstitutionName": "IUGM",
  "InstitutionalDepartmentName": "Department",
  "MRAcquisitionType": "2D",
  "MagneticFieldStrength": 3,
  "Manufacturer": "Siemens",
  "ManufacturersModelName": "Prisma_fit",
  "Modality": "MR",
  "MultibandAccelerationFactor": 4,
  "PartialFourier": 1,
  "PatientPosition": "HFS",
  "PercentPhaseFOV": 100,
  "PhaseEncodingDirection": "j",
  "PhaseEncodingSteps": 104,
  "PhaseResolution": 1,
  "PixelBandwidth": 2290,
  "ProcedureStepDescription": "memory_things",
  "ProtocolName": "func_task-things_run-5",
  "PulseSequenceDetails": "%CustomerSeq%_cmrr_mbep2d_bold",
  "ReceiveCoilActiveElements": "HC1-7;NC1,2",
  "ReceiveCoilName": "HeadNeck_64",
  "ReconMatrixPE": 104,
  "RepetitionTime": 1.49,
  "SAR": 0.0574449,
  "ScanOptions": "FS",
  "ScanningSequence": "EP",
  "SequenceName": "epfid2d1_104",
  "SequenceVariant": "SK_SS",
  "SeriesDescription": "func_task-things_run-5",
  "SeriesNumber": 22,
  "ShimSetting": [630, -7192, -8825, 674, 73, -3, -15, -14],
  "SliceThickness": 2,
  "SliceTiming": [0, 0.7825, 0.0975, 0.88, 0.195, 0.98, 0.2925, 1.0775, 0.3925, 1.175, 0.49, 1.2725, 0.5875, 1.37, 0.685, 0, 0.7825, 0.0975, 0.88, 0.195, 0.98, 0.2925, 1.0775, 0.3925, 1.175, 0.49, 1.2725, 0.5875, 1.37, 0.685, 0, 0.7825, 0.0975, 0.88, 0.195, 0.98, 0.2925, 1.0775, 0.3925, 1.175, 0.49, 1.2725, 0.5875, 1.37, 0.685, 0, 0.7825, 0.0975, 0.88, 0.195, 0.98, 0.2925, 1.0775, 0.3925, 1.175, 0.49, 1.2725, 0.5875, 1.37, 0.685],
  "SoftwareVersions": "syngo_MR_E11",
  "SpacingBetweenSlices": 2,
  "StationName": "MRC35049",
  "TaskName": "things",
  "TotalReadoutTime": 0.0576811,
  "TxRefAmp": 292.797,
  "WipMemBlock": "391c8922-794c-482d-80d9-85031a184bd8||Sequence: R016 ve11c/master r/e634e98; Dec 19 2017 11:00:25 by eja",
  "dcmmeta_affine": [
    [-1.994667887687683, -0.05432254821062088, 0.1354595124721527, 106.73898315429688],
    [-0.099146768450737, 1.866561770439148, -0.7114190459251404, -54.0562744140625],
    [0.10709872096776962, 0.7162375450134277, 1.8642783164978027, -71.10667419433594],
    [0.0, 0.0, 0.0, 1.0]
],
  "dcmmeta_reorient_transform": [
    [0.0, -1.0, 0.0, 103.0],
    [1.0, 0.0, 0.0, 0.0],
    [0.0, 0.0, 1.0, 0.0],
    [0.0, 0.0, 0.0, 1.0]
],
  "dcmmeta_shape": [104, 104, 60, 190],
  "dcmmeta_slice_dim": 2,
  "dcmmeta_version": 0.6,
  "global": {
    "const": {
      "AcquisitionMatrix": [104, 0, 0, 104],
      "AngioFlag": "N",
      "BitsAllocated": 16,
      "BitsStored": 16,
      "BodyPartExamined": "BRAIN",
      "Columns": 832,
      "EchoNumbers": 1,
      "EchoTime": 37.0,
      "EchoTrainLength": 104,
      "FlipAngle": 52.0,
      "HighBit": 15,
      "ImageOrientationPatient": [0.99733391888954, 0.04957338270694, 0.05354936002823, -0.0271612745477, 0.93328089005576, -0.358118758824],
      "ImagePositionPatient": [-807.42944683116, -853.71750106284, 224.39230986647],
      "ImageType": [
        "ORIGINAL",
        "PRIMARY",
        "M",
        "MB",
        "ND",
        "MOSAIC"
],
      "ImagedNucleus": "1H",
      "ImagingFrequency": 123.259104,
      "InPlanePhaseEncodingDirection": "COL",
      "MRAcquisitionType": "2D",
      "MagneticFieldStrength": 3.0,
      "Manufacturer": "SIEMENS",
      "ManufacturerModelName": "Prisma_fit",
      "Modality": "MR",
      "NumberOfAverages": 1.0,
      "NumberOfPhaseEncodingSteps": 104,
      "PercentPhaseFieldOfView": 100.0,
      "PercentSampling": 100.0,
      "PerformedProcedureStepStartTime": "174709.634000",
      "PhotometricInterpretation": "MONOCHROME2",
      "PixelBandwidth": 2290.0,
      "PixelRepresentation": 0,
      "PixelSpacing": [2.0, 2.0],
      "ProtocolName": "func_task-things_run-5",
      "RepetitionTime": 1490.0,
      "Rows": 832,
      "SAR": 0.05744491274238,
      "SamplesPerPixel": 1,
      "ScanOptions": "FS",
      "ScanningSequence": "EP",
      "SequenceName": "epfid2d1_104",
      "SequenceVariant": [
        "SK",
        "SS"
],
      "SeriesDescription": "func_task-things_run-5",
      "SeriesNumber": 22,
      "SeriesTime": "182147.695000",
      "SliceLocation": -39.823582546945,
      "SliceThickness": 2.0,
      "SmallestImagePixelValue": 0,
      "SoftwareVersions": "syngo MR E11",
      "SpacingBetweenSlices": 2.0000000343001,
      "SpecificCharacterSet": "ISO_IR 100",
      "StudyID": "1",
      "StudyTime": "174709.478000",
      "TransmitCoilName": "Body",
      "VariableFlipAngleFlag": "N",
      "WindowCenterWidthExplanation": "Algo1",
      "dBdt": 0.0},
    "slices": {}
  },
  "time": {
    "samples": {
      "AcquisitionNumber": [1, 2, 3, 4, 5, 6, 7, 8, 9, 10, 11, 12, 13, 14, 15, 16, 17, 18, 19, 20, 21, 22, 23, 24, 25, 26, 27, 28, 29, 30, 31, 32, 33, 34, 35, 36, 37, 38, 39, 40, 41, 42, 43, 44, 45, 46, 47, 48, 49, 50, 51, 52, 53, 54, 55, 56, 57, 58, 59, 60, 61, 62, 63, 64, 65, 66, 67, 68, 69, 70, 71, 72, 73, 74, 75, 76, 77, 78, 79, 80, 81, 82, 83, 84, 85, 86, 87, 88, 89, 90, 91, 92, 93, 94, 95, 96, 97, 98, 99, 100, 101, 102, 103, 104, 105, 106, 107, 108, 109, 110, 111, 112, 113, 114, 115, 116, 117, 118, 119, 120, 121, 122, 123, 124, 125, 126, 127, 128, 129, 130, 131, 132, 133, 134, 135, 136, 137, 138, 139, 140, 141, 142, 143, 144, 145, 146, 147, 148, 149, 150, 151, 152, 153, 154, 155, 156, 157, 158, 159, 160, 161, 162, 163, 164, 165, 166, 167, 168, 169, 170, 171, 172, 173, 174, 175, 176, 177, 178, 179, 180, 181, 182, 183, 184, 185, 186, 187, 188, 189, 190],
      "AcquisitionTime": ["182018.372500", "182019.862500", "182021.352500", "182022.842500", "182024.332500", "182025.822500", "182027.312500", "182028.802500", "182030.292500", "182031.782500", "182033.272500", "182034.762500", "182036.252500", "182037.742500", "182039.232500", "182040.722500", "182042.212500", "182043.702500", "182045.192500", "182046.682500", "182048.172500", "182049.662500", "182051.152500", "182052.642500", "182054.132500", "182055.622500", "182057.112500", "182058.602500", "182100.092500", "182101.582500", "182103.072500", "182104.562500", "182106.052500", "182107.542500", "182109.032500", "182110.522500", "182112.012500", "182113.502500", "182114.992500", "182116.482500", "182117.972500", "182119.462500", "182120.952500", "182122.442500", "182123.932500", "182125.422500", "182126.912500", "182128.402500", "182129.892500", "182131.382500", "182132.872500", "182134.362500", "182135.852500", "182137.342500", "182138.832500", "182140.322500", "182141.812500", "182143.302500", "182144.792500", "182146.282500", "182147.772500", "182149.262500", "182150.752500", "182152.242500", "182153.732500", "182155.222500", "182156.712500", "182158.202500", "182159.692500", "182201.182500", "182202.672500", "182204.162500", "182205.652500", "182207.142500", "182208.632500", "182210.122500", "182211.612500", "182213.102500", "182214.592500", "182216.082500", "182217.572500", "182219.062500", "182220.552500", "182222.042500", "182223.532500", "182225.022500", "182226.512500", "182228.002500", "182229.492500", "182230.982500", "182232.472500", "182233.962500", "182235.452500", "182236.942500", "182238.432500", "182239.922500", "182241.412500", "182242.902500", "182244.392500", "182245.882500", "182247.372500", "182248.862500", "182250.352500", "182251.842500", "182253.332500", "182254.822500", "182256.312500", "182257.802500", "182259.292500", "182300.782500", "182302.272500", "182303.762500", "182305.252500", "182306.742500", "182308.232500", "182309.722500", "182311.212500", "182312.702500", "182314.192500", "182315.682500", "182317.172500", "182318.662500", "182320.152500", "182321.642500", "182323.132500", "182324.622500", "182326.112500", "182327.602500", "182329.092500", "182330.582500", "182332.072500", "182333.562500", "182335.052500", "182336.542500", "182338.032500", "182339.522500", "182341.012500", "182342.502500", "182343.992500", "182345.482500", "182346.972500", "182348.462500", "182349.952500", "182351.442500", "182352.932500", "182354.422500", "182355.912500", "182357.402500", "182358.892500", "182400.382500", "182401.872500", "182403.362500", "182404.852500", "182406.342500", "182407.832500", "182409.322500", "182410.812500", "182412.302500", "182413.792500", "182415.282500", "182416.772500", "182418.262500", "182419.752500", "182421.242500", "182422.732500", "182424.222500", "182425.712500", "182427.202500", "182428.692500", "182430.182500", "182431.672500", "182433.162500", "182434.652500", "182436.142500", "182437.632500", "182439.122500", "182440.612500", "182442.102500", "182443.592500", "182445.082500", "182446.572500", "182448.062500", "182449.552500", "182451.042500", "182452.532500", "182454.022500", "182455.512500", "182457.002500", "182458.492500", "182459.982500"],
      "ContentTime": ["182147.699000", "182147.703000", "182147.707000", "182147.710000", "182147.713000", "182147.716000", "182147.720000", "182147.723000", "182147.726000", "182147.730000", "182147.733000", "182147.736000", "182147.739000", "182147.743000", "182147.746000", "182147.749000", "182147.759000", "182147.763000", "182147.766000", "182147.769000", "182147.772000", "182147.776000", "182147.779000", "182147.782000", "182147.785000", "182147.789000", "182147.792000", "182147.795000", "182147.798000", "182147.802000", "182147.805000", "182147.808000", "182207.662000", "182207.666000", "182207.669000", "182207.672000", "182207.676000", "182207.679000", "182207.682000", "182207.686000", "182207.689000", "182207.692000", "182207.695000", "182207.699000", "182207.702000", "182207.705000", "182207.708000", "182207.712000", "182207.715000", "182207.718000", "182207.722000", "182207.725000", "182207.728000", "182227.662000", "182227.666000", "182227.669000", "182227.672000", "182227.676000", "182227.679000", "182227.682000", "182227.685000", "182227.689000", "182227.692000", "182227.695000", "182227.699000", "182227.702000", "182227.705000", "182227.709000", "182227.712000", "182227.715000", "182227.718000", "182227.722000", "182227.725000", "182247.662000", "182247.666000", "182247.669000", "182247.672000", "182247.676000", "182247.679000", "182247.682000", "182247.686000", "182247.689000", "182247.692000", "182247.696000", "182247.699000", "182247.702000", "182247.706000", "182247.725000", "182247.728000", "182247.731000", "182247.735000", "182247.738000", "182247.741000", "182307.662000", "182307.666000", "182307.669000", "182307.672000", "182307.676000", "182307.679000", "182307.682000", "182307.685000", "182307.689000", "182307.692000", "182307.695000", "182307.699000", "182307.706000", "182307.710000", "182307.713000", "182307.716000", "182307.719000", "182307.723000", "182307.726000", "182307.729000", "182347.662000", "182347.666000", "182347.669000", "182347.673000", "182347.676000", "182347.679000", "182347.682000", "182347.686000", "182347.689000", "182347.692000", "182347.696000", "182347.699000", "182347.702000", "182347.705000", "182347.709000", "182347.712000", "182347.716000", "182347.719000", "182347.722000", "182347.725000", "182347.729000", "182347.732000", "182347.736000", "182347.740000", "182347.743000", "182347.747000", "182427.662000", "182427.666000", "182427.669000", "182427.672000", "182427.676000", "182427.679000", "182427.682000", "182427.686000", "182427.689000", "182427.692000", "182427.695000", "182427.699000", "182427.702000", "182427.705000", "182427.709000", "182427.712000", "182427.715000", "182427.719000", "182427.722000", "182427.725000", "182427.728000", "182427.732000", "182427.735000", "182427.738000", "182427.742000", "182427.745000", "182427.748000", "182502.433000", "182502.436000", "182502.440000", "182502.443000", "182502.447000", "182502.450000", "182502.453000", "182502.457000", "182502.460000", "182502.464000", "182502.467000", "182502.470000", "182502.473000", "182502.477000", "182502.480000", "182502.483000", "182502.487000", "182502.490000", "182502.493000", "182502.497000", "182502.500000", "182502.504000", "182502.521000", "182502.524000"],
      "InstanceCreationTime": ["182147.699000", "182147.703000", "182147.707000", "182147.710000", "182147.713000", "182147.716000", "182147.720000", "182147.723000", "182147.726000", "182147.730000", "182147.733000", "182147.736000", "182147.739000", "182147.743000", "182147.746000", "182147.749000", "182147.759000", "182147.763000", "182147.766000", "182147.769000", "182147.772000", "182147.776000", "182147.779000", "182147.782000", "182147.785000", "182147.789000", "182147.792000", "182147.795000", "182147.798000", "182147.802000", "182147.805000", "182147.808000", "182207.662000", "182207.666000", "182207.669000", "182207.672000", "182207.676000", "182207.679000", "182207.682000", "182207.686000", "182207.689000", "182207.692000", "182207.695000", "182207.699000", "182207.702000", "182207.705000", "182207.708000", "182207.712000", "182207.715000", "182207.718000", "182207.722000", "182207.725000", "182207.728000", "182227.662000", "182227.666000", "182227.669000", "182227.672000", "182227.676000", "182227.679000", "182227.682000", "182227.685000", "182227.689000", "182227.692000", "182227.695000", "182227.699000", "182227.702000", "182227.705000", "182227.709000", "182227.712000", "182227.715000", "182227.718000", "182227.722000", "182227.725000", "182247.662000", "182247.666000", "182247.669000", "182247.672000", "182247.676000", "182247.679000", "182247.682000", "182247.686000", "182247.689000", "182247.692000", "182247.696000", "182247.699000", "182247.702000", "182247.706000", "182247.725000", "182247.728000", "182247.731000", "182247.735000", "182247.738000", "182247.741000", "182307.662000", "182307.666000", "182307.669000", "182307.672000", "182307.676000", "182307.679000", "182307.682000", "182307.685000", "182307.689000", "182307.692000", "182307.695000", "182307.699000", "182307.706000", "182307.710000", "182307.713000", "182307.716000", "182307.719000", "182307.723000", "182307.726000", "182307.729000", "182347.662000", "182347.666000", "182347.669000", "182347.673000", "182347.676000", "182347.679000", "182347.682000", "182347.686000", "182347.689000", "182347.692000", "182347.696000", "182347.699000", "182347.702000", "182347.705000", "182347.709000", "182347.712000", "182347.716000", "182347.719000", "182347.722000", "182347.725000", "182347.729000", "182347.732000", "182347.736000", "182347.740000", "182347.743000", "182347.747000", "182427.662000", "182427.666000", "182427.669000", "182427.672000", "182427.676000", "182427.679000", "182427.682000", "182427.686000", "182427.689000", "182427.692000", "182427.695000", "182427.699000", "182427.702000", "182427.705000", "182427.709000", "182427.712000", "182427.715000", "182427.719000", "182427.722000", "182427.725000", "182427.728000", "182427.732000", "182427.735000", "182427.738000", "182427.742000", "182427.745000", "182427.748000", "182502.433000", "182502.436000", "182502.440000", "182502.443000", "182502.447000", "182502.450000", "182502.453000", "182502.457000", "182502.460000", "182502.464000", "182502.467000", "182502.470000", "182502.473000", "182502.477000", "182502.480000", "182502.483000", "182502.487000", "182502.490000", "182502.493000", "182502.497000", "182502.500000", "182502.504000", "182502.521000", "182502.524000"],
      "InstanceNumber": [1, 2, 3, 4, 5, 6, 7, 8, 9, 10, 11, 12, 13, 14, 15, 16, 17, 18, 19, 20, 21, 22, 23, 24, 25, 26, 27, 28, 29, 30, 31, 32, 33, 34, 35, 36, 37, 38, 39, 40, 41, 42, 43, 44, 45, 46, 47, 48, 49, 50, 51, 52, 53, 54, 55, 56, 57, 58, 59, 60, 61, 62, 63, 64, 65, 66, 67, 68, 69, 70, 71, 72, 73, 74, 75, 76, 77, 78, 79, 80, 81, 82, 83, 84, 85, 86, 87, 88, 89, 90, 91, 92, 93, 94, 95, 96, 97, 98, 99, 100, 101, 102, 103, 104, 105, 106, 107, 108, 109, 110, 111, 112, 113, 114, 115, 116, 117, 118, 119, 120, 121, 122, 123, 124, 125, 126, 127, 128, 129, 130, 131, 132, 133, 134, 135, 136, 137, 138, 139, 140, 141, 142, 143, 144, 145, 146, 147, 148, 149, 150, 151, 152, 153, 154, 155, 156, 157, 158, 159, 160, 161, 162, 163, 164, 165, 166, 167, 168, 169, 170, 171, 172, 173, 174, 175, 176, 177, 178, 179, 180, 181, 182, 183, 184, 185, 186, 187, 188, 189, 190],
      "LargestImagePixelValue": [43285, 41616, 46266, 41101, 39839, 40605, 39946, 40857, 42432, 42887, 41977, 39097, 40140, 39123, 40422, 41672, 41052, 39770, 38910, 38661, 39078, 40239, 40887, 40482, 41949, 41647, 40749, 42977, 42565, 43371, 42979, 40472, 41324, 44973, 44645, 44839, 43755, 43677, 44647, 43650, 41035, 40576, 43108, 41830, 40931, 41365, 42107, 40779, 43758, 42808, 43031, 42234, 42449, 42649, 42439, 43067, 42863, 43751, 43845, 45690, 45455, 44521, 45227, 43751, 40044, 40657, 41771, 41953, 42369, 42439, 42552, 42454, 45465, 42620, 43526, 43110, 43638, 42551, 42893, 42841, 43234, 42497, 42364, 42582, 42279, 43035, 43322, 43647, 43177, 42855, 42673, 43182, 42810, 43299, 43364, 46664, 43151, 43721, 43321, 43605, 42744, 43436, 43327, 42747, 43194, 45722, 44695, 44168, 43610, 44127, 44898, 48038, 44022, 42564, 43677, 44358, 43397, 44188, 42641, 43878, 43048, 44126, 43007, 42927, 42669, 42972, 50754, 44899, 43599, 43074, 42887, 41681, 43102, 42398, 42895, 42899, 42875, 43089, 43581, 46014, 42709, 44579, 43906, 42858, 43346, 42937, 43422, 46681, 41817, 42875, 42447, 41899, 42414, 41950, 42292, 42278, 45310, 42815, 42731, 44148, 41759, 41957, 42142, 42223, 41879, 42631, 42305, 42729, 42682, 42770, 42660, 42359, 42505, 42524, 42668, 41034, 40616, 40527, 43340, 43210, 45861, 43608, 43632, 43329, 43543, 44680, 42051, 42234, 42785, 41119],
      "WindowCenter": [10605.0, 10609.0, 10646.0, 10577.0, 10556.0, 10545.0, 10527.0, 10553.0, 10606.0, 10609.0, 10575.0, 10521.0, 10513.0, 10526.0, 10574.0, 10584.0, 10562.0, 10521.0, 10493.0, 10499.0, 10506.0, 10512.0, 10518.0, 10534.0, 10574.0, 10584.0, 10569.0, 10580.0, 10590.0, 10611.0, 10617.0, 10584.0, 10578.0, 10605.0, 10612.0, 10605.0, 10592.0, 10611.0, 10607.0, 10593.0, 10581.0, 10574.0, 10594.0, 10585.0, 10560.0, 10550.0, 10562.0, 10554.0, 10596.0, 10594.0, 10599.0, 10578.0, 10565.0, 10571.0, 10603.0, 10618.0, 10622.0, 10615.0, 10594.0, 10596.0, 10597.0, 10609.0, 10624.0, 10606.0, 10575.0, 10583.0, 10590.0, 10593.0, 10621.0, 10620.0, 10625.0, 10624.0, 10668.0, 10648.0, 10672.0, 10684.0, 10691.0, 10673.0, 10653.0, 10627.0, 10657.0, 10664.0, 10661.0, 10658.0, 10640.0, 10649.0, 10674.0, 10684.0, 10661.0, 10654.0, 10650.0, 10654.0, 10665.0, 10662.0, 10652.0, 10682.0, 10643.0, 10653.0, 10653.0, 10641.0, 10626.0, 10628.0, 10638.0, 10648.0, 10634.0, 10632.0, 10627.0, 10626.0, 10634.0, 10647.0, 10644.0, 10671.0, 10639.0, 10618.0, 10628.0, 10657.0, 10647.0, 10655.0, 10632.0, 10668.0, 10691.0, 10685.0, 10653.0, 10636.0, 10646.0, 10653.0, 10715.0, 10681.0, 10671.0, 10655.0, 10628.0, 10628.0, 10662.0, 10651.0, 10650.0, 10650.0, 10641.0, 10626.0, 10605.0, 10625.0, 10612.0, 10647.0, 10651.0, 10664.0, 10676.0, 10662.0, 10639.0, 10664.0, 10619.0, 10618.0, 10620.0, 10628.0, 10641.0, 10636.0, 10636.0, 10638.0, 10684.0, 10659.0, 10670.0, 10689.0, 10660.0, 10658.0, 10664.0, 10664.0, 10664.0, 10664.0, 10658.0, 10686.0, 10681.0, 10706.0, 10711.0, 10703.0, 10693.0, 10698.0, 10716.0, 10713.0, 10711.0, 10708.0, 10733.0, 10725.0, 10738.0, 10709.0, 10706.0, 10729.0, 10733.0, 10728.0, 10695.0, 10691.0, 10703.0, 10692.0],
      "WindowWidth": [22551.0, 22557.0, 22624.0, 22468.0, 22422.0, 22393.0, 22348.0, 22400.0, 22524.0, 22528.0, 22449.0, 22333.0, 22306.0, 22347.0, 22462.0, 22476.0, 22428.0, 22333.0, 22274.0, 22290.0, 22300.0, 22305.0, 22322.0, 22358.0, 22457.0, 22481.0, 22444.0, 22462.0, 22485.0, 22532.0, 22539.0, 22467.0, 22446.0, 22514.0, 22519.0, 22501.0, 22475.0, 22526.0, 22505.0, 22483.0, 22476.0, 22459.0, 22499.0, 22480.0, 22421.0, 22395.0, 22421.0, 22409.0, 22505.0, 22499.0, 22507.0, 22462.0, 22428.0, 22449.0, 22517.0, 22553.0, 22560.0, 22542.0, 22490.0, 22490.0, 22494.0, 22530.0, 22559.0, 22516.0, 22461.0, 22473.0, 22486.0, 22500.0, 22571.0, 22567.0, 22570.0, 22569.0, 22671.0, 22638.0, 22687.0, 22710.0, 22726.0, 22694.0, 22632.0, 22572.0, 22650.0, 22662.0, 22660.0, 22646.0, 22605.0, 22623.0, 22685.0, 22709.0, 22654.0, 22639.0, 22628.0, 22638.0, 22668.0, 22658.0, 22633.0, 22701.0, 22615.0, 22637.0, 22642.0, 22607.0, 22569.0, 22571.0, 22601.0, 22622.0, 22590.0, 22568.0, 22554.0, 22554.0, 22588.0, 22610.0, 22594.0, 22662.0, 22594.0, 22542.0, 22562.0, 22627.0, 22604.0, 22621.0, 22574.0, 22659.0, 22719.0, 22698.0, 22627.0, 22585.0, 22617.0, 22634.0, 22768.0, 22697.0, 22677.0, 22639.0, 22576.0, 22581.0, 22655.0, 22627.0, 22625.0, 22624.0, 22604.0, 22566.0, 22516.0, 22565.0, 22547.0, 22621.0, 22624.0, 22653.0, 22680.0, 22647.0, 22585.0, 22648.0, 22547.0, 22543.0, 22552.0, 22577.0, 22601.0, 22591.0, 22593.0, 22597.0, 22705.0, 22642.0, 22677.0, 22721.0, 22648.0, 22642.0, 22654.0, 22655.0, 22668.0, 22660.0, 22649.0, 22706.0, 22698.0, 22763.0, 22772.0, 22754.0, 22729.0, 22742.0, 22790.0, 22785.0, 22779.0, 22768.0, 22825.0, 22809.0, 22822.0, 22757.0, 22750.0, 22810.0, 22828.0, 22805.0, 22727.0, 22715.0, 22744.0, 22719.0]
    },
    "slices": {}
  }
}