{
  "AcquisitionMatrixPE": 104,
  "AcquisitionNumber": 1,
  "AcquisitionTime": "18:27:8.047500",
  "BandwidthPerPixelPhaseEncode": 17.17,
  "BaseResolution": 104,
  "BodyPartExamined": "BRAIN",
  "CoilString": "HC1-7;NC1_2",
  "ConsistencyInfo": "N4_VE11C_LATEST_20160120",
  "ConversionSoftware": "dcm2niix",
  "ConversionSoftwareVersion": "v1.0.20190902",
  "DerivedVendorReportedEchoSpacing": 0.000560011,
  "DeviceSerialNumber": "167006",
  "DwellTime": 2.1e-06,
  "EchoTime": 0.037,
  "EchoTrainLength": 104,
  "EffectiveEchoSpacing": 0.000560011,
  "FlipAngle": 52,
  "ImageComments": "Unaliased_MB4_PE3_LB",
  "ImageOrientationPatientDICOM": [0.997334, 0.0495734, 0.0535494, -0.0271613, 0.933281, -0.358119],
  "ImageType": [
    "ORIGINAL",
    "PRIMARY",
    "P",
    "MB",
    "ND",
    "MOSAIC"
],
  "ImagingFrequency": 123.259,
  "InPlanePhaseEncodingDirectionDICOM": "COL",
  "InstitutionAddress": "Chemin_Queen-Mary_4565_Montreal_District_CA_H3W_1W5",
  "InstitutionName": "IUGM",
  "InstitutionalDepartmentName": "Department",
  "MRAcquisitionType": "2D",
  "MagneticFieldStrength": 3,
  "Manufacturer": "Siemens",
  "ManufacturersModelName": "Prisma_fit",
  "Modality": "MR",
  "MultibandAccelerationFactor": 4,
  "PartialFourier": 1,
  "PatientPosition": "HFS",
  "PercentPhaseFOV": 100,
  "PhaseEncodingDirection": "j",
  "PhaseEncodingSteps": 104,
  "PhaseResolution": 1,
  "PixelBandwidth": 2290,
  "ProcedureStepDescription": "memory_things",
  "ProtocolName": "func_task-things_run-6",
  "PulseSequenceDetails": "%CustomerSeq%_cmrr_mbep2d_bold",
  "ReceiveCoilActiveElements": "HC1-7;NC1,2",
  "ReceiveCoilName": "HeadNeck_64",
  "ReconMatrixPE": 104,
  "RepetitionTime": 1.49,
  "SAR": 0.0574449,
  "ScanOptions": "FS",
  "ScanningSequence": "EP",
  "SequenceName": "epfid2d1_104",
  "SequenceVariant": "SK_SS",
  "SeriesDescription": "func_task-things_run-6",
  "SeriesNumber": 26,
  "ShimSetting": [630, -7192, -8825, 674, 73, -3, -15, -14],
  "SliceThickness": 2,
  "SliceTiming": [0, 0.7825, 0.0975, 0.88, 0.195, 0.98, 0.2925, 1.0775, 0.39, 1.175, 0.49, 1.2725, 0.5875, 1.37, 0.685, 0, 0.7825, 0.0975, 0.88, 0.195, 0.98, 0.2925, 1.0775, 0.39, 1.175, 0.49, 1.2725, 0.5875, 1.37, 0.685, 0, 0.7825, 0.0975, 0.88, 0.195, 0.98, 0.2925, 1.0775, 0.39, 1.175, 0.49, 1.2725, 0.5875, 1.37, 0.685, 0, 0.7825, 0.0975, 0.88, 0.195, 0.98, 0.2925, 1.0775, 0.39, 1.175, 0.49, 1.2725, 0.5875, 1.37, 0.685],
  "SoftwareVersions": "syngo_MR_E11",
  "SpacingBetweenSlices": 2,
  "StationName": "MRC35049",
  "TaskName": "things",
  "TotalReadoutTime": 0.0576811,
  "TxRefAmp": 292.797,
  "WipMemBlock": "a98f4382-fdaa-492f-a732-a3a05ffcbe86||Sequence: R016 ve11c/master r/e634e98; Dec 19 2017 11:00:25 by eja",
  "dcmmeta_affine": [
    [-1.994667887687683, -0.05432254821062088, 0.1354595124721527, 106.73898315429688],
    [-0.099146768450737, 1.866561770439148, -0.7114190459251404, -54.0562744140625],
    [0.10709872096776962, 0.7162375450134277, 1.8642783164978027, -71.10667419433594],
    [0.0, 0.0, 0.0, 1.0]
],
  "dcmmeta_reorient_transform": [
    [0.0, -1.0, 0.0, 103.0],
    [1.0, 0.0, 0.0, 0.0],
    [0.0, 0.0, 1.0, 0.0],
    [0.0, 0.0, 0.0, 1.0]
],
  "dcmmeta_shape": [104, 104, 60, 190],
  "dcmmeta_slice_dim": 2,
  "dcmmeta_version": 0.6,
  "global": {
    "const": {
      "AcquisitionMatrix": [104, 0, 0, 104],
      "AngioFlag": "N",
      "BitsAllocated": 16,
      "BitsStored": 16,
      "BodyPartExamined": "BRAIN",
      "Columns": 832,
      "EchoNumbers": 1,
      "EchoTime": 37.0,
      "EchoTrainLength": 104,
      "FlipAngle": 52.0,
      "HighBit": 15,
      "ImageOrientationPatient": [0.99733391888954, 0.04957338270694, 0.05354936002823, -0.0271612745477, 0.93328089005576, -0.358118758824],
      "ImagePositionPatient": [-807.42944683116, -853.71750106284, 224.39230986647],
      "ImageType": [
        "ORIGINAL",
        "PRIMARY",
        "P",
        "MB",
        "ND",
        "MOSAIC"
],
      "ImagedNucleus": "1H",
      "ImagingFrequency": 123.259107,
      "InPlanePhaseEncodingDirection": "COL",
      "LargestImagePixelValue": 4095,
      "MRAcquisitionType": "2D",
      "MagneticFieldStrength": 3.0,
      "Manufacturer": "SIEMENS",
      "ManufacturerModelName": "Prisma_fit",
      "Modality": "MR",
      "NumberOfAverages": 1.0,
      "NumberOfPhaseEncodingSteps": 104,
      "PercentPhaseFieldOfView": 100.0,
      "PercentSampling": 100.0,
      "PerformedProcedureStepStartTime": "174709.634000",
      "PhotometricInterpretation": "MONOCHROME2",
      "PixelBandwidth": 2290.0,
      "PixelRepresentation": 0,
      "PixelSpacing": [2.0, 2.0],
      "ProtocolName": "func_task-things_run-6",
      "RepetitionTime": 1490.0,
      "RescaleIntercept": -4096.0,
      "RescaleSlope": 2.0,
      "RescaleType": "US",
      "Rows": 832,
      "SAR": 0.05744491274238,
      "SamplesPerPixel": 1,
      "ScanOptions": "FS",
      "ScanningSequence": "EP",
      "SequenceName": "epfid2d1_104",
      "SequenceVariant": [
        "SK",
        "SS"
],
      "SeriesDescription": "func_task-things_run-6",
      "SeriesNumber": 26,
      "SeriesTime": "182819.311000",
      "SliceLocation": -39.823582546945,
      "SliceThickness": 2.0,
      "SmallestImagePixelValue": 0,
      "SoftwareVersions": "syngo MR E11",
      "SpacingBetweenSlices": 2.0000000343001,
      "SpecificCharacterSet": "ISO_IR 100",
      "StudyID": "1",
      "StudyTime": "174709.478000",
      "TransmitCoilName": "Body",
      "VariableFlipAngleFlag": "N",
      "WindowCenterWidthExplanation": "Algo1",
      "dBdt": 0.0},
    "slices": {}
  },
  "time": {
    "samples": {
      "AcquisitionNumber": [1, 2, 3, 4, 5, 6, 7, 8, 9, 10, 11, 12, 13, 14, 15, 16, 17, 18, 19, 20, 21, 22, 23, 24, 25, 26, 27, 28, 29, 30, 31, 32, 33, 34, 35, 36, 37, 38, 39, 40, 41, 42, 43, 44, 45, 46, 47, 48, 49, 50, 51, 52, 53, 54, 55, 56, 57, 58, 59, 60, 61, 62, 63, 64, 65, 66, 67, 68, 69, 70, 71, 72, 73, 74, 75, 76, 77, 78, 79, 80, 81, 82, 83, 84, 85, 86, 87, 88, 89, 90, 91, 92, 93, 94, 95, 96, 97, 98, 99, 100, 101, 102, 103, 104, 105, 106, 107, 108, 109, 110, 111, 112, 113, 114, 115, 116, 117, 118, 119, 120, 121, 122, 123, 124, 125, 126, 127, 128, 129, 130, 131, 132, 133, 134, 135, 136, 137, 138, 139, 140, 141, 142, 143, 144, 145, 146, 147, 148, 149, 150, 151, 152, 153, 154, 155, 156, 157, 158, 159, 160, 161, 162, 163, 164, 165, 166, 167, 168, 169, 170, 171, 172, 173, 174, 175, 176, 177, 178, 179, 180, 181, 182, 183, 184, 185, 186, 187, 188, 189, 190],
      "AcquisitionTime": ["182708.047500", "182709.537500", "182711.027500", "182712.517500", "182714.007500", "182715.497500", "182716.987500", "182718.477500", "182719.967500", "182721.457500", "182722.947500", "182724.437500", "182725.927500", "182727.417500", "182728.907500", "182730.397500", "182731.887500", "182733.377500", "182734.867500", "182736.357500", "182737.847500", "182739.337500", "182740.827500", "182742.317500", "182743.807500", "182745.297500", "182746.787500", "182748.277500", "182749.767500", "182751.257500", "182752.747500", "182754.237500", "182755.727500", "182757.217500", "182758.707500", "182800.197500", "182801.687500", "182803.177500", "182804.667500", "182806.157500", "182807.647500", "182809.137500", "182810.627500", "182812.117500", "182813.607500", "182815.097500", "182816.587500", "182818.077500", "182819.567500", "182821.057500", "182822.547500", "182824.037500", "182825.527500", "182827.017500", "182828.507500", "182829.997500", "182831.487500", "182832.977500", "182834.467500", "182835.957500", "182837.447500", "182838.937500", "182840.427500", "182841.917500", "182843.407500", "182844.897500", "182846.387500", "182847.877500", "182849.367500", "182850.857500", "182852.347500", "182853.837500", "182855.327500", "182856.817500", "182858.307500", "182859.797500", "182901.287500", "182902.777500", "182904.267500", "182905.757500", "182907.247500", "182908.737500", "182910.227500", "182911.717500", "182913.207500", "182914.697500", "182916.187500", "182917.677500", "182919.167500", "182920.657500", "182922.147500", "182923.637500", "182925.127500", "182926.617500", "182928.107500", "182929.597500", "182931.087500", "182932.577500", "182934.067500", "182935.557500", "182937.047500", "182938.537500", "182940.027500", "182941.517500", "182943.007500", "182944.497500", "182945.987500", "182947.477500", "182948.967500", "182950.457500", "182951.947500", "182953.437500", "182954.927500", "182956.417500", "182957.907500", "182959.397500", "183000.887500", "183002.377500", "183003.867500", "183005.357500", "183006.847500", "183008.337500", "183009.827500", "183011.317500", "183012.807500", "183014.297500", "183015.787500", "183017.277500", "183018.767500", "183020.257500", "183021.747500", "183023.237500", "183024.727500", "183026.217500", "183027.707500", "183029.197500", "183030.687500", "183032.177500", "183033.667500", "183035.157500", "183036.647500", "183038.137500", "183039.627500", "183041.117500", "183042.607500", "183044.097500", "183045.587500", "183047.077500", "183048.567500", "183050.057500", "183051.547500", "183053.037500", "183054.527500", "183056.017500", "183057.507500", "183058.997500", "183100.487500", "183101.977500", "183103.467500", "183104.957500", "183106.447500", "183107.937500", "183109.427500", "183110.917500", "183112.407500", "183113.897500", "183115.387500", "183116.877500", "183118.367500", "183119.857500", "183121.347500", "183122.837500", "183124.327500", "183125.817500", "183127.307500", "183128.797500", "183130.287500", "183131.777500", "183133.267500", "183134.757500", "183136.247500", "183137.737500", "183139.227500", "183140.717500", "183142.207500", "183143.697500", "183145.187500", "183146.677500", "183148.167500", "183149.657500"],
      "ContentTime": ["182819.313000", "182819.316000", "182819.319000", "182819.321000", "182819.323000", "182819.326000", "182819.328000", "182819.331000", "182819.333000", "182819.336000", "182819.338000", "182819.341000", "182819.343000", "182819.346000", "182819.348000", "182819.351000", "182839.306000", "182839.308000", "182839.311000", "182839.314000", "182839.316000", "182839.319000", "182839.321000", "182839.324000", "182839.326000", "182839.329000", "182839.331000", "182839.334000", "182839.337000", "182839.339000", "182839.347000", "182839.349000", "182839.352000", "182839.355000", "182839.357000", "182839.360000", "182859.303000", "182859.306000", "182859.309000", "182859.311000", "182859.314000", "182859.316000", "182859.318000", "182859.321000", "182859.323000", "182859.331000", "182859.333000", "182859.336000", "182859.338000", "182859.340000", "182859.343000", "182859.345000", "182859.348000", "182859.350000", "182859.353000", "182859.355000", "182859.358000", "182919.285000", "182919.288000", "182919.291000", "182919.294000", "182919.296000", "182919.299000", "182919.301000", "182919.304000", "182919.306000", "182919.308000", "182919.311000", "182919.313000", "182919.316000", "182919.319000", "182919.321000", "182919.324000", "182919.326000", "182919.329000", "182919.331000", "182919.334000", "182939.279000", "182939.282000", "182939.284000", "182939.287000", "182939.289000", "182939.292000", "182939.294000", "182939.296000", "182939.299000", "182939.301000", "182939.304000", "182939.306000", "182939.309000", "182939.311000", "182939.314000", "182939.316000", "182939.319000", "182939.321000", "182939.324000", "182939.326000", "183019.334000", "183019.337000", "183019.339000", "183019.342000", "183019.344000", "183019.347000", "183019.349000", "183019.352000", "183019.354000", "183019.357000", "183019.360000", "183019.362000", "183019.365000", "183019.367000", "183019.370000", "183019.372000", "183019.375000", "183019.378000", "183019.380000", "183019.383000", "183019.385000", "183019.388000", "183019.390000", "183019.393000", "183019.395000", "183019.403000", "183019.406000", "183019.408000", "183019.410000", "183019.413000", "183059.332000", "183059.334000", "183059.337000", "183059.340000", "183059.342000", "183059.345000", "183059.347000", "183059.349000", "183059.352000", "183059.354000", "183059.357000", "183059.359000", "183059.362000", "183059.384000", "183059.387000", "183059.390000", "183059.392000", "183059.395000", "183059.397000", "183059.400000", "183059.402000", "183059.405000", "183059.407000", "183059.409000", "183059.412000", "183059.415000", "183059.417000", "183139.305000", "183139.308000", "183139.310000", "183139.313000", "183139.315000", "183139.318000", "183139.320000", "183139.323000", "183139.326000", "183139.328000", "183139.331000", "183139.333000", "183139.336000", "183139.338000", "183139.341000", "183139.343000", "183139.346000", "183139.348000", "183139.351000", "183139.353000", "183139.356000", "183139.358000", "183139.361000", "183139.363000", "183139.366000", "183139.368000", "183139.371000", "183151.962000", "183151.965000", "183151.968000", "183151.970000", "183151.973000", "183151.975000", "183151.978000", "183151.980000", "183151.983000"],
      "InstanceCreationTime": ["182819.313000", "182819.316000", "182819.319000", "182819.321000", "182819.323000", "182819.326000", "182819.328000", "182819.331000", "182819.333000", "182819.336000", "182819.338000", "182819.341000", "182819.343000", "182819.346000", "182819.348000", "182819.351000", "182839.306000", "182839.308000", "182839.311000", "182839.314000", "182839.316000", "182839.319000", "182839.321000", "182839.324000", "182839.326000", "182839.329000", "182839.331000", "182839.334000", "182839.337000", "182839.339000", "182839.347000", "182839.349000", "182839.352000", "182839.355000", "182839.357000", "182839.360000", "182859.303000", "182859.306000", "182859.309000", "182859.311000", "182859.314000", "182859.316000", "182859.318000", "182859.321000", "182859.323000", "182859.331000", "182859.333000", "182859.336000", "182859.338000", "182859.340000", "182859.343000", "182859.345000", "182859.348000", "182859.350000", "182859.353000", "182859.355000", "182859.358000", "182919.285000", "182919.288000", "182919.291000", "182919.294000", "182919.296000", "182919.299000", "182919.301000", "182919.304000", "182919.306000", "182919.308000", "182919.311000", "182919.313000", "182919.316000", "182919.319000", "182919.321000", "182919.324000", "182919.326000", "182919.329000", "182919.331000", "182919.334000", "182939.279000", "182939.282000", "182939.284000", "182939.287000", "182939.289000", "182939.292000", "182939.294000", "182939.296000", "182939.299000", "182939.301000", "182939.304000", "182939.306000", "182939.309000", "182939.311000", "182939.314000", "182939.316000", "182939.319000", "182939.321000", "182939.324000", "182939.326000", "183019.334000", "183019.337000", "183019.339000", "183019.342000", "183019.344000", "183019.347000", "183019.349000", "183019.352000", "183019.354000", "183019.357000", "183019.360000", "183019.362000", "183019.365000", "183019.367000", "183019.370000", "183019.372000", "183019.375000", "183019.378000", "183019.380000", "183019.383000", "183019.385000", "183019.388000", "183019.390000", "183019.393000", "183019.395000", "183019.403000", "183019.406000", "183019.408000", "183019.410000", "183019.413000", "183059.332000", "183059.334000", "183059.337000", "183059.340000", "183059.342000", "183059.345000", "183059.347000", "183059.349000", "183059.352000", "183059.354000", "183059.357000", "183059.359000", "183059.362000", "183059.384000", "183059.387000", "183059.390000", "183059.392000", "183059.395000", "183059.397000", "183059.400000", "183059.402000", "183059.405000", "183059.407000", "183059.409000", "183059.412000", "183059.415000", "183059.417000", "183139.305000", "183139.308000", "183139.310000", "183139.313000", "183139.315000", "183139.318000", "183139.320000", "183139.323000", "183139.326000", "183139.328000", "183139.331000", "183139.333000", "183139.336000", "183139.338000", "183139.341000", "183139.343000", "183139.346000", "183139.348000", "183139.351000", "183139.353000", "183139.356000", "183139.358000", "183139.361000", "183139.363000", "183139.366000", "183139.368000", "183139.371000", "183151.962000", "183151.965000", "183151.968000", "183151.970000", "183151.973000", "183151.975000", "183151.978000", "183151.980000", "183151.983000"],
      "InstanceNumber": [1, 2, 3, 4, 5, 6, 7, 8, 9, 10, 11, 12, 13, 14, 15, 16, 17, 18, 19, 20, 21, 22, 23, 24, 25, 26, 27, 28, 29, 30, 31, 32, 33, 34, 35, 36, 37, 38, 39, 40, 41, 42, 43, 44, 45, 46, 47, 48, 49, 50, 51, 52, 53, 54, 55, 56, 57, 58, 59, 60, 61, 62, 63, 64, 65, 66, 67, 68, 69, 70, 71, 72, 73, 74, 75, 76, 77, 78, 79, 80, 81, 82, 83, 84, 85, 86, 87, 88, 89, 90, 91, 92, 93, 94, 95, 96, 97, 98, 99, 100, 101, 102, 103, 104, 105, 106, 107, 108, 109, 110, 111, 112, 113, 114, 115, 116, 117, 118, 119, 120, 121, 122, 123, 124, 125, 126, 127, 128, 129, 130, 131, 132, 133, 134, 135, 136, 137, 138, 139, 140, 141, 142, 143, 144, 145, 146, 147, 148, 149, 150, 151, 152, 153, 154, 155, 156, 157, 158, 159, 160, 161, 162, 163, 164, 165, 166, 167, 168, 169, 170, 171, 172, 173, 174, 175, 176, 177, 178, 179, 180, 181, 182, 183, 184, 185, 186, 187, 188, 189, 190],
      "WindowCenter": [4850.0, 4844.0, 4850.0, 4850.0, 4848.0, 4852.0, 4848.0, 4852.0, 4850.0, 4850.0, 4852.0, 4850.0, 4844.0, 4848.0, 4850.0, 4858.0, 4854.0, 4856.0, 4848.0, 4854.0, 4850.0, 4850.0, 4850.0, 4852.0, 4848.0, 4848.0, 4846.0, 4846.0, 4848.0, 4846.0, 4850.0, 4852.0, 4850.0, 4848.0, 4848.0, 4848.0, 4850.0, 4850.0, 4850.0, 4824.0, 4820.0, 4820.0, 4820.0, 4822.0, 4822.0, 4848.0, 4848.0, 4826.0, 4848.0, 4850.0, 4850.0, 4876.0, 4848.0, 4850.0, 4848.0, 4846.0, 4850.0, 4876.0, 4852.0, 4846.0, 4840.0, 4840.0, 4848.0, 4854.0, 4826.0, 4826.0, 4852.0, 4852.0, 4848.0, 4846.0, 4844.0, 4848.0, 4852.0, 4846.0, 4848.0, 4848.0, 4850.0, 4850.0, 4846.0, 4848.0, 4848.0, 4846.0, 4846.0, 4846.0, 4850.0, 4848.0, 4846.0, 4848.0, 4848.0, 4848.0, 4848.0, 4846.0, 4852.0, 4846.0, 4846.0, 4848.0, 4848.0, 4850.0, 4846.0, 4846.0, 4848.0, 4846.0, 4850.0, 4844.0, 4848.0, 4848.0, 4846.0, 4822.0, 4822.0, 4844.0, 4846.0, 4824.0, 4848.0, 4846.0, 4848.0, 4848.0, 4846.0, 4824.0, 4846.0, 4846.0, 4848.0, 4824.0, 4824.0, 4848.0, 4848.0, 4822.0, 4826.0, 4846.0, 4848.0, 4870.0, 4846.0, 4850.0, 4822.0, 4850.0, 4826.0, 4822.0, 4848.0, 4872.0, 4848.0, 4848.0, 4850.0, 4846.0, 4846.0, 4818.0, 4844.0, 4846.0, 4818.0, 4822.0, 4848.0, 4848.0, 4824.0, 4822.0, 4822.0, 4822.0, 4846.0, 4824.0, 4822.0, 4820.0, 4848.0, 4822.0, 4822.0, 4824.0, 4844.0, 4824.0, 4820.0, 4844.0, 4822.0, 4822.0, 4846.0, 4822.0, 4822.0, 4824.0, 4820.0, 4822.0, 4848.0, 4850.0, 4822.0, 4820.0, 4822.0, 4846.0, 4822.0, 4822.0, 4844.0, 4848.0, 4844.0, 4820.0, 4824.0, 4822.0, 4844.0, 4818.0],
      "WindowWidth": [18618.0, 18610.0, 18622.0, 18624.0, 18628.0, 18628.0, 18624.0, 18626.0, 18620.0, 18620.0, 18628.0, 18640.0, 18636.0, 18640.0, 18636.0, 18628.0, 18628.0, 18634.0, 18632.0, 18634.0, 18626.0, 18628.0, 18626.0, 18628.0, 18626.0, 18628.0, 18630.0, 18618.0, 18624.0, 18618.0, 18624.0, 18626.0, 18626.0, 18624.0, 18622.0, 18628.0, 18634.0, 18622.0, 18620.0, 18588.0, 18586.0, 18582.0, 18584.0, 18586.0, 18594.0, 18634.0, 18622.0, 18594.0, 18618.0, 18618.0, 18626.0, 18662.0, 18632.0, 18624.0, 18622.0, 18618.0, 18624.0, 18662.0, 18626.0, 18638.0, 18638.0, 18638.0, 18630.0, 18630.0, 18598.0, 18590.0, 18626.0, 18632.0, 18634.0, 18636.0, 18636.0, 18638.0, 18636.0, 18626.0, 18624.0, 18622.0, 18622.0, 18626.0, 18624.0, 18624.0, 18628.0, 18632.0, 18626.0, 18626.0, 18628.0, 18626.0, 18626.0, 18620.0, 18624.0, 18624.0, 18622.0, 18626.0, 18628.0, 18622.0, 18626.0, 18622.0, 18626.0, 18624.0, 18620.0, 18618.0, 18626.0, 18620.0, 18630.0, 18620.0, 18628.0, 18626.0, 18620.0, 18588.0, 18590.0, 18620.0, 18618.0, 18588.0, 18620.0, 18624.0, 18630.0, 18620.0, 18618.0, 18588.0, 18622.0, 18628.0, 18628.0, 18590.0, 18590.0, 18624.0, 18622.0, 18584.0, 18588.0, 18616.0, 18630.0, 18672.0, 18636.0, 18620.0, 18596.0, 18622.0, 18592.0, 18590.0, 18626.0, 18664.0, 18628.0, 18632.0, 18622.0, 18618.0, 18618.0, 18586.0, 18616.0, 18618.0, 18588.0, 18592.0, 18624.0, 18628.0, 18588.0, 18588.0, 18584.0, 18586.0, 18622.0, 18592.0, 18590.0, 18590.0, 18626.0, 18588.0, 18590.0, 18592.0, 18614.0, 18586.0, 18590.0, 18620.0, 18588.0, 18588.0, 18626.0, 18586.0, 18582.0, 18590.0, 18590.0, 18584.0, 18626.0, 18628.0, 18584.0, 18584.0, 18584.0, 18620.0, 18590.0, 18586.0, 18618.0, 18620.0, 18620.0, 18594.0, 18594.0, 18586.0, 18616.0, 18582.0]
    },
    "slices": {}
  }
}