{
  "AcquisitionMatrixPE": 104,
  "AcquisitionNumber": 1,
  "AcquisitionTime": "17:50:42.352500",
  "BandwidthPerPixelPhaseEncode": 17.17,
  "BaseResolution": 104,
  "BodyPartExamined": "BRAIN",
  "CoilString": "HC1-7;NC1_2",
  "ConsistencyInfo": "N4_VE11C_LATEST_20160120",
  "ConversionSoftware": "dcm2niix",
  "ConversionSoftwareVersion": "v1.0.20190902",
  "DerivedVendorReportedEchoSpacing": 0.000560011,
  "DeviceSerialNumber": "167006",
  "DwellTime": 2.1e-06,
  "EchoTime": 0.037,
  "EchoTrainLength": 104,
  "EffectiveEchoSpacing": 0.000560011,
  "FlipAngle": 52,
  "ImageComments": "Unaliased_MB4_PE3_LB",
  "ImageOrientationPatientDICOM": [0.997334, 0.0495734, 0.0535494, -0.0271613, 0.933281, -0.358119],
  "ImageType": [
    "ORIGINAL",
    "PRIMARY",
    "P",
    "MB",
    "ND",
    "MOSAIC"
],
  "ImagingFrequency": 123.259,
  "InPlanePhaseEncodingDirectionDICOM": "COL",
  "InstitutionAddress": "Chemin_Queen-Mary_4565_Montreal_District_CA_H3W_1W5",
  "InstitutionName": "IUGM",
  "InstitutionalDepartmentName": "Department",
  "MRAcquisitionType": "2D",
  "MagneticFieldStrength": 3,
  "Manufacturer": "Siemens",
  "ManufacturersModelName": "Prisma_fit",
  "Modality": "MR",
  "MultibandAccelerationFactor": 4,
  "PartialFourier": 1,
  "PatientPosition": "HFS",
  "PercentPhaseFOV": 100,
  "PhaseEncodingDirection": "j",
  "PhaseEncodingSteps": 104,
  "PhaseResolution": 1,
  "PixelBandwidth": 2290,
  "ProcedureStepDescription": "memory_things",
  "ProtocolName": "func_task-things_run-1",
  "PulseSequenceDetails": "%CustomerSeq%_cmrr_mbep2d_bold",
  "ReceiveCoilActiveElements": "HC1-7;NC1,2",
  "ReceiveCoilName": "HeadNeck_64",
  "ReconMatrixPE": 104,
  "RepetitionTime": 1.49,
  "SAR": 0.0574449,
  "ScanOptions": "FS",
  "ScanningSequence": "EP",
  "SequenceName": "epfid2d1_104",
  "SequenceVariant": "SK_SS",
  "SeriesDescription": "func_task-things_run-1",
  "SeriesNumber": 11,
  "ShimSetting": [630, -7192, -8825, 674, 73, -3, -15, -14],
  "SliceThickness": 2,
  "SliceTiming": [0, 0.7825, 0.0975, 0.88, 0.195, 0.98, 0.2925, 1.0775, 0.39, 1.175, 0.49, 1.2725, 0.5875, 1.37, 0.685, 0, 0.7825, 0.0975, 0.88, 0.195, 0.98, 0.2925, 1.0775, 0.39, 1.175, 0.49, 1.2725, 0.5875, 1.37, 0.685, 0, 0.7825, 0.0975, 0.88, 0.195, 0.98, 0.2925, 1.0775, 0.39, 1.175, 0.49, 1.2725, 0.5875, 1.37, 0.685, 0, 0.7825, 0.0975, 0.88, 0.195, 0.98, 0.2925, 1.0775, 0.39, 1.175, 0.49, 1.2725, 0.5875, 1.37, 0.685],
  "SoftwareVersions": "syngo_MR_E11",
  "SpacingBetweenSlices": 2,
  "StationName": "MRC35049",
  "TaskName": "things",
  "TotalReadoutTime": 0.0576811,
  "TxRefAmp": 292.797,
  "WipMemBlock": "4d866128-e017-49fd-9dc9-173b40276d7c||Sequence: R016 ve11c/master r/e634e98; Dec 19 2017 11:00:25 by eja",
  "dcmmeta_affine": [
    [-1.994667887687683, -0.05432254821062088, 0.1354595124721527, 106.73898315429688],
    [-0.099146768450737, 1.866561770439148, -0.7114190459251404, -54.0562744140625],
    [0.10709872096776962, 0.7162375450134277, 1.8642783164978027, -71.10667419433594],
    [0.0, 0.0, 0.0, 1.0]
],
  "dcmmeta_reorient_transform": [
    [0.0, -1.0, 0.0, 103.0],
    [1.0, 0.0, 0.0, 0.0],
    [0.0, 0.0, 1.0, 0.0],
    [0.0, 0.0, 0.0, 1.0]
],
  "dcmmeta_shape": [104, 104, 60, 190],
  "dcmmeta_slice_dim": 2,
  "dcmmeta_version": 0.6,
  "global": {
    "const": {
      "AcquisitionMatrix": [104, 0, 0, 104],
      "AngioFlag": "N",
      "BitsAllocated": 16,
      "BitsStored": 16,
      "BodyPartExamined": "BRAIN",
      "Columns": 832,
      "EchoNumbers": 1,
      "EchoTime": 37.0,
      "EchoTrainLength": 104,
      "FlipAngle": 52.0,
      "HighBit": 15,
      "ImageOrientationPatient": [0.99733391888954, 0.04957338270694, 0.05354936002823, -0.0271612745477, 0.93328089005576, -0.358118758824],
      "ImagePositionPatient": [-807.42944683116, -853.71750106284, 224.39230986647],
      "ImageType": [
        "ORIGINAL",
        "PRIMARY",
        "P",
        "MB",
        "ND",
        "MOSAIC"
],
      "ImagedNucleus": "1H",
      "ImagingFrequency": 123.259092,
      "InPlanePhaseEncodingDirection": "COL",
      "LargestImagePixelValue": 4095,
      "MRAcquisitionType": "2D",
      "MagneticFieldStrength": 3.0,
      "Manufacturer": "SIEMENS",
      "ManufacturerModelName": "Prisma_fit",
      "Modality": "MR",
      "NumberOfAverages": 1.0,
      "NumberOfPhaseEncodingSteps": 104,
      "PercentPhaseFieldOfView": 100.0,
      "PercentSampling": 100.0,
      "PerformedProcedureStepStartTime": "174709.634000",
      "PhotometricInterpretation": "MONOCHROME2",
      "PixelBandwidth": 2290.0,
      "PixelRepresentation": 0,
      "PixelSpacing": [2.0, 2.0],
      "ProtocolName": "func_task-things_run-1",
      "RepetitionTime": 1490.0,
      "RescaleIntercept": -4096.0,
      "RescaleSlope": 2.0,
      "RescaleType": "US",
      "Rows": 832,
      "SAR": 0.05744491274238,
      "SamplesPerPixel": 1,
      "ScanOptions": "FS",
      "ScanningSequence": "EP",
      "SequenceName": "epfid2d1_104",
      "SequenceVariant": [
        "SK",
        "SS"
],
      "SeriesDescription": "func_task-things_run-1",
      "SeriesNumber": 11,
      "SeriesTime": "175206.113000",
      "SliceLocation": -39.823582546945,
      "SliceThickness": 2.0,
      "SmallestImagePixelValue": 0,
      "SoftwareVersions": "syngo MR E11",
      "SpacingBetweenSlices": 2.0000000343001,
      "SpecificCharacterSet": "ISO_IR 100",
      "StudyID": "1",
      "StudyTime": "174709.478000",
      "TransmitCoilName": "Body",
      "VariableFlipAngleFlag": "N",
      "WindowCenterWidthExplanation": "Algo1",
      "dBdt": 0.0},
    "slices": {}
  },
  "time": {
    "samples": {
      "AcquisitionNumber": [1, 2, 3, 4, 5, 6, 7, 8, 9, 10, 11, 12, 13, 14, 15, 16, 17, 18, 19, 20, 21, 22, 23, 24, 25, 26, 27, 28, 29, 30, 31, 32, 33, 34, 35, 36, 37, 38, 39, 40, 41, 42, 43, 44, 45, 46, 47, 48, 49, 50, 51, 52, 53, 54, 55, 56, 57, 58, 59, 60, 61, 62, 63, 64, 65, 66, 67, 68, 69, 70, 71, 72, 73, 74, 75, 76, 77, 78, 79, 80, 81, 82, 83, 84, 85, 86, 87, 88, 89, 90, 91, 92, 93, 94, 95, 96, 97, 98, 99, 100, 101, 102, 103, 104, 105, 106, 107, 108, 109, 110, 111, 112, 113, 114, 115, 116, 117, 118, 119, 120, 121, 122, 123, 124, 125, 126, 127, 128, 129, 130, 131, 132, 133, 134, 135, 136, 137, 138, 139, 140, 141, 142, 143, 144, 145, 146, 147, 148, 149, 150, 151, 152, 153, 154, 155, 156, 157, 158, 159, 160, 161, 162, 163, 164, 165, 166, 167, 168, 169, 170, 171, 172, 173, 174, 175, 176, 177, 178, 179, 180, 181, 182, 183, 184, 185, 186, 187, 188, 189, 190],
      "AcquisitionTime": ["175042.352500", "175043.842500", "175045.332500", "175046.822500", "175048.312500", "175049.802500", "175051.292500", "175052.782500", "175054.272500", "175055.762500", "175057.252500", "175058.742500", "175100.232500", "175101.722500", "175103.212500", "175104.702500", "175106.192500", "175107.682500", "175109.172500", "175110.662500", "175112.152500", "175113.642500", "175115.132500", "175116.622500", "175118.112500", "175119.602500", "175121.092500", "175122.582500", "175124.072500", "175125.562500", "175127.052500", "175128.542500", "175130.032500", "175131.522500", "175133.012500", "175134.502500", "175135.992500", "175137.482500", "175138.972500", "175140.462500", "175141.952500", "175143.442500", "175144.932500", "175146.422500", "175147.912500", "175149.402500", "175150.892500", "175152.382500", "175153.872500", "175155.362500", "175156.852500", "175158.342500", "175159.832500", "175201.322500", "175202.812500", "175204.302500", "175205.792500", "175207.282500", "175208.772500", "175210.262500", "175211.752500", "175213.242500", "175214.732500", "175216.222500", "175217.712500", "175219.202500", "175220.692500", "175222.182500", "175223.672500", "175225.162500", "175226.652500", "175228.142500", "175229.632500", "175231.122500", "175232.612500", "175234.102500", "175235.592500", "175237.082500", "175238.572500", "175240.062500", "175241.552500", "175243.042500", "175244.532500", "175246.022500", "175247.512500", "175249.002500", "175250.492500", "175251.982500", "175253.472500", "175254.962500", "175256.452500", "175257.942500", "175259.432500", "175300.922500", "175302.412500", "175303.902500", "175305.392500", "175306.882500", "175308.372500", "175309.862500", "175311.352500", "175312.842500", "175314.332500", "175315.822500", "175317.312500", "175318.802500", "175320.292500", "175321.782500", "175323.272500", "175324.762500", "175326.252500", "175327.742500", "175329.232500", "175330.722500", "175332.212500", "175333.702500", "175335.192500", "175336.682500", "175338.172500", "175339.662500", "175341.152500", "175342.642500", "175344.132500", "175345.622500", "175347.112500", "175348.602500", "175350.092500", "175351.582500", "175353.072500", "175354.562500", "175356.052500", "175357.542500", "175359.032500", "175400.522500", "175402.012500", "175403.502500", "175404.992500", "175406.482500", "175407.972500", "175409.462500", "175410.952500", "175412.442500", "175413.932500", "175415.422500", "175416.912500", "175418.402500", "175419.892500", "175421.382500", "175422.872500", "175424.362500", "175425.852500", "175427.342500", "175428.832500", "175430.322500", "175431.812500", "175433.302500", "175434.792500", "175436.282500", "175437.772500", "175439.262500", "175440.752500", "175442.242500", "175443.732500", "175445.222500", "175446.712500", "175448.202500", "175449.692500", "175451.182500", "175452.672500", "175454.162500", "175455.652500", "175457.142500", "175458.632500", "175500.122500", "175501.612500", "175503.102500", "175504.592500", "175506.082500", "175507.572500", "175509.062500", "175510.552500", "175512.042500", "175513.532500", "175515.022500", "175516.512500", "175518.002500", "175519.492500", "175520.982500", "175522.472500", "175523.962500"],
      "ContentTime": ["175206.115000", "175206.117000", "175206.120000", "175206.122000", "175206.125000", "175206.127000", "175206.130000", "175206.132000", "175206.135000", "175206.137000", "175206.140000", "175206.142000", "175206.145000", "175206.147000", "175206.150000", "175206.152000", "175206.155000", "175206.157000", "175206.208000", "175206.211000", "175206.213000", "175206.215000", "175206.218000", "175206.220000", "175206.235000", "175206.237000", "175206.240000", "175206.242000", "175206.244000", "175206.247000", "175226.016000", "175226.018000", "175226.021000", "175226.023000", "175226.026000", "175226.028000", "175226.031000", "175226.033000", "175226.036000", "175226.038000", "175226.041000", "175226.043000", "175226.046000", "175226.048000", "175226.051000", "175226.053000", "175226.056000", "175226.058000", "175226.061000", "175226.067000", "175246.003000", "175246.006000", "175246.008000", "175246.011000", "175246.013000", "175246.016000", "175246.018000", "175246.021000", "175246.023000", "175246.026000", "175246.028000", "175246.031000", "175246.033000", "175246.036000", "175246.038000", "175246.041000", "175246.043000", "175246.046000", "175246.048000", "175246.051000", "175246.053000", "175306.002000", "175306.005000", "175306.007000", "175306.010000", "175306.012000", "175306.015000", "175306.017000", "175306.020000", "175306.022000", "175306.025000", "175306.027000", "175306.030000", "175306.032000", "175306.035000", "175306.037000", "175306.040000", "175306.042000", "175306.045000", "175306.047000", "175306.050000", "175346.049000", "175346.052000", "175346.054000", "175346.057000", "175346.060000", "175346.062000", "175346.065000", "175346.067000", "175346.070000", "175346.072000", "175346.075000", "175346.077000", "175346.080000", "175346.082000", "175346.085000", "175346.087000", "175346.090000", "175346.092000", "175346.095000", "175346.097000", "175346.100000", "175346.102000", "175346.105000", "175346.107000", "175346.110000", "175346.112000", "175346.115000", "175346.117000", "175346.120000", "175346.122000", "175346.125000", "175426.045000", "175426.048000", "175426.050000", "175426.053000", "175426.055000", "175426.058000", "175426.060000", "175426.063000", "175426.065000", "175426.068000", "175426.070000", "175426.073000", "175426.075000", "175426.078000", "175426.080000", "175426.083000", "175426.085000", "175426.088000", "175426.090000", "175426.093000", "175426.095000", "175426.098000", "175426.100000", "175426.103000", "175426.106000", "175426.108000", "175426.110000", "175506.037000", "175506.039000", "175506.042000", "175506.045000", "175506.047000", "175506.050000", "175506.052000", "175506.055000", "175506.057000", "175506.060000", "175506.062000", "175506.065000", "175506.067000", "175506.070000", "175506.072000", "175506.075000", "175506.077000", "175506.080000", "175506.082000", "175506.085000", "175506.087000", "175506.090000", "175506.092000", "175506.095000", "175506.097000", "175506.100000", "175506.102000", "175526.126000", "175526.129000", "175526.131000", "175526.134000", "175526.136000", "175526.139000", "175526.141000", "175526.144000", "175526.147000", "175526.149000", "175526.152000", "175526.154000", "175526.157000", "175526.192000"],
      "InstanceCreationTime": ["175206.115000", "175206.117000", "175206.120000", "175206.122000", "175206.125000", "175206.127000", "175206.130000", "175206.132000", "175206.135000", "175206.137000", "175206.140000", "175206.142000", "175206.145000", "175206.147000", "175206.150000", "175206.152000", "175206.155000", "175206.157000", "175206.208000", "175206.211000", "175206.213000", "175206.215000", "175206.218000", "175206.220000", "175206.235000", "175206.237000", "175206.240000", "175206.242000", "175206.244000", "175206.247000", "175226.016000", "175226.018000", "175226.021000", "175226.023000", "175226.026000", "175226.028000", "175226.031000", "175226.033000", "175226.036000", "175226.038000", "175226.041000", "175226.043000", "175226.046000", "175226.048000", "175226.051000", "175226.053000", "175226.056000", "175226.058000", "175226.061000", "175226.067000", "175246.003000", "175246.006000", "175246.008000", "175246.011000", "175246.013000", "175246.016000", "175246.018000", "175246.021000", "175246.023000", "175246.026000", "175246.028000", "175246.031000", "175246.033000", "175246.036000", "175246.038000", "175246.041000", "175246.043000", "175246.046000", "175246.048000", "175246.051000", "175246.053000", "175306.002000", "175306.005000", "175306.007000", "175306.010000", "175306.012000", "175306.015000", "175306.017000", "175306.020000", "175306.022000", "175306.025000", "175306.027000", "175306.030000", "175306.032000", "175306.035000", "175306.037000", "175306.040000", "175306.042000", "175306.045000", "175306.047000", "175306.050000", "175346.049000", "175346.052000", "175346.054000", "175346.057000", "175346.060000", "175346.062000", "175346.065000", "175346.067000", "175346.070000", "175346.072000", "175346.075000", "175346.077000", "175346.080000", "175346.082000", "175346.085000", "175346.087000", "175346.090000", "175346.092000", "175346.095000", "175346.097000", "175346.100000", "175346.102000", "175346.105000", "175346.107000", "175346.110000", "175346.112000", "175346.115000", "175346.117000", "175346.120000", "175346.122000", "175346.125000", "175426.045000", "175426.048000", "175426.050000", "175426.053000", "175426.055000", "175426.058000", "175426.060000", "175426.063000", "175426.065000", "175426.068000", "175426.070000", "175426.073000", "175426.075000", "175426.078000", "175426.080000", "175426.083000", "175426.085000", "175426.088000", "175426.090000", "175426.093000", "175426.095000", "175426.098000", "175426.100000", "175426.103000", "175426.106000", "175426.108000", "175426.110000", "175506.037000", "175506.039000", "175506.042000", "175506.045000", "175506.047000", "175506.050000", "175506.052000", "175506.055000", "175506.057000", "175506.060000", "175506.062000", "175506.065000", "175506.067000", "175506.070000", "175506.072000", "175506.075000", "175506.077000", "175506.080000", "175506.082000", "175506.085000", "175506.087000", "175506.090000", "175506.092000", "175506.095000", "175506.097000", "175506.100000", "175506.102000", "175526.126000", "175526.129000", "175526.131000", "175526.134000", "175526.136000", "175526.139000", "175526.141000", "175526.144000", "175526.147000", "175526.149000", "175526.152000", "175526.154000", "175526.157000", "175526.192000"],
      "InstanceNumber": [1, 2, 3, 4, 5, 6, 7, 8, 9, 10, 11, 12, 13, 14, 15, 16, 17, 18, 19, 20, 21, 22, 23, 24, 25, 26, 27, 28, 29, 30, 31, 32, 33, 34, 35, 36, 37, 38, 39, 40, 41, 42, 43, 44, 45, 46, 47, 48, 49, 50, 51, 52, 53, 54, 55, 56, 57, 58, 59, 60, 61, 62, 63, 64, 65, 66, 67, 68, 69, 70, 71, 72, 73, 74, 75, 76, 77, 78, 79, 80, 81, 82, 83, 84, 85, 86, 87, 88, 89, 90, 91, 92, 93, 94, 95, 96, 97, 98, 99, 100, 101, 102, 103, 104, 105, 106, 107, 108, 109, 110, 111, 112, 113, 114, 115, 116, 117, 118, 119, 120, 121, 122, 123, 124, 125, 126, 127, 128, 129, 130, 131, 132, 133, 134, 135, 136, 137, 138, 139, 140, 141, 142, 143, 144, 145, 146, 147, 148, 149, 150, 151, 152, 153, 154, 155, 156, 157, 158, 159, 160, 161, 162, 163, 164, 165, 166, 167, 168, 169, 170, 171, 172, 173, 174, 175, 176, 177, 178, 179, 180, 181, 182, 183, 184, 185, 186, 187, 188, 189, 190],
      "WindowCenter": [4820.0, 4818.0, 4822.0, 4820.0, 4822.0, 4824.0, 4820.0, 4824.0, 4822.0, 4824.0, 4816.0, 4816.0, 4818.0, 4822.0, 4818.0, 4820.0, 4820.0, 4818.0, 4818.0, 4820.0, 4818.0, 4818.0, 4816.0, 4816.0, 4818.0, 4820.0, 4820.0, 4816.0, 4818.0, 4818.0, 4824.0, 4818.0, 4816.0, 4818.0, 4818.0, 4816.0, 4816.0, 4788.0, 4816.0, 4816.0, 4818.0, 4816.0, 4820.0, 4812.0, 4816.0, 4818.0, 4814.0, 4816.0, 4814.0, 4792.0, 4812.0, 4816.0, 4810.0, 4812.0, 4794.0, 4790.0, 4792.0, 4792.0, 4792.0, 4814.0, 4814.0, 4814.0, 4816.0, 4818.0, 4816.0, 4812.0, 4818.0, 4818.0, 4814.0, 4816.0, 4816.0, 4814.0, 4814.0, 4816.0, 4816.0, 4792.0, 4794.0, 4816.0, 4794.0, 4816.0, 4814.0, 4818.0, 4814.0, 4816.0, 4816.0, 4840.0, 4820.0, 4818.0, 4816.0, 4816.0, 4818.0, 4844.0, 4846.0, 4846.0, 4822.0, 4816.0, 4814.0, 4814.0, 4818.0, 4822.0, 4846.0, 4846.0, 4824.0, 4820.0, 4822.0, 4844.0, 4820.0, 4820.0, 4816.0, 4816.0, 4792.0, 4818.0, 4816.0, 4820.0, 4816.0, 4816.0, 4792.0, 4790.0, 4790.0, 4792.0, 4792.0, 4794.0, 4816.0, 4818.0, 4812.0, 4818.0, 4816.0, 4816.0, 4816.0, 4816.0, 4814.0, 4816.0, 4816.0, 4816.0, 4818.0, 4816.0, 4816.0, 4812.0, 4814.0, 4814.0, 4818.0, 4814.0, 4816.0, 4818.0, 4820.0, 4814.0, 4818.0, 4814.0, 4816.0, 4816.0, 4816.0, 4816.0, 4816.0, 4818.0, 4816.0, 4816.0, 4814.0, 4816.0, 4816.0, 4816.0, 4814.0, 4818.0, 4816.0, 4816.0, 4820.0, 4818.0, 4814.0, 4816.0, 4818.0, 4818.0, 4818.0, 4814.0, 4816.0, 4818.0, 4820.0, 4818.0, 4818.0, 4816.0, 4816.0, 4792.0, 4818.0, 4816.0, 4818.0, 4816.0, 4816.0, 4816.0, 4814.0, 4816.0, 4814.0, 4818.0],
      "WindowWidth": [18584.0, 18586.0, 18584.0, 18586.0, 18592.0, 18584.0, 18586.0, 18592.0, 18582.0, 18588.0, 18580.0, 18582.0, 18584.0, 18588.0, 18578.0, 18586.0, 18586.0, 18584.0, 18584.0, 18590.0, 18582.0, 18588.0, 18584.0, 18584.0, 18590.0, 18586.0, 18588.0, 18584.0, 18586.0, 18588.0, 18586.0, 18580.0, 18582.0, 18588.0, 18584.0, 18582.0, 18584.0, 18554.0, 18590.0, 18582.0, 18582.0, 18584.0, 18588.0, 18580.0, 18586.0, 18588.0, 18586.0, 18586.0, 18586.0, 18556.0, 18582.0, 18584.0, 18582.0, 18584.0, 18558.0, 18556.0, 18556.0, 18556.0, 18556.0, 18584.0, 18586.0, 18586.0, 18588.0, 18586.0, 18584.0, 18580.0, 18586.0, 18588.0, 18590.0, 18586.0, 18590.0, 18588.0, 18586.0, 18586.0, 18590.0, 18552.0, 18560.0, 18594.0, 18558.0, 18584.0, 18588.0, 18588.0, 18588.0, 18588.0, 18588.0, 18626.0, 18590.0, 18586.0, 18584.0, 18582.0, 18588.0, 18620.0, 18636.0, 18626.0, 18588.0, 18582.0, 18586.0, 18586.0, 18580.0, 18590.0, 18628.0, 18624.0, 18590.0, 18590.0, 18590.0, 18624.0, 18582.0, 18586.0, 18586.0, 18586.0, 18554.0, 18594.0, 18588.0, 18592.0, 18584.0, 18584.0, 18552.0, 18554.0, 18554.0, 18552.0, 18548.0, 18558.0, 18582.0, 18582.0, 18584.0, 18586.0, 18584.0, 18592.0, 18584.0, 18586.0, 18586.0, 18590.0, 18590.0, 18592.0, 18588.0, 18584.0, 18592.0, 18584.0, 18588.0, 18594.0, 18588.0, 18584.0, 18588.0, 18586.0, 18588.0, 18586.0, 18590.0, 18588.0, 18586.0, 18592.0, 18590.0, 18586.0, 18588.0, 18590.0, 18592.0, 18588.0, 18586.0, 18592.0, 18586.0, 18592.0, 18580.0, 18588.0, 18590.0, 18586.0, 18594.0, 18586.0, 18588.0, 18586.0, 18588.0, 18590.0, 18592.0, 18580.0, 18584.0, 18594.0, 18588.0, 18592.0, 18588.0, 18590.0, 18586.0, 18556.0, 18592.0, 18590.0, 18592.0, 18590.0, 18592.0, 18588.0, 18588.0, 18588.0, 18588.0, 18588.0]
    },
    "slices": {}
  }
}