{
  "AcquisitionMatrixPE": 104,
  "AcquisitionNumber": 1,
  "AcquisitionTime": "18:03:21.485000",
  "BandwidthPerPixelPhaseEncode": 17.17,
  "BaseResolution": 104,
  "BodyPartExamined": "BRAIN",
  "CoilString": "HC1-7;NC1_2",
  "ConsistencyInfo": "N4_VE11C_LATEST_20160120",
  "ConversionSoftware": "dcm2niix",
  "ConversionSoftwareVersion": "v1.0.20190902",
  "DerivedVendorReportedEchoSpacing": 0.000560011,
  "DeviceSerialNumber": "167006",
  "DwellTime": 2.1e-06,
  "EchoTime": 0.037,
  "EchoTrainLength": 104,
  "EffectiveEchoSpacing": 0.000560011,
  "FlipAngle": 52,
  "ImageComments": "Unaliased_MB4_PE3_LB",
  "ImageOrientationPatientDICOM": [0.997334, 0.0495734, 0.0535494, -0.0271613, 0.933281, -0.358119],
  "ImageType": [
    "ORIGINAL",
    "PRIMARY",
    "P",
    "MB",
    "ND",
    "MOSAIC"
],
  "ImagingFrequency": 123.259,
  "InPlanePhaseEncodingDirectionDICOM": "COL",
  "InstitutionAddress": "Chemin_Queen-Mary_4565_Montreal_District_CA_H3W_1W5",
  "InstitutionName": "IUGM",
  "InstitutionalDepartmentName": "Department",
  "MRAcquisitionType": "2D",
  "MagneticFieldStrength": 3,
  "Manufacturer": "Siemens",
  "ManufacturersModelName": "Prisma_fit",
  "Modality": "MR",
  "MultibandAccelerationFactor": 4,
  "PartialFourier": 1,
  "PatientPosition": "HFS",
  "PercentPhaseFOV": 100,
  "PhaseEncodingDirection": "j",
  "PhaseEncodingSteps": 104,
  "PhaseResolution": 1,
  "PixelBandwidth": 2290,
  "ProcedureStepDescription": "memory_things",
  "ProtocolName": "func_task-things_run-3",
  "PulseSequenceDetails": "%CustomerSeq%_cmrr_mbep2d_bold",
  "ReceiveCoilActiveElements": "HC1-7;NC1,2",
  "ReceiveCoilName": "HeadNeck_64",
  "ReconMatrixPE": 104,
  "RepetitionTime": 1.49,
  "SAR": 0.0574449,
  "ScanOptions": "FS",
  "ScanningSequence": "EP",
  "SequenceName": "epfid2d1_104",
  "SequenceVariant": "SK_SS",
  "SeriesDescription": "func_task-things_run-3",
  "SeriesNumber": 17,
  "ShimSetting": [630, -7192, -8825, 674, 73, -3, -15, -14],
  "SliceThickness": 2,
  "SliceTiming": [0, 0.7825, 0.0975, 0.8825, 0.195, 0.98, 0.2925, 1.0775, 0.3925, 1.175, 0.49, 1.2725, 0.5875, 1.3725, 0.685, 0, 0.7825, 0.0975, 0.8825, 0.195, 0.98, 0.2925, 1.0775, 0.3925, 1.175, 0.49, 1.2725, 0.5875, 1.3725, 0.685, 0, 0.7825, 0.0975, 0.8825, 0.195, 0.98, 0.2925, 1.0775, 0.3925, 1.175, 0.49, 1.2725, 0.5875, 1.3725, 0.685, 0, 0.7825, 0.0975, 0.8825, 0.195, 0.98, 0.2925, 1.0775, 0.3925, 1.175, 0.49, 1.2725, 0.5875, 1.3725, 0.685],
  "SoftwareVersions": "syngo_MR_E11",
  "SpacingBetweenSlices": 2,
  "StationName": "MRC35049",
  "TaskName": "things",
  "TotalReadoutTime": 0.0576811,
  "TxRefAmp": 292.797,
  "WipMemBlock": "04b3d52c-b2f3-40f7-ba62-86741759b974||Sequence: R016 ve11c/master r/e634e98; Dec 19 2017 11:00:25 by eja",
  "dcmmeta_affine": [
    [-1.994667887687683, -0.05432254821062088, 0.1354595124721527, 106.73898315429688],
    [-0.099146768450737, 1.866561770439148, -0.7114190459251404, -54.0562744140625],
    [0.10709872096776962, 0.7162375450134277, 1.8642783164978027, -71.10667419433594],
    [0.0, 0.0, 0.0, 1.0]
],
  "dcmmeta_reorient_transform": [
    [0.0, -1.0, 0.0, 103.0],
    [1.0, 0.0, 0.0, 0.0],
    [0.0, 0.0, 1.0, 0.0],
    [0.0, 0.0, 0.0, 1.0]
],
  "dcmmeta_shape": [104, 104, 60, 190],
  "dcmmeta_slice_dim": 2,
  "dcmmeta_version": 0.6,
  "global": {
    "const": {
      "AcquisitionMatrix": [104, 0, 0, 104],
      "AngioFlag": "N",
      "BitsAllocated": 16,
      "BitsStored": 16,
      "BodyPartExamined": "BRAIN",
      "Columns": 832,
      "EchoNumbers": 1,
      "EchoTime": 37.0,
      "EchoTrainLength": 104,
      "FlipAngle": 52.0,
      "HighBit": 15,
      "ImageOrientationPatient": [0.99733391888954, 0.04957338270694, 0.05354936002823, -0.0271612745477, 0.93328089005576, -0.358118758824],
      "ImagePositionPatient": [-807.42944683116, -853.71750106284, 224.39230986647],
      "ImageType": [
        "ORIGINAL",
        "PRIMARY",
        "P",
        "MB",
        "ND",
        "MOSAIC"
],
      "ImagedNucleus": "1H",
      "ImagingFrequency": 123.2591,
      "InPlanePhaseEncodingDirection": "COL",
      "LargestImagePixelValue": 4095,
      "MRAcquisitionType": "2D",
      "MagneticFieldStrength": 3.0,
      "Manufacturer": "SIEMENS",
      "ManufacturerModelName": "Prisma_fit",
      "Modality": "MR",
      "NumberOfAverages": 1.0,
      "NumberOfPhaseEncodingSteps": 104,
      "PercentPhaseFieldOfView": 100.0,
      "PercentSampling": 100.0,
      "PerformedProcedureStepStartTime": "174709.634000",
      "PhotometricInterpretation": "MONOCHROME2",
      "PixelBandwidth": 2290.0,
      "PixelRepresentation": 0,
      "PixelSpacing": [2.0, 2.0],
      "ProtocolName": "func_task-things_run-3",
      "RepetitionTime": 1490.0,
      "RescaleIntercept": -4096.0,
      "RescaleSlope": 2.0,
      "RescaleType": "US",
      "Rows": 832,
      "SAR": 0.05744491274238,
      "SamplesPerPixel": 1,
      "ScanOptions": "FS",
      "ScanningSequence": "EP",
      "SequenceName": "epfid2d1_104",
      "SequenceVariant": [
        "SK",
        "SS"
],
      "SeriesDescription": "func_task-things_run-3",
      "SeriesNumber": 17,
      "SeriesTime": "180439.322000",
      "SliceLocation": -39.823582546945,
      "SliceThickness": 2.0,
      "SmallestImagePixelValue": 0,
      "SoftwareVersions": "syngo MR E11",
      "SpacingBetweenSlices": 2.0000000343001,
      "SpecificCharacterSet": "ISO_IR 100",
      "StudyID": "1",
      "StudyTime": "174709.478000",
      "TransmitCoilName": "Body",
      "VariableFlipAngleFlag": "N",
      "WindowCenterWidthExplanation": "Algo1",
      "dBdt": 0.0},
    "slices": {}
  },
  "time": {
    "samples": {
      "AcquisitionNumber": [1, 2, 3, 4, 5, 6, 7, 8, 9, 10, 11, 12, 13, 14, 15, 16, 17, 18, 19, 20, 21, 22, 23, 24, 25, 26, 27, 28, 29, 30, 31, 32, 33, 34, 35, 36, 37, 38, 39, 40, 41, 42, 43, 44, 45, 46, 47, 48, 49, 50, 51, 52, 53, 54, 55, 56, 57, 58, 59, 60, 61, 62, 63, 64, 65, 66, 67, 68, 69, 70, 71, 72, 73, 74, 75, 76, 77, 78, 79, 80, 81, 82, 83, 84, 85, 86, 87, 88, 89, 90, 91, 92, 93, 94, 95, 96, 97, 98, 99, 100, 101, 102, 103, 104, 105, 106, 107, 108, 109, 110, 111, 112, 113, 114, 115, 116, 117, 118, 119, 120, 121, 122, 123, 124, 125, 126, 127, 128, 129, 130, 131, 132, 133, 134, 135, 136, 137, 138, 139, 140, 141, 142, 143, 144, 145, 146, 147, 148, 149, 150, 151, 152, 153, 154, 155, 156, 157, 158, 159, 160, 161, 162, 163, 164, 165, 166, 167, 168, 169, 170, 171, 172, 173, 174, 175, 176, 177, 178, 179, 180, 181, 182, 183, 184, 185, 186, 187, 188, 189, 190],
      "AcquisitionTime": ["180321.485000", "180322.975000", "180324.465000", "180325.955000", "180327.445000", "180328.935000", "180330.425000", "180331.915000", "180333.405000", "180334.895000", "180336.385000", "180337.875000", "180339.365000", "180340.855000", "180342.345000", "180343.835000", "180345.325000", "180346.815000", "180348.305000", "180349.795000", "180351.285000", "180352.775000", "180354.265000", "180355.755000", "180357.245000", "180358.735000", "180400.225000", "180401.715000", "180403.205000", "180404.695000", "180406.185000", "180407.675000", "180409.165000", "180410.655000", "180412.145000", "180413.635000", "180415.125000", "180416.615000", "180418.105000", "180419.595000", "180421.085000", "180422.575000", "180424.065000", "180425.555000", "180427.045000", "180428.535000", "180430.025000", "180431.515000", "180433.005000", "180434.495000", "180435.985000", "180437.475000", "180438.965000", "180440.455000", "180441.945000", "180443.435000", "180444.925000", "180446.415000", "180447.905000", "180449.395000", "180450.885000", "180452.375000", "180453.865000", "180455.355000", "180456.845000", "180458.335000", "180459.825000", "180501.315000", "180502.805000", "180504.295000", "180505.785000", "180507.275000", "180508.765000", "180510.255000", "180511.745000", "180513.235000", "180514.725000", "180516.215000", "180517.705000", "180519.195000", "180520.685000", "180522.175000", "180523.665000", "180525.155000", "180526.645000", "180528.135000", "180529.625000", "180531.115000", "180532.605000", "180534.095000", "180535.585000", "180537.075000", "180538.565000", "180540.055000", "180541.545000", "180543.035000", "180544.525000", "180546.015000", "180547.505000", "180548.995000", "180550.485000", "180551.975000", "180553.465000", "180554.955000", "180556.445000", "180557.935000", "180559.425000", "180600.915000", "180602.405000", "180603.895000", "180605.385000", "180606.875000", "180608.365000", "180609.855000", "180611.345000", "180612.835000", "180614.325000", "180615.815000", "180617.305000", "180618.795000", "180620.285000", "180621.775000", "180623.265000", "180624.755000", "180626.245000", "180627.735000", "180629.225000", "180630.715000", "180632.205000", "180633.695000", "180635.185000", "180636.675000", "180638.165000", "180639.655000", "180641.145000", "180642.635000", "180644.125000", "180645.615000", "180647.105000", "180648.595000", "180650.085000", "180651.575000", "180653.065000", "180654.555000", "180656.045000", "180657.535000", "180659.025000", "180700.515000", "180702.005000", "180703.495000", "180704.985000", "180706.475000", "180707.965000", "180709.455000", "180710.945000", "180712.435000", "180713.925000", "180715.415000", "180716.905000", "180718.395000", "180719.885000", "180721.375000", "180722.865000", "180724.355000", "180725.845000", "180727.335000", "180728.825000", "180730.315000", "180731.805000", "180733.295000", "180734.785000", "180736.275000", "180737.765000", "180739.255000", "180740.745000", "180742.235000", "180743.725000", "180745.215000", "180746.705000", "180748.195000", "180749.685000", "180751.175000", "180752.665000", "180754.155000", "180755.645000", "180757.135000", "180758.625000", "180800.115000", "180801.605000", "180803.095000"],
      "ContentTime": ["180439.324000", "180439.327000", "180439.329000", "180439.332000", "180439.334000", "180439.337000", "180439.339000", "180439.342000", "180439.344000", "180439.347000", "180439.349000", "180439.352000", "180439.354000", "180439.357000", "180439.359000", "180439.362000", "180439.373000", "180439.375000", "180439.378000", "180439.380000", "180439.383000", "180439.385000", "180439.388000", "180459.283000", "180459.285000", "180459.288000", "180459.290000", "180459.293000", "180459.295000", "180459.298000", "180459.300000", "180459.302000", "180459.305000", "180459.307000", "180459.310000", "180459.312000", "180459.315000", "180459.317000", "180459.320000", "180459.329000", "180459.332000", "180459.334000", "180459.336000", "180519.287000", "180519.290000", "180519.292000", "180519.295000", "180519.297000", "180519.300000", "180519.302000", "180519.305000", "180519.308000", "180519.310000", "180519.313000", "180519.315000", "180519.318000", "180519.321000", "180519.324000", "180519.327000", "180519.330000", "180519.332000", "180519.349000", "180519.351000", "180539.292000", "180539.295000", "180539.297000", "180539.300000", "180539.302000", "180539.305000", "180539.307000", "180539.310000", "180539.312000", "180539.315000", "180539.317000", "180539.319000", "180539.322000", "180539.324000", "180539.327000", "180539.329000", "180539.332000", "180539.334000", "180539.337000", "180539.339000", "180539.342000", "180559.285000", "180559.288000", "180559.291000", "180559.293000", "180559.296000", "180559.298000", "180559.301000", "180559.303000", "180559.306000", "180559.308000", "180559.310000", "180559.313000", "180559.315000", "180559.318000", "180559.320000", "180559.323000", "180559.325000", "180559.328000", "180559.330000", "180559.333000", "180639.339000", "180639.341000", "180639.344000", "180639.346000", "180639.349000", "180639.351000", "180639.354000", "180639.356000", "180639.359000", "180639.361000", "180639.364000", "180639.366000", "180639.369000", "180639.371000", "180639.374000", "180639.376000", "180639.379000", "180639.381000", "180639.384000", "180639.386000", "180639.389000", "180639.391000", "180639.394000", "180639.396000", "180639.399000", "180639.401000", "180639.404000", "180639.406000", "180719.339000", "180719.342000", "180719.345000", "180719.347000", "180719.350000", "180719.352000", "180719.355000", "180719.357000", "180719.360000", "180719.362000", "180719.365000", "180719.367000", "180719.370000", "180719.372000", "180719.375000", "180719.377000", "180719.379000", "180719.382000", "180719.384000", "180719.387000", "180719.403000", "180719.405000", "180719.408000", "180719.410000", "180719.413000", "180719.415000", "180719.417000", "180759.307000", "180759.310000", "180759.313000", "180759.315000", "180759.318000", "180759.320000", "180759.323000", "180759.325000", "180759.327000", "180759.330000", "180759.332000", "180759.335000", "180759.337000", "180759.340000", "180759.342000", "180759.345000", "180759.347000", "180759.350000", "180759.352000", "180759.355000", "180759.357000", "180759.360000", "180759.362000", "180759.365000", "180759.367000", "180759.370000", "180759.372000", "180805.017000", "180805.019000", "180805.022000", "180805.024000"],
      "InstanceCreationTime": ["180439.324000", "180439.327000", "180439.329000", "180439.332000", "180439.334000", "180439.337000", "180439.339000", "180439.342000", "180439.344000", "180439.347000", "180439.349000", "180439.352000", "180439.354000", "180439.357000", "180439.359000", "180439.362000", "180439.373000", "180439.375000", "180439.378000", "180439.380000", "180439.383000", "180439.385000", "180439.388000", "180459.283000", "180459.285000", "180459.288000", "180459.290000", "180459.293000", "180459.295000", "180459.298000", "180459.300000", "180459.302000", "180459.305000", "180459.307000", "180459.310000", "180459.312000", "180459.315000", "180459.317000", "180459.320000", "180459.329000", "180459.332000", "180459.334000", "180459.336000", "180519.287000", "180519.290000", "180519.292000", "180519.295000", "180519.297000", "180519.300000", "180519.302000", "180519.305000", "180519.308000", "180519.310000", "180519.313000", "180519.315000", "180519.318000", "180519.321000", "180519.324000", "180519.327000", "180519.330000", "180519.332000", "180519.349000", "180519.351000", "180539.292000", "180539.295000", "180539.297000", "180539.300000", "180539.302000", "180539.305000", "180539.307000", "180539.310000", "180539.312000", "180539.315000", "180539.317000", "180539.319000", "180539.322000", "180539.324000", "180539.327000", "180539.329000", "180539.332000", "180539.334000", "180539.337000", "180539.339000", "180539.342000", "180559.285000", "180559.288000", "180559.291000", "180559.293000", "180559.296000", "180559.298000", "180559.301000", "180559.303000", "180559.306000", "180559.308000", "180559.310000", "180559.313000", "180559.315000", "180559.318000", "180559.320000", "180559.323000", "180559.325000", "180559.328000", "180559.330000", "180559.333000", "180639.339000", "180639.341000", "180639.344000", "180639.346000", "180639.349000", "180639.351000", "180639.354000", "180639.356000", "180639.359000", "180639.361000", "180639.364000", "180639.366000", "180639.369000", "180639.371000", "180639.374000", "180639.376000", "180639.379000", "180639.381000", "180639.384000", "180639.386000", "180639.389000", "180639.391000", "180639.394000", "180639.396000", "180639.399000", "180639.401000", "180639.404000", "180639.406000", "180719.339000", "180719.342000", "180719.345000", "180719.347000", "180719.350000", "180719.352000", "180719.355000", "180719.357000", "180719.360000", "180719.362000", "180719.365000", "180719.367000", "180719.370000", "180719.372000", "180719.375000", "180719.377000", "180719.379000", "180719.382000", "180719.384000", "180719.387000", "180719.403000", "180719.405000", "180719.408000", "180719.410000", "180719.413000", "180719.415000", "180719.417000", "180759.307000", "180759.310000", "180759.313000", "180759.315000", "180759.318000", "180759.320000", "180759.323000", "180759.325000", "180759.327000", "180759.330000", "180759.332000", "180759.335000", "180759.337000", "180759.340000", "180759.342000", "180759.345000", "180759.347000", "180759.350000", "180759.352000", "180759.355000", "180759.357000", "180759.360000", "180759.362000", "180759.365000", "180759.367000", "180759.370000", "180759.372000", "180805.017000", "180805.019000", "180805.022000", "180805.024000"],
      "InstanceNumber": [1, 2, 3, 4, 5, 6, 7, 8, 9, 10, 11, 12, 13, 14, 15, 16, 17, 18, 19, 20, 21, 22, 23, 24, 25, 26, 27, 28, 29, 30, 31, 32, 33, 34, 35, 36, 37, 38, 39, 40, 41, 42, 43, 44, 45, 46, 47, 48, 49, 50, 51, 52, 53, 54, 55, 56, 57, 58, 59, 60, 61, 62, 63, 64, 65, 66, 67, 68, 69, 70, 71, 72, 73, 74, 75, 76, 77, 78, 79, 80, 81, 82, 83, 84, 85, 86, 87, 88, 89, 90, 91, 92, 93, 94, 95, 96, 97, 98, 99, 100, 101, 102, 103, 104, 105, 106, 107, 108, 109, 110, 111, 112, 113, 114, 115, 116, 117, 118, 119, 120, 121, 122, 123, 124, 125, 126, 127, 128, 129, 130, 131, 132, 133, 134, 135, 136, 137, 138, 139, 140, 141, 142, 143, 144, 145, 146, 147, 148, 149, 150, 151, 152, 153, 154, 155, 156, 157, 158, 159, 160, 161, 162, 163, 164, 165, 166, 167, 168, 169, 170, 171, 172, 173, 174, 175, 176, 177, 178, 179, 180, 181, 182, 183, 184, 185, 186, 187, 188, 189, 190],
      "WindowCenter": [4812.0, 4818.0, 4816.0, 4790.0, 4816.0, 4814.0, 4816.0, 4814.0, 4814.0, 4792.0, 4814.0, 4816.0, 4812.0, 4816.0, 4818.0, 4816.0, 4818.0, 4816.0, 4816.0, 4814.0, 4816.0, 4814.0, 4814.0, 4814.0, 4792.0, 4814.0, 4814.0, 4812.0, 4816.0, 4790.0, 4816.0, 4814.0, 4790.0, 4792.0, 4790.0, 4792.0, 4814.0, 4790.0, 4814.0, 4812.0, 4814.0, 4792.0, 4814.0, 4794.0, 4814.0, 4792.0, 4816.0, 4812.0, 4812.0, 4818.0, 4816.0, 4814.0, 4812.0, 4792.0, 4816.0, 4818.0, 4816.0, 4814.0, 4812.0, 4814.0, 4814.0, 4814.0, 4814.0, 4814.0, 4816.0, 4812.0, 4814.0, 4816.0, 4792.0, 4814.0, 4790.0, 4794.0, 4790.0, 4814.0, 4814.0, 4814.0, 4812.0, 4814.0, 4792.0, 4814.0, 4814.0, 4816.0, 4820.0, 4818.0, 4788.0, 4812.0, 4790.0, 4788.0, 4786.0, 4810.0, 4812.0, 4792.0, 4816.0, 4814.0, 4820.0, 4816.0, 4816.0, 4814.0, 4816.0, 4814.0, 4816.0, 4814.0, 4814.0, 4814.0, 4814.0, 4816.0, 4816.0, 4788.0, 4816.0, 4820.0, 4812.0, 4816.0, 4816.0, 4814.0, 4816.0, 4814.0, 4816.0, 4816.0, 4816.0, 4790.0, 4792.0, 4814.0, 4818.0, 4814.0, 4816.0, 4812.0, 4792.0, 4810.0, 4788.0, 4790.0, 4814.0, 4816.0, 4790.0, 4814.0, 4790.0, 4792.0, 4814.0, 4812.0, 4792.0, 4812.0, 4790.0, 4814.0, 4792.0, 4790.0, 4814.0, 4814.0, 4788.0, 4792.0, 4790.0, 4792.0, 4814.0, 4812.0, 4788.0, 4816.0, 4790.0, 4814.0, 4788.0, 4814.0, 4814.0, 4812.0, 4812.0, 4790.0, 4816.0, 4814.0, 4812.0, 4814.0, 4790.0, 4816.0, 4814.0, 4792.0, 4792.0, 4794.0, 4814.0, 4814.0, 4792.0, 4792.0, 4814.0, 4848.0, 4844.0, 4816.0, 4816.0, 4816.0, 4822.0, 4824.0, 4824.0, 4822.0, 4820.0, 4820.0, 4822.0, 4824.0],
      "WindowWidth": [18580.0, 18580.0, 18582.0, 18552.0, 18582.0, 18582.0, 18580.0, 18580.0, 18578.0, 18550.0, 18586.0, 18580.0, 18582.0, 18582.0, 18584.0, 18580.0, 18584.0, 18584.0, 18584.0, 18578.0, 18586.0, 18580.0, 18582.0, 18586.0, 18550.0, 18586.0, 18588.0, 18584.0, 18584.0, 18548.0, 18582.0, 18582.0, 18552.0, 18554.0, 18554.0, 18550.0, 18582.0, 18550.0, 18586.0, 18580.0, 18584.0, 18552.0, 18582.0, 18552.0, 18582.0, 18556.0, 18582.0, 18580.0, 18584.0, 18582.0, 18584.0, 18584.0, 18584.0, 18552.0, 18586.0, 18586.0, 18582.0, 18586.0, 18582.0, 18584.0, 18584.0, 18580.0, 18584.0, 18580.0, 18584.0, 18580.0, 18582.0, 18582.0, 18550.0, 18586.0, 18556.0, 18554.0, 18554.0, 18582.0, 18586.0, 18580.0, 18584.0, 18584.0, 18546.0, 18580.0, 18586.0, 18584.0, 18586.0, 18588.0, 18550.0, 18588.0, 18554.0, 18550.0, 18554.0, 18584.0, 18586.0, 18552.0, 18584.0, 18582.0, 18590.0, 18586.0, 18584.0, 18584.0, 18586.0, 18582.0, 18584.0, 18582.0, 18580.0, 18580.0, 18580.0, 18588.0, 18588.0, 18552.0, 18586.0, 18586.0, 18584.0, 18582.0, 18588.0, 18584.0, 18580.0, 18584.0, 18584.0, 18580.0, 18584.0, 18554.0, 18556.0, 18582.0, 18584.0, 18580.0, 18588.0, 18582.0, 18552.0, 18582.0, 18548.0, 18550.0, 18586.0, 18584.0, 18552.0, 18582.0, 18550.0, 18554.0, 18578.0, 18582.0, 18550.0, 18586.0, 18554.0, 18582.0, 18552.0, 18550.0, 18584.0, 18582.0, 18550.0, 18556.0, 18550.0, 18552.0, 18586.0, 18584.0, 18550.0, 18588.0, 18550.0, 18584.0, 18550.0, 18584.0, 18584.0, 18586.0, 18582.0, 18550.0, 18586.0, 18584.0, 18578.0, 18584.0, 18552.0, 18586.0, 18582.0, 18552.0, 18552.0, 18556.0, 18582.0, 18584.0, 18554.0, 18554.0, 18582.0, 18624.0, 18618.0, 18584.0, 18588.0, 18576.0, 18590.0, 18590.0, 18588.0, 18588.0, 18584.0, 18584.0, 18586.0, 18586.0]
    },
    "slices": {}
  }
}