{
  "AcquisitionMatrixPE": 104,
  "AcquisitionNumber": 1,
  "AcquisitionTime": "18:27:8.047500",
  "BandwidthPerPixelPhaseEncode": 17.17,
  "BaseResolution": 104,
  "BodyPartExamined": "BRAIN",
  "CoilString": "HC1-7;NC1_2",
  "ConsistencyInfo": "N4_VE11C_LATEST_20160120",
  "ConversionSoftware": "dcm2niix",
  "ConversionSoftwareVersion": "v1.0.20190902",
  "DerivedVendorReportedEchoSpacing": 0.000560011,
  "DeviceSerialNumber": "167006",
  "DwellTime": 2.1e-06,
  "EchoTime": 0.037,
  "EchoTrainLength": 104,
  "EffectiveEchoSpacing": 0.000560011,
  "FlipAngle": 52,
  "ImageComments": "Unaliased_MB4_PE3_LB",
  "ImageOrientationPatientDICOM": [0.997334, 0.0495734, 0.0535494, -0.0271613, 0.933281, -0.358119],
  "ImageType": [
    "ORIGINAL",
    "PRIMARY",
    "M",
    "MB",
    "ND",
    "MOSAIC"
],
  "ImagingFrequency": 123.259,
  "InPlanePhaseEncodingDirectionDICOM": "COL",
  "InstitutionAddress": "Chemin_Queen-Mary_4565_Montreal_District_CA_H3W_1W5",
  "InstitutionName": "IUGM",
  "InstitutionalDepartmentName": "Department",
  "MRAcquisitionType": "2D",
  "MagneticFieldStrength": 3,
  "Manufacturer": "Siemens",
  "ManufacturersModelName": "Prisma_fit",
  "Modality": "MR",
  "MultibandAccelerationFactor": 4,
  "PartialFourier": 1,
  "PatientPosition": "HFS",
  "PercentPhaseFOV": 100,
  "PhaseEncodingDirection": "j",
  "PhaseEncodingSteps": 104,
  "PhaseResolution": 1,
  "PixelBandwidth": 2290,
  "ProcedureStepDescription": "memory_things",
  "ProtocolName": "func_task-things_run-6",
  "PulseSequenceDetails": "%CustomerSeq%_cmrr_mbep2d_bold",
  "ReceiveCoilActiveElements": "HC1-7;NC1,2",
  "ReceiveCoilName": "HeadNeck_64",
  "ReconMatrixPE": 104,
  "RepetitionTime": 1.49,
  "SAR": 0.0574449,
  "ScanOptions": "FS",
  "ScanningSequence": "EP",
  "SequenceName": "epfid2d1_104",
  "SequenceVariant": "SK_SS",
  "SeriesDescription": "func_task-things_run-6",
  "SeriesNumber": 25,
  "ShimSetting": [630, -7192, -8825, 674, 73, -3, -15, -14],
  "SliceThickness": 2,
  "SliceTiming": [0, 0.7825, 0.0975, 0.88, 0.195, 0.98, 0.2925, 1.0775, 0.39, 1.175, 0.49, 1.2725, 0.5875, 1.37, 0.685, 0, 0.7825, 0.0975, 0.88, 0.195, 0.98, 0.2925, 1.0775, 0.39, 1.175, 0.49, 1.2725, 0.5875, 1.37, 0.685, 0, 0.7825, 0.0975, 0.88, 0.195, 0.98, 0.2925, 1.0775, 0.39, 1.175, 0.49, 1.2725, 0.5875, 1.37, 0.685, 0, 0.7825, 0.0975, 0.88, 0.195, 0.98, 0.2925, 1.0775, 0.39, 1.175, 0.49, 1.2725, 0.5875, 1.37, 0.685],
  "SoftwareVersions": "syngo_MR_E11",
  "SpacingBetweenSlices": 2,
  "StationName": "MRC35049",
  "TaskName": "things",
  "TotalReadoutTime": 0.0576811,
  "TxRefAmp": 292.797,
  "WipMemBlock": "a98f4382-fdaa-492f-a732-a3a05ffcbe86||Sequence: R016 ve11c/master r/e634e98; Dec 19 2017 11:00:25 by eja",
  "dcmmeta_affine": [
    [-1.994667887687683, -0.05432254821062088, 0.1354595124721527, 106.73898315429688],
    [-0.099146768450737, 1.866561770439148, -0.7114190459251404, -54.0562744140625],
    [0.10709872096776962, 0.7162375450134277, 1.8642783164978027, -71.10667419433594],
    [0.0, 0.0, 0.0, 1.0]
],
  "dcmmeta_reorient_transform": [
    [0.0, -1.0, 0.0, 103.0],
    [1.0, 0.0, 0.0, 0.0],
    [0.0, 0.0, 1.0, 0.0],
    [0.0, 0.0, 0.0, 1.0]
],
  "dcmmeta_shape": [104, 104, 60, 190],
  "dcmmeta_slice_dim": 2,
  "dcmmeta_version": 0.6,
  "global": {
    "const": {
      "AcquisitionMatrix": [104, 0, 0, 104],
      "AngioFlag": "N",
      "BitsAllocated": 16,
      "BitsStored": 16,
      "BodyPartExamined": "BRAIN",
      "Columns": 832,
      "EchoNumbers": 1,
      "EchoTime": 37.0,
      "EchoTrainLength": 104,
      "FlipAngle": 52.0,
      "HighBit": 15,
      "ImageOrientationPatient": [0.99733391888954, 0.04957338270694, 0.05354936002823, -0.0271612745477, 0.93328089005576, -0.358118758824],
      "ImagePositionPatient": [-807.42944683116, -853.71750106284, 224.39230986647],
      "ImageType": [
        "ORIGINAL",
        "PRIMARY",
        "M",
        "MB",
        "ND",
        "MOSAIC"
],
      "ImagedNucleus": "1H",
      "ImagingFrequency": 123.259107,
      "InPlanePhaseEncodingDirection": "COL",
      "MRAcquisitionType": "2D",
      "MagneticFieldStrength": 3.0,
      "Manufacturer": "SIEMENS",
      "ManufacturerModelName": "Prisma_fit",
      "Modality": "MR",
      "NumberOfAverages": 1.0,
      "NumberOfPhaseEncodingSteps": 104,
      "PercentPhaseFieldOfView": 100.0,
      "PercentSampling": 100.0,
      "PerformedProcedureStepStartTime": "174709.634000",
      "PhotometricInterpretation": "MONOCHROME2",
      "PixelBandwidth": 2290.0,
      "PixelRepresentation": 0,
      "PixelSpacing": [2.0, 2.0],
      "ProtocolName": "func_task-things_run-6",
      "RepetitionTime": 1490.0,
      "Rows": 832,
      "SAR": 0.05744491274238,
      "SamplesPerPixel": 1,
      "ScanOptions": "FS",
      "ScanningSequence": "EP",
      "SequenceName": "epfid2d1_104",
      "SequenceVariant": [
        "SK",
        "SS"
],
      "SeriesDescription": "func_task-things_run-6",
      "SeriesNumber": 25,
      "SeriesTime": "182819.219000",
      "SliceLocation": -39.823582546945,
      "SliceThickness": 2.0,
      "SmallestImagePixelValue": 0,
      "SoftwareVersions": "syngo MR E11",
      "SpacingBetweenSlices": 2.0000000343001,
      "SpecificCharacterSet": "ISO_IR 100",
      "StudyID": "1",
      "StudyTime": "174709.478000",
      "TransmitCoilName": "Body",
      "VariableFlipAngleFlag": "N",
      "WindowCenterWidthExplanation": "Algo1",
      "dBdt": 0.0},
    "slices": {}
  },
  "time": {
    "samples": {
      "AcquisitionNumber": [1, 2, 3, 4, 5, 6, 7, 8, 9, 10, 11, 12, 13, 14, 15, 16, 17, 18, 19, 20, 21, 22, 23, 24, 25, 26, 27, 28, 29, 30, 31, 32, 33, 34, 35, 36, 37, 38, 39, 40, 41, 42, 43, 44, 45, 46, 47, 48, 49, 50, 51, 52, 53, 54, 55, 56, 57, 58, 59, 60, 61, 62, 63, 64, 65, 66, 67, 68, 69, 70, 71, 72, 73, 74, 75, 76, 77, 78, 79, 80, 81, 82, 83, 84, 85, 86, 87, 88, 89, 90, 91, 92, 93, 94, 95, 96, 97, 98, 99, 100, 101, 102, 103, 104, 105, 106, 107, 108, 109, 110, 111, 112, 113, 114, 115, 116, 117, 118, 119, 120, 121, 122, 123, 124, 125, 126, 127, 128, 129, 130, 131, 132, 133, 134, 135, 136, 137, 138, 139, 140, 141, 142, 143, 144, 145, 146, 147, 148, 149, 150, 151, 152, 153, 154, 155, 156, 157, 158, 159, 160, 161, 162, 163, 164, 165, 166, 167, 168, 169, 170, 171, 172, 173, 174, 175, 176, 177, 178, 179, 180, 181, 182, 183, 184, 185, 186, 187, 188, 189, 190],
      "AcquisitionTime": ["182708.047500", "182709.537500", "182711.027500", "182712.517500", "182714.007500", "182715.497500", "182716.987500", "182718.477500", "182719.967500", "182721.457500", "182722.947500", "182724.437500", "182725.927500", "182727.417500", "182728.907500", "182730.397500", "182731.887500", "182733.377500", "182734.867500", "182736.357500", "182737.847500", "182739.337500", "182740.827500", "182742.317500", "182743.807500", "182745.297500", "182746.787500", "182748.277500", "182749.767500", "182751.257500", "182752.747500", "182754.237500", "182755.727500", "182757.217500", "182758.707500", "182800.197500", "182801.687500", "182803.177500", "182804.667500", "182806.157500", "182807.647500", "182809.137500", "182810.627500", "182812.117500", "182813.607500", "182815.097500", "182816.587500", "182818.077500", "182819.567500", "182821.057500", "182822.547500", "182824.037500", "182825.527500", "182827.017500", "182828.507500", "182829.997500", "182831.487500", "182832.977500", "182834.467500", "182835.957500", "182837.447500", "182838.937500", "182840.427500", "182841.917500", "182843.407500", "182844.897500", "182846.387500", "182847.877500", "182849.367500", "182850.857500", "182852.347500", "182853.837500", "182855.327500", "182856.817500", "182858.307500", "182859.797500", "182901.287500", "182902.777500", "182904.267500", "182905.757500", "182907.247500", "182908.737500", "182910.227500", "182911.717500", "182913.207500", "182914.697500", "182916.187500", "182917.677500", "182919.167500", "182920.657500", "182922.147500", "182923.637500", "182925.127500", "182926.617500", "182928.107500", "182929.597500", "182931.087500", "182932.577500", "182934.067500", "182935.557500", "182937.047500", "182938.537500", "182940.027500", "182941.517500", "182943.007500", "182944.497500", "182945.987500", "182947.477500", "182948.967500", "182950.457500", "182951.947500", "182953.437500", "182954.927500", "182956.417500", "182957.907500", "182959.397500", "183000.887500", "183002.377500", "183003.867500", "183005.357500", "183006.847500", "183008.337500", "183009.827500", "183011.317500", "183012.807500", "183014.297500", "183015.787500", "183017.277500", "183018.767500", "183020.257500", "183021.747500", "183023.237500", "183024.727500", "183026.217500", "183027.707500", "183029.197500", "183030.687500", "183032.177500", "183033.667500", "183035.157500", "183036.647500", "183038.137500", "183039.627500", "183041.117500", "183042.607500", "183044.097500", "183045.587500", "183047.077500", "183048.567500", "183050.057500", "183051.547500", "183053.037500", "183054.527500", "183056.017500", "183057.507500", "183058.997500", "183100.487500", "183101.977500", "183103.467500", "183104.957500", "183106.447500", "183107.937500", "183109.427500", "183110.917500", "183112.407500", "183113.897500", "183115.387500", "183116.877500", "183118.367500", "183119.857500", "183121.347500", "183122.837500", "183124.327500", "183125.817500", "183127.307500", "183128.797500", "183130.287500", "183131.777500", "183133.267500", "183134.757500", "183136.247500", "183137.737500", "183139.227500", "183140.717500", "183142.207500", "183143.697500", "183145.187500", "183146.677500", "183148.167500", "183149.657500"],
      "ContentTime": ["182819.222000", "182819.226000", "182819.229000", "182819.232000", "182819.236000", "182819.239000", "182819.242000", "182819.246000", "182819.258000", "182819.261000", "182819.264000", "182819.268000", "182819.271000", "182819.274000", "182819.278000", "182819.281000", "182839.176000", "182839.185000", "182839.188000", "182839.192000", "182839.196000", "182839.199000", "182839.203000", "182839.206000", "182839.209000", "182839.212000", "182839.216000", "182839.219000", "182839.223000", "182839.226000", "182839.230000", "182839.233000", "182839.236000", "182839.239000", "182839.243000", "182839.246000", "182859.176000", "182859.180000", "182859.183000", "182859.186000", "182859.190000", "182859.193000", "182859.196000", "182859.199000", "182859.203000", "182859.206000", "182859.209000", "182859.213000", "182859.216000", "182859.219000", "182859.222000", "182859.226000", "182859.229000", "182859.232000", "182859.246000", "182859.249000", "182859.252000", "182919.176000", "182919.180000", "182919.183000", "182919.186000", "182919.190000", "182919.193000", "182919.196000", "182919.200000", "182919.203000", "182919.206000", "182919.209000", "182919.213000", "182919.216000", "182919.219000", "182919.222000", "182919.226000", "182919.229000", "182919.232000", "182919.236000", "182919.239000", "182939.176000", "182939.180000", "182939.183000", "182939.186000", "182939.190000", "182939.193000", "182939.196000", "182939.200000", "182939.203000", "182939.207000", "182939.210000", "182939.214000", "182939.217000", "182939.220000", "182939.224000", "182939.227000", "182939.230000", "182939.233000", "182939.237000", "182939.240000", "183019.176000", "183019.180000", "183019.183000", "183019.186000", "183019.190000", "183019.193000", "183019.196000", "183019.199000", "183019.203000", "183019.206000", "183019.209000", "183019.213000", "183019.216000", "183019.219000", "183019.222000", "183019.226000", "183019.229000", "183019.232000", "183019.236000", "183019.239000", "183019.242000", "183019.245000", "183019.249000", "183019.252000", "183019.255000", "183019.259000", "183019.262000", "183019.265000", "183019.268000", "183019.272000", "183059.176000", "183059.180000", "183059.183000", "183059.186000", "183059.190000", "183059.193000", "183059.197000", "183059.200000", "183059.203000", "183059.207000", "183059.210000", "183059.213000", "183059.216000", "183059.220000", "183059.223000", "183059.231000", "183059.234000", "183059.238000", "183059.241000", "183059.245000", "183059.248000", "183059.251000", "183059.254000", "183059.258000", "183059.261000", "183059.264000", "183059.268000", "183139.176000", "183139.180000", "183139.183000", "183139.187000", "183139.190000", "183139.193000", "183139.197000", "183139.200000", "183139.203000", "183139.207000", "183139.210000", "183139.213000", "183139.216000", "183139.220000", "183139.223000", "183139.226000", "183139.230000", "183139.233000", "183139.236000", "183139.240000", "183139.243000", "183139.246000", "183139.250000", "183139.253000", "183139.256000", "183139.260000", "183139.263000", "183151.876000", "183151.880000", "183151.883000", "183151.887000", "183151.890000", "183151.894000", "183151.897000", "183151.900000", "183151.904000"],
      "InstanceCreationTime": ["182819.222000", "182819.226000", "182819.229000", "182819.232000", "182819.236000", "182819.239000", "182819.242000", "182819.246000", "182819.258000", "182819.261000", "182819.264000", "182819.268000", "182819.271000", "182819.274000", "182819.278000", "182819.281000", "182839.176000", "182839.185000", "182839.188000", "182839.192000", "182839.196000", "182839.199000", "182839.203000", "182839.206000", "182839.209000", "182839.212000", "182839.216000", "182839.219000", "182839.223000", "182839.226000", "182839.230000", "182839.233000", "182839.236000", "182839.239000", "182839.243000", "182839.246000", "182859.176000", "182859.180000", "182859.183000", "182859.186000", "182859.190000", "182859.193000", "182859.196000", "182859.199000", "182859.203000", "182859.206000", "182859.209000", "182859.213000", "182859.216000", "182859.219000", "182859.222000", "182859.226000", "182859.229000", "182859.232000", "182859.246000", "182859.249000", "182859.252000", "182919.176000", "182919.180000", "182919.183000", "182919.186000", "182919.190000", "182919.193000", "182919.196000", "182919.200000", "182919.203000", "182919.206000", "182919.209000", "182919.213000", "182919.216000", "182919.219000", "182919.222000", "182919.226000", "182919.229000", "182919.232000", "182919.236000", "182919.239000", "182939.176000", "182939.180000", "182939.183000", "182939.186000", "182939.190000", "182939.193000", "182939.196000", "182939.200000", "182939.203000", "182939.207000", "182939.210000", "182939.214000", "182939.217000", "182939.220000", "182939.224000", "182939.227000", "182939.230000", "182939.233000", "182939.237000", "182939.240000", "183019.176000", "183019.180000", "183019.183000", "183019.186000", "183019.190000", "183019.193000", "183019.196000", "183019.199000", "183019.203000", "183019.206000", "183019.209000", "183019.213000", "183019.216000", "183019.219000", "183019.222000", "183019.226000", "183019.229000", "183019.232000", "183019.236000", "183019.239000", "183019.242000", "183019.245000", "183019.249000", "183019.252000", "183019.255000", "183019.259000", "183019.262000", "183019.265000", "183019.268000", "183019.272000", "183059.176000", "183059.180000", "183059.183000", "183059.186000", "183059.190000", "183059.193000", "183059.197000", "183059.200000", "183059.203000", "183059.207000", "183059.210000", "183059.213000", "183059.216000", "183059.220000", "183059.223000", "183059.231000", "183059.234000", "183059.238000", "183059.241000", "183059.245000", "183059.248000", "183059.251000", "183059.254000", "183059.258000", "183059.261000", "183059.264000", "183059.268000", "183139.176000", "183139.180000", "183139.183000", "183139.187000", "183139.190000", "183139.193000", "183139.197000", "183139.200000", "183139.203000", "183139.207000", "183139.210000", "183139.213000", "183139.216000", "183139.220000", "183139.223000", "183139.226000", "183139.230000", "183139.233000", "183139.236000", "183139.240000", "183139.243000", "183139.246000", "183139.250000", "183139.253000", "183139.256000", "183139.260000", "183139.263000", "183151.876000", "183151.880000", "183151.883000", "183151.887000", "183151.890000", "183151.894000", "183151.897000", "183151.900000", "183151.904000"],
      "InstanceNumber": [1, 2, 3, 4, 5, 6, 7, 8, 9, 10, 11, 12, 13, 14, 15, 16, 17, 18, 19, 20, 21, 22, 23, 24, 25, 26, 27, 28, 29, 30, 31, 32, 33, 34, 35, 36, 37, 38, 39, 40, 41, 42, 43, 44, 45, 46, 47, 48, 49, 50, 51, 52, 53, 54, 55, 56, 57, 58, 59, 60, 61, 62, 63, 64, 65, 66, 67, 68, 69, 70, 71, 72, 73, 74, 75, 76, 77, 78, 79, 80, 81, 82, 83, 84, 85, 86, 87, 88, 89, 90, 91, 92, 93, 94, 95, 96, 97, 98, 99, 100, 101, 102, 103, 104, 105, 106, 107, 108, 109, 110, 111, 112, 113, 114, 115, 116, 117, 118, 119, 120, 121, 122, 123, 124, 125, 126, 127, 128, 129, 130, 131, 132, 133, 134, 135, 136, 137, 138, 139, 140, 141, 142, 143, 144, 145, 146, 147, 148, 149, 150, 151, 152, 153, 154, 155, 156, 157, 158, 159, 160, 161, 162, 163, 164, 165, 166, 167, 168, 169, 170, 171, 172, 173, 174, 175, 176, 177, 178, 179, 180, 181, 182, 183, 184, 185, 186, 187, 188, 189, 190],
      "LargestImagePixelValue": [44572, 44337, 43542, 43120, 43371, 42613, 42293, 42035, 42379, 42043, 42486, 42148, 41688, 43318, 42903, 43148, 42385, 42798, 43310, 42594, 41931, 43578, 42913, 42212, 41893, 41968, 42117, 42286, 42223, 41319, 41775, 41715, 41893, 43397, 42355, 41989, 42253, 41583, 41398, 43492, 42959, 44315, 43598, 43063, 44160, 41624, 42112, 41213, 41645, 42042, 42004, 41635, 42158, 40982, 41151, 41474, 42291, 42007, 42205, 41918, 44011, 44154, 44787, 43924, 42154, 43534, 43949, 44165, 43497, 43762, 43523, 43666, 44542, 43891, 43933, 43904, 44153, 43930, 43104, 42895, 43847, 43654, 43752, 43282, 43641, 42231, 42682, 42498, 43016, 42530, 42880, 42768, 42170, 42921, 42389, 42737, 43162, 42875, 42588, 42859, 43036, 42727, 42956, 43041, 43141, 43069, 42797, 42192, 42537, 42604, 42394, 42741, 42287, 42331, 42598, 42749, 42639, 42484, 42375, 42963, 42856, 42905, 43036, 43206, 42785, 42793, 43285, 42965, 43479, 42700, 44202, 43949, 43189, 43622, 43619, 43212, 43468, 43085, 43633, 43883, 43605, 43302, 43501, 43269, 42901, 42884, 42705, 48008, 43861, 43378, 42995, 42709, 43142, 42998, 42739, 42698, 42795, 43250, 43317, 43003, 43193, 43060, 43084, 42614, 43755, 43889, 43407, 43534, 43340, 42720, 43432, 43447, 43757, 43720, 43357, 42871, 43559, 43227, 42947, 42415, 42294, 42898, 43270, 43064, 43652, 42496, 42528, 42719, 42425, 42474],
      "WindowCenter": [10705.0, 10676.0, 10645.0, 10627.0, 10618.0, 10582.0, 10581.0, 10617.0, 10638.0, 10639.0, 10636.0, 10628.0, 10630.0, 10646.0, 10647.0, 10641.0, 10631.0, 10625.0, 10614.0, 10624.0, 10616.0, 10627.0, 10631.0, 10634.0, 10630.0, 10638.0, 10634.0, 10624.0, 10625.0, 10611.0, 10625.0, 10626.0, 10624.0, 10661.0, 10654.0, 10654.0, 10650.0, 10654.0, 10664.0, 10670.0, 10658.0, 10691.0, 10681.0, 10681.0, 10667.0, 10643.0, 10657.0, 10666.0, 10667.0, 10657.0, 10631.0, 10613.0, 10606.0, 10603.0, 10622.0, 10631.0, 10643.0, 10646.0, 10670.0, 10680.0, 10677.0, 10677.0, 10689.0, 10660.0, 10616.0, 10603.0, 10604.0, 10625.0, 10627.0, 10628.0, 10623.0, 10615.0, 10614.0, 10619.0, 10630.0, 10657.0, 10654.0, 10639.0, 10629.0, 10612.0, 10616.0, 10616.0, 10621.0, 10629.0, 10641.0, 10636.0, 10644.0, 10644.0, 10647.0, 10641.0, 10634.0, 10631.0, 10635.0, 10662.0, 10676.0, 10686.0, 10686.0, 10670.0, 10679.0, 10687.0, 10679.0, 10671.0, 10669.0, 10675.0, 10685.0, 10677.0, 10668.0, 10666.0, 10670.0, 10673.0, 10672.0, 10695.0, 10700.0, 10685.0, 10667.0, 10663.0, 10654.0, 10652.0, 10648.0, 10676.0, 10695.0, 10717.0, 10710.0, 10698.0, 10672.0, 10677.0, 10680.0, 10674.0, 10670.0, 10645.0, 10689.0, 10709.0, 10686.0, 10677.0, 10670.0, 10648.0, 10625.0, 10596.0, 10585.0, 10606.0, 10613.0, 10635.0, 10643.0, 10654.0, 10665.0, 10669.0, 10679.0, 10737.0, 10710.0, 10693.0, 10671.0, 10654.0, 10648.0, 10641.0, 10649.0, 10658.0, 10678.0, 10694.0, 10686.0, 10682.0, 10677.0, 10668.0, 10671.0, 10679.0, 10709.0, 10723.0, 10719.0, 10722.0, 10705.0, 10694.0, 10709.0, 10720.0, 10707.0, 10707.0, 10679.0, 10669.0, 10681.0, 10677.0, 10659.0, 10637.0, 10637.0, 10649.0, 10656.0, 10657.0, 10647.0, 10629.0, 10627.0, 10626.0, 10629.0, 10622.0],
      "WindowWidth": [22786.0, 22698.0, 22617.0, 22570.0, 22546.0, 22461.0, 22458.0, 22548.0, 22599.0, 22599.0, 22590.0, 22571.0, 22583.0, 22617.0, 22620.0, 22603.0, 22587.0, 22568.0, 22539.0, 22566.0, 22558.0, 22569.0, 22585.0, 22591.0, 22584.0, 22603.0, 22587.0, 22561.0, 22564.0, 22538.0, 22569.0, 22572.0, 22567.0, 22657.0, 22640.0, 22637.0, 22626.0, 22642.0, 22685.0, 22670.0, 22646.0, 22720.0, 22694.0, 22695.0, 22654.0, 22605.0, 22637.0, 22667.0, 22666.0, 22639.0, 22579.0, 22540.0, 22519.0, 22519.0, 22566.0, 22586.0, 22611.0, 22618.0, 22678.0, 22705.0, 22687.0, 22687.0, 22711.0, 22648.0, 22547.0, 22510.0, 22518.0, 22564.0, 22561.0, 22564.0, 22563.0, 22542.0, 22541.0, 22546.0, 22572.0, 22642.0, 22624.0, 22587.0, 22571.0, 22525.0, 22534.0, 22536.0, 22550.0, 22571.0, 22598.0, 22594.0, 22611.0, 22610.0, 22617.0, 22602.0, 22587.0, 22579.0, 22595.0, 22653.0, 22694.0, 22712.0, 22709.0, 22672.0, 22695.0, 22715.0, 22694.0, 22675.0, 22670.0, 22686.0, 22708.0, 22684.0, 22665.0, 22671.0, 22673.0, 22680.0, 22678.0, 22731.0, 22742.0, 22708.0, 22664.0, 22655.0, 22634.0, 22627.0, 22622.0, 22682.0, 22733.0, 22787.0, 22766.0, 22734.0, 22671.0, 22683.0, 22692.0, 22680.0, 22666.0, 22603.0, 22704.0, 22753.0, 22700.0, 22675.0, 22661.0, 22606.0, 22545.0, 22473.0, 22450.0, 22501.0, 22519.0, 22577.0, 22599.0, 22626.0, 22653.0, 22669.0, 22688.0, 22815.0, 22758.0, 22715.0, 22665.0, 22625.0, 22610.0, 22595.0, 22614.0, 22633.0, 22680.0, 22717.0, 22701.0, 22698.0, 22682.0, 22664.0, 22669.0, 22696.0, 22761.0, 22791.0, 22785.0, 22797.0, 22750.0, 22727.0, 22758.0, 22790.0, 22749.0, 22748.0, 22683.0, 22658.0, 22687.0, 22682.0, 22637.0, 22585.0, 22585.0, 22610.0, 22625.0, 22636.0, 22604.0, 22563.0, 22565.0, 22557.0, 22569.0, 22557.0]
    },
    "slices": {}
  }
}