{
  "AcquisitionMatrixPE": 104,
  "AcquisitionNumber": 1,
  "AcquisitionTime": "18:03:21.485000",
  "BandwidthPerPixelPhaseEncode": 17.17,
  "BaseResolution": 104,
  "BodyPartExamined": "BRAIN",
  "CoilString": "HC1-7;NC1_2",
  "ConsistencyInfo": "N4_VE11C_LATEST_20160120",
  "ConversionSoftware": "dcm2niix",
  "ConversionSoftwareVersion": "v1.0.20190902",
  "DerivedVendorReportedEchoSpacing": 0.000560011,
  "DeviceSerialNumber": "167006",
  "DwellTime": 2.1e-06,
  "EchoTime": 0.037,
  "EchoTrainLength": 104,
  "EffectiveEchoSpacing": 0.000560011,
  "FlipAngle": 52,
  "ImageComments": "Unaliased_MB4_PE3_LB",
  "ImageOrientationPatientDICOM": [0.997334, 0.0495734, 0.0535494, -0.0271613, 0.933281, -0.358119],
  "ImageType": [
    "ORIGINAL",
    "PRIMARY",
    "M",
    "MB",
    "ND",
    "MOSAIC"
],
  "ImagingFrequency": 123.259,
  "InPlanePhaseEncodingDirectionDICOM": "COL",
  "InstitutionAddress": "Chemin_Queen-Mary_4565_Montreal_District_CA_H3W_1W5",
  "InstitutionName": "IUGM",
  "InstitutionalDepartmentName": "Department",
  "MRAcquisitionType": "2D",
  "MagneticFieldStrength": 3,
  "Manufacturer": "Siemens",
  "ManufacturersModelName": "Prisma_fit",
  "Modality": "MR",
  "MultibandAccelerationFactor": 4,
  "PartialFourier": 1,
  "PatientPosition": "HFS",
  "PercentPhaseFOV": 100,
  "PhaseEncodingDirection": "j",
  "PhaseEncodingSteps": 104,
  "PhaseResolution": 1,
  "PixelBandwidth": 2290,
  "ProcedureStepDescription": "memory_things",
  "ProtocolName": "func_task-things_run-3",
  "PulseSequenceDetails": "%CustomerSeq%_cmrr_mbep2d_bold",
  "ReceiveCoilActiveElements": "HC1-7;NC1,2",
  "ReceiveCoilName": "HeadNeck_64",
  "ReconMatrixPE": 104,
  "RepetitionTime": 1.49,
  "SAR": 0.0574449,
  "ScanOptions": "FS",
  "ScanningSequence": "EP",
  "SequenceName": "epfid2d1_104",
  "SequenceVariant": "SK_SS",
  "SeriesDescription": "func_task-things_run-3",
  "SeriesNumber": 16,
  "ShimSetting": [630, -7192, -8825, 674, 73, -3, -15, -14],
  "SliceThickness": 2,
  "SliceTiming": [0, 0.7825, 0.0975, 0.8825, 0.195, 0.98, 0.2925, 1.0775, 0.3925, 1.175, 0.49, 1.2725, 0.5875, 1.3725, 0.685, 0, 0.7825, 0.0975, 0.8825, 0.195, 0.98, 0.2925, 1.0775, 0.3925, 1.175, 0.49, 1.2725, 0.5875, 1.3725, 0.685, 0, 0.7825, 0.0975, 0.8825, 0.195, 0.98, 0.2925, 1.0775, 0.3925, 1.175, 0.49, 1.2725, 0.5875, 1.3725, 0.685, 0, 0.7825, 0.0975, 0.8825, 0.195, 0.98, 0.2925, 1.0775, 0.3925, 1.175, 0.49, 1.2725, 0.5875, 1.3725, 0.685],
  "SoftwareVersions": "syngo_MR_E11",
  "SpacingBetweenSlices": 2,
  "StationName": "MRC35049",
  "TaskName": "things",
  "TotalReadoutTime": 0.0576811,
  "TxRefAmp": 292.797,
  "WipMemBlock": "04b3d52c-b2f3-40f7-ba62-86741759b974||Sequence: R016 ve11c/master r/e634e98; Dec 19 2017 11:00:25 by eja",
  "dcmmeta_affine": [
    [-1.994667887687683, -0.05432254821062088, 0.1354595124721527, 106.73898315429688],
    [-0.099146768450737, 1.866561770439148, -0.7114190459251404, -54.0562744140625],
    [0.10709872096776962, 0.7162375450134277, 1.8642783164978027, -71.10667419433594],
    [0.0, 0.0, 0.0, 1.0]
],
  "dcmmeta_reorient_transform": [
    [0.0, -1.0, 0.0, 103.0],
    [1.0, 0.0, 0.0, 0.0],
    [0.0, 0.0, 1.0, 0.0],
    [0.0, 0.0, 0.0, 1.0]
],
  "dcmmeta_shape": [104, 104, 60, 190],
  "dcmmeta_slice_dim": 2,
  "dcmmeta_version": 0.6,
  "global": {
    "const": {
      "AcquisitionMatrix": [104, 0, 0, 104],
      "AngioFlag": "N",
      "BitsAllocated": 16,
      "BitsStored": 16,
      "BodyPartExamined": "BRAIN",
      "Columns": 832,
      "EchoNumbers": 1,
      "EchoTime": 37.0,
      "EchoTrainLength": 104,
      "FlipAngle": 52.0,
      "HighBit": 15,
      "ImageOrientationPatient": [0.99733391888954, 0.04957338270694, 0.05354936002823, -0.0271612745477, 0.93328089005576, -0.358118758824],
      "ImagePositionPatient": [-807.42944683116, -853.71750106284, 224.39230986647],
      "ImageType": [
        "ORIGINAL",
        "PRIMARY",
        "M",
        "MB",
        "ND",
        "MOSAIC"
],
      "ImagedNucleus": "1H",
      "ImagingFrequency": 123.2591,
      "InPlanePhaseEncodingDirection": "COL",
      "MRAcquisitionType": "2D",
      "MagneticFieldStrength": 3.0,
      "Manufacturer": "SIEMENS",
      "ManufacturerModelName": "Prisma_fit",
      "Modality": "MR",
      "NumberOfAverages": 1.0,
      "NumberOfPhaseEncodingSteps": 104,
      "PercentPhaseFieldOfView": 100.0,
      "PercentSampling": 100.0,
      "PerformedProcedureStepStartTime": "174709.634000",
      "PhotometricInterpretation": "MONOCHROME2",
      "PixelBandwidth": 2290.0,
      "PixelRepresentation": 0,
      "PixelSpacing": [2.0, 2.0],
      "ProtocolName": "func_task-things_run-3",
      "RepetitionTime": 1490.0,
      "Rows": 832,
      "SAR": 0.05744491274238,
      "SamplesPerPixel": 1,
      "ScanOptions": "FS",
      "ScanningSequence": "EP",
      "SequenceName": "epfid2d1_104",
      "SequenceVariant": [
        "SK",
        "SS"
],
      "SeriesDescription": "func_task-things_run-3",
      "SeriesNumber": 16,
      "SeriesTime": "180439.205000",
      "SliceLocation": -39.823582546945,
      "SliceThickness": 2.0,
      "SmallestImagePixelValue": 0,
      "SoftwareVersions": "syngo MR E11",
      "SpacingBetweenSlices": 2.0000000343001,
      "SpecificCharacterSet": "ISO_IR 100",
      "StudyID": "1",
      "StudyTime": "174709.478000",
      "TransmitCoilName": "Body",
      "VariableFlipAngleFlag": "N",
      "WindowCenterWidthExplanation": "Algo1",
      "dBdt": 0.0},
    "slices": {}
  },
  "time": {
    "samples": {
      "AcquisitionNumber": [1, 2, 3, 4, 5, 6, 7, 8, 9, 10, 11, 12, 13, 14, 15, 16, 17, 18, 19, 20, 21, 22, 23, 24, 25, 26, 27, 28, 29, 30, 31, 32, 33, 34, 35, 36, 37, 38, 39, 40, 41, 42, 43, 44, 45, 46, 47, 48, 49, 50, 51, 52, 53, 54, 55, 56, 57, 58, 59, 60, 61, 62, 63, 64, 65, 66, 67, 68, 69, 70, 71, 72, 73, 74, 75, 76, 77, 78, 79, 80, 81, 82, 83, 84, 85, 86, 87, 88, 89, 90, 91, 92, 93, 94, 95, 96, 97, 98, 99, 100, 101, 102, 103, 104, 105, 106, 107, 108, 109, 110, 111, 112, 113, 114, 115, 116, 117, 118, 119, 120, 121, 122, 123, 124, 125, 126, 127, 128, 129, 130, 131, 132, 133, 134, 135, 136, 137, 138, 139, 140, 141, 142, 143, 144, 145, 146, 147, 148, 149, 150, 151, 152, 153, 154, 155, 156, 157, 158, 159, 160, 161, 162, 163, 164, 165, 166, 167, 168, 169, 170, 171, 172, 173, 174, 175, 176, 177, 178, 179, 180, 181, 182, 183, 184, 185, 186, 187, 188, 189, 190],
      "AcquisitionTime": ["180321.485000", "180322.975000", "180324.465000", "180325.955000", "180327.445000", "180328.935000", "180330.425000", "180331.915000", "180333.405000", "180334.895000", "180336.385000", "180337.875000", "180339.365000", "180340.855000", "180342.345000", "180343.835000", "180345.325000", "180346.815000", "180348.305000", "180349.795000", "180351.285000", "180352.775000", "180354.265000", "180355.755000", "180357.245000", "180358.735000", "180400.225000", "180401.715000", "180403.205000", "180404.695000", "180406.185000", "180407.675000", "180409.165000", "180410.655000", "180412.145000", "180413.635000", "180415.125000", "180416.615000", "180418.105000", "180419.595000", "180421.085000", "180422.575000", "180424.065000", "180425.555000", "180427.045000", "180428.535000", "180430.025000", "180431.515000", "180433.005000", "180434.495000", "180435.985000", "180437.475000", "180438.965000", "180440.455000", "180441.945000", "180443.435000", "180444.925000", "180446.415000", "180447.905000", "180449.395000", "180450.885000", "180452.375000", "180453.865000", "180455.355000", "180456.845000", "180458.335000", "180459.825000", "180501.315000", "180502.805000", "180504.295000", "180505.785000", "180507.275000", "180508.765000", "180510.255000", "180511.745000", "180513.235000", "180514.725000", "180516.215000", "180517.705000", "180519.195000", "180520.685000", "180522.175000", "180523.665000", "180525.155000", "180526.645000", "180528.135000", "180529.625000", "180531.115000", "180532.605000", "180534.095000", "180535.585000", "180537.075000", "180538.565000", "180540.055000", "180541.545000", "180543.035000", "180544.525000", "180546.015000", "180547.505000", "180548.995000", "180550.485000", "180551.975000", "180553.465000", "180554.955000", "180556.445000", "180557.935000", "180559.425000", "180600.915000", "180602.405000", "180603.895000", "180605.385000", "180606.875000", "180608.365000", "180609.855000", "180611.345000", "180612.835000", "180614.325000", "180615.815000", "180617.305000", "180618.795000", "180620.285000", "180621.775000", "180623.265000", "180624.755000", "180626.245000", "180627.735000", "180629.225000", "180630.715000", "180632.205000", "180633.695000", "180635.185000", "180636.675000", "180638.165000", "180639.655000", "180641.145000", "180642.635000", "180644.125000", "180645.615000", "180647.105000", "180648.595000", "180650.085000", "180651.575000", "180653.065000", "180654.555000", "180656.045000", "180657.535000", "180659.025000", "180700.515000", "180702.005000", "180703.495000", "180704.985000", "180706.475000", "180707.965000", "180709.455000", "180710.945000", "180712.435000", "180713.925000", "180715.415000", "180716.905000", "180718.395000", "180719.885000", "180721.375000", "180722.865000", "180724.355000", "180725.845000", "180727.335000", "180728.825000", "180730.315000", "180731.805000", "180733.295000", "180734.785000", "180736.275000", "180737.765000", "180739.255000", "180740.745000", "180742.235000", "180743.725000", "180745.215000", "180746.705000", "180748.195000", "180749.685000", "180751.175000", "180752.665000", "180754.155000", "180755.645000", "180757.135000", "180758.625000", "180800.115000", "180801.605000", "180803.095000"],
      "ContentTime": ["180439.209000", "180439.213000", "180439.216000", "180439.219000", "180439.223000", "180439.226000", "180439.229000", "180439.233000", "180439.236000", "180439.239000", "180439.242000", "180439.246000", "180439.249000", "180439.252000", "180439.256000", "180439.259000", "180439.262000", "180439.265000", "180439.269000", "180439.272000", "180439.275000", "180439.278000", "180439.282000", "180459.176000", "180459.180000", "180459.183000", "180459.186000", "180459.190000", "180459.193000", "180459.196000", "180459.199000", "180459.203000", "180459.206000", "180459.209000", "180459.212000", "180459.216000", "180459.219000", "180459.222000", "180459.225000", "180459.229000", "180459.232000", "180459.235000", "180459.239000", "180519.176000", "180519.180000", "180519.183000", "180519.186000", "180519.190000", "180519.193000", "180519.196000", "180519.199000", "180519.203000", "180519.206000", "180519.209000", "180519.213000", "180519.216000", "180519.219000", "180519.222000", "180519.226000", "180519.229000", "180519.232000", "180519.236000", "180519.239000", "180539.176000", "180539.180000", "180539.183000", "180539.186000", "180539.190000", "180539.193000", "180539.196000", "180539.199000", "180539.203000", "180539.206000", "180539.209000", "180539.213000", "180539.216000", "180539.219000", "180539.222000", "180539.226000", "180539.229000", "180539.232000", "180539.236000", "180539.239000", "180539.242000", "180559.176000", "180559.180000", "180559.183000", "180559.187000", "180559.190000", "180559.193000", "180559.197000", "180559.200000", "180559.203000", "180559.207000", "180559.210000", "180559.213000", "180559.216000", "180559.220000", "180559.223000", "180559.226000", "180559.229000", "180559.233000", "180559.236000", "180559.239000", "180639.176000", "180639.180000", "180639.191000", "180639.194000", "180639.197000", "180639.201000", "180639.204000", "180639.207000", "180639.210000", "180639.214000", "180639.217000", "180639.220000", "180639.224000", "180639.227000", "180639.230000", "180639.233000", "180639.237000", "180639.240000", "180639.243000", "180639.246000", "180639.250000", "180639.253000", "180639.256000", "180639.260000", "180639.263000", "180639.266000", "180639.270000", "180639.273000", "180719.176000", "180719.180000", "180719.183000", "180719.186000", "180719.190000", "180719.193000", "180719.196000", "180719.199000", "180719.222000", "180719.225000", "180719.228000", "180719.232000", "180719.235000", "180719.238000", "180719.241000", "180719.245000", "180719.248000", "180719.251000", "180719.255000", "180719.258000", "180719.261000", "180719.265000", "180719.268000", "180719.271000", "180719.274000", "180719.278000", "180719.281000", "180759.176000", "180759.180000", "180759.183000", "180759.186000", "180759.190000", "180759.193000", "180759.196000", "180759.200000", "180759.203000", "180759.206000", "180759.210000", "180759.213000", "180759.216000", "180759.220000", "180759.223000", "180759.226000", "180759.230000", "180759.233000", "180759.236000", "180759.239000", "180759.243000", "180759.246000", "180759.249000", "180759.253000", "180759.256000", "180759.259000", "180759.263000", "180804.976000", "180804.980000", "180804.983000", "180804.986000"],
      "InstanceCreationTime": ["180439.209000", "180439.213000", "180439.216000", "180439.219000", "180439.223000", "180439.226000", "180439.229000", "180439.233000", "180439.236000", "180439.239000", "180439.242000", "180439.246000", "180439.249000", "180439.252000", "180439.256000", "180439.259000", "180439.262000", "180439.265000", "180439.269000", "180439.272000", "180439.275000", "180439.278000", "180439.282000", "180459.176000", "180459.180000", "180459.183000", "180459.186000", "180459.190000", "180459.193000", "180459.196000", "180459.199000", "180459.203000", "180459.206000", "180459.209000", "180459.212000", "180459.216000", "180459.219000", "180459.222000", "180459.225000", "180459.229000", "180459.232000", "180459.235000", "180459.239000", "180519.176000", "180519.180000", "180519.183000", "180519.186000", "180519.190000", "180519.193000", "180519.196000", "180519.199000", "180519.203000", "180519.206000", "180519.209000", "180519.213000", "180519.216000", "180519.219000", "180519.222000", "180519.226000", "180519.229000", "180519.232000", "180519.236000", "180519.239000", "180539.176000", "180539.180000", "180539.183000", "180539.186000", "180539.190000", "180539.193000", "180539.196000", "180539.199000", "180539.203000", "180539.206000", "180539.209000", "180539.213000", "180539.216000", "180539.219000", "180539.222000", "180539.226000", "180539.229000", "180539.232000", "180539.236000", "180539.239000", "180539.242000", "180559.176000", "180559.180000", "180559.183000", "180559.187000", "180559.190000", "180559.193000", "180559.197000", "180559.200000", "180559.203000", "180559.207000", "180559.210000", "180559.213000", "180559.216000", "180559.220000", "180559.223000", "180559.226000", "180559.229000", "180559.233000", "180559.236000", "180559.239000", "180639.176000", "180639.180000", "180639.191000", "180639.194000", "180639.197000", "180639.201000", "180639.204000", "180639.207000", "180639.210000", "180639.214000", "180639.217000", "180639.220000", "180639.224000", "180639.227000", "180639.230000", "180639.233000", "180639.237000", "180639.240000", "180639.243000", "180639.246000", "180639.250000", "180639.253000", "180639.256000", "180639.260000", "180639.263000", "180639.266000", "180639.270000", "180639.273000", "180719.176000", "180719.180000", "180719.183000", "180719.186000", "180719.190000", "180719.193000", "180719.196000", "180719.199000", "180719.222000", "180719.225000", "180719.228000", "180719.232000", "180719.235000", "180719.238000", "180719.241000", "180719.245000", "180719.248000", "180719.251000", "180719.255000", "180719.258000", "180719.261000", "180719.265000", "180719.268000", "180719.271000", "180719.274000", "180719.278000", "180719.281000", "180759.176000", "180759.180000", "180759.183000", "180759.186000", "180759.190000", "180759.193000", "180759.196000", "180759.200000", "180759.203000", "180759.206000", "180759.210000", "180759.213000", "180759.216000", "180759.220000", "180759.223000", "180759.226000", "180759.230000", "180759.233000", "180759.236000", "180759.239000", "180759.243000", "180759.246000", "180759.249000", "180759.253000", "180759.256000", "180759.259000", "180759.263000", "180804.976000", "180804.980000", "180804.983000", "180804.986000"],
      "InstanceNumber": [1, 2, 3, 4, 5, 6, 7, 8, 9, 10, 11, 12, 13, 14, 15, 16, 17, 18, 19, 20, 21, 22, 23, 24, 25, 26, 27, 28, 29, 30, 31, 32, 33, 34, 35, 36, 37, 38, 39, 40, 41, 42, 43, 44, 45, 46, 47, 48, 49, 50, 51, 52, 53, 54, 55, 56, 57, 58, 59, 60, 61, 62, 63, 64, 65, 66, 67, 68, 69, 70, 71, 72, 73, 74, 75, 76, 77, 78, 79, 80, 81, 82, 83, 84, 85, 86, 87, 88, 89, 90, 91, 92, 93, 94, 95, 96, 97, 98, 99, 100, 101, 102, 103, 104, 105, 106, 107, 108, 109, 110, 111, 112, 113, 114, 115, 116, 117, 118, 119, 120, 121, 122, 123, 124, 125, 126, 127, 128, 129, 130, 131, 132, 133, 134, 135, 136, 137, 138, 139, 140, 141, 142, 143, 144, 145, 146, 147, 148, 149, 150, 151, 152, 153, 154, 155, 156, 157, 158, 159, 160, 161, 162, 163, 164, 165, 166, 167, 168, 169, 170, 171, 172, 173, 174, 175, 176, 177, 178, 179, 180, 181, 182, 183, 184, 185, 186, 187, 188, 189, 190],
      "LargestImagePixelValue": [46608, 45256, 45201, 45144, 45144, 44994, 44872, 44713, 45291, 44927, 44933, 44912, 44754, 45293, 44910, 44953, 44879, 45495, 44810, 44951, 45585, 45155, 45093, 45447, 46147, 45469, 44630, 45743, 45318, 46427, 46258, 45114, 45130, 45310, 46376, 46013, 45390, 45743, 46103, 45355, 46107, 45524, 45648, 45214, 45804, 45629, 45378, 45702, 45395, 45700, 46035, 46210, 45680, 45639, 45610, 46258, 47423, 43709, 44957, 47046, 45194, 45967, 45234, 45663, 45690, 46440, 46842, 46385, 45833, 45971, 46883, 46025, 45786, 46567, 45517, 45753, 46719, 45880, 43940, 46755, 45378, 45677, 43033, 43047, 42058, 41946, 41415, 41978, 42013, 41944, 41940, 42633, 42508, 45893, 44024, 44553, 44675, 45399, 44573, 44628, 44600, 43889, 44456, 44124, 45152, 45207, 45238, 45427, 45325, 45188, 43332, 43969, 44415, 45660, 43856, 46036, 44012, 43604, 45715, 44632, 44931, 45702, 46066, 46379, 45747, 45769, 44907, 45376, 45710, 44394, 44352, 44391, 44193, 45531, 42853, 43432, 46870, 45115, 46104, 44247, 45671, 45928, 46175, 45309, 45916, 45458, 44968, 45941, 45150, 44888, 44632, 44294, 44148, 44224, 44294, 44444, 45354, 44871, 45092, 45808, 45001, 44716, 44257, 43876, 41143, 41116, 42804, 42859, 45744, 44343, 44289, 44317, 44591, 43408, 42436, 44726, 43831, 46653, 47961, 40054, 40267, 41193, 43980, 43442, 43702, 43129, 43608, 43523, 43882, 43262],
      "WindowCenter": [10849.0, 10798.0, 10777.0, 10777.0, 10772.0, 10761.0, 10769.0, 10786.0, 10792.0, 10795.0, 10796.0, 10779.0, 10783.0, 10784.0, 10771.0, 10786.0, 10785.0, 10793.0, 10789.0, 10794.0, 10807.0, 10794.0, 10803.0, 10804.0, 10804.0, 10809.0, 10807.0, 10810.0, 10814.0, 10807.0, 10805.0, 10795.0, 10803.0, 10823.0, 10845.0, 10844.0, 10819.0, 10815.0, 10809.0, 10801.0, 10808.0, 10801.0, 10809.0, 10830.0, 10846.0, 10850.0, 10827.0, 10799.0, 10789.0, 10778.0, 10774.0, 10773.0, 10780.0, 10788.0, 10799.0, 10811.0, 10821.0, 10772.0, 10773.0, 10791.0, 10778.0, 10779.0, 10770.0, 10786.0, 10772.0, 10766.0, 10774.0, 10780.0, 10794.0, 10791.0, 10795.0, 10780.0, 10770.0, 10775.0, 10777.0, 10794.0, 10809.0, 10789.0, 10760.0, 10779.0, 10778.0, 10798.0, 10755.0, 10782.0, 10777.0, 10752.0, 10729.0, 10729.0, 10711.0, 10695.0, 10707.0, 10724.0, 10732.0, 10769.0, 10746.0, 10744.0, 10750.0, 10754.0, 10758.0, 10753.0, 10750.0, 10741.0, 10752.0, 10773.0, 10798.0, 10793.0, 10781.0, 10775.0, 10784.0, 10785.0, 10772.0, 10776.0, 10773.0, 10782.0, 10760.0, 10787.0, 10776.0, 10780.0, 10785.0, 10763.0, 10760.0, 10786.0, 10801.0, 10809.0, 10781.0, 10768.0, 10737.0, 10740.0, 10746.0, 10732.0, 10744.0, 10752.0, 10774.0, 10785.0, 10751.0, 10747.0, 10760.0, 10751.0, 10747.0, 10741.0, 10772.0, 10803.0, 10817.0, 10806.0, 10796.0, 10763.0, 10745.0, 10751.0, 10733.0, 10733.0, 10762.0, 10760.0, 10766.0, 10757.0, 10757.0, 10765.0, 10768.0, 10771.0, 10767.0, 10784.0, 10761.0, 10761.0, 10747.0, 10751.0, 10750.0, 10746.0, 10773.0, 10765.0, 10745.0, 10716.0, 10708.0, 10727.0, 10757.0, 10753.0, 10742.0, 10762.0, 10752.0, 10612.0, 10795.0, 10701.0, 10712.0, 10750.0, 10777.0, 10767.0, 10748.0, 10716.0, 10721.0, 10715.0, 10701.0, 10702.0],
      "WindowWidth": [23137.0, 22998.0, 22936.0, 22932.0, 22913.0, 22882.0, 22903.0, 22946.0, 22958.0, 22969.0, 22967.0, 22929.0, 22942.0, 22940.0, 22907.0, 22954.0, 22943.0, 22964.0, 22951.0, 22963.0, 22996.0, 22964.0, 22992.0, 22991.0, 22984.0, 23004.0, 23002.0, 23002.0, 23020.0, 22995.0, 22989.0, 22972.0, 22987.0, 23033.0, 23086.0, 23086.0, 23018.0, 23008.0, 23003.0, 22986.0, 23003.0, 22978.0, 23000.0, 23051.0, 23086.0, 23100.0, 23042.0, 22972.0, 22952.0, 22926.0, 22913.0, 22909.0, 22933.0, 22947.0, 22973.0, 22999.0, 23027.0, 22909.0, 22908.0, 22954.0, 22918.0, 22919.0, 22902.0, 22934.0, 22905.0, 22890.0, 22903.0, 22920.0, 22955.0, 22956.0, 22952.0, 22921.0, 22908.0, 22907.0, 22917.0, 22959.0, 22996.0, 22953.0, 22879.0, 22916.0, 22921.0, 22966.0, 22866.0, 22930.0, 22926.0, 22868.0, 22812.0, 22808.0, 22766.0, 22732.0, 22756.0, 22800.0, 22812.0, 22905.0, 22842.0, 22839.0, 22853.0, 22863.0, 22873.0, 22862.0, 22865.0, 22834.0, 22861.0, 22918.0, 22986.0, 22966.0, 22931.0, 22916.0, 22938.0, 22947.0, 22912.0, 22919.0, 22910.0, 22931.0, 22881.0, 22950.0, 22919.0, 22933.0, 22940.0, 22883.0, 22874.0, 22934.0, 22972.0, 22997.0, 22923.0, 22898.0, 22820.0, 22829.0, 22846.0, 22818.0, 22838.0, 22856.0, 22913.0, 22937.0, 22858.0, 22849.0, 22879.0, 22859.0, 22848.0, 22832.0, 22903.0, 22978.0, 23009.0, 22988.0, 22962.0, 22877.0, 22840.0, 22865.0, 22809.0, 22812.0, 22892.0, 22887.0, 22897.0, 22870.0, 22870.0, 22891.0, 22901.0, 22902.0, 22891.0, 22945.0, 22879.0, 22887.0, 22849.0, 22865.0, 22876.0, 22859.0, 22917.0, 22907.0, 22846.0, 22770.0, 22753.0, 22798.0, 22881.0, 22864.0, 22839.0, 22884.0, 22860.0, 22538.0, 22960.0, 22755.0, 22780.0, 22870.0, 22928.0, 22903.0, 22851.0, 22778.0, 22797.0, 22783.0, 22744.0, 22750.0]
    },
    "slices": {}
  }
}