{
  "AcquisitionMatrixPE": 104,
  "AcquisitionNumber": 1,
  "AcquisitionTime": "18:14:7.847500",
  "BandwidthPerPixelPhaseEncode": 17.17,
  "BaseResolution": 104,
  "BodyPartExamined": "BRAIN",
  "CoilString": "HC1-7;NC1_2",
  "ConsistencyInfo": "N4_VE11C_LATEST_20160120",
  "ConversionSoftware": "dcm2niix",
  "ConversionSoftwareVersion": "v1.0.20190902",
  "DerivedVendorReportedEchoSpacing": 0.000560011,
  "DeviceSerialNumber": "167006",
  "DwellTime": 2.1e-06,
  "EchoTime": 0.037,
  "EchoTrainLength": 104,
  "EffectiveEchoSpacing": 0.000560011,
  "FlipAngle": 52,
  "ImageComments": "Unaliased_MB4_PE3_LB",
  "ImageOrientationPatientDICOM": [0.997334, 0.0495734, 0.0535494, -0.0271613, 0.933281, -0.358119],
  "ImageType": [
    "ORIGINAL",
    "PRIMARY",
    "P",
    "MB",
    "ND",
    "MOSAIC"
],
  "ImagingFrequency": 123.259,
  "InPlanePhaseEncodingDirectionDICOM": "COL",
  "InstitutionAddress": "Chemin_Queen-Mary_4565_Montreal_District_CA_H3W_1W5",
  "InstitutionName": "IUGM",
  "InstitutionalDepartmentName": "Department",
  "MRAcquisitionType": "2D",
  "MagneticFieldStrength": 3,
  "Manufacturer": "Siemens",
  "ManufacturersModelName": "Prisma_fit",
  "Modality": "MR",
  "MultibandAccelerationFactor": 4,
  "PartialFourier": 1,
  "PatientPosition": "HFS",
  "PercentPhaseFOV": 100,
  "PhaseEncodingDirection": "j",
  "PhaseEncodingSteps": 104,
  "PhaseResolution": 1,
  "PixelBandwidth": 2290,
  "ProcedureStepDescription": "memory_things",
  "ProtocolName": "func_task-things_run-4",
  "PulseSequenceDetails": "%CustomerSeq%_cmrr_mbep2d_bold",
  "ReceiveCoilActiveElements": "HC1-7;NC1,2",
  "ReceiveCoilName": "HeadNeck_64",
  "ReconMatrixPE": 104,
  "RepetitionTime": 1.49,
  "SAR": 0.0574449,
  "ScanOptions": "FS",
  "ScanningSequence": "EP",
  "SequenceName": "epfid2d1_104",
  "SequenceVariant": "SK_SS",
  "SeriesDescription": "func_task-things_run-4",
  "SeriesNumber": 20,
  "ShimSetting": [630, -7192, -8825, 674, 73, -3, -15, -14],
  "SliceThickness": 2,
  "SliceTiming": [0, 0.7825, 0.0975, 0.88, 0.195, 0.9775, 0.2925, 1.0775, 0.39, 1.175, 0.4875, 1.2725, 0.5875, 1.37, 0.685, 0, 0.7825, 0.0975, 0.88, 0.195, 0.9775, 0.2925, 1.0775, 0.39, 1.175, 0.4875, 1.2725, 0.5875, 1.37, 0.685, 0, 0.7825, 0.0975, 0.88, 0.195, 0.9775, 0.2925, 1.0775, 0.39, 1.175, 0.4875, 1.2725, 0.5875, 1.37, 0.685, 0, 0.7825, 0.0975, 0.88, 0.195, 0.9775, 0.2925, 1.0775, 0.39, 1.175, 0.4875, 1.2725, 0.5875, 1.37, 0.685],
  "SoftwareVersions": "syngo_MR_E11",
  "SpacingBetweenSlices": 2,
  "StationName": "MRC35049",
  "TaskName": "things",
  "TotalReadoutTime": 0.0576811,
  "TxRefAmp": 292.797,
  "WipMemBlock": "86a07f80-88af-4cc7-9b49-307ddd17d7e9||Sequence: R016 ve11c/master r/e634e98; Dec 19 2017 11:00:25 by eja",
  "dcmmeta_affine": [
    [-1.994667887687683, -0.05432254821062088, 0.1354595124721527, 106.73898315429688],
    [-0.099146768450737, 1.866561770439148, -0.7114190459251404, -54.0562744140625],
    [0.10709872096776962, 0.7162375450134277, 1.8642783164978027, -71.10667419433594],
    [0.0, 0.0, 0.0, 1.0]
],
  "dcmmeta_reorient_transform": [
    [0.0, -1.0, 0.0, 103.0],
    [1.0, 0.0, 0.0, 0.0],
    [0.0, 0.0, 1.0, 0.0],
    [0.0, 0.0, 0.0, 1.0]
],
  "dcmmeta_shape": [104, 104, 60, 190],
  "dcmmeta_slice_dim": 2,
  "dcmmeta_version": 0.6,
  "global": {
    "const": {
      "AcquisitionMatrix": [104, 0, 0, 104],
      "AngioFlag": "N",
      "BitsAllocated": 16,
      "BitsStored": 16,
      "BodyPartExamined": "BRAIN",
      "Columns": 832,
      "EchoNumbers": 1,
      "EchoTime": 37.0,
      "EchoTrainLength": 104,
      "FlipAngle": 52.0,
      "HighBit": 15,
      "ImageOrientationPatient": [0.99733391888954, 0.04957338270694, 0.05354936002823, -0.0271612745477, 0.93328089005576, -0.358118758824],
      "ImagePositionPatient": [-807.42944683116, -853.71750106284, 224.39230986647],
      "ImageType": [
        "ORIGINAL",
        "PRIMARY",
        "P",
        "MB",
        "ND",
        "MOSAIC"
],
      "ImagedNucleus": "1H",
      "ImagingFrequency": 123.259104,
      "InPlanePhaseEncodingDirection": "COL",
      "LargestImagePixelValue": 4095,
      "MRAcquisitionType": "2D",
      "MagneticFieldStrength": 3.0,
      "Manufacturer": "SIEMENS",
      "ManufacturerModelName": "Prisma_fit",
      "Modality": "MR",
      "NumberOfAverages": 1.0,
      "NumberOfPhaseEncodingSteps": 104,
      "PercentPhaseFieldOfView": 100.0,
      "PercentSampling": 100.0,
      "PerformedProcedureStepStartTime": "174709.634000",
      "PhotometricInterpretation": "MONOCHROME2",
      "PixelBandwidth": 2290.0,
      "PixelRepresentation": 0,
      "PixelSpacing": [2.0, 2.0],
      "ProtocolName": "func_task-things_run-4",
      "RepetitionTime": 1490.0,
      "RescaleIntercept": -4096.0,
      "RescaleSlope": 2.0,
      "RescaleType": "US",
      "Rows": 832,
      "SAR": 0.05744491274238,
      "SamplesPerPixel": 1,
      "ScanOptions": "FS",
      "ScanningSequence": "EP",
      "SequenceName": "epfid2d1_104",
      "SequenceVariant": [
        "SK",
        "SS"
],
      "SeriesDescription": "func_task-things_run-4",
      "SeriesNumber": 20,
      "SeriesTime": "181526.050000",
      "SliceLocation": -39.823582546945,
      "SliceThickness": 2.0,
      "SmallestImagePixelValue": 0,
      "SoftwareVersions": "syngo MR E11",
      "SpacingBetweenSlices": 2.0000000343001,
      "SpecificCharacterSet": "ISO_IR 100",
      "StudyID": "1",
      "StudyTime": "174709.478000",
      "TransmitCoilName": "Body",
      "VariableFlipAngleFlag": "N",
      "WindowCenterWidthExplanation": "Algo1",
      "dBdt": 0.0},
    "slices": {}
  },
  "time": {
    "samples": {
      "AcquisitionNumber": [1, 2, 3, 4, 5, 6, 7, 8, 9, 10, 11, 12, 13, 14, 15, 16, 17, 18, 19, 20, 21, 22, 23, 24, 25, 26, 27, 28, 29, 30, 31, 32, 33, 34, 35, 36, 37, 38, 39, 40, 41, 42, 43, 44, 45, 46, 47, 48, 49, 50, 51, 52, 53, 54, 55, 56, 57, 58, 59, 60, 61, 62, 63, 64, 65, 66, 67, 68, 69, 70, 71, 72, 73, 74, 75, 76, 77, 78, 79, 80, 81, 82, 83, 84, 85, 86, 87, 88, 89, 90, 91, 92, 93, 94, 95, 96, 97, 98, 99, 100, 101, 102, 103, 104, 105, 106, 107, 108, 109, 110, 111, 112, 113, 114, 115, 116, 117, 118, 119, 120, 121, 122, 123, 124, 125, 126, 127, 128, 129, 130, 131, 132, 133, 134, 135, 136, 137, 138, 139, 140, 141, 142, 143, 144, 145, 146, 147, 148, 149, 150, 151, 152, 153, 154, 155, 156, 157, 158, 159, 160, 161, 162, 163, 164, 165, 166, 167, 168, 169, 170, 171, 172, 173, 174, 175, 176, 177, 178, 179, 180, 181, 182, 183, 184, 185, 186, 187, 188, 189, 190],
      "AcquisitionTime": ["181407.847500", "181409.337500", "181410.827500", "181412.317500", "181413.807500", "181415.297500", "181416.787500", "181418.277500", "181419.767500", "181421.257500", "181422.747500", "181424.237500", "181425.727500", "181427.217500", "181428.707500", "181430.197500", "181431.687500", "181433.177500", "181434.667500", "181436.157500", "181437.647500", "181439.137500", "181440.627500", "181442.117500", "181443.607500", "181445.097500", "181446.587500", "181448.077500", "181449.567500", "181451.057500", "181452.547500", "181454.037500", "181455.527500", "181457.017500", "181458.507500", "181459.997500", "181501.487500", "181502.977500", "181504.467500", "181505.957500", "181507.447500", "181508.937500", "181510.427500", "181511.917500", "181513.407500", "181514.897500", "181516.387500", "181517.877500", "181519.367500", "181520.857500", "181522.347500", "181523.837500", "181525.327500", "181526.817500", "181528.307500", "181529.797500", "181531.287500", "181532.777500", "181534.267500", "181535.757500", "181537.247500", "181538.737500", "181540.227500", "181541.717500", "181543.207500", "181544.697500", "181546.187500", "181547.677500", "181549.167500", "181550.657500", "181552.147500", "181553.637500", "181555.127500", "181556.617500", "181558.107500", "181559.597500", "181601.087500", "181602.577500", "181604.067500", "181605.557500", "181607.047500", "181608.537500", "181610.027500", "181611.517500", "181613.007500", "181614.497500", "181615.987500", "181617.477500", "181618.967500", "181620.457500", "181621.947500", "181623.437500", "181624.927500", "181626.417500", "181627.907500", "181629.397500", "181630.887500", "181632.377500", "181633.867500", "181635.357500", "181636.847500", "181638.337500", "181639.827500", "181641.317500", "181642.807500", "181644.297500", "181645.787500", "181647.277500", "181648.767500", "181650.257500", "181651.747500", "181653.237500", "181654.727500", "181656.217500", "181657.707500", "181659.197500", "181700.687500", "181702.177500", "181703.667500", "181705.157500", "181706.647500", "181708.137500", "181709.627500", "181711.117500", "181712.607500", "181714.097500", "181715.587500", "181717.077500", "181718.567500", "181720.057500", "181721.547500", "181723.037500", "181724.527500", "181726.017500", "181727.507500", "181728.997500", "181730.487500", "181731.977500", "181733.467500", "181734.957500", "181736.447500", "181737.937500", "181739.427500", "181740.917500", "181742.407500", "181743.897500", "181745.387500", "181746.877500", "181748.367500", "181749.857500", "181751.347500", "181752.837500", "181754.327500", "181755.817500", "181757.307500", "181758.797500", "181800.287500", "181801.777500", "181803.267500", "181804.757500", "181806.247500", "181807.737500", "181809.227500", "181810.717500", "181812.207500", "181813.697500", "181815.187500", "181816.677500", "181818.167500", "181819.657500", "181821.147500", "181822.637500", "181824.127500", "181825.617500", "181827.107500", "181828.597500", "181830.087500", "181831.577500", "181833.067500", "181834.557500", "181836.047500", "181837.537500", "181839.027500", "181840.517500", "181842.007500", "181843.497500", "181844.987500", "181846.477500", "181847.967500", "181849.457500"],
      "ContentTime": ["181526.052000", "181526.055000", "181526.057000", "181526.060000", "181526.062000", "181526.065000", "181526.067000", "181526.070000", "181526.072000", "181526.074000", "181526.077000", "181526.079000", "181526.082000", "181526.084000", "181526.087000", "181526.094000", "181526.097000", "181526.099000", "181526.102000", "181526.104000", "181526.107000", "181526.109000", "181526.112000", "181526.114000", "181546.011000", "181546.013000", "181546.016000", "181546.018000", "181546.021000", "181546.023000", "181546.026000", "181546.028000", "181546.030000", "181546.033000", "181546.035000", "181546.038000", "181546.040000", "181546.043000", "181546.045000", "181546.048000", "181546.050000", "181546.053000", "181546.055000", "181546.058000", "181606.021000", "181606.024000", "181606.026000", "181606.029000", "181606.039000", "181606.042000", "181606.044000", "181606.047000", "181606.050000", "181606.052000", "181606.055000", "181606.057000", "181606.060000", "181606.062000", "181606.065000", "181606.067000", "181606.069000", "181606.072000", "181606.074000", "181606.077000", "181626.020000", "181626.023000", "181626.026000", "181626.036000", "181626.039000", "181626.041000", "181626.044000", "181626.046000", "181626.049000", "181626.051000", "181626.054000", "181626.056000", "181626.059000", "181626.061000", "181626.064000", "181626.066000", "181626.069000", "181626.071000", "181626.074000", "181626.076000", "181626.079000", "181646.007000", "181646.010000", "181646.012000", "181646.015000", "181646.017000", "181646.020000", "181646.022000", "181646.025000", "181646.027000", "181646.030000", "181646.032000", "181646.035000", "181646.037000", "181646.040000", "181646.042000", "181646.045000", "181646.047000", "181646.050000", "181646.052000", "181646.055000", "181726.048000", "181726.051000", "181726.053000", "181726.055000", "181726.058000", "181726.060000", "181726.063000", "181726.065000", "181726.068000", "181726.070000", "181726.073000", "181726.075000", "181726.078000", "181726.080000", "181726.083000", "181726.085000", "181726.088000", "181726.090000", "181726.093000", "181726.095000", "181726.098000", "181726.100000", "181726.103000", "181726.105000", "181726.108000", "181726.110000", "181726.113000", "181806.039000", "181806.042000", "181806.044000", "181806.047000", "181806.049000", "181806.052000", "181806.054000", "181806.057000", "181806.059000", "181806.062000", "181806.064000", "181806.067000", "181806.069000", "181806.072000", "181806.074000", "181806.077000", "181806.079000", "181806.082000", "181806.084000", "181806.087000", "181806.089000", "181806.092000", "181806.094000", "181806.097000", "181806.099000", "181806.102000", "181806.104000", "181846.058000", "181846.061000", "181846.063000", "181846.066000", "181846.068000", "181846.071000", "181846.073000", "181846.076000", "181846.078000", "181846.081000", "181846.083000", "181846.086000", "181846.088000", "181846.091000", "181846.093000", "181846.096000", "181846.098000", "181846.101000", "181846.103000", "181846.106000", "181846.108000", "181846.111000", "181846.113000", "181846.116000", "181846.118000", "181846.121000", "181846.123000", "181851.796000", "181851.798000", "181851.801000", "181851.803000"],
      "InstanceCreationTime": ["181526.052000", "181526.055000", "181526.057000", "181526.060000", "181526.062000", "181526.065000", "181526.067000", "181526.070000", "181526.072000", "181526.074000", "181526.077000", "181526.079000", "181526.082000", "181526.084000", "181526.087000", "181526.094000", "181526.097000", "181526.099000", "181526.102000", "181526.104000", "181526.107000", "181526.109000", "181526.112000", "181526.114000", "181546.011000", "181546.013000", "181546.016000", "181546.018000", "181546.021000", "181546.023000", "181546.026000", "181546.028000", "181546.030000", "181546.033000", "181546.035000", "181546.038000", "181546.040000", "181546.043000", "181546.045000", "181546.048000", "181546.050000", "181546.053000", "181546.055000", "181546.058000", "181606.021000", "181606.024000", "181606.026000", "181606.029000", "181606.039000", "181606.042000", "181606.044000", "181606.047000", "181606.050000", "181606.052000", "181606.055000", "181606.057000", "181606.060000", "181606.062000", "181606.065000", "181606.067000", "181606.069000", "181606.072000", "181606.074000", "181606.077000", "181626.020000", "181626.023000", "181626.026000", "181626.036000", "181626.039000", "181626.041000", "181626.044000", "181626.046000", "181626.049000", "181626.051000", "181626.054000", "181626.056000", "181626.059000", "181626.061000", "181626.064000", "181626.066000", "181626.069000", "181626.071000", "181626.074000", "181626.076000", "181626.079000", "181646.007000", "181646.010000", "181646.012000", "181646.015000", "181646.017000", "181646.020000", "181646.022000", "181646.025000", "181646.027000", "181646.030000", "181646.032000", "181646.035000", "181646.037000", "181646.040000", "181646.042000", "181646.045000", "181646.047000", "181646.050000", "181646.052000", "181646.055000", "181726.048000", "181726.051000", "181726.053000", "181726.055000", "181726.058000", "181726.060000", "181726.063000", "181726.065000", "181726.068000", "181726.070000", "181726.073000", "181726.075000", "181726.078000", "181726.080000", "181726.083000", "181726.085000", "181726.088000", "181726.090000", "181726.093000", "181726.095000", "181726.098000", "181726.100000", "181726.103000", "181726.105000", "181726.108000", "181726.110000", "181726.113000", "181806.039000", "181806.042000", "181806.044000", "181806.047000", "181806.049000", "181806.052000", "181806.054000", "181806.057000", "181806.059000", "181806.062000", "181806.064000", "181806.067000", "181806.069000", "181806.072000", "181806.074000", "181806.077000", "181806.079000", "181806.082000", "181806.084000", "181806.087000", "181806.089000", "181806.092000", "181806.094000", "181806.097000", "181806.099000", "181806.102000", "181806.104000", "181846.058000", "181846.061000", "181846.063000", "181846.066000", "181846.068000", "181846.071000", "181846.073000", "181846.076000", "181846.078000", "181846.081000", "181846.083000", "181846.086000", "181846.088000", "181846.091000", "181846.093000", "181846.096000", "181846.098000", "181846.101000", "181846.103000", "181846.106000", "181846.108000", "181846.111000", "181846.113000", "181846.116000", "181846.118000", "181846.121000", "181846.123000", "181851.796000", "181851.798000", "181851.801000", "181851.803000"],
      "InstanceNumber": [1, 2, 3, 4, 5, 6, 7, 8, 9, 10, 11, 12, 13, 14, 15, 16, 17, 18, 19, 20, 21, 22, 23, 24, 25, 26, 27, 28, 29, 30, 31, 32, 33, 34, 35, 36, 37, 38, 39, 40, 41, 42, 43, 44, 45, 46, 47, 48, 49, 50, 51, 52, 53, 54, 55, 56, 57, 58, 59, 60, 61, 62, 63, 64, 65, 66, 67, 68, 69, 70, 71, 72, 73, 74, 75, 76, 77, 78, 79, 80, 81, 82, 83, 84, 85, 86, 87, 88, 89, 90, 91, 92, 93, 94, 95, 96, 97, 98, 99, 100, 101, 102, 103, 104, 105, 106, 107, 108, 109, 110, 111, 112, 113, 114, 115, 116, 117, 118, 119, 120, 121, 122, 123, 124, 125, 126, 127, 128, 129, 130, 131, 132, 133, 134, 135, 136, 137, 138, 139, 140, 141, 142, 143, 144, 145, 146, 147, 148, 149, 150, 151, 152, 153, 154, 155, 156, 157, 158, 159, 160, 161, 162, 163, 164, 165, 166, 167, 168, 169, 170, 171, 172, 173, 174, 175, 176, 177, 178, 179, 180, 181, 182, 183, 184, 185, 186, 187, 188, 189, 190],
      "WindowCenter": [4850.0, 4848.0, 4846.0, 4824.0, 4850.0, 4850.0, 4850.0, 4846.0, 4848.0, 4850.0, 4824.0, 4824.0, 4850.0, 4826.0, 4848.0, 4824.0, 4818.0, 4818.0, 4824.0, 4846.0, 4842.0, 4846.0, 4844.0, 4820.0, 4848.0, 4844.0, 4822.0, 4818.0, 4820.0, 4822.0, 4822.0, 4846.0, 4822.0, 4820.0, 4820.0, 4844.0, 4820.0, 4822.0, 4818.0, 4816.0, 4820.0, 4816.0, 4844.0, 4822.0, 4822.0, 4844.0, 4820.0, 4842.0, 4818.0, 4820.0, 4822.0, 4822.0, 4814.0, 4814.0, 4818.0, 4816.0, 4818.0, 4818.0, 4846.0, 4844.0, 4818.0, 4814.0, 4810.0, 4816.0, 4812.0, 4818.0, 4814.0, 4816.0, 4820.0, 4818.0, 4820.0, 4818.0, 4818.0, 4818.0, 4844.0, 4820.0, 4820.0, 4842.0, 4818.0, 4816.0, 4820.0, 4816.0, 4820.0, 4820.0, 4816.0, 4820.0, 4820.0, 4822.0, 4818.0, 4818.0, 4814.0, 4812.0, 4812.0, 4820.0, 4822.0, 4844.0, 4822.0, 4822.0, 4844.0, 4820.0, 4820.0, 4822.0, 4820.0, 4818.0, 4818.0, 4818.0, 4818.0, 4846.0, 4846.0, 4844.0, 4814.0, 4814.0, 4816.0, 4820.0, 4818.0, 4816.0, 4814.0, 4816.0, 4820.0, 4844.0, 4844.0, 4844.0, 4818.0, 4818.0, 4818.0, 4822.0, 4844.0, 4822.0, 4818.0, 4816.0, 4814.0, 4818.0, 4850.0, 4822.0, 4846.0, 4820.0, 4820.0, 4814.0, 4820.0, 4816.0, 4814.0, 4820.0, 4844.0, 4814.0, 4816.0, 4818.0, 4820.0, 4820.0, 4820.0, 4816.0, 4816.0, 4820.0, 4846.0, 4822.0, 4818.0, 4816.0, 4814.0, 4814.0, 4818.0, 4816.0, 4814.0, 4816.0, 4812.0, 4816.0, 4820.0, 4820.0, 4818.0, 4820.0, 4818.0, 4818.0, 4820.0, 4816.0, 4820.0, 4822.0, 4842.0, 4820.0, 4814.0, 4814.0, 4814.0, 4816.0, 4818.0, 4818.0, 4816.0, 4820.0, 4820.0, 4816.0, 4814.0, 4814.0, 4810.0, 4812.0],
      "WindowWidth": [18624.0, 18626.0, 18630.0, 18598.0, 18622.0, 18620.0, 18626.0, 18630.0, 18626.0, 18620.0, 18600.0, 18602.0, 18638.0, 18604.0, 18628.0, 18592.0, 18588.0, 18586.0, 18596.0, 18630.0, 18626.0, 18630.0, 18630.0, 18602.0, 18630.0, 18626.0, 18598.0, 18594.0, 18596.0, 18598.0, 18590.0, 18626.0, 18606.0, 18606.0, 18602.0, 18630.0, 18598.0, 18598.0, 18594.0, 18594.0, 18598.0, 18592.0, 18628.0, 18600.0, 18598.0, 18630.0, 18600.0, 18630.0, 18596.0, 18600.0, 18600.0, 18602.0, 18592.0, 18588.0, 18594.0, 18596.0, 18594.0, 18594.0, 18632.0, 18634.0, 18594.0, 18594.0, 18588.0, 18584.0, 18586.0, 18594.0, 18600.0, 18592.0, 18596.0, 18602.0, 18596.0, 18592.0, 18594.0, 18594.0, 18620.0, 18596.0, 18594.0, 18624.0, 18590.0, 18588.0, 18594.0, 18588.0, 18590.0, 18592.0, 18590.0, 18592.0, 18596.0, 18596.0, 18598.0, 18588.0, 18590.0, 18586.0, 18584.0, 18580.0, 18590.0, 18626.0, 18600.0, 18596.0, 18632.0, 18596.0, 18590.0, 18594.0, 18590.0, 18586.0, 18586.0, 18588.0, 18590.0, 18630.0, 18630.0, 18626.0, 18586.0, 18590.0, 18588.0, 18592.0, 18588.0, 18590.0, 18586.0, 18596.0, 18596.0, 18624.0, 18632.0, 18630.0, 18590.0, 18590.0, 18592.0, 18592.0, 18624.0, 18592.0, 18588.0, 18588.0, 18594.0, 18582.0, 18622.0, 18588.0, 18632.0, 18596.0, 18604.0, 18588.0, 18590.0, 18590.0, 18584.0, 18588.0, 18628.0, 18588.0, 18590.0, 18594.0, 18596.0, 18592.0, 18592.0, 18588.0, 18590.0, 18586.0, 18630.0, 18600.0, 18590.0, 18590.0, 18582.0, 18588.0, 18586.0, 18586.0, 18588.0, 18592.0, 18588.0, 18590.0, 18600.0, 18598.0, 18586.0, 18592.0, 18590.0, 18590.0, 18588.0, 18594.0, 18598.0, 18594.0, 18628.0, 18594.0, 18588.0, 18584.0, 18586.0, 18588.0, 18590.0, 18594.0, 18586.0, 18594.0, 18594.0, 18598.0, 18590.0, 18582.0, 18584.0, 18588.0]
    },
    "slices": {}
  }
}