{
  "AcquisitionMatrixPE": 104,
  "AcquisitionNumber": 1,
  "AcquisitionTime": "11:07:56.595000",
  "BandwidthPerPixelPhaseEncode": 17.17,
  "BaseResolution": 104,
  "BodyPartExamined": "BRAIN",
  "CoilString": "HC1-7;NC1_2",
  "ConsistencyInfo": "N4_VE11C_LATEST_20160120",
  "ConversionSoftware": "dcm2niix",
  "ConversionSoftwareVersion": "v1.0.20190902",
  "DerivedVendorReportedEchoSpacing": 0.000560011,
  "DeviceSerialNumber": "167006",
  "DwellTime": 2.1e-06,
  "EchoTime": 0.037,
  "EchoTrainLength": 104,
  "EffectiveEchoSpacing": 0.000560011,
  "FlipAngle": 52,
  "ImageComments": "Unaliased_MB4_PE3_LB",
  "ImageOrientationPatientDICOM": [0.999809, 0.0190386, 0.00445346, -0.0137863, 0.847941, -0.529912],
  "ImageType": [
    "ORIGINAL",
    "PRIMARY",
    "P",
    "MB",
    "ND",
    "MOSAIC"
],
  "ImagingFrequency": 123.259,
  "InPlanePhaseEncodingDirectionDICOM": "COL",
  "InstitutionAddress": "Chemin_Queen-Mary_4565_Montreal_District_CA_H3W_1W5",
  "InstitutionName": "IUGM",
  "InstitutionalDepartmentName": "Department",
  "MRAcquisitionType": "2D",
  "MagneticFieldStrength": 3,
  "Manufacturer": "Siemens",
  "ManufacturersModelName": "Prisma_fit",
  "Modality": "MR",
  "MultibandAccelerationFactor": 4,
  "PartialFourier": 1,
  "PatientPosition": "HFS",
  "PercentPhaseFOV": 100,
  "PhaseEncodingDirection": "j",
  "PhaseEncodingSteps": 104,
  "PhaseResolution": 1,
  "PixelBandwidth": 2290,
  "ProcedureStepDescription": "memory_things",
  "ProtocolName": "func_task-things_run-1",
  "PulseSequenceDetails": "%CustomerSeq%_cmrr_mbep2d_bold",
  "ReceiveCoilActiveElements": "HC1-7;NC1,2",
  "ReceiveCoilName": "HeadNeck_64",
  "ReconMatrixPE": 104,
  "RepetitionTime": 1.49,
  "SAR": 0.0572895,
  "ScanOptions": "FS",
  "ScanningSequence": "EP",
  "SequenceName": "epfid2d1_104",
  "SequenceVariant": "SK_SS",
  "SeriesDescription": "func_task-things_run-1",
  "SeriesNumber": 11,
  "ShimSetting": [613, -7182, -8858, 320, 13, -142, -61, -33],
  "SliceThickness": 2,
  "SliceTiming": [0, 0.7825, 0.0975, 0.8825, 0.195, 0.98, 0.2925, 1.0775, 0.3925, 1.175, 0.49, 1.2725, 0.5875, 1.3725, 0.685, 0, 0.7825, 0.0975, 0.8825, 0.195, 0.98, 0.2925, 1.0775, 0.3925, 1.175, 0.49, 1.2725, 0.5875, 1.3725, 0.685, 0, 0.7825, 0.0975, 0.8825, 0.195, 0.98, 0.2925, 1.0775, 0.3925, 1.175, 0.49, 1.2725, 0.5875, 1.3725, 0.685, 0, 0.7825, 0.0975, 0.8825, 0.195, 0.98, 0.2925, 1.0775, 0.3925, 1.175, 0.49, 1.2725, 0.5875, 1.3725, 0.685],
  "SoftwareVersions": "syngo_MR_E11",
  "SpacingBetweenSlices": 2,
  "StationName": "MRC35049",
  "TaskName": "things",
  "TotalReadoutTime": 0.0576811,
  "TxRefAmp": 287.78,
  "WipMemBlock": "af74d306-3bf3-493f-91aa-1f63baa70feb||Sequence: R016 ve11c/master r/e634e98; Dec 19 2017 11:00:25 by eja",
  "dcmmeta_affine": [
    [-1.9996176958084106, -0.027572689577937126, 0.02773013710975647, 107.68294525146484],
    [-0.03807729855179787, 1.695881724357605, -1.059497594833374, -47.36752700805664],
    [0.00890691764652729, 1.0598230361938477, 1.6960824728012085, -92.62821960449219],
    [0.0, 0.0, 0.0, 1.0]
],
  "dcmmeta_reorient_transform": [
    [0.0, -1.0, 0.0, 103.0],
    [1.0, 0.0, 0.0, 0.0],
    [0.0, 0.0, 1.0, 0.0],
    [0.0, 0.0, 0.0, 1.0]
],
  "dcmmeta_shape": [104, 104, 60, 190],
  "dcmmeta_slice_dim": 2,
  "dcmmeta_version": 0.6,
  "global": {
    "const": {
      "AcquisitionMatrix": [104, 0, 0, 104],
      "AngioFlag": "N",
      "BitsAllocated": 16,
      "BitsStored": 16,
      "BodyPartExamined": "BRAIN",
      "Columns": 832,
      "EchoNumbers": 1,
      "EchoTime": 37.0,
      "EchoTrainLength": 104,
      "FlipAngle": 52.0,
      "HighBit": 15,
      "ImageOrientationPatient": [0.99980883001057, 0.01903864855799, 0.0044534586543, -0.0137863445043, 0.84794086182857, -0.5299115318113],
      "ImagePositionPatient": [-822.66733140962, -758.46937436403, 399.06703071553],
      "ImageType": [
        "ORIGINAL",
        "PRIMARY",
        "P",
        "MB",
        "ND",
        "MOSAIC"
],
      "ImagedNucleus": "1H",
      "ImagingFrequency": 123.258953,
      "InPlanePhaseEncodingDirection": "COL",
      "LargestImagePixelValue": 4095,
      "MRAcquisitionType": "2D",
      "MagneticFieldStrength": 3.0,
      "Manufacturer": "SIEMENS",
      "ManufacturerModelName": "Prisma_fit",
      "Modality": "MR",
      "NumberOfAverages": 1.0,
      "NumberOfPhaseEncodingSteps": 104,
      "PercentPhaseFieldOfView": 100.0,
      "PercentSampling": 100.0,
      "PerformedProcedureStepStartTime": "105314.960000",
      "PhotometricInterpretation": "MONOCHROME2",
      "PixelBandwidth": 2290.0,
      "PixelRepresentation": 0,
      "PixelSpacing": [2.0, 2.0],
      "ProtocolName": "func_task-things_run-1",
      "RepetitionTime": 1490.0,
      "RescaleIntercept": -4096.0,
      "RescaleSlope": 2.0,
      "RescaleType": "US",
      "Rows": 832,
      "SAR": 0.05728948719793,
      "SamplesPerPixel": 1,
      "ScanOptions": "FS",
      "ScanningSequence": "EP",
      "SequenceName": "epfid2d1_104",
      "SequenceVariant": [
        "SK",
        "SS"
],
      "SeriesDescription": "func_task-things_run-1",
      "SeriesNumber": 11,
      "SeriesTime": "110922.350000",
      "SliceLocation": -51.966628337402,
      "SliceThickness": 2.0,
      "SmallestImagePixelValue": 0,
      "SoftwareVersions": "syngo MR E11",
      "SpacingBetweenSlices": 1.9999999649142,
      "SpecificCharacterSet": "ISO_IR 100",
      "StudyID": "1",
      "StudyTime": "105314.886000",
      "TransmitCoilName": "Body",
      "VariableFlipAngleFlag": "N",
      "WindowCenterWidthExplanation": "Algo1",
      "dBdt": 0.0},
    "slices": {}
  },
  "time": {
    "samples": {
      "AcquisitionNumber": [1, 2, 3, 4, 5, 6, 7, 8, 9, 10, 11, 12, 13, 14, 15, 16, 17, 18, 19, 20, 21, 22, 23, 24, 25, 26, 27, 28, 29, 30, 31, 32, 33, 34, 35, 36, 37, 38, 39, 40, 41, 42, 43, 44, 45, 46, 47, 48, 49, 50, 51, 52, 53, 54, 55, 56, 57, 58, 59, 60, 61, 62, 63, 64, 65, 66, 67, 68, 69, 70, 71, 72, 73, 74, 75, 76, 77, 78, 79, 80, 81, 82, 83, 84, 85, 86, 87, 88, 89, 90, 91, 92, 93, 94, 95, 96, 97, 98, 99, 100, 101, 102, 103, 104, 105, 106, 107, 108, 109, 110, 111, 112, 113, 114, 115, 116, 117, 118, 119, 120, 121, 122, 123, 124, 125, 126, 127, 128, 129, 130, 131, 132, 133, 134, 135, 136, 137, 138, 139, 140, 141, 142, 143, 144, 145, 146, 147, 148, 149, 150, 151, 152, 153, 154, 155, 156, 157, 158, 159, 160, 161, 162, 163, 164, 165, 166, 167, 168, 169, 170, 171, 172, 173, 174, 175, 176, 177, 178, 179, 180, 181, 182, 183, 184, 185, 186, 187, 188, 189, 190],
      "AcquisitionTime": ["110756.595000", "110758.085000", "110759.575000", "110801.065000", "110802.555000", "110804.045000", "110805.535000", "110807.025000", "110808.515000", "110810.005000", "110811.495000", "110812.985000", "110814.475000", "110815.965000", "110817.455000", "110818.945000", "110820.435000", "110821.925000", "110823.415000", "110824.905000", "110826.395000", "110827.885000", "110829.375000", "110830.865000", "110832.355000", "110833.845000", "110835.335000", "110836.825000", "110838.315000", "110839.805000", "110841.295000", "110842.785000", "110844.275000", "110845.765000", "110847.255000", "110848.745000", "110850.235000", "110851.725000", "110853.215000", "110854.705000", "110856.195000", "110857.685000", "110859.175000", "110900.665000", "110902.155000", "110903.645000", "110905.135000", "110906.625000", "110908.115000", "110909.605000", "110911.095000", "110912.585000", "110914.075000", "110915.565000", "110917.055000", "110918.545000", "110920.035000", "110921.525000", "110923.015000", "110924.505000", "110925.995000", "110927.485000", "110928.975000", "110930.465000", "110931.955000", "110933.445000", "110934.935000", "110936.425000", "110937.915000", "110939.405000", "110940.895000", "110942.385000", "110943.875000", "110945.365000", "110946.855000", "110948.345000", "110949.835000", "110951.325000", "110952.815000", "110954.305000", "110955.795000", "110957.285000", "110958.775000", "111000.265000", "111001.755000", "111003.245000", "111004.735000", "111006.225000", "111007.715000", "111009.205000", "111010.695000", "111012.185000", "111013.675000", "111015.165000", "111016.655000", "111018.145000", "111019.635000", "111021.125000", "111022.615000", "111024.105000", "111025.595000", "111027.085000", "111028.575000", "111030.065000", "111031.555000", "111033.045000", "111034.535000", "111036.025000", "111037.515000", "111039.005000", "111040.495000", "111041.985000", "111043.475000", "111044.965000", "111046.455000", "111047.945000", "111049.435000", "111050.925000", "111052.415000", "111053.905000", "111055.395000", "111056.885000", "111058.375000", "111059.865000", "111101.355000", "111102.845000", "111104.335000", "111105.825000", "111107.315000", "111108.805000", "111110.295000", "111111.785000", "111113.275000", "111114.765000", "111116.255000", "111117.745000", "111119.235000", "111120.725000", "111122.215000", "111123.705000", "111125.195000", "111126.685000", "111128.175000", "111129.665000", "111131.155000", "111132.645000", "111134.135000", "111135.625000", "111137.115000", "111138.605000", "111140.095000", "111141.585000", "111143.075000", "111144.565000", "111146.055000", "111147.545000", "111149.035000", "111150.525000", "111152.015000", "111153.505000", "111154.995000", "111156.485000", "111157.975000", "111159.465000", "111200.955000", "111202.445000", "111203.935000", "111205.425000", "111206.915000", "111208.405000", "111209.895000", "111211.385000", "111212.875000", "111214.365000", "111215.855000", "111217.345000", "111218.835000", "111220.325000", "111221.815000", "111223.305000", "111224.795000", "111226.285000", "111227.775000", "111229.265000", "111230.755000", "111232.245000", "111233.735000", "111235.225000", "111236.715000", "111238.205000"],
      "ContentTime": ["110922.352000", "110922.355000", "110922.358000", "110922.360000", "110922.363000", "110922.365000", "110922.368000", "110922.370000", "110922.373000", "110922.382000", "110922.385000", "110922.387000", "110922.390000", "110922.392000", "110922.395000", "110922.397000", "110922.400000", "110922.402000", "110922.405000", "110922.407000", "110922.410000", "110922.412000", "110922.415000", "110922.417000", "110922.420000", "110922.422000", "110922.425000", "110922.427000", "110922.430000", "110922.432000", "110942.271000", "110942.274000", "110942.277000", "110942.280000", "110942.283000", "110942.285000", "110942.288000", "110942.290000", "110942.293000", "110942.296000", "110942.299000", "110942.301000", "110942.304000", "110942.307000", "110942.309000", "110942.312000", "110942.314000", "110942.317000", "110942.319000", "110942.322000", "111002.275000", "111002.278000", "111002.281000", "111002.283000", "111002.286000", "111002.288000", "111002.291000", "111002.293000", "111002.296000", "111002.298000", "111002.301000", "111002.303000", "111002.306000", "111002.308000", "111002.311000", "111002.313000", "111002.316000", "111002.318000", "111002.321000", "111002.323000", "111002.326000", "111022.263000", "111022.266000", "111022.268000", "111022.271000", "111022.273000", "111022.276000", "111022.278000", "111022.285000", "111022.287000", "111022.290000", "111022.292000", "111022.295000", "111022.297000", "111022.300000", "111022.302000", "111022.305000", "111022.308000", "111022.310000", "111022.313000", "111022.315000", "111102.346000", "111102.349000", "111102.351000", "111102.354000", "111102.356000", "111102.359000", "111102.361000", "111102.364000", "111102.366000", "111102.369000", "111102.371000", "111102.374000", "111102.376000", "111102.379000", "111102.381000", "111102.384000", "111102.386000", "111102.389000", "111102.391000", "111102.394000", "111102.396000", "111102.399000", "111102.401000", "111102.404000", "111102.406000", "111102.409000", "111102.412000", "111102.414000", "111102.417000", "111102.419000", "111102.422000", "111102.425000", "111102.427000", "111142.330000", "111142.333000", "111142.335000", "111142.338000", "111142.340000", "111142.343000", "111142.345000", "111142.348000", "111142.351000", "111142.353000", "111142.356000", "111142.358000", "111142.361000", "111142.363000", "111142.366000", "111142.368000", "111142.371000", "111142.373000", "111142.376000", "111142.378000", "111142.381000", "111142.383000", "111142.386000", "111142.388000", "111142.391000", "111142.393000", "111142.396000", "111222.304000", "111222.307000", "111222.309000", "111222.312000", "111222.314000", "111222.317000", "111222.319000", "111222.322000", "111222.324000", "111222.327000", "111222.329000", "111222.332000", "111222.335000", "111222.337000", "111222.340000", "111222.342000", "111222.345000", "111222.347000", "111222.350000", "111222.352000", "111222.355000", "111222.357000", "111222.360000", "111222.362000", "111222.365000", "111222.367000", "111240.232000", "111240.235000", "111240.237000", "111240.240000", "111240.242000", "111240.245000", "111240.248000", "111240.250000", "111240.253000", "111240.255000", "111240.258000", "111240.260000", "111240.263000"],
      "InstanceCreationTime": ["110922.352000", "110922.355000", "110922.358000", "110922.360000", "110922.363000", "110922.365000", "110922.368000", "110922.370000", "110922.373000", "110922.382000", "110922.385000", "110922.387000", "110922.390000", "110922.392000", "110922.395000", "110922.397000", "110922.400000", "110922.402000", "110922.405000", "110922.407000", "110922.410000", "110922.412000", "110922.415000", "110922.417000", "110922.420000", "110922.422000", "110922.425000", "110922.427000", "110922.430000", "110922.432000", "110942.271000", "110942.274000", "110942.277000", "110942.280000", "110942.283000", "110942.285000", "110942.288000", "110942.290000", "110942.293000", "110942.296000", "110942.299000", "110942.301000", "110942.304000", "110942.307000", "110942.309000", "110942.312000", "110942.314000", "110942.317000", "110942.319000", "110942.322000", "111002.275000", "111002.278000", "111002.281000", "111002.283000", "111002.286000", "111002.288000", "111002.291000", "111002.293000", "111002.296000", "111002.298000", "111002.301000", "111002.303000", "111002.306000", "111002.308000", "111002.311000", "111002.313000", "111002.316000", "111002.318000", "111002.321000", "111002.323000", "111002.326000", "111022.263000", "111022.266000", "111022.268000", "111022.271000", "111022.273000", "111022.276000", "111022.278000", "111022.285000", "111022.287000", "111022.290000", "111022.292000", "111022.295000", "111022.297000", "111022.300000", "111022.302000", "111022.305000", "111022.308000", "111022.310000", "111022.313000", "111022.315000", "111102.346000", "111102.349000", "111102.351000", "111102.354000", "111102.356000", "111102.359000", "111102.361000", "111102.364000", "111102.366000", "111102.369000", "111102.371000", "111102.374000", "111102.376000", "111102.379000", "111102.381000", "111102.384000", "111102.386000", "111102.389000", "111102.391000", "111102.394000", "111102.396000", "111102.399000", "111102.401000", "111102.404000", "111102.406000", "111102.409000", "111102.412000", "111102.414000", "111102.417000", "111102.419000", "111102.422000", "111102.425000", "111102.427000", "111142.330000", "111142.333000", "111142.335000", "111142.338000", "111142.340000", "111142.343000", "111142.345000", "111142.348000", "111142.351000", "111142.353000", "111142.356000", "111142.358000", "111142.361000", "111142.363000", "111142.366000", "111142.368000", "111142.371000", "111142.373000", "111142.376000", "111142.378000", "111142.381000", "111142.383000", "111142.386000", "111142.388000", "111142.391000", "111142.393000", "111142.396000", "111222.304000", "111222.307000", "111222.309000", "111222.312000", "111222.314000", "111222.317000", "111222.319000", "111222.322000", "111222.324000", "111222.327000", "111222.329000", "111222.332000", "111222.335000", "111222.337000", "111222.340000", "111222.342000", "111222.345000", "111222.347000", "111222.350000", "111222.352000", "111222.355000", "111222.357000", "111222.360000", "111222.362000", "111222.365000", "111222.367000", "111240.232000", "111240.235000", "111240.237000", "111240.240000", "111240.242000", "111240.245000", "111240.248000", "111240.250000", "111240.253000", "111240.255000", "111240.258000", "111240.260000", "111240.263000"],
      "InstanceNumber": [1, 2, 3, 4, 5, 6, 7, 8, 9, 10, 11, 12, 13, 14, 15, 16, 17, 18, 19, 20, 21, 22, 23, 24, 25, 26, 27, 28, 29, 30, 31, 32, 33, 34, 35, 36, 37, 38, 39, 40, 41, 42, 43, 44, 45, 46, 47, 48, 49, 50, 51, 52, 53, 54, 55, 56, 57, 58, 59, 60, 61, 62, 63, 64, 65, 66, 67, 68, 69, 70, 71, 72, 73, 74, 75, 76, 77, 78, 79, 80, 81, 82, 83, 84, 85, 86, 87, 88, 89, 90, 91, 92, 93, 94, 95, 96, 97, 98, 99, 100, 101, 102, 103, 104, 105, 106, 107, 108, 109, 110, 111, 112, 113, 114, 115, 116, 117, 118, 119, 120, 121, 122, 123, 124, 125, 126, 127, 128, 129, 130, 131, 132, 133, 134, 135, 136, 137, 138, 139, 140, 141, 142, 143, 144, 145, 146, 147, 148, 149, 150, 151, 152, 153, 154, 155, 156, 157, 158, 159, 160, 161, 162, 163, 164, 165, 166, 167, 168, 169, 170, 171, 172, 173, 174, 175, 176, 177, 178, 179, 180, 181, 182, 183, 184, 185, 186, 187, 188, 189, 190],
      "WindowCenter": [4792.0, 4798.0, 4794.0, 4788.0, 4786.0, 4792.0, 4790.0, 4792.0, 4788.0, 4790.0, 4798.0, 4794.0, 4792.0, 4794.0, 4790.0, 4794.0, 4796.0, 4792.0, 4790.0, 4792.0, 4792.0, 4788.0, 4794.0, 4796.0, 4790.0, 4796.0, 4796.0, 4792.0, 4794.0, 4792.0, 4790.0, 4792.0, 4790.0, 4794.0, 4792.0, 4790.0, 4790.0, 4792.0, 4798.0, 4790.0, 4800.0, 4800.0, 4788.0, 4790.0, 4786.0, 4782.0, 4792.0, 4796.0, 4792.0, 4822.0, 4854.0, 4794.0, 4788.0, 4786.0, 4786.0, 4790.0, 4784.0, 4786.0, 4788.0, 4796.0, 4792.0, 4820.0, 4826.0, 4790.0, 4798.0, 4790.0, 4786.0, 4790.0, 4784.0, 4786.0, 4786.0, 4792.0, 4792.0, 4798.0, 4798.0, 4796.0, 4826.0, 4824.0, 4786.0, 4790.0, 4788.0, 4786.0, 4822.0, 4830.0, 4800.0, 4790.0, 4786.0, 4786.0, 4796.0, 4824.0, 4796.0, 4786.0, 4792.0, 4788.0, 4786.0, 4792.0, 4792.0, 4794.0, 4790.0, 4790.0, 4824.0, 4800.0, 4790.0, 4784.0, 4788.0, 4784.0, 4790.0, 4796.0, 4792.0, 4798.0, 4798.0, 4788.0, 4792.0, 4790.0, 4784.0, 4800.0, 4796.0, 4788.0, 4794.0, 4788.0, 4786.0, 4792.0, 4790.0, 4796.0, 4822.0, 4794.0, 4788.0, 4784.0, 4786.0, 4788.0, 4792.0, 4792.0, 4796.0, 4856.0, 4822.0, 4786.0, 4792.0, 4788.0, 4786.0, 4796.0, 4788.0, 4786.0, 4792.0, 4786.0, 4792.0, 4788.0, 4788.0, 4788.0, 4788.0, 4824.0, 4798.0, 4786.0, 4788.0, 4786.0, 4788.0, 4790.0, 4788.0, 4788.0, 4790.0, 4766.0, 4794.0, 4792.0, 4788.0, 4796.0, 4788.0, 4790.0, 4828.0, 4798.0, 4786.0, 4788.0, 4788.0, 4786.0, 4820.0, 4798.0, 4792.0, 4798.0, 4792.0, 4786.0, 4790.0, 4784.0, 4784.0, 4788.0, 4784.0, 4790.0, 4828.0, 4824.0, 4792.0, 4786.0, 4784.0, 4782.0],
      "WindowWidth": [18552.0, 18544.0, 18554.0, 18552.0, 18552.0, 18550.0, 18554.0, 18542.0, 18548.0, 18546.0, 18548.0, 18552.0, 18556.0, 18552.0, 18548.0, 18550.0, 18546.0, 18554.0, 18556.0, 18554.0, 18554.0, 18542.0, 18552.0, 18552.0, 18550.0, 18548.0, 18546.0, 18556.0, 18552.0, 18550.0, 18552.0, 18548.0, 18562.0, 18550.0, 18554.0, 18548.0, 18554.0, 18546.0, 18548.0, 18552.0, 18544.0, 18542.0, 18550.0, 18560.0, 18566.0, 18558.0, 18548.0, 18546.0, 18550.0, 18582.0, 18610.0, 18550.0, 18552.0, 18556.0, 18562.0, 18560.0, 18568.0, 18554.0, 18552.0, 18544.0, 18544.0, 18576.0, 18582.0, 18546.0, 18548.0, 18554.0, 18562.0, 18556.0, 18560.0, 18550.0, 18552.0, 18544.0, 18544.0, 18548.0, 18546.0, 18552.0, 18576.0, 18576.0, 18552.0, 18570.0, 18574.0, 18566.0, 18578.0, 18578.0, 18548.0, 18556.0, 18552.0, 18556.0, 18548.0, 18576.0, 18548.0, 18556.0, 18556.0, 18560.0, 18548.0, 18544.0, 18550.0, 18546.0, 18548.0, 18550.0, 18572.0, 18544.0, 18548.0, 18560.0, 18560.0, 18560.0, 18548.0, 18552.0, 18550.0, 18546.0, 18550.0, 18550.0, 18546.0, 18554.0, 18556.0, 18548.0, 18540.0, 18554.0, 18552.0, 18544.0, 18552.0, 18546.0, 18552.0, 18546.0, 18576.0, 18552.0, 18552.0, 18554.0, 18554.0, 18558.0, 18548.0, 18548.0, 18550.0, 18616.0, 18576.0, 18550.0, 18552.0, 18558.0, 18566.0, 18550.0, 18550.0, 18554.0, 18544.0, 18548.0, 18550.0, 18552.0, 18544.0, 18556.0, 18554.0, 18576.0, 18548.0, 18550.0, 18542.0, 18556.0, 18554.0, 18544.0, 18554.0, 18560.0, 18544.0, 18520.0, 18548.0, 18544.0, 18546.0, 18544.0, 18548.0, 18544.0, 18574.0, 18540.0, 18554.0, 18576.0, 18576.0, 18558.0, 18572.0, 18550.0, 18548.0, 18544.0, 18544.0, 18550.0, 18542.0, 18552.0, 18554.0, 18546.0, 18554.0, 18546.0, 18580.0, 18574.0, 18552.0, 18556.0, 18562.0, 18562.0]
    },
    "slices": {}
  }
}