{
  "AcquisitionMatrixPE": 104,
  "AcquisitionNumber": 1,
  "AcquisitionTime": "11:38:24.070000",
  "BandwidthPerPixelPhaseEncode": 17.17,
  "BaseResolution": 104,
  "BodyPartExamined": "BRAIN",
  "CoilString": "HC1-7;NC1_2",
  "ConsistencyInfo": "N4_VE11C_LATEST_20160120",
  "ConversionSoftware": "dcm2niix",
  "ConversionSoftwareVersion": "v1.0.20190902",
  "DerivedVendorReportedEchoSpacing": 0.000560011,
  "DeviceSerialNumber": "167006",
  "DwellTime": 2.1e-06,
  "EchoTime": 0.037,
  "EchoTrainLength": 104,
  "EffectiveEchoSpacing": 0.000560011,
  "FlipAngle": 52,
  "ImageComments": "Unaliased_MB4_PE3_LB",
  "ImageOrientationPatientDICOM": [0.999809, 0.0190386, 0.00445346, -0.0137863, 0.847941, -0.529912],
  "ImageType": [
    "ORIGINAL",
    "PRIMARY",
    "M",
    "MB",
    "ND",
    "MOSAIC"
],
  "ImagingFrequency": 123.259,
  "InPlanePhaseEncodingDirectionDICOM": "COL",
  "InstitutionAddress": "Chemin_Queen-Mary_4565_Montreal_District_CA_H3W_1W5",
  "InstitutionName": "IUGM",
  "InstitutionalDepartmentName": "Department",
  "MRAcquisitionType": "2D",
  "MagneticFieldStrength": 3,
  "Manufacturer": "Siemens",
  "ManufacturersModelName": "Prisma_fit",
  "Modality": "MR",
  "MultibandAccelerationFactor": 4,
  "PartialFourier": 1,
  "PatientPosition": "HFS",
  "PercentPhaseFOV": 100,
  "PhaseEncodingDirection": "j",
  "PhaseEncodingSteps": 104,
  "PhaseResolution": 1,
  "PixelBandwidth": 2290,
  "ProcedureStepDescription": "memory_things",
  "ProtocolName": "func_task-things_run-6",
  "PulseSequenceDetails": "%CustomerSeq%_cmrr_mbep2d_bold",
  "ReceiveCoilActiveElements": "HC1-7;NC1,2",
  "ReceiveCoilName": "HeadNeck_64",
  "ReconMatrixPE": 104,
  "RepetitionTime": 1.49,
  "SAR": 0.0572895,
  "ScanOptions": "FS",
  "ScanningSequence": "EP",
  "SequenceName": "epfid2d1_104",
  "SequenceVariant": "SK_SS",
  "SeriesDescription": "func_task-things_run-6",
  "SeriesNumber": 25,
  "ShimSetting": [613, -7182, -8858, 320, 13, -142, -61, -33],
  "SliceThickness": 2,
  "SliceTiming": [0, 0.785, 0.0975, 0.8825, 0.1975, 0.98, 0.295, 1.0775, 0.3925, 1.1775, 0.49, 1.275, 0.5875, 1.3725, 0.6875, 0, 0.785, 0.0975, 0.8825, 0.1975, 0.98, 0.295, 1.0775, 0.3925, 1.1775, 0.49, 1.275, 0.5875, 1.3725, 0.6875, 0, 0.785, 0.0975, 0.8825, 0.1975, 0.98, 0.295, 1.0775, 0.3925, 1.1775, 0.49, 1.275, 0.5875, 1.3725, 0.6875, 0, 0.785, 0.0975, 0.8825, 0.1975, 0.98, 0.295, 1.0775, 0.3925, 1.1775, 0.49, 1.275, 0.5875, 1.3725, 0.6875],
  "SoftwareVersions": "syngo_MR_E11",
  "SpacingBetweenSlices": 2,
  "StationName": "MRC35049",
  "TaskName": "things",
  "TotalReadoutTime": 0.0576811,
  "TxRefAmp": 287.78,
  "WipMemBlock": "55bf42ee-48ee-4b36-8423-b0c44890405f||Sequence: R016 ve11c/master r/e634e98; Dec 19 2017 11:00:25 by eja",
  "dcmmeta_affine": [
    [-1.9996176958084106, -0.027572689577937126, 0.02773013710975647, 107.68294525146484],
    [-0.03807729855179787, 1.695881724357605, -1.059497594833374, -47.36752700805664],
    [0.00890691764652729, 1.0598230361938477, 1.6960824728012085, -92.62821960449219],
    [0.0, 0.0, 0.0, 1.0]
],
  "dcmmeta_reorient_transform": [
    [0.0, -1.0, 0.0, 103.0],
    [1.0, 0.0, 0.0, 0.0],
    [0.0, 0.0, 1.0, 0.0],
    [0.0, 0.0, 0.0, 1.0]
],
  "dcmmeta_shape": [104, 104, 60, 190],
  "dcmmeta_slice_dim": 2,
  "dcmmeta_version": 0.6,
  "global": {
    "const": {
      "AcquisitionMatrix": [104, 0, 0, 104],
      "AngioFlag": "N",
      "BitsAllocated": 16,
      "BitsStored": 16,
      "BodyPartExamined": "BRAIN",
      "Columns": 832,
      "EchoNumbers": 1,
      "EchoTime": 37.0,
      "EchoTrainLength": 104,
      "FlipAngle": 52.0,
      "HighBit": 15,
      "ImageOrientationPatient": [0.99980883001057, 0.01903864855799, 0.0044534586543, -0.0137863445043, 0.84794086182857, -0.5299115318113],
      "ImagePositionPatient": [-822.66733140962, -758.46937436403, 399.06703071553],
      "ImageType": [
        "ORIGINAL",
        "PRIMARY",
        "M",
        "MB",
        "ND",
        "MOSAIC"
],
      "ImagedNucleus": "1H",
      "ImagingFrequency": 123.258972,
      "InPlanePhaseEncodingDirection": "COL",
      "MRAcquisitionType": "2D",
      "MagneticFieldStrength": 3.0,
      "Manufacturer": "SIEMENS",
      "ManufacturerModelName": "Prisma_fit",
      "Modality": "MR",
      "NumberOfAverages": 1.0,
      "NumberOfPhaseEncodingSteps": 104,
      "PercentPhaseFieldOfView": 100.0,
      "PercentSampling": 100.0,
      "PerformedProcedureStepStartTime": "105314.960000",
      "PhotometricInterpretation": "MONOCHROME2",
      "PixelBandwidth": 2290.0,
      "PixelRepresentation": 0,
      "PixelSpacing": [2.0, 2.0],
      "ProtocolName": "func_task-things_run-6",
      "RepetitionTime": 1490.0,
      "Rows": 832,
      "SAR": 0.05728948719793,
      "SamplesPerPixel": 1,
      "ScanOptions": "FS",
      "ScanningSequence": "EP",
      "SequenceName": "epfid2d1_104",
      "SequenceVariant": [
        "SK",
        "SS"
],
      "SeriesDescription": "func_task-things_run-6",
      "SeriesNumber": 25,
      "SeriesTime": "113940.295000",
      "SliceLocation": -51.966628337402,
      "SliceThickness": 2.0,
      "SmallestImagePixelValue": 0,
      "SoftwareVersions": "syngo MR E11",
      "SpacingBetweenSlices": 1.9999999649142,
      "SpecificCharacterSet": "ISO_IR 100",
      "StudyID": "1",
      "StudyTime": "105314.886000",
      "TransmitCoilName": "Body",
      "VariableFlipAngleFlag": "N",
      "WindowCenterWidthExplanation": "Algo1",
      "dBdt": 0.0},
    "slices": {}
  },
  "time": {
    "samples": {
      "AcquisitionNumber": [1, 2, 3, 4, 5, 6, 7, 8, 9, 10, 11, 12, 13, 14, 15, 16, 17, 18, 19, 20, 21, 22, 23, 24, 25, 26, 27, 28, 29, 30, 31, 32, 33, 34, 35, 36, 37, 38, 39, 40, 41, 42, 43, 44, 45, 46, 47, 48, 49, 50, 51, 52, 53, 54, 55, 56, 57, 58, 59, 60, 61, 62, 63, 64, 65, 66, 67, 68, 69, 70, 71, 72, 73, 74, 75, 76, 77, 78, 79, 80, 81, 82, 83, 84, 85, 86, 87, 88, 89, 90, 91, 92, 93, 94, 95, 96, 97, 98, 99, 100, 101, 102, 103, 104, 105, 106, 107, 108, 109, 110, 111, 112, 113, 114, 115, 116, 117, 118, 119, 120, 121, 122, 123, 124, 125, 126, 127, 128, 129, 130, 131, 132, 133, 134, 135, 136, 137, 138, 139, 140, 141, 142, 143, 144, 145, 146, 147, 148, 149, 150, 151, 152, 153, 154, 155, 156, 157, 158, 159, 160, 161, 162, 163, 164, 165, 166, 167, 168, 169, 170, 171, 172, 173, 174, 175, 176, 177, 178, 179, 180, 181, 182, 183, 184, 185, 186, 187, 188, 189, 190],
      "AcquisitionTime": ["113824.070000", "113825.560000", "113827.050000", "113828.540000", "113830.030000", "113831.520000", "113833.010000", "113834.500000", "113835.990000", "113837.480000", "113838.970000", "113840.460000", "113841.950000", "113843.440000", "113844.930000", "113846.420000", "113847.910000", "113849.400000", "113850.890000", "113852.380000", "113853.870000", "113855.360000", "113856.850000", "113858.340000", "113859.830000", "113901.320000", "113902.810000", "113904.300000", "113905.790000", "113907.280000", "113908.770000", "113910.260000", "113911.750000", "113913.240000", "113914.730000", "113916.220000", "113917.710000", "113919.200000", "113920.690000", "113922.180000", "113923.670000", "113925.160000", "113926.650000", "113928.140000", "113929.630000", "113931.120000", "113932.610000", "113934.100000", "113935.590000", "113937.080000", "113938.570000", "113940.060000", "113941.550000", "113943.040000", "113944.530000", "113946.020000", "113947.510000", "113949.000000", "113950.490000", "113951.980000", "113953.470000", "113954.960000", "113956.450000", "113957.940000", "113959.430000", "114000.920000", "114002.410000", "114003.900000", "114005.390000", "114006.880000", "114008.370000", "114009.860000", "114011.350000", "114012.840000", "114014.330000", "114015.820000", "114017.310000", "114018.800000", "114020.290000", "114021.780000", "114023.270000", "114024.760000", "114026.250000", "114027.740000", "114029.230000", "114030.720000", "114032.210000", "114033.700000", "114035.190000", "114036.680000", "114038.170000", "114039.660000", "114041.150000", "114042.640000", "114044.130000", "114045.620000", "114047.110000", "114048.600000", "114050.090000", "114051.580000", "114053.070000", "114054.560000", "114056.050000", "114057.540000", "114059.030000", "114100.520000", "114102.010000", "114103.500000", "114104.990000", "114106.480000", "114107.970000", "114109.460000", "114110.950000", "114112.440000", "114113.930000", "114115.420000", "114116.910000", "114118.400000", "114119.890000", "114121.380000", "114122.870000", "114124.360000", "114125.850000", "114127.340000", "114128.830000", "114130.320000", "114131.810000", "114133.300000", "114134.790000", "114136.280000", "114137.770000", "114139.260000", "114140.750000", "114142.240000", "114143.730000", "114145.220000", "114146.710000", "114148.200000", "114149.690000", "114151.180000", "114152.670000", "114154.160000", "114155.650000", "114157.140000", "114158.630000", "114200.120000", "114201.610000", "114203.100000", "114204.590000", "114206.080000", "114207.570000", "114209.060000", "114210.550000", "114212.040000", "114213.530000", "114215.020000", "114216.510000", "114218.000000", "114219.490000", "114220.980000", "114222.470000", "114223.960000", "114225.450000", "114226.940000", "114228.430000", "114229.920000", "114231.410000", "114232.900000", "114234.390000", "114235.880000", "114237.370000", "114238.860000", "114240.350000", "114241.840000", "114243.330000", "114244.820000", "114246.310000", "114247.800000", "114249.290000", "114250.780000", "114252.270000", "114253.760000", "114255.250000", "114256.740000", "114258.230000", "114259.720000", "114301.210000", "114302.700000", "114304.190000", "114305.680000"],
      "ContentTime": ["113940.299000", "113940.303000", "113940.306000", "113940.310000", "113940.313000", "113940.316000", "113940.320000", "113940.323000", "113940.326000", "113940.330000", "113940.333000", "113940.336000", "113940.340000", "113940.343000", "113940.346000", "113940.350000", "113940.353000", "113940.356000", "113940.360000", "113940.363000", "113940.366000", "114000.261000", "114000.271000", "114000.274000", "114000.277000", "114000.281000", "114000.285000", "114000.288000", "114000.292000", "114000.295000", "114000.299000", "114000.302000", "114000.305000", "114000.309000", "114000.312000", "114000.316000", "114000.319000", "114000.322000", "114000.325000", "114000.329000", "114000.332000", "114020.261000", "114020.265000", "114020.268000", "114020.271000", "114020.275000", "114020.278000", "114020.281000", "114020.285000", "114020.288000", "114020.292000", "114020.295000", "114020.299000", "114020.302000", "114020.305000", "114020.309000", "114020.312000", "114020.315000", "114020.319000", "114020.322000", "114020.326000", "114040.261000", "114040.270000", "114040.274000", "114040.277000", "114040.280000", "114040.284000", "114040.287000", "114040.291000", "114040.294000", "114040.297000", "114040.301000", "114040.304000", "114040.308000", "114040.311000", "114040.315000", "114040.318000", "114040.321000", "114040.325000", "114040.328000", "114040.331000", "114040.335000", "114100.260000", "114100.264000", "114100.267000", "114100.271000", "114100.284000", "114100.287000", "114100.290000", "114100.294000", "114100.297000", "114100.300000", "114100.304000", "114100.307000", "114100.311000", "114100.314000", "114100.317000", "114100.321000", "114100.324000", "114100.328000", "114100.331000", "114100.335000", "114140.261000", "114140.265000", "114140.274000", "114140.277000", "114140.281000", "114140.284000", "114140.288000", "114140.291000", "114140.295000", "114140.298000", "114140.301000", "114140.305000", "114140.308000", "114140.312000", "114140.315000", "114140.319000", "114140.322000", "114140.325000", "114140.329000", "114140.332000", "114140.336000", "114140.339000", "114140.342000", "114140.346000", "114140.349000", "114140.352000", "114140.356000", "114140.359000", "114140.362000", "114220.261000", "114220.265000", "114220.269000", "114220.272000", "114220.276000", "114220.279000", "114220.282000", "114220.286000", "114220.289000", "114220.293000", "114220.296000", "114220.300000", "114220.303000", "114220.306000", "114220.310000", "114220.313000", "114220.317000", "114220.320000", "114220.323000", "114220.327000", "114220.330000", "114220.333000", "114220.337000", "114220.340000", "114220.345000", "114220.348000", "114300.261000", "114300.265000", "114300.269000", "114300.272000", "114300.275000", "114300.279000", "114300.282000", "114300.286000", "114300.289000", "114300.293000", "114300.296000", "114300.299000", "114300.303000", "114300.306000", "114300.310000", "114300.313000", "114300.316000", "114300.320000", "114300.323000", "114300.327000", "114300.330000", "114300.333000", "114300.337000", "114300.340000", "114300.344000", "114300.347000", "114300.351000", "114308.240000", "114308.244000", "114308.261000", "114308.278000", "114308.282000", "114308.285000"],
      "InstanceCreationTime": ["113940.299000", "113940.303000", "113940.306000", "113940.310000", "113940.313000", "113940.316000", "113940.320000", "113940.323000", "113940.326000", "113940.330000", "113940.333000", "113940.336000", "113940.340000", "113940.343000", "113940.346000", "113940.350000", "113940.353000", "113940.356000", "113940.360000", "113940.363000", "113940.366000", "114000.261000", "114000.271000", "114000.274000", "114000.277000", "114000.281000", "114000.285000", "114000.288000", "114000.292000", "114000.295000", "114000.299000", "114000.302000", "114000.305000", "114000.309000", "114000.312000", "114000.316000", "114000.319000", "114000.322000", "114000.325000", "114000.329000", "114000.332000", "114020.261000", "114020.265000", "114020.268000", "114020.271000", "114020.275000", "114020.278000", "114020.281000", "114020.285000", "114020.288000", "114020.292000", "114020.295000", "114020.299000", "114020.302000", "114020.305000", "114020.309000", "114020.312000", "114020.315000", "114020.319000", "114020.322000", "114020.326000", "114040.261000", "114040.270000", "114040.274000", "114040.277000", "114040.280000", "114040.284000", "114040.287000", "114040.291000", "114040.294000", "114040.297000", "114040.301000", "114040.304000", "114040.308000", "114040.311000", "114040.315000", "114040.318000", "114040.321000", "114040.325000", "114040.328000", "114040.331000", "114040.335000", "114100.260000", "114100.264000", "114100.267000", "114100.271000", "114100.284000", "114100.287000", "114100.290000", "114100.294000", "114100.297000", "114100.300000", "114100.304000", "114100.307000", "114100.311000", "114100.314000", "114100.317000", "114100.321000", "114100.324000", "114100.328000", "114100.331000", "114100.335000", "114140.261000", "114140.265000", "114140.274000", "114140.277000", "114140.281000", "114140.284000", "114140.288000", "114140.291000", "114140.295000", "114140.298000", "114140.301000", "114140.305000", "114140.308000", "114140.312000", "114140.315000", "114140.319000", "114140.322000", "114140.325000", "114140.329000", "114140.332000", "114140.336000", "114140.339000", "114140.342000", "114140.346000", "114140.349000", "114140.352000", "114140.356000", "114140.359000", "114140.362000", "114220.261000", "114220.265000", "114220.269000", "114220.272000", "114220.276000", "114220.279000", "114220.282000", "114220.286000", "114220.289000", "114220.293000", "114220.296000", "114220.300000", "114220.303000", "114220.306000", "114220.310000", "114220.313000", "114220.317000", "114220.320000", "114220.323000", "114220.327000", "114220.330000", "114220.333000", "114220.337000", "114220.340000", "114220.345000", "114220.348000", "114300.261000", "114300.265000", "114300.269000", "114300.272000", "114300.275000", "114300.279000", "114300.282000", "114300.286000", "114300.289000", "114300.293000", "114300.296000", "114300.299000", "114300.303000", "114300.306000", "114300.310000", "114300.313000", "114300.316000", "114300.320000", "114300.323000", "114300.327000", "114300.330000", "114300.333000", "114300.337000", "114300.340000", "114300.344000", "114300.347000", "114300.351000", "114308.240000", "114308.244000", "114308.261000", "114308.278000", "114308.282000", "114308.285000"],
      "InstanceNumber": [1, 2, 3, 4, 5, 6, 7, 8, 9, 10, 11, 12, 13, 14, 15, 16, 17, 18, 19, 20, 21, 22, 23, 24, 25, 26, 27, 28, 29, 30, 31, 32, 33, 34, 35, 36, 37, 38, 39, 40, 41, 42, 43, 44, 45, 46, 47, 48, 49, 50, 51, 52, 53, 54, 55, 56, 57, 58, 59, 60, 61, 62, 63, 64, 65, 66, 67, 68, 69, 70, 71, 72, 73, 74, 75, 76, 77, 78, 79, 80, 81, 82, 83, 84, 85, 86, 87, 88, 89, 90, 91, 92, 93, 94, 95, 96, 97, 98, 99, 100, 101, 102, 103, 104, 105, 106, 107, 108, 109, 110, 111, 112, 113, 114, 115, 116, 117, 118, 119, 120, 121, 122, 123, 124, 125, 126, 127, 128, 129, 130, 131, 132, 133, 134, 135, 136, 137, 138, 139, 140, 141, 142, 143, 144, 145, 146, 147, 148, 149, 150, 151, 152, 153, 154, 155, 156, 157, 158, 159, 160, 161, 162, 163, 164, 165, 166, 167, 168, 169, 170, 171, 172, 173, 174, 175, 176, 177, 178, 179, 180, 181, 182, 183, 184, 185, 186, 187, 188, 189, 190],
      "LargestImagePixelValue": [40631, 39936, 39173, 38731, 40763, 39890, 39523, 40081, 39481, 39526, 39936, 39212, 39515, 39894, 39695, 39683, 39609, 39637, 39721, 39160, 39453, 39032, 38901, 39233, 39679, 40175, 39465, 39889, 39407, 39439, 39064, 39359, 39798, 39495, 39329, 39444, 39386, 39590, 38991, 39463, 38956, 39312, 39479, 39204, 39859, 39324, 39678, 39975, 39471, 39175, 39266, 39211, 39233, 39394, 39441, 39137, 39103, 39363, 39194, 39338, 39246, 39698, 39399, 39593, 39365, 39724, 40214, 39875, 39581, 39118, 39435, 39257, 38875, 39050, 39471, 39110, 39129, 39920, 38726, 39204, 39115, 39608, 39893, 39201, 39334, 39199, 39708, 39325, 39291, 39618, 39349, 39414, 38924, 39430, 39051, 39276, 38987, 39379, 39299, 39946, 39402, 39489, 39413, 39191, 39272, 39358, 39260, 39849, 39007, 38814, 38760, 39600, 39698, 39641, 39292, 38753, 38746, 38961, 40256, 39726, 39509, 39600, 39574, 39142, 39272, 40361, 38959, 37987, 38254, 39521, 40160, 39612, 39422, 39551, 39367, 39678, 39970, 39765, 38682, 38771, 38588, 39681, 39550, 39296, 39260, 39173, 39397, 39823, 38721, 38825, 38977, 39061, 39368, 38852, 38934, 38687, 39333, 39680, 39376, 38306, 39336, 39621, 38708, 38950, 39114, 38863, 39479, 39161, 39218, 39989, 39339, 38721, 39586, 39131, 39309, 39529, 39342, 39708, 39372, 39741, 39585, 38946, 39421, 39168, 38958, 39363, 39847, 39287, 38658, 38888],
      "WindowCenter": [10485.0, 10434.0, 10396.0, 10365.0, 10430.0, 10400.0, 10440.0, 10461.0, 10446.0, 10422.0, 10419.0, 10408.0, 10404.0, 10391.0, 10382.0, 10391.0, 10409.0, 10419.0, 10398.0, 10366.0, 10351.0, 10370.0, 10382.0, 10384.0, 10390.0, 10412.0, 10407.0, 10403.0, 10362.0, 10343.0, 10346.0, 10369.0, 10377.0, 10380.0, 10353.0, 10355.0, 10355.0, 10369.0, 10365.0, 10383.0, 10390.0, 10403.0, 10414.0, 10403.0, 10391.0, 10376.0, 10379.0, 10393.0, 10405.0, 10388.0, 10387.0, 10391.0, 10382.0, 10384.0, 10395.0, 10418.0, 10417.0, 10379.0, 10344.0, 10339.0, 10376.0, 10389.0, 10392.0, 10394.0, 10362.0, 10363.0, 10367.0, 10348.0, 10354.0, 10368.0, 10381.0, 10374.0, 10377.0, 10385.0, 10386.0, 10389.0, 10390.0, 10419.0, 10387.0, 10366.0, 10347.0, 10378.0, 10404.0, 10399.0, 10397.0, 10362.0, 10363.0, 10372.0, 10384.0, 10386.0, 10387.0, 10387.0, 10386.0, 10387.0, 10433.0, 10425.0, 10398.0, 10379.0, 10365.0, 10386.0, 10402.0, 10408.0, 10380.0, 10370.0, 10357.0, 10365.0, 10361.0, 10375.0, 10391.0, 10383.0, 10354.0, 10331.0, 10356.0, 10395.0, 10401.0, 10368.0, 10329.0, 10320.0, 10338.0, 10364.0, 10348.0, 10359.0, 10380.0, 10371.0, 10375.0, 10426.0, 10406.0, 10355.0, 10319.0, 10312.0, 10354.0, 10402.0, 10412.0, 10392.0, 10377.0, 10373.0, 10368.0, 10362.0, 10330.0, 10336.0, 10343.0, 10344.0, 10362.0, 10388.0, 10382.0, 10359.0, 10364.0, 10387.0, 10380.0, 10361.0, 10356.0, 10346.0, 10374.0, 10371.0, 10367.0, 10340.0, 10343.0, 10378.0, 10429.0, 10401.0, 10392.0, 10397.0, 10385.0, 10375.0, 10367.0, 10349.0, 10359.0, 10347.0, 10342.0, 10348.0, 10345.0, 10329.0, 10320.0, 10345.0, 10379.0, 10389.0, 10383.0, 10386.0, 10358.0, 10361.0, 10362.0, 10357.0, 10345.0, 10333.0, 10334.0, 10362.0, 10397.0, 10383.0, 10361.0, 10331.0],
      "WindowWidth": [22477.0, 22336.0, 22237.0, 22157.0, 22286.0, 22219.0, 22301.0, 22345.0, 22312.0, 22253.0, 22244.0, 22225.0, 22212.0, 22180.0, 22163.0, 22185.0, 22222.0, 22245.0, 22206.0, 22137.0, 22099.0, 22142.0, 22168.0, 22174.0, 22182.0, 22220.0, 22219.0, 22209.0, 22119.0, 22078.0, 22087.0, 22133.0, 22148.0, 22162.0, 22096.0, 22102.0, 22103.0, 22135.0, 22130.0, 22170.0, 22184.0, 22214.0, 22236.0, 22211.0, 22181.0, 22150.0, 22151.0, 22187.0, 22219.0, 22183.0, 22179.0, 22187.0, 22166.0, 22169.0, 22197.0, 22250.0, 22245.0, 22161.0, 22082.0, 22068.0, 22146.0, 22176.0, 22185.0, 22186.0, 22111.0, 22113.0, 22120.0, 22082.0, 22097.0, 22133.0, 22160.0, 22142.0, 22155.0, 22173.0, 22174.0, 22184.0, 22186.0, 22243.0, 22184.0, 22128.0, 22088.0, 22150.0, 22206.0, 22202.0, 22196.0, 22118.0, 22113.0, 22135.0, 22164.0, 22172.0, 22174.0, 22177.0, 22172.0, 22174.0, 22283.0, 22262.0, 22200.0, 22160.0, 22125.0, 22162.0, 22201.0, 22217.0, 22155.0, 22131.0, 22104.0, 22122.0, 22114.0, 22142.0, 22177.0, 22170.0, 22105.0, 22045.0, 22097.0, 22183.0, 22200.0, 22134.0, 22049.0, 22021.0, 22056.0, 22117.0, 22085.0, 22104.0, 22148.0, 22132.0, 22137.0, 22251.0, 22216.0, 22111.0, 22031.0, 22003.0, 22089.0, 22198.0, 22225.0, 22173.0, 22140.0, 22129.0, 22119.0, 22108.0, 22046.0, 22062.0, 22079.0, 22078.0, 22116.0, 22173.0, 22163.0, 22113.0, 22119.0, 22167.0, 22161.0, 22118.0, 22102.0, 22082.0, 22143.0, 22142.0, 22130.0, 22075.0, 22077.0, 22151.0, 22265.0, 22212.0, 22183.0, 22189.0, 22170.0, 22149.0, 22128.0, 22088.0, 22105.0, 22081.0, 22065.0, 22077.0, 22075.0, 22048.0, 22019.0, 22078.0, 22150.0, 22170.0, 22161.0, 22169.0, 22106.0, 22109.0, 22112.0, 22104.0, 22077.0, 22049.0, 22054.0, 22112.0, 22192.0, 22161.0, 22119.0, 22053.0]
    },
    "slices": {}
  }
}