{
  "AcquisitionMatrixPE": 104,
  "AcquisitionNumber": 1,
  "AcquisitionTime": "11:13:59.750000",
  "BandwidthPerPixelPhaseEncode": 17.17,
  "BaseResolution": 104,
  "BodyPartExamined": "BRAIN",
  "CoilString": "HC1-7;NC1_2",
  "ConsistencyInfo": "N4_VE11C_LATEST_20160120",
  "ConversionSoftware": "dcm2niix",
  "ConversionSoftwareVersion": "v1.0.20190902",
  "DerivedVendorReportedEchoSpacing": 0.000560011,
  "DeviceSerialNumber": "167006",
  "DwellTime": 2.1e-06,
  "EchoTime": 0.037,
  "EchoTrainLength": 104,
  "EffectiveEchoSpacing": 0.000560011,
  "FlipAngle": 52,
  "ImageComments": "Unaliased_MB4_PE3_LB",
  "ImageOrientationPatientDICOM": [0.999809, 0.0190386, 0.00445346, -0.0137863, 0.847941, -0.529912],
  "ImageType": [
    "ORIGINAL",
    "PRIMARY",
    "P",
    "MB",
    "ND",
    "MOSAIC"
],
  "ImagingFrequency": 123.259,
  "InPlanePhaseEncodingDirectionDICOM": "COL",
  "InstitutionAddress": "Chemin_Queen-Mary_4565_Montreal_District_CA_H3W_1W5",
  "InstitutionName": "IUGM",
  "InstitutionalDepartmentName": "Department",
  "MRAcquisitionType": "2D",
  "MagneticFieldStrength": 3,
  "Manufacturer": "Siemens",
  "ManufacturersModelName": "Prisma_fit",
  "Modality": "MR",
  "MultibandAccelerationFactor": 4,
  "PartialFourier": 1,
  "PatientPosition": "HFS",
  "PercentPhaseFOV": 100,
  "PhaseEncodingDirection": "j",
  "PhaseEncodingSteps": 104,
  "PhaseResolution": 1,
  "PixelBandwidth": 2290,
  "ProcedureStepDescription": "memory_things",
  "ProtocolName": "func_task-things_run-2",
  "PulseSequenceDetails": "%CustomerSeq%_cmrr_mbep2d_bold",
  "ReceiveCoilActiveElements": "HC1-7;NC1,2",
  "ReceiveCoilName": "HeadNeck_64",
  "ReconMatrixPE": 104,
  "RepetitionTime": 1.49,
  "SAR": 0.0572895,
  "ScanOptions": "FS",
  "ScanningSequence": "EP",
  "SequenceName": "epfid2d1_104",
  "SequenceVariant": "SK_SS",
  "SeriesDescription": "func_task-things_run-2",
  "SeriesNumber": 14,
  "ShimSetting": [613, -7182, -8858, 320, 13, -142, -61, -33],
  "SliceThickness": 2,
  "SliceTiming": [0, 0.785, 0.0975, 0.8825, 0.195, 0.98, 0.295, 1.0775, 0.3925, 1.175, 0.49, 1.275, 0.5875, 1.3725, 0.685, 0, 0.785, 0.0975, 0.8825, 0.195, 0.98, 0.295, 1.0775, 0.3925, 1.175, 0.49, 1.275, 0.5875, 1.3725, 0.685, 0, 0.785, 0.0975, 0.8825, 0.195, 0.98, 0.295, 1.0775, 0.3925, 1.175, 0.49, 1.275, 0.5875, 1.3725, 0.685, 0, 0.785, 0.0975, 0.8825, 0.195, 0.98, 0.295, 1.0775, 0.3925, 1.175, 0.49, 1.275, 0.5875, 1.3725, 0.685],
  "SoftwareVersions": "syngo_MR_E11",
  "SpacingBetweenSlices": 2,
  "StationName": "MRC35049",
  "TaskName": "things",
  "TotalReadoutTime": 0.0576811,
  "TxRefAmp": 287.78,
  "WipMemBlock": "952fcb44-1d87-49f1-a3e3-26889b54deb3||Sequence: R016 ve11c/master r/e634e98; Dec 19 2017 11:00:25 by eja",
  "dcmmeta_affine": [
    [-1.9996176958084106, -0.027572689577937126, 0.02773013710975647, 107.68294525146484],
    [-0.03807729855179787, 1.695881724357605, -1.059497594833374, -47.36752700805664],
    [0.00890691764652729, 1.0598230361938477, 1.6960824728012085, -92.62821960449219],
    [0.0, 0.0, 0.0, 1.0]
],
  "dcmmeta_reorient_transform": [
    [0.0, -1.0, 0.0, 103.0],
    [1.0, 0.0, 0.0, 0.0],
    [0.0, 0.0, 1.0, 0.0],
    [0.0, 0.0, 0.0, 1.0]
],
  "dcmmeta_shape": [104, 104, 60, 190],
  "dcmmeta_slice_dim": 2,
  "dcmmeta_version": 0.6,
  "global": {
    "const": {
      "AcquisitionMatrix": [104, 0, 0, 104],
      "AngioFlag": "N",
      "BitsAllocated": 16,
      "BitsStored": 16,
      "BodyPartExamined": "BRAIN",
      "Columns": 832,
      "EchoNumbers": 1,
      "EchoTime": 37.0,
      "EchoTrainLength": 104,
      "FlipAngle": 52.0,
      "HighBit": 15,
      "ImageOrientationPatient": [0.99980883001057, 0.01903864855799, 0.0044534586543, -0.0137863445043, 0.84794086182857, -0.5299115318113],
      "ImagePositionPatient": [-822.66733140962, -758.46937436403, 399.06703071553],
      "ImageType": [
        "ORIGINAL",
        "PRIMARY",
        "P",
        "MB",
        "ND",
        "MOSAIC"
],
      "ImagedNucleus": "1H",
      "ImagingFrequency": 123.258961,
      "InPlanePhaseEncodingDirection": "COL",
      "LargestImagePixelValue": 4095,
      "MRAcquisitionType": "2D",
      "MagneticFieldStrength": 3.0,
      "Manufacturer": "SIEMENS",
      "ManufacturerModelName": "Prisma_fit",
      "Modality": "MR",
      "NumberOfAverages": 1.0,
      "NumberOfPhaseEncodingSteps": 104,
      "PercentPhaseFieldOfView": 100.0,
      "PercentSampling": 100.0,
      "PerformedProcedureStepStartTime": "105314.960000",
      "PhotometricInterpretation": "MONOCHROME2",
      "PixelBandwidth": 2290.0,
      "PixelRepresentation": 0,
      "PixelSpacing": [2.0, 2.0],
      "ProtocolName": "func_task-things_run-2",
      "RepetitionTime": 1490.0,
      "RescaleIntercept": -4096.0,
      "RescaleSlope": 2.0,
      "RescaleType": "US",
      "Rows": 832,
      "SAR": 0.05728948719793,
      "SamplesPerPixel": 1,
      "ScanOptions": "FS",
      "ScanningSequence": "EP",
      "SequenceName": "epfid2d1_104",
      "SequenceVariant": [
        "SK",
        "SS"
],
      "SeriesDescription": "func_task-things_run-2",
      "SeriesNumber": 14,
      "SeriesTime": "111525.286000",
      "SliceLocation": -51.966628337402,
      "SliceThickness": 2.0,
      "SmallestImagePixelValue": 0,
      "SoftwareVersions": "syngo MR E11",
      "SpacingBetweenSlices": 1.9999999649142,
      "SpecificCharacterSet": "ISO_IR 100",
      "StudyID": "1",
      "StudyTime": "105314.886000",
      "TransmitCoilName": "Body",
      "VariableFlipAngleFlag": "N",
      "WindowCenterWidthExplanation": "Algo1",
      "dBdt": 0.0},
    "slices": {}
  },
  "time": {
    "samples": {
      "AcquisitionNumber": [1, 2, 3, 4, 5, 6, 7, 8, 9, 10, 11, 12, 13, 14, 15, 16, 17, 18, 19, 20, 21, 22, 23, 24, 25, 26, 27, 28, 29, 30, 31, 32, 33, 34, 35, 36, 37, 38, 39, 40, 41, 42, 43, 44, 45, 46, 47, 48, 49, 50, 51, 52, 53, 54, 55, 56, 57, 58, 59, 60, 61, 62, 63, 64, 65, 66, 67, 68, 69, 70, 71, 72, 73, 74, 75, 76, 77, 78, 79, 80, 81, 82, 83, 84, 85, 86, 87, 88, 89, 90, 91, 92, 93, 94, 95, 96, 97, 98, 99, 100, 101, 102, 103, 104, 105, 106, 107, 108, 109, 110, 111, 112, 113, 114, 115, 116, 117, 118, 119, 120, 121, 122, 123, 124, 125, 126, 127, 128, 129, 130, 131, 132, 133, 134, 135, 136, 137, 138, 139, 140, 141, 142, 143, 144, 145, 146, 147, 148, 149, 150, 151, 152, 153, 154, 155, 156, 157, 158, 159, 160, 161, 162, 163, 164, 165, 166, 167, 168, 169, 170, 171, 172, 173, 174, 175, 176, 177, 178, 179, 180, 181, 182, 183, 184, 185, 186, 187, 188, 189, 190],
      "AcquisitionTime": ["111359.750000", "111401.240000", "111402.730000", "111404.220000", "111405.710000", "111407.200000", "111408.690000", "111410.180000", "111411.670000", "111413.160000", "111414.650000", "111416.140000", "111417.630000", "111419.120000", "111420.610000", "111422.100000", "111423.590000", "111425.080000", "111426.570000", "111428.060000", "111429.550000", "111431.040000", "111432.530000", "111434.020000", "111435.510000", "111437.000000", "111438.490000", "111439.980000", "111441.470000", "111442.960000", "111444.450000", "111445.940000", "111447.430000", "111448.920000", "111450.410000", "111451.900000", "111453.390000", "111454.880000", "111456.370000", "111457.860000", "111459.350000", "111500.840000", "111502.330000", "111503.820000", "111505.310000", "111506.800000", "111508.290000", "111509.780000", "111511.270000", "111512.760000", "111514.250000", "111515.740000", "111517.230000", "111518.720000", "111520.210000", "111521.700000", "111523.190000", "111524.680000", "111526.170000", "111527.660000", "111529.150000", "111530.640000", "111532.130000", "111533.620000", "111535.110000", "111536.600000", "111538.090000", "111539.580000", "111541.070000", "111542.560000", "111544.050000", "111545.540000", "111547.030000", "111548.520000", "111550.010000", "111551.500000", "111552.990000", "111554.480000", "111555.970000", "111557.460000", "111558.950000", "111600.440000", "111601.930000", "111603.420000", "111604.910000", "111606.400000", "111607.890000", "111609.380000", "111610.870000", "111612.360000", "111613.850000", "111615.340000", "111616.830000", "111618.320000", "111619.810000", "111621.300000", "111622.790000", "111624.280000", "111625.770000", "111627.260000", "111628.750000", "111630.240000", "111631.730000", "111633.220000", "111634.710000", "111636.200000", "111637.690000", "111639.180000", "111640.670000", "111642.160000", "111643.650000", "111645.140000", "111646.630000", "111648.120000", "111649.610000", "111651.100000", "111652.590000", "111654.080000", "111655.570000", "111657.060000", "111658.550000", "111700.040000", "111701.530000", "111703.020000", "111704.510000", "111706.000000", "111707.490000", "111708.980000", "111710.470000", "111711.960000", "111713.450000", "111714.940000", "111716.430000", "111717.920000", "111719.410000", "111720.900000", "111722.390000", "111723.880000", "111725.370000", "111726.860000", "111728.350000", "111729.840000", "111731.330000", "111732.820000", "111734.310000", "111735.800000", "111737.290000", "111738.780000", "111740.270000", "111741.760000", "111743.250000", "111744.740000", "111746.230000", "111747.720000", "111749.210000", "111750.700000", "111752.190000", "111753.680000", "111755.170000", "111756.660000", "111758.150000", "111759.640000", "111801.130000", "111802.620000", "111804.110000", "111805.600000", "111807.090000", "111808.580000", "111810.070000", "111811.560000", "111813.050000", "111814.540000", "111816.030000", "111817.520000", "111819.010000", "111820.500000", "111821.990000", "111823.480000", "111824.970000", "111826.460000", "111827.950000", "111829.440000", "111830.930000", "111832.420000", "111833.910000", "111835.400000", "111836.890000", "111838.380000", "111839.870000", "111841.360000"],
      "ContentTime": ["111525.288000", "111525.291000", "111525.293000", "111525.296000", "111525.298000", "111525.301000", "111525.304000", "111525.306000", "111525.309000", "111525.318000", "111525.320000", "111525.323000", "111525.325000", "111525.328000", "111525.331000", "111525.333000", "111525.335000", "111525.338000", "111525.341000", "111525.343000", "111525.346000", "111525.348000", "111525.351000", "111525.353000", "111525.356000", "111525.359000", "111525.361000", "111525.364000", "111525.366000", "111525.369000", "111525.371000", "111544.793000", "111544.796000", "111544.799000", "111544.801000", "111544.804000", "111544.806000", "111544.809000", "111544.811000", "111544.814000", "111544.816000", "111544.819000", "111544.821000", "111544.824000", "111544.826000", "111544.829000", "111544.831000", "111544.834000", "111544.836000", "111544.839000", "111544.841000", "111544.844000", "111604.672000", "111604.675000", "111604.678000", "111604.680000", "111604.683000", "111604.685000", "111604.688000", "111604.690000", "111604.693000", "111604.695000", "111604.698000", "111604.700000", "111604.703000", "111604.705000", "111604.708000", "111604.710000", "111604.713000", "111604.715000", "111604.718000", "111604.720000", "111624.678000", "111624.681000", "111624.683000", "111624.693000", "111624.696000", "111624.698000", "111624.701000", "111624.704000", "111624.706000", "111624.709000", "111624.711000", "111624.714000", "111624.716000", "111624.719000", "111624.721000", "111624.724000", "111624.727000", "111624.729000", "111624.732000", "111624.734000", "111704.720000", "111704.723000", "111704.726000", "111704.728000", "111704.731000", "111704.734000", "111704.736000", "111704.739000", "111704.741000", "111704.744000", "111704.746000", "111704.749000", "111704.752000", "111704.754000", "111704.757000", "111704.759000", "111704.762000", "111704.764000", "111704.767000", "111704.769000", "111704.772000", "111704.775000", "111704.777000", "111704.780000", "111704.782000", "111704.785000", "111704.787000", "111704.790000", "111704.793000", "111704.795000", "111704.798000", "111744.699000", "111744.702000", "111744.705000", "111744.707000", "111744.710000", "111744.712000", "111744.715000", "111744.717000", "111744.720000", "111744.722000", "111744.725000", "111744.727000", "111744.730000", "111744.732000", "111744.743000", "111744.745000", "111744.748000", "111744.750000", "111744.753000", "111744.756000", "111744.758000", "111744.761000", "111744.763000", "111744.766000", "111744.768000", "111744.771000", "111744.774000", "111824.695000", "111824.698000", "111824.701000", "111824.703000", "111824.706000", "111824.708000", "111824.711000", "111824.713000", "111824.716000", "111824.719000", "111824.721000", "111824.724000", "111824.726000", "111824.729000", "111824.731000", "111824.734000", "111824.737000", "111824.739000", "111824.742000", "111824.744000", "111824.747000", "111824.750000", "111824.752000", "111824.755000", "111824.757000", "111824.760000", "111824.762000", "111843.453000", "111843.455000", "111843.458000", "111843.460000", "111843.468000", "111843.471000", "111843.473000", "111843.476000", "111843.478000", "111843.481000", "111843.484000", "111843.486000", "111843.489000"],
      "InstanceCreationTime": ["111525.288000", "111525.291000", "111525.293000", "111525.296000", "111525.298000", "111525.301000", "111525.304000", "111525.306000", "111525.309000", "111525.318000", "111525.320000", "111525.323000", "111525.325000", "111525.328000", "111525.331000", "111525.333000", "111525.335000", "111525.338000", "111525.341000", "111525.343000", "111525.346000", "111525.348000", "111525.351000", "111525.353000", "111525.356000", "111525.359000", "111525.361000", "111525.364000", "111525.366000", "111525.369000", "111525.371000", "111544.793000", "111544.796000", "111544.799000", "111544.801000", "111544.804000", "111544.806000", "111544.809000", "111544.811000", "111544.814000", "111544.816000", "111544.819000", "111544.821000", "111544.824000", "111544.826000", "111544.829000", "111544.831000", "111544.834000", "111544.836000", "111544.839000", "111544.841000", "111544.844000", "111604.672000", "111604.675000", "111604.678000", "111604.680000", "111604.683000", "111604.685000", "111604.688000", "111604.690000", "111604.693000", "111604.695000", "111604.698000", "111604.700000", "111604.703000", "111604.705000", "111604.708000", "111604.710000", "111604.713000", "111604.715000", "111604.718000", "111604.720000", "111624.678000", "111624.681000", "111624.683000", "111624.693000", "111624.696000", "111624.698000", "111624.701000", "111624.704000", "111624.706000", "111624.709000", "111624.711000", "111624.714000", "111624.716000", "111624.719000", "111624.721000", "111624.724000", "111624.727000", "111624.729000", "111624.732000", "111624.734000", "111704.720000", "111704.723000", "111704.726000", "111704.728000", "111704.731000", "111704.734000", "111704.736000", "111704.739000", "111704.741000", "111704.744000", "111704.746000", "111704.749000", "111704.752000", "111704.754000", "111704.757000", "111704.759000", "111704.762000", "111704.764000", "111704.767000", "111704.769000", "111704.772000", "111704.775000", "111704.777000", "111704.780000", "111704.782000", "111704.785000", "111704.787000", "111704.790000", "111704.793000", "111704.795000", "111704.798000", "111744.699000", "111744.702000", "111744.705000", "111744.707000", "111744.710000", "111744.712000", "111744.715000", "111744.717000", "111744.720000", "111744.722000", "111744.725000", "111744.727000", "111744.730000", "111744.732000", "111744.743000", "111744.745000", "111744.748000", "111744.750000", "111744.753000", "111744.756000", "111744.758000", "111744.761000", "111744.763000", "111744.766000", "111744.768000", "111744.771000", "111744.774000", "111824.695000", "111824.698000", "111824.701000", "111824.703000", "111824.706000", "111824.708000", "111824.711000", "111824.713000", "111824.716000", "111824.719000", "111824.721000", "111824.724000", "111824.726000", "111824.729000", "111824.731000", "111824.734000", "111824.737000", "111824.739000", "111824.742000", "111824.744000", "111824.747000", "111824.750000", "111824.752000", "111824.755000", "111824.757000", "111824.760000", "111824.762000", "111843.453000", "111843.455000", "111843.458000", "111843.460000", "111843.468000", "111843.471000", "111843.473000", "111843.476000", "111843.478000", "111843.481000", "111843.484000", "111843.486000", "111843.489000"],
      "InstanceNumber": [1, 2, 3, 4, 5, 6, 7, 8, 9, 10, 11, 12, 13, 14, 15, 16, 17, 18, 19, 20, 21, 22, 23, 24, 25, 26, 27, 28, 29, 30, 31, 32, 33, 34, 35, 36, 37, 38, 39, 40, 41, 42, 43, 44, 45, 46, 47, 48, 49, 50, 51, 52, 53, 54, 55, 56, 57, 58, 59, 60, 61, 62, 63, 64, 65, 66, 67, 68, 69, 70, 71, 72, 73, 74, 75, 76, 77, 78, 79, 80, 81, 82, 83, 84, 85, 86, 87, 88, 89, 90, 91, 92, 93, 94, 95, 96, 97, 98, 99, 100, 101, 102, 103, 104, 105, 106, 107, 108, 109, 110, 111, 112, 113, 114, 115, 116, 117, 118, 119, 120, 121, 122, 123, 124, 125, 126, 127, 128, 129, 130, 131, 132, 133, 134, 135, 136, 137, 138, 139, 140, 141, 142, 143, 144, 145, 146, 147, 148, 149, 150, 151, 152, 153, 154, 155, 156, 157, 158, 159, 160, 161, 162, 163, 164, 165, 166, 167, 168, 169, 170, 171, 172, 173, 174, 175, 176, 177, 178, 179, 180, 181, 182, 183, 184, 185, 186, 187, 188, 189, 190],
      "WindowCenter": [4792.0, 4788.0, 4810.0, 4810.0, 4786.0, 4796.0, 4792.0, 4788.0, 4782.0, 4808.0, 4794.0, 4790.0, 4790.0, 4810.0, 4810.0, 4808.0, 4782.0, 4790.0, 4826.0, 4794.0, 4786.0, 4790.0, 4818.0, 4820.0, 4818.0, 4812.0, 4816.0, 4810.0, 4808.0, 4782.0, 4786.0, 4788.0, 4790.0, 4786.0, 4786.0, 4794.0, 4792.0, 4812.0, 4810.0, 4816.0, 4792.0, 4790.0, 4788.0, 4782.0, 4786.0, 4790.0, 4784.0, 4786.0, 4786.0, 4780.0, 4786.0, 4784.0, 4808.0, 4792.0, 4786.0, 4778.0, 4792.0, 4788.0, 4782.0, 4788.0, 4786.0, 4780.0, 4788.0, 4782.0, 4776.0, 4786.0, 4786.0, 4784.0, 4784.0, 4784.0, 4796.0, 4794.0, 4788.0, 4810.0, 4810.0, 4812.0, 4784.0, 4786.0, 4784.0, 4784.0, 4764.0, 4782.0, 4782.0, 4784.0, 4782.0, 4782.0, 4788.0, 4782.0, 4780.0, 4788.0, 4782.0, 4786.0, 4784.0, 4784.0, 4780.0, 4788.0, 4786.0, 4788.0, 4784.0, 4784.0, 4788.0, 4780.0, 4788.0, 4796.0, 4790.0, 4780.0, 4806.0, 4808.0, 4808.0, 4806.0, 4782.0, 4784.0, 4784.0, 4762.0, 4786.0, 4792.0, 4786.0, 4780.0, 4788.0, 4782.0, 4806.0, 4804.0, 4780.0, 4782.0, 4778.0, 4790.0, 4762.0, 4798.0, 4796.0, 4782.0, 4786.0, 4810.0, 4810.0, 4808.0, 4806.0, 4786.0, 4824.0, 4824.0, 4784.0, 4784.0, 4782.0, 4806.0, 4808.0, 4786.0, 4782.0, 4762.0, 4788.0, 4786.0, 4764.0, 4782.0, 4780.0, 4784.0, 4782.0, 4780.0, 4786.0, 4782.0, 4782.0, 4782.0, 4778.0, 4786.0, 4782.0, 4782.0, 4780.0, 4778.0, 4784.0, 4780.0, 4786.0, 4782.0, 4782.0, 4790.0, 4786.0, 4782.0, 4788.0, 4808.0, 4786.0, 4790.0, 4786.0, 4784.0, 4782.0, 4786.0, 4782.0, 4782.0, 4786.0, 4784.0, 4784.0, 4786.0, 4792.0, 4786.0, 4786.0, 4792.0],
      "WindowWidth": [18564.0, 18582.0, 18618.0, 18614.0, 18556.0, 18542.0, 18548.0, 18562.0, 18576.0, 18610.0, 18554.0, 18562.0, 18572.0, 18606.0, 18616.0, 18614.0, 18578.0, 18550.0, 18572.0, 18544.0, 18564.0, 18570.0, 18580.0, 18602.0, 18612.0, 18612.0, 18624.0, 18622.0, 18610.0, 18566.0, 18554.0, 18544.0, 18550.0, 18554.0, 18556.0, 18550.0, 18556.0, 18608.0, 18626.0, 18616.0, 18566.0, 18570.0, 18570.0, 18570.0, 18558.0, 18558.0, 18566.0, 18556.0, 18560.0, 18568.0, 18568.0, 18566.0, 18606.0, 18562.0, 18566.0, 18560.0, 18554.0, 18564.0, 18568.0, 18560.0, 18564.0, 18566.0, 18564.0, 18558.0, 18560.0, 18554.0, 18560.0, 18566.0, 18572.0, 18558.0, 18534.0, 18542.0, 18564.0, 18622.0, 18616.0, 18622.0, 18580.0, 18558.0, 18558.0, 18556.0, 18516.0, 18558.0, 18562.0, 18560.0, 18568.0, 18578.0, 18566.0, 18568.0, 18568.0, 18556.0, 18562.0, 18556.0, 18552.0, 18564.0, 18570.0, 18558.0, 18560.0, 18570.0, 18576.0, 18578.0, 18562.0, 18556.0, 18552.0, 18538.0, 18542.0, 18570.0, 18612.0, 18616.0, 18622.0, 18618.0, 18566.0, 18560.0, 18556.0, 18526.0, 18556.0, 18544.0, 18552.0, 18570.0, 18570.0, 18574.0, 18622.0, 18620.0, 18574.0, 18568.0, 18558.0, 18548.0, 18528.0, 18546.0, 18544.0, 18568.0, 18580.0, 18614.0, 18626.0, 18630.0, 18618.0, 18558.0, 18566.0, 18578.0, 18552.0, 18566.0, 18566.0, 18620.0, 18620.0, 18580.0, 18578.0, 18526.0, 18554.0, 18556.0, 18520.0, 18558.0, 18568.0, 18556.0, 18566.0, 18564.0, 18562.0, 18576.0, 18558.0, 18560.0, 18566.0, 18560.0, 18568.0, 18560.0, 18564.0, 18568.0, 18558.0, 18564.0, 18554.0, 18552.0, 18560.0, 18546.0, 18546.0, 18570.0, 18574.0, 18612.0, 18582.0, 18554.0, 18550.0, 18566.0, 18564.0, 18562.0, 18566.0, 18570.0, 18560.0, 18566.0, 18560.0, 18546.0, 18560.0, 18570.0, 18580.0, 18562.0]
    },
    "slices": {}
  }
}