{
  "AcquisitionMatrixPE": 104,
  "AcquisitionNumber": 1,
  "AcquisitionTime": "11:20:5.250000",
  "BandwidthPerPixelPhaseEncode": 17.17,
  "BaseResolution": 104,
  "BodyPartExamined": "BRAIN",
  "CoilString": "HC1-7;NC1_2",
  "ConsistencyInfo": "N4_VE11C_LATEST_20160120",
  "ConversionSoftware": "dcm2niix",
  "ConversionSoftwareVersion": "v1.0.20190902",
  "DerivedVendorReportedEchoSpacing": 0.000560011,
  "DeviceSerialNumber": "167006",
  "DwellTime": 2.1e-06,
  "EchoTime": 0.037,
  "EchoTrainLength": 104,
  "EffectiveEchoSpacing": 0.000560011,
  "FlipAngle": 52,
  "ImageComments": "Unaliased_MB4_PE3_LB",
  "ImageOrientationPatientDICOM": [0.999809, 0.0190386, 0.00445346, -0.0137863, 0.847941, -0.529912],
  "ImageType": [
    "ORIGINAL",
    "PRIMARY",
    "M",
    "MB",
    "ND",
    "MOSAIC"
],
  "ImagingFrequency": 123.259,
  "InPlanePhaseEncodingDirectionDICOM": "COL",
  "InstitutionAddress": "Chemin_Queen-Mary_4565_Montreal_District_CA_H3W_1W5",
  "InstitutionName": "IUGM",
  "InstitutionalDepartmentName": "Department",
  "MRAcquisitionType": "2D",
  "MagneticFieldStrength": 3,
  "Manufacturer": "Siemens",
  "ManufacturersModelName": "Prisma_fit",
  "Modality": "MR",
  "MultibandAccelerationFactor": 4,
  "PartialFourier": 1,
  "PatientPosition": "HFS",
  "PercentPhaseFOV": 100,
  "PhaseEncodingDirection": "j",
  "PhaseEncodingSteps": 104,
  "PhaseResolution": 1,
  "PixelBandwidth": 2290,
  "ProcedureStepDescription": "memory_things",
  "ProtocolName": "func_task-things_run-3",
  "PulseSequenceDetails": "%CustomerSeq%_cmrr_mbep2d_bold",
  "ReceiveCoilActiveElements": "HC1-7;NC1,2",
  "ReceiveCoilName": "HeadNeck_64",
  "ReconMatrixPE": 104,
  "RepetitionTime": 1.49,
  "SAR": 0.0572895,
  "ScanOptions": "FS",
  "ScanningSequence": "EP",
  "SequenceName": "epfid2d1_104",
  "SequenceVariant": "SK_SS",
  "SeriesDescription": "func_task-things_run-3",
  "SeriesNumber": 16,
  "ShimSetting": [613, -7182, -8858, 320, 13, -142, -61, -33],
  "SliceThickness": 2,
  "SliceTiming": [0, 0.7825, 0.0975, 0.88, 0.195, 0.98, 0.2925, 1.0775, 0.39, 1.175, 0.49, 1.2725, 0.5875, 1.37, 0.685, 0, 0.7825, 0.0975, 0.88, 0.195, 0.98, 0.2925, 1.0775, 0.39, 1.175, 0.49, 1.2725, 0.5875, 1.37, 0.685, 0, 0.7825, 0.0975, 0.88, 0.195, 0.98, 0.2925, 1.0775, 0.39, 1.175, 0.49, 1.2725, 0.5875, 1.37, 0.685, 0, 0.7825, 0.0975, 0.88, 0.195, 0.98, 0.2925, 1.0775, 0.39, 1.175, 0.49, 1.2725, 0.5875, 1.37, 0.685],
  "SoftwareVersions": "syngo_MR_E11",
  "SpacingBetweenSlices": 2,
  "StationName": "MRC35049",
  "TaskName": "things",
  "TotalReadoutTime": 0.0576811,
  "TxRefAmp": 287.78,
  "WipMemBlock": "c686aa15-b613-40be-bfe8-90d807d880f2||Sequence: R016 ve11c/master r/e634e98; Dec 19 2017 11:00:25 by eja",
  "dcmmeta_affine": [
    [-1.9996176958084106, -0.027572689577937126, 0.02773013710975647, 107.68294525146484],
    [-0.03807729855179787, 1.695881724357605, -1.059497594833374, -47.36752700805664],
    [0.00890691764652729, 1.0598230361938477, 1.6960824728012085, -92.62821960449219],
    [0.0, 0.0, 0.0, 1.0]
],
  "dcmmeta_reorient_transform": [
    [0.0, -1.0, 0.0, 103.0],
    [1.0, 0.0, 0.0, 0.0],
    [0.0, 0.0, 1.0, 0.0],
    [0.0, 0.0, 0.0, 1.0]
],
  "dcmmeta_shape": [104, 104, 60, 190],
  "dcmmeta_slice_dim": 2,
  "dcmmeta_version": 0.6,
  "global": {
    "const": {
      "AcquisitionMatrix": [104, 0, 0, 104],
      "AngioFlag": "N",
      "BitsAllocated": 16,
      "BitsStored": 16,
      "BodyPartExamined": "BRAIN",
      "Columns": 832,
      "EchoNumbers": 1,
      "EchoTime": 37.0,
      "EchoTrainLength": 104,
      "FlipAngle": 52.0,
      "HighBit": 15,
      "ImageOrientationPatient": [0.99980883001057, 0.01903864855799, 0.0044534586543, -0.0137863445043, 0.84794086182857, -0.5299115318113],
      "ImagePositionPatient": [-822.66733140962, -758.46937436403, 399.06703071553],
      "ImageType": [
        "ORIGINAL",
        "PRIMARY",
        "M",
        "MB",
        "ND",
        "MOSAIC"
],
      "ImagedNucleus": "1H",
      "ImagingFrequency": 123.25896,
      "InPlanePhaseEncodingDirection": "COL",
      "MRAcquisitionType": "2D",
      "MagneticFieldStrength": 3.0,
      "Manufacturer": "SIEMENS",
      "ManufacturerModelName": "Prisma_fit",
      "Modality": "MR",
      "NumberOfAverages": 1.0,
      "NumberOfPhaseEncodingSteps": 104,
      "PercentPhaseFieldOfView": 100.0,
      "PercentSampling": 100.0,
      "PerformedProcedureStepStartTime": "105314.960000",
      "PhotometricInterpretation": "MONOCHROME2",
      "PixelBandwidth": 2290.0,
      "PixelRepresentation": 0,
      "PixelSpacing": [2.0, 2.0],
      "ProtocolName": "func_task-things_run-3",
      "RepetitionTime": 1490.0,
      "Rows": 832,
      "SAR": 0.05728948719793,
      "SamplesPerPixel": 1,
      "ScanOptions": "FS",
      "ScanningSequence": "EP",
      "SequenceName": "epfid2d1_104",
      "SequenceVariant": [
        "SK",
        "SS"
],
      "SeriesDescription": "func_task-things_run-3",
      "SeriesNumber": 16,
      "SeriesTime": "112120.311000",
      "SliceLocation": -51.966628337402,
      "SliceThickness": 2.0,
      "SmallestImagePixelValue": 0,
      "SoftwareVersions": "syngo MR E11",
      "SpacingBetweenSlices": 1.9999999649142,
      "SpecificCharacterSet": "ISO_IR 100",
      "StudyID": "1",
      "StudyTime": "105314.886000",
      "TransmitCoilName": "Body",
      "VariableFlipAngleFlag": "N",
      "WindowCenterWidthExplanation": "Algo1",
      "dBdt": 0.0},
    "slices": {}
  },
  "time": {
    "samples": {
      "AcquisitionNumber": [1, 2, 3, 4, 5, 6, 7, 8, 9, 10, 11, 12, 13, 14, 15, 16, 17, 18, 19, 20, 21, 22, 23, 24, 25, 26, 27, 28, 29, 30, 31, 32, 33, 34, 35, 36, 37, 38, 39, 40, 41, 42, 43, 44, 45, 46, 47, 48, 49, 50, 51, 52, 53, 54, 55, 56, 57, 58, 59, 60, 61, 62, 63, 64, 65, 66, 67, 68, 69, 70, 71, 72, 73, 74, 75, 76, 77, 78, 79, 80, 81, 82, 83, 84, 85, 86, 87, 88, 89, 90, 91, 92, 93, 94, 95, 96, 97, 98, 99, 100, 101, 102, 103, 104, 105, 106, 107, 108, 109, 110, 111, 112, 113, 114, 115, 116, 117, 118, 119, 120, 121, 122, 123, 124, 125, 126, 127, 128, 129, 130, 131, 132, 133, 134, 135, 136, 137, 138, 139, 140, 141, 142, 143, 144, 145, 146, 147, 148, 149, 150, 151, 152, 153, 154, 155, 156, 157, 158, 159, 160, 161, 162, 163, 164, 165, 166, 167, 168, 169, 170, 171, 172, 173, 174, 175, 176, 177, 178, 179, 180, 181, 182, 183, 184, 185, 186, 187, 188, 189, 190],
      "AcquisitionTime": ["112005.250000", "112006.740000", "112008.230000", "112009.720000", "112011.210000", "112012.700000", "112014.190000", "112015.680000", "112017.170000", "112018.660000", "112020.150000", "112021.640000", "112023.130000", "112024.620000", "112026.110000", "112027.600000", "112029.090000", "112030.580000", "112032.070000", "112033.560000", "112035.050000", "112036.540000", "112038.030000", "112039.520000", "112041.010000", "112042.500000", "112043.990000", "112045.480000", "112046.970000", "112048.460000", "112049.950000", "112051.440000", "112052.930000", "112054.420000", "112055.910000", "112057.400000", "112058.890000", "112100.380000", "112101.870000", "112103.360000", "112104.850000", "112106.340000", "112107.830000", "112109.320000", "112110.810000", "112112.300000", "112113.790000", "112115.280000", "112116.770000", "112118.260000", "112119.750000", "112121.240000", "112122.730000", "112124.220000", "112125.710000", "112127.200000", "112128.690000", "112130.180000", "112131.670000", "112133.160000", "112134.650000", "112136.140000", "112137.630000", "112139.120000", "112140.610000", "112142.100000", "112143.590000", "112145.080000", "112146.570000", "112148.060000", "112149.550000", "112151.040000", "112152.530000", "112154.020000", "112155.510000", "112157.000000", "112158.490000", "112159.980000", "112201.470000", "112202.960000", "112204.450000", "112205.940000", "112207.430000", "112208.920000", "112210.410000", "112211.900000", "112213.390000", "112214.880000", "112216.370000", "112217.860000", "112219.350000", "112220.840000", "112222.330000", "112223.820000", "112225.310000", "112226.800000", "112228.290000", "112229.780000", "112231.270000", "112232.760000", "112234.250000", "112235.740000", "112237.230000", "112238.720000", "112240.210000", "112241.700000", "112243.190000", "112244.680000", "112246.170000", "112247.660000", "112249.150000", "112250.640000", "112252.130000", "112253.620000", "112255.110000", "112256.600000", "112258.090000", "112259.580000", "112301.070000", "112302.560000", "112304.050000", "112305.540000", "112307.030000", "112308.520000", "112310.010000", "112311.500000", "112312.990000", "112314.480000", "112315.970000", "112317.460000", "112318.950000", "112320.440000", "112321.930000", "112323.420000", "112324.910000", "112326.400000", "112327.890000", "112329.380000", "112330.870000", "112332.360000", "112333.850000", "112335.340000", "112336.830000", "112338.320000", "112339.810000", "112341.300000", "112342.790000", "112344.280000", "112345.770000", "112347.260000", "112348.750000", "112350.240000", "112351.730000", "112353.220000", "112354.710000", "112356.200000", "112357.690000", "112359.180000", "112400.670000", "112402.160000", "112403.650000", "112405.140000", "112406.630000", "112408.120000", "112409.610000", "112411.100000", "112412.590000", "112414.080000", "112415.570000", "112417.060000", "112418.550000", "112420.040000", "112421.530000", "112423.020000", "112424.510000", "112426.000000", "112427.490000", "112428.980000", "112430.470000", "112431.960000", "112433.450000", "112434.940000", "112436.430000", "112437.920000", "112439.410000", "112440.900000", "112442.390000", "112443.880000", "112445.370000", "112446.860000"],
      "ContentTime": ["112120.314000", "112120.319000", "112120.322000", "112120.326000", "112120.330000", "112120.334000", "112120.337000", "112120.341000", "112120.345000", "112120.366000", "112120.370000", "112120.373000", "112120.377000", "112120.380000", "112120.384000", "112120.387000", "112120.390000", "112120.394000", "112120.397000", "112120.401000", "112140.261000", "112140.265000", "112140.268000", "112140.272000", "112140.275000", "112140.279000", "112140.282000", "112140.285000", "112140.289000", "112140.292000", "112140.296000", "112140.299000", "112140.302000", "112140.306000", "112140.309000", "112140.312000", "112140.316000", "112140.319000", "112140.323000", "112140.326000", "112140.329000", "112200.261000", "112200.265000", "112200.268000", "112200.272000", "112200.275000", "112200.278000", "112200.282000", "112200.285000", "112200.288000", "112200.292000", "112200.295000", "112200.299000", "112200.302000", "112200.305000", "112200.309000", "112200.312000", "112200.316000", "112200.319000", "112200.322000", "112200.326000", "112220.261000", "112220.265000", "112220.268000", "112220.272000", "112220.275000", "112220.278000", "112220.282000", "112220.285000", "112220.289000", "112220.292000", "112220.295000", "112220.299000", "112220.302000", "112220.306000", "112220.309000", "112220.312000", "112220.316000", "112220.319000", "112220.323000", "112220.326000", "112240.261000", "112240.265000", "112240.269000", "112240.272000", "112240.276000", "112240.279000", "112240.283000", "112240.287000", "112240.290000", "112240.294000", "112240.297000", "112240.301000", "112240.304000", "112240.307000", "112240.311000", "112240.314000", "112240.317000", "112240.321000", "112240.324000", "112240.328000", "112320.260000", "112320.264000", "112320.267000", "112320.271000", "112320.274000", "112320.278000", "112320.281000", "112320.285000", "112320.288000", "112320.291000", "112320.295000", "112320.298000", "112320.302000", "112320.305000", "112320.308000", "112320.312000", "112320.315000", "112320.319000", "112320.322000", "112320.326000", "112320.329000", "112320.332000", "112320.336000", "112320.339000", "112320.343000", "112320.346000", "112320.349000", "112320.353000", "112320.369000", "112400.261000", "112400.265000", "112400.269000", "112400.272000", "112400.276000", "112400.279000", "112400.282000", "112400.286000", "112400.289000", "112400.292000", "112400.296000", "112400.299000", "112400.303000", "112400.306000", "112400.310000", "112400.313000", "112400.316000", "112400.320000", "112400.323000", "112400.327000", "112400.330000", "112400.334000", "112400.337000", "112400.341000", "112400.344000", "112400.348000", "112400.351000", "112440.261000", "112440.265000", "112440.268000", "112440.272000", "112440.275000", "112440.278000", "112440.282000", "112440.285000", "112440.288000", "112440.292000", "112440.295000", "112440.299000", "112440.302000", "112440.305000", "112440.309000", "112440.312000", "112440.315000", "112440.319000", "112440.322000", "112440.326000", "112440.329000", "112440.332000", "112440.336000", "112440.339000", "112440.343000", "112440.346000", "112440.350000", "112449.059000", "112449.063000", "112449.067000", "112449.070000", "112449.073000", "112449.077000"],
      "InstanceCreationTime": ["112120.314000", "112120.319000", "112120.322000", "112120.326000", "112120.330000", "112120.334000", "112120.337000", "112120.341000", "112120.345000", "112120.366000", "112120.370000", "112120.373000", "112120.377000", "112120.380000", "112120.384000", "112120.387000", "112120.390000", "112120.394000", "112120.397000", "112120.401000", "112140.261000", "112140.265000", "112140.268000", "112140.272000", "112140.275000", "112140.279000", "112140.282000", "112140.285000", "112140.289000", "112140.292000", "112140.296000", "112140.299000", "112140.302000", "112140.306000", "112140.309000", "112140.312000", "112140.316000", "112140.319000", "112140.323000", "112140.326000", "112140.329000", "112200.261000", "112200.265000", "112200.268000", "112200.272000", "112200.275000", "112200.278000", "112200.282000", "112200.285000", "112200.288000", "112200.292000", "112200.295000", "112200.299000", "112200.302000", "112200.305000", "112200.309000", "112200.312000", "112200.316000", "112200.319000", "112200.322000", "112200.326000", "112220.261000", "112220.265000", "112220.268000", "112220.272000", "112220.275000", "112220.278000", "112220.282000", "112220.285000", "112220.289000", "112220.292000", "112220.295000", "112220.299000", "112220.302000", "112220.306000", "112220.309000", "112220.312000", "112220.316000", "112220.319000", "112220.323000", "112220.326000", "112240.261000", "112240.265000", "112240.269000", "112240.272000", "112240.276000", "112240.279000", "112240.283000", "112240.287000", "112240.290000", "112240.294000", "112240.297000", "112240.301000", "112240.304000", "112240.307000", "112240.311000", "112240.314000", "112240.317000", "112240.321000", "112240.324000", "112240.328000", "112320.260000", "112320.264000", "112320.267000", "112320.271000", "112320.274000", "112320.278000", "112320.281000", "112320.285000", "112320.288000", "112320.291000", "112320.295000", "112320.298000", "112320.302000", "112320.305000", "112320.308000", "112320.312000", "112320.315000", "112320.319000", "112320.322000", "112320.326000", "112320.329000", "112320.332000", "112320.336000", "112320.339000", "112320.343000", "112320.346000", "112320.349000", "112320.353000", "112320.369000", "112400.261000", "112400.265000", "112400.269000", "112400.272000", "112400.276000", "112400.279000", "112400.282000", "112400.286000", "112400.289000", "112400.292000", "112400.296000", "112400.299000", "112400.303000", "112400.306000", "112400.310000", "112400.313000", "112400.316000", "112400.320000", "112400.323000", "112400.327000", "112400.330000", "112400.334000", "112400.337000", "112400.341000", "112400.344000", "112400.348000", "112400.351000", "112440.261000", "112440.265000", "112440.268000", "112440.272000", "112440.275000", "112440.278000", "112440.282000", "112440.285000", "112440.288000", "112440.292000", "112440.295000", "112440.299000", "112440.302000", "112440.305000", "112440.309000", "112440.312000", "112440.315000", "112440.319000", "112440.322000", "112440.326000", "112440.329000", "112440.332000", "112440.336000", "112440.339000", "112440.343000", "112440.346000", "112440.350000", "112449.059000", "112449.063000", "112449.067000", "112449.070000", "112449.073000", "112449.077000"],
      "InstanceNumber": [1, 2, 3, 4, 5, 6, 7, 8, 9, 10, 11, 12, 13, 14, 15, 16, 17, 18, 19, 20, 21, 22, 23, 24, 25, 26, 27, 28, 29, 30, 31, 32, 33, 34, 35, 36, 37, 38, 39, 40, 41, 42, 43, 44, 45, 46, 47, 48, 49, 50, 51, 52, 53, 54, 55, 56, 57, 58, 59, 60, 61, 62, 63, 64, 65, 66, 67, 68, 69, 70, 71, 72, 73, 74, 75, 76, 77, 78, 79, 80, 81, 82, 83, 84, 85, 86, 87, 88, 89, 90, 91, 92, 93, 94, 95, 96, 97, 98, 99, 100, 101, 102, 103, 104, 105, 106, 107, 108, 109, 110, 111, 112, 113, 114, 115, 116, 117, 118, 119, 120, 121, 122, 123, 124, 125, 126, 127, 128, 129, 130, 131, 132, 133, 134, 135, 136, 137, 138, 139, 140, 141, 142, 143, 144, 145, 146, 147, 148, 149, 150, 151, 152, 153, 154, 155, 156, 157, 158, 159, 160, 161, 162, 163, 164, 165, 166, 167, 168, 169, 170, 171, 172, 173, 174, 175, 176, 177, 178, 179, 180, 181, 182, 183, 184, 185, 186, 187, 188, 189, 190],
      "LargestImagePixelValue": [41504, 41328, 40958, 40344, 40373, 40189, 40483, 39926, 41032, 39911, 40472, 40181, 39535, 39800, 40531, 40854, 39794, 41012, 40801, 39924, 40290, 40087, 40065, 40106, 40242, 40085, 40093, 40693, 39947, 39500, 40360, 39342, 40041, 40002, 40039, 40580, 39941, 39933, 40104, 40680, 39463, 39479, 39786, 39520, 40062, 40103, 40053, 40340, 39597, 39307, 40030, 39268, 39393, 40034, 40651, 40005, 40281, 40111, 39621, 39405, 39956, 39783, 39987, 39444, 39260, 39868, 39811, 39611, 40133, 39781, 39036, 40692, 40102, 39605, 39759, 40260, 38804, 39141, 39248, 39243, 39133, 39183, 39905, 39361, 39569, 39283, 40035, 39429, 39428, 39492, 39675, 38335, 39541, 39300, 38952, 39138, 39101, 39284, 39511, 39113, 39410, 39365, 38627, 38525, 39794, 39815, 39200, 38977, 39776, 38675, 38624, 38777, 38019, 38718, 39410, 38340, 39177, 39545, 39523, 38276, 39642, 39551, 39190, 39448, 39038, 38964, 39246, 39120, 39754, 39716, 38598, 39667, 39386, 39357, 39894, 39718, 38986, 39167, 39115, 38864, 39027, 39355, 39332, 39469, 39608, 39304, 39603, 39516, 38760, 39080, 39233, 38566, 38981, 39693, 39457, 39091, 39301, 38831, 39538, 40060, 39497, 38870, 39784, 39502, 39526, 39757, 39943, 40002, 39626, 39756, 39820, 39614, 39630, 39783, 39864, 40231, 40115, 40479, 39850, 39654, 39952, 39700, 40020, 39829, 39246, 39325, 39466, 39544, 39680, 39493],
      "WindowCenter": [10563.0, 10524.0, 10494.0, 10481.0, 10472.0, 10470.0, 10474.0, 10454.0, 10464.0, 10450.0, 10465.0, 10461.0, 10458.0, 10452.0, 10455.0, 10451.0, 10430.0, 10444.0, 10444.0, 10440.0, 10437.0, 10432.0, 10429.0, 10441.0, 10449.0, 10422.0, 10411.0, 10444.0, 10440.0, 10443.0, 10449.0, 10434.0, 10449.0, 10443.0, 10423.0, 10427.0, 10415.0, 10417.0, 10423.0, 10448.0, 10428.0, 10429.0, 10445.0, 10463.0, 10472.0, 10455.0, 10415.0, 10411.0, 10424.0, 10432.0, 10450.0, 10441.0, 10428.0, 10434.0, 10458.0, 10431.0, 10420.0, 10423.0, 10430.0, 10438.0, 10442.0, 10406.0, 10409.0, 10424.0, 10441.0, 10463.0, 10456.0, 10426.0, 10424.0, 10422.0, 10428.0, 10465.0, 10446.0, 10407.0, 10386.0, 10418.0, 10420.0, 10445.0, 10450.0, 10439.0, 10412.0, 10401.0, 10429.0, 10440.0, 10430.0, 10403.0, 10402.0, 10426.0, 10428.0, 10427.0, 10429.0, 10418.0, 10445.0, 10429.0, 10402.0, 10410.0, 10413.0, 10417.0, 10404.0, 10418.0, 10438.0, 10428.0, 10415.0, 10424.0, 10463.0, 10458.0, 10419.0, 10400.0, 10424.0, 10421.0, 10439.0, 10444.0, 10413.0, 10416.0, 10419.0, 10404.0, 10411.0, 10429.0, 10422.0, 10407.0, 10437.0, 10425.0, 10402.0, 10418.0, 10419.0, 10422.0, 10436.0, 10412.0, 10407.0, 10402.0, 10408.0, 10453.0, 10459.0, 10427.0, 10400.0, 10413.0, 10429.0, 10442.0, 10429.0, 10407.0, 10396.0, 10399.0, 10405.0, 10409.0, 10429.0, 10417.0, 10398.0, 10418.0, 10431.0, 10451.0, 10466.0, 10449.0, 10448.0, 10450.0, 10426.0, 10423.0, 10424.0, 10410.0, 10436.0, 10438.0, 10424.0, 10407.0, 10437.0, 10436.0, 10431.0, 10419.0, 10408.0, 10420.0, 10427.0, 10426.0, 10437.0, 10429.0, 10418.0, 10427.0, 10408.0, 10409.0, 10412.0, 10401.0, 10404.0, 10413.0, 10412.0, 10398.0, 10421.0, 10421.0, 10391.0, 10407.0, 10433.0, 10432.0, 10421.0, 10432.0],
      "WindowWidth": [22658.0, 22534.0, 22448.0, 22405.0, 22385.0, 22371.0, 22377.0, 22337.0, 22352.0, 22324.0, 22356.0, 22350.0, 22348.0, 22330.0, 22332.0, 22321.0, 22281.0, 22307.0, 22307.0, 22302.0, 22296.0, 22285.0, 22280.0, 22305.0, 22324.0, 22265.0, 22240.0, 22310.0, 22306.0, 22314.0, 22320.0, 22291.0, 22322.0, 22310.0, 22265.0, 22271.0, 22249.0, 22251.0, 22267.0, 22316.0, 22283.0, 22282.0, 22313.0, 22355.0, 22374.0, 22339.0, 22253.0, 22238.0, 22271.0, 22289.0, 22327.0, 22313.0, 22280.0, 22289.0, 22342.0, 22284.0, 22255.0, 22264.0, 22278.0, 22301.0, 22310.0, 22230.0, 22230.0, 22268.0, 22306.0, 22355.0, 22339.0, 22271.0, 22264.0, 22257.0, 22279.0, 22354.0, 22319.0, 22235.0, 22187.0, 22251.0, 22265.0, 22318.0, 22329.0, 22302.0, 22245.0, 22217.0, 22273.0, 22304.0, 22286.0, 22230.0, 22218.0, 22272.0, 22281.0, 22277.0, 22278.0, 22261.0, 22313.0, 22282.0, 22225.0, 22240.0, 22249.0, 22257.0, 22225.0, 22261.0, 22302.0, 22280.0, 22253.0, 22274.0, 22351.0, 22348.0, 22263.0, 22220.0, 22269.0, 22269.0, 22306.0, 22319.0, 22254.0, 22254.0, 22255.0, 22225.0, 22239.0, 22271.0, 22261.0, 22234.0, 22297.0, 22271.0, 22221.0, 22254.0, 22259.0, 22262.0, 22290.0, 22241.0, 22228.0, 22214.0, 22234.0, 22332.0, 22352.0, 22280.0, 22216.0, 22244.0, 22282.0, 22311.0, 22283.0, 22231.0, 22204.0, 22208.0, 22222.0, 22236.0, 22284.0, 22257.0, 22212.0, 22256.0, 22288.0, 22330.0, 22364.0, 22326.0, 22321.0, 22323.0, 22276.0, 22265.0, 22268.0, 22245.0, 22292.0, 22298.0, 22272.0, 22234.0, 22296.0, 22301.0, 22284.0, 22254.0, 22232.0, 22252.0, 22272.0, 22270.0, 22292.0, 22280.0, 22251.0, 22267.0, 22230.0, 22226.0, 22232.0, 22207.0, 22215.0, 22239.0, 22233.0, 22208.0, 22254.0, 22264.0, 22195.0, 22235.0, 22289.0, 22287.0, 22266.0, 22286.0]
    },
    "slices": {}
  }
}