{
  "AcquisitionMatrixPE": 104,
  "AcquisitionNumber": 1,
  "AcquisitionTime": "11:38:24.070000",
  "BandwidthPerPixelPhaseEncode": 17.17,
  "BaseResolution": 104,
  "BodyPartExamined": "BRAIN",
  "CoilString": "HC1-7;NC1_2",
  "ConsistencyInfo": "N4_VE11C_LATEST_20160120",
  "ConversionSoftware": "dcm2niix",
  "ConversionSoftwareVersion": "v1.0.20190902",
  "DerivedVendorReportedEchoSpacing": 0.000560011,
  "DeviceSerialNumber": "167006",
  "DwellTime": 2.1e-06,
  "EchoTime": 0.037,
  "EchoTrainLength": 104,
  "EffectiveEchoSpacing": 0.000560011,
  "FlipAngle": 52,
  "ImageComments": "Unaliased_MB4_PE3_LB",
  "ImageOrientationPatientDICOM": [0.999809, 0.0190386, 0.00445346, -0.0137863, 0.847941, -0.529912],
  "ImageType": [
    "ORIGINAL",
    "PRIMARY",
    "P",
    "MB",
    "ND",
    "MOSAIC"
],
  "ImagingFrequency": 123.259,
  "InPlanePhaseEncodingDirectionDICOM": "COL",
  "InstitutionAddress": "Chemin_Queen-Mary_4565_Montreal_District_CA_H3W_1W5",
  "InstitutionName": "IUGM",
  "InstitutionalDepartmentName": "Department",
  "MRAcquisitionType": "2D",
  "MagneticFieldStrength": 3,
  "Manufacturer": "Siemens",
  "ManufacturersModelName": "Prisma_fit",
  "Modality": "MR",
  "MultibandAccelerationFactor": 4,
  "PartialFourier": 1,
  "PatientPosition": "HFS",
  "PercentPhaseFOV": 100,
  "PhaseEncodingDirection": "j",
  "PhaseEncodingSteps": 104,
  "PhaseResolution": 1,
  "PixelBandwidth": 2290,
  "ProcedureStepDescription": "memory_things",
  "ProtocolName": "func_task-things_run-6",
  "PulseSequenceDetails": "%CustomerSeq%_cmrr_mbep2d_bold",
  "ReceiveCoilActiveElements": "HC1-7;NC1,2",
  "ReceiveCoilName": "HeadNeck_64",
  "ReconMatrixPE": 104,
  "RepetitionTime": 1.49,
  "SAR": 0.0572895,
  "ScanOptions": "FS",
  "ScanningSequence": "EP",
  "SequenceName": "epfid2d1_104",
  "SequenceVariant": "SK_SS",
  "SeriesDescription": "func_task-things_run-6",
  "SeriesNumber": 26,
  "ShimSetting": [613, -7182, -8858, 320, 13, -142, -61, -33],
  "SliceThickness": 2,
  "SliceTiming": [0, 0.785, 0.0975, 0.8825, 0.1975, 0.98, 0.295, 1.0775, 0.3925, 1.1775, 0.49, 1.275, 0.5875, 1.3725, 0.6875, 0, 0.785, 0.0975, 0.8825, 0.1975, 0.98, 0.295, 1.0775, 0.3925, 1.1775, 0.49, 1.275, 0.5875, 1.3725, 0.6875, 0, 0.785, 0.0975, 0.8825, 0.1975, 0.98, 0.295, 1.0775, 0.3925, 1.1775, 0.49, 1.275, 0.5875, 1.3725, 0.6875, 0, 0.785, 0.0975, 0.8825, 0.1975, 0.98, 0.295, 1.0775, 0.3925, 1.1775, 0.49, 1.275, 0.5875, 1.3725, 0.6875],
  "SoftwareVersions": "syngo_MR_E11",
  "SpacingBetweenSlices": 2,
  "StationName": "MRC35049",
  "TaskName": "things",
  "TotalReadoutTime": 0.0576811,
  "TxRefAmp": 287.78,
  "WipMemBlock": "55bf42ee-48ee-4b36-8423-b0c44890405f||Sequence: R016 ve11c/master r/e634e98; Dec 19 2017 11:00:25 by eja",
  "dcmmeta_affine": [
    [-1.9996176958084106, -0.027572689577937126, 0.02773013710975647, 107.68294525146484],
    [-0.03807729855179787, 1.695881724357605, -1.059497594833374, -47.36752700805664],
    [0.00890691764652729, 1.0598230361938477, 1.6960824728012085, -92.62821960449219],
    [0.0, 0.0, 0.0, 1.0]
],
  "dcmmeta_reorient_transform": [
    [0.0, -1.0, 0.0, 103.0],
    [1.0, 0.0, 0.0, 0.0],
    [0.0, 0.0, 1.0, 0.0],
    [0.0, 0.0, 0.0, 1.0]
],
  "dcmmeta_shape": [104, 104, 60, 190],
  "dcmmeta_slice_dim": 2,
  "dcmmeta_version": 0.6,
  "global": {
    "const": {
      "AcquisitionMatrix": [104, 0, 0, 104],
      "AngioFlag": "N",
      "BitsAllocated": 16,
      "BitsStored": 16,
      "BodyPartExamined": "BRAIN",
      "Columns": 832,
      "EchoNumbers": 1,
      "EchoTime": 37.0,
      "EchoTrainLength": 104,
      "FlipAngle": 52.0,
      "HighBit": 15,
      "ImageOrientationPatient": [0.99980883001057, 0.01903864855799, 0.0044534586543, -0.0137863445043, 0.84794086182857, -0.5299115318113],
      "ImagePositionPatient": [-822.66733140962, -758.46937436403, 399.06703071553],
      "ImageType": [
        "ORIGINAL",
        "PRIMARY",
        "P",
        "MB",
        "ND",
        "MOSAIC"
],
      "ImagedNucleus": "1H",
      "ImagingFrequency": 123.258972,
      "InPlanePhaseEncodingDirection": "COL",
      "LargestImagePixelValue": 4095,
      "MRAcquisitionType": "2D",
      "MagneticFieldStrength": 3.0,
      "Manufacturer": "SIEMENS",
      "ManufacturerModelName": "Prisma_fit",
      "Modality": "MR",
      "NumberOfAverages": 1.0,
      "NumberOfPhaseEncodingSteps": 104,
      "PercentPhaseFieldOfView": 100.0,
      "PercentSampling": 100.0,
      "PerformedProcedureStepStartTime": "105314.960000",
      "PhotometricInterpretation": "MONOCHROME2",
      "PixelBandwidth": 2290.0,
      "PixelRepresentation": 0,
      "PixelSpacing": [2.0, 2.0],
      "ProtocolName": "func_task-things_run-6",
      "RepetitionTime": 1490.0,
      "RescaleIntercept": -4096.0,
      "RescaleSlope": 2.0,
      "RescaleType": "US",
      "Rows": 832,
      "SAR": 0.05728948719793,
      "SamplesPerPixel": 1,
      "ScanOptions": "FS",
      "ScanningSequence": "EP",
      "SequenceName": "epfid2d1_104",
      "SequenceVariant": [
        "SK",
        "SS"
],
      "SeriesDescription": "func_task-things_run-6",
      "SeriesNumber": 26,
      "SeriesTime": "113940.423000",
      "SliceLocation": -51.966628337402,
      "SliceThickness": 2.0,
      "SmallestImagePixelValue": 0,
      "SoftwareVersions": "syngo MR E11",
      "SpacingBetweenSlices": 1.9999999649142,
      "SpecificCharacterSet": "ISO_IR 100",
      "StudyID": "1",
      "StudyTime": "105314.886000",
      "TransmitCoilName": "Body",
      "VariableFlipAngleFlag": "N",
      "WindowCenterWidthExplanation": "Algo1",
      "dBdt": 0.0},
    "slices": {}
  },
  "time": {
    "samples": {
      "AcquisitionNumber": [1, 2, 3, 4, 5, 6, 7, 8, 9, 10, 11, 12, 13, 14, 15, 16, 17, 18, 19, 20, 21, 22, 23, 24, 25, 26, 27, 28, 29, 30, 31, 32, 33, 34, 35, 36, 37, 38, 39, 40, 41, 42, 43, 44, 45, 46, 47, 48, 49, 50, 51, 52, 53, 54, 55, 56, 57, 58, 59, 60, 61, 62, 63, 64, 65, 66, 67, 68, 69, 70, 71, 72, 73, 74, 75, 76, 77, 78, 79, 80, 81, 82, 83, 84, 85, 86, 87, 88, 89, 90, 91, 92, 93, 94, 95, 96, 97, 98, 99, 100, 101, 102, 103, 104, 105, 106, 107, 108, 109, 110, 111, 112, 113, 114, 115, 116, 117, 118, 119, 120, 121, 122, 123, 124, 125, 126, 127, 128, 129, 130, 131, 132, 133, 134, 135, 136, 137, 138, 139, 140, 141, 142, 143, 144, 145, 146, 147, 148, 149, 150, 151, 152, 153, 154, 155, 156, 157, 158, 159, 160, 161, 162, 163, 164, 165, 166, 167, 168, 169, 170, 171, 172, 173, 174, 175, 176, 177, 178, 179, 180, 181, 182, 183, 184, 185, 186, 187, 188, 189, 190],
      "AcquisitionTime": ["113824.070000", "113825.560000", "113827.050000", "113828.540000", "113830.030000", "113831.520000", "113833.010000", "113834.500000", "113835.990000", "113837.480000", "113838.970000", "113840.460000", "113841.950000", "113843.440000", "113844.930000", "113846.420000", "113847.910000", "113849.400000", "113850.890000", "113852.380000", "113853.870000", "113855.360000", "113856.850000", "113858.340000", "113859.830000", "113901.320000", "113902.810000", "113904.300000", "113905.790000", "113907.280000", "113908.770000", "113910.260000", "113911.750000", "113913.240000", "113914.730000", "113916.220000", "113917.710000", "113919.200000", "113920.690000", "113922.180000", "113923.670000", "113925.160000", "113926.650000", "113928.140000", "113929.630000", "113931.120000", "113932.610000", "113934.100000", "113935.590000", "113937.080000", "113938.570000", "113940.060000", "113941.550000", "113943.040000", "113944.530000", "113946.020000", "113947.510000", "113949.000000", "113950.490000", "113951.980000", "113953.470000", "113954.960000", "113956.450000", "113957.940000", "113959.430000", "114000.920000", "114002.410000", "114003.900000", "114005.390000", "114006.880000", "114008.370000", "114009.860000", "114011.350000", "114012.840000", "114014.330000", "114015.820000", "114017.310000", "114018.800000", "114020.290000", "114021.780000", "114023.270000", "114024.760000", "114026.250000", "114027.740000", "114029.230000", "114030.720000", "114032.210000", "114033.700000", "114035.190000", "114036.680000", "114038.170000", "114039.660000", "114041.150000", "114042.640000", "114044.130000", "114045.620000", "114047.110000", "114048.600000", "114050.090000", "114051.580000", "114053.070000", "114054.560000", "114056.050000", "114057.540000", "114059.030000", "114100.520000", "114102.010000", "114103.500000", "114104.990000", "114106.480000", "114107.970000", "114109.460000", "114110.950000", "114112.440000", "114113.930000", "114115.420000", "114116.910000", "114118.400000", "114119.890000", "114121.380000", "114122.870000", "114124.360000", "114125.850000", "114127.340000", "114128.830000", "114130.320000", "114131.810000", "114133.300000", "114134.790000", "114136.280000", "114137.770000", "114139.260000", "114140.750000", "114142.240000", "114143.730000", "114145.220000", "114146.710000", "114148.200000", "114149.690000", "114151.180000", "114152.670000", "114154.160000", "114155.650000", "114157.140000", "114158.630000", "114200.120000", "114201.610000", "114203.100000", "114204.590000", "114206.080000", "114207.570000", "114209.060000", "114210.550000", "114212.040000", "114213.530000", "114215.020000", "114216.510000", "114218.000000", "114219.490000", "114220.980000", "114222.470000", "114223.960000", "114225.450000", "114226.940000", "114228.430000", "114229.920000", "114231.410000", "114232.900000", "114234.390000", "114235.880000", "114237.370000", "114238.860000", "114240.350000", "114241.840000", "114243.330000", "114244.820000", "114246.310000", "114247.800000", "114249.290000", "114250.780000", "114252.270000", "114253.760000", "114255.250000", "114256.740000", "114258.230000", "114259.720000", "114301.210000", "114302.700000", "114304.190000", "114305.680000"],
      "ContentTime": ["113940.425000", "113940.428000", "113940.431000", "113940.437000", "113940.439000", "113940.442000", "113940.444000", "113940.447000", "113940.450000", "113940.452000", "113940.455000", "113940.457000", "113940.460000", "113940.462000", "113940.465000", "113940.467000", "113940.470000", "113940.472000", "113940.475000", "113940.477000", "113940.490000", "114000.395000", "114000.398000", "114000.400000", "114000.403000", "114000.405000", "114000.408000", "114000.410000", "114000.413000", "114000.415000", "114000.418000", "114000.420000", "114000.423000", "114000.426000", "114000.428000", "114000.431000", "114000.433000", "114000.436000", "114000.438000", "114000.441000", "114000.443000", "114020.371000", "114020.374000", "114020.376000", "114020.379000", "114020.382000", "114020.384000", "114020.387000", "114020.389000", "114020.392000", "114020.394000", "114020.397000", "114020.399000", "114020.402000", "114020.405000", "114020.407000", "114020.410000", "114020.412000", "114020.415000", "114020.417000", "114020.420000", "114040.376000", "114040.379000", "114040.381000", "114040.384000", "114040.395000", "114040.397000", "114040.400000", "114040.403000", "114040.405000", "114040.408000", "114040.410000", "114040.413000", "114040.415000", "114040.418000", "114040.420000", "114040.423000", "114040.426000", "114040.428000", "114040.431000", "114040.433000", "114040.436000", "114100.375000", "114100.378000", "114100.380000", "114100.383000", "114100.386000", "114100.388000", "114100.391000", "114100.393000", "114100.396000", "114100.398000", "114100.401000", "114100.403000", "114100.406000", "114100.408000", "114100.411000", "114100.413000", "114100.416000", "114100.418000", "114100.421000", "114100.423000", "114140.446000", "114140.449000", "114140.451000", "114140.454000", "114140.457000", "114140.459000", "114140.474000", "114140.477000", "114140.480000", "114140.482000", "114140.485000", "114140.488000", "114140.491000", "114140.493000", "114140.496000", "114140.499000", "114140.501000", "114140.504000", "114140.507000", "114140.509000", "114140.512000", "114140.514000", "114140.517000", "114140.520000", "114140.522000", "114140.525000", "114140.528000", "114140.533000", "114220.397000", "114220.400000", "114220.403000", "114220.405000", "114220.408000", "114220.410000", "114220.413000", "114220.416000", "114220.418000", "114220.421000", "114220.423000", "114220.426000", "114220.429000", "114220.431000", "114220.434000", "114220.436000", "114220.439000", "114220.441000", "114220.444000", "114220.446000", "114220.449000", "114220.452000", "114220.454000", "114220.457000", "114220.460000", "114220.463000", "114220.465000", "114300.815000", "114300.818000", "114300.821000", "114300.823000", "114300.826000", "114300.829000", "114300.831000", "114300.834000", "114300.836000", "114300.839000", "114300.841000", "114300.844000", "114300.846000", "114300.849000", "114300.851000", "114300.854000", "114300.856000", "114300.859000", "114300.862000", "114300.864000", "114300.867000", "114300.869000", "114300.872000", "114300.874000", "114300.877000", "114300.879000", "114300.882000", "114308.321000", "114308.324000", "114308.326000", "114308.329000", "114308.331000", "114308.340000"],
      "InstanceCreationTime": ["113940.425000", "113940.428000", "113940.431000", "113940.437000", "113940.439000", "113940.442000", "113940.444000", "113940.447000", "113940.450000", "113940.452000", "113940.455000", "113940.457000", "113940.460000", "113940.462000", "113940.465000", "113940.467000", "113940.470000", "113940.472000", "113940.475000", "113940.477000", "113940.490000", "114000.395000", "114000.398000", "114000.400000", "114000.403000", "114000.405000", "114000.408000", "114000.410000", "114000.413000", "114000.415000", "114000.418000", "114000.420000", "114000.423000", "114000.426000", "114000.428000", "114000.431000", "114000.433000", "114000.436000", "114000.438000", "114000.441000", "114000.443000", "114020.371000", "114020.374000", "114020.376000", "114020.379000", "114020.382000", "114020.384000", "114020.387000", "114020.389000", "114020.392000", "114020.394000", "114020.397000", "114020.399000", "114020.402000", "114020.405000", "114020.407000", "114020.410000", "114020.412000", "114020.415000", "114020.417000", "114020.420000", "114040.376000", "114040.379000", "114040.381000", "114040.384000", "114040.395000", "114040.397000", "114040.400000", "114040.403000", "114040.405000", "114040.408000", "114040.410000", "114040.413000", "114040.415000", "114040.418000", "114040.420000", "114040.423000", "114040.426000", "114040.428000", "114040.431000", "114040.433000", "114040.436000", "114100.375000", "114100.378000", "114100.380000", "114100.383000", "114100.386000", "114100.388000", "114100.391000", "114100.393000", "114100.396000", "114100.398000", "114100.401000", "114100.403000", "114100.406000", "114100.408000", "114100.411000", "114100.413000", "114100.416000", "114100.418000", "114100.421000", "114100.423000", "114140.446000", "114140.449000", "114140.451000", "114140.454000", "114140.457000", "114140.459000", "114140.474000", "114140.477000", "114140.480000", "114140.482000", "114140.485000", "114140.488000", "114140.491000", "114140.493000", "114140.496000", "114140.499000", "114140.501000", "114140.504000", "114140.507000", "114140.509000", "114140.512000", "114140.514000", "114140.517000", "114140.520000", "114140.522000", "114140.525000", "114140.528000", "114140.533000", "114220.397000", "114220.400000", "114220.403000", "114220.405000", "114220.408000", "114220.410000", "114220.413000", "114220.416000", "114220.418000", "114220.421000", "114220.423000", "114220.426000", "114220.429000", "114220.431000", "114220.434000", "114220.436000", "114220.439000", "114220.441000", "114220.444000", "114220.446000", "114220.449000", "114220.452000", "114220.454000", "114220.457000", "114220.460000", "114220.463000", "114220.465000", "114300.815000", "114300.818000", "114300.821000", "114300.823000", "114300.826000", "114300.829000", "114300.831000", "114300.834000", "114300.836000", "114300.839000", "114300.841000", "114300.844000", "114300.846000", "114300.849000", "114300.851000", "114300.854000", "114300.856000", "114300.859000", "114300.862000", "114300.864000", "114300.867000", "114300.869000", "114300.872000", "114300.874000", "114300.877000", "114300.879000", "114300.882000", "114308.321000", "114308.324000", "114308.326000", "114308.329000", "114308.331000", "114308.340000"],
      "InstanceNumber": [1, 2, 3, 4, 5, 6, 7, 8, 9, 10, 11, 12, 13, 14, 15, 16, 17, 18, 19, 20, 21, 22, 23, 24, 25, 26, 27, 28, 29, 30, 31, 32, 33, 34, 35, 36, 37, 38, 39, 40, 41, 42, 43, 44, 45, 46, 47, 48, 49, 50, 51, 52, 53, 54, 55, 56, 57, 58, 59, 60, 61, 62, 63, 64, 65, 66, 67, 68, 69, 70, 71, 72, 73, 74, 75, 76, 77, 78, 79, 80, 81, 82, 83, 84, 85, 86, 87, 88, 89, 90, 91, 92, 93, 94, 95, 96, 97, 98, 99, 100, 101, 102, 103, 104, 105, 106, 107, 108, 109, 110, 111, 112, 113, 114, 115, 116, 117, 118, 119, 120, 121, 122, 123, 124, 125, 126, 127, 128, 129, 130, 131, 132, 133, 134, 135, 136, 137, 138, 139, 140, 141, 142, 143, 144, 145, 146, 147, 148, 149, 150, 151, 152, 153, 154, 155, 156, 157, 158, 159, 160, 161, 162, 163, 164, 165, 166, 167, 168, 169, 170, 171, 172, 173, 174, 175, 176, 177, 178, 179, 180, 181, 182, 183, 184, 185, 186, 187, 188, 189, 190],
      "WindowCenter": [4828.0, 4830.0, 4826.0, 4820.0, 4822.0, 4830.0, 4830.0, 4826.0, 4824.0, 4824.0, 4824.0, 4826.0, 4822.0, 4818.0, 4820.0, 4820.0, 4828.0, 4826.0, 4824.0, 4826.0, 4832.0, 4822.0, 4820.0, 4818.0, 4824.0, 4828.0, 4828.0, 4820.0, 4824.0, 4824.0, 4816.0, 4816.0, 4820.0, 4822.0, 4816.0, 4828.0, 4826.0, 4820.0, 4820.0, 4820.0, 4814.0, 4824.0, 4824.0, 4824.0, 4822.0, 4818.0, 4794.0, 4818.0, 4820.0, 4822.0, 4824.0, 4820.0, 4818.0, 4816.0, 4824.0, 4852.0, 4848.0, 4818.0, 4822.0, 4818.0, 4814.0, 4822.0, 4818.0, 4816.0, 4794.0, 4794.0, 4790.0, 4790.0, 4796.0, 4790.0, 4816.0, 4824.0, 4818.0, 4822.0, 4820.0, 4820.0, 4824.0, 4824.0, 4794.0, 4796.0, 4816.0, 4816.0, 4796.0, 4818.0, 4818.0, 4818.0, 4794.0, 4796.0, 4792.0, 4796.0, 4818.0, 4818.0, 4820.0, 4790.0, 4826.0, 4826.0, 4818.0, 4818.0, 4814.0, 4818.0, 4820.0, 4816.0, 4796.0, 4848.0, 4822.0, 4792.0, 4818.0, 4826.0, 4824.0, 4822.0, 4816.0, 4820.0, 4826.0, 4824.0, 4824.0, 4824.0, 4828.0, 4822.0, 4820.0, 4820.0, 4816.0, 4822.0, 4824.0, 4818.0, 4826.0, 4882.0, 4854.0, 4828.0, 4810.0, 4784.0, 4784.0, 4810.0, 4820.0, 4794.0, 4816.0, 4820.0, 4826.0, 4850.0, 4822.0, 4824.0, 4814.0, 4818.0, 4824.0, 4820.0, 4822.0, 4822.0, 4818.0, 4816.0, 4794.0, 4792.0, 4792.0, 4820.0, 4820.0, 4822.0, 4822.0, 4820.0, 4820.0, 4828.0, 4828.0, 4820.0, 4822.0, 4828.0, 4824.0, 4816.0, 4822.0, 4818.0, 4816.0, 4794.0, 4796.0, 4826.0, 4796.0, 4816.0, 4818.0, 4822.0, 4816.0, 4826.0, 4824.0, 4822.0, 4818.0, 4820.0, 4798.0, 4818.0, 4818.0, 4818.0, 4796.0, 4818.0, 4826.0, 4824.0, 4826.0, 4818.0],
      "WindowWidth": [18590.0, 18580.0, 18596.0, 18600.0, 18604.0, 18586.0, 18580.0, 18604.0, 18602.0, 18604.0, 18600.0, 18602.0, 18590.0, 18592.0, 18594.0, 18582.0, 18570.0, 18570.0, 18606.0, 18602.0, 18602.0, 18602.0, 18606.0, 18608.0, 18598.0, 18566.0, 18568.0, 18572.0, 18594.0, 18606.0, 18610.0, 18612.0, 18606.0, 18610.0, 18580.0, 18570.0, 18574.0, 18584.0, 18600.0, 18604.0, 18610.0, 18608.0, 18604.0, 18602.0, 18586.0, 18584.0, 18558.0, 18572.0, 18584.0, 18598.0, 18602.0, 18610.0, 18608.0, 18614.0, 18580.0, 18598.0, 18602.0, 18598.0, 18606.0, 18610.0, 18610.0, 18602.0, 18610.0, 18596.0, 18554.0, 18548.0, 18548.0, 18552.0, 18544.0, 18556.0, 18600.0, 18586.0, 18604.0, 18614.0, 18608.0, 18614.0, 18584.0, 18572.0, 18548.0, 18568.0, 18606.0, 18612.0, 18564.0, 18590.0, 18594.0, 18594.0, 18554.0, 18556.0, 18564.0, 18560.0, 18602.0, 18600.0, 18602.0, 18568.0, 18570.0, 18568.0, 18592.0, 18612.0, 18610.0, 18614.0, 18612.0, 18606.0, 18550.0, 18606.0, 18564.0, 18552.0, 18600.0, 18596.0, 18600.0, 18604.0, 18616.0, 18612.0, 18570.0, 18564.0, 18570.0, 18576.0, 18598.0, 18606.0, 18602.0, 18608.0, 18614.0, 18608.0, 18606.0, 18590.0, 18578.0, 18668.0, 18602.0, 18590.0, 18612.0, 18578.0, 18582.0, 18612.0, 18614.0, 18562.0, 18570.0, 18576.0, 18586.0, 18604.0, 18570.0, 18606.0, 18612.0, 18606.0, 18600.0, 18604.0, 18610.0, 18610.0, 18590.0, 18576.0, 18546.0, 18550.0, 18558.0, 18604.0, 18582.0, 18580.0, 18604.0, 18614.0, 18608.0, 18574.0, 18580.0, 18602.0, 18604.0, 18588.0, 18604.0, 18610.0, 18602.0, 18608.0, 18600.0, 18568.0, 18546.0, 18570.0, 18548.0, 18598.0, 18600.0, 18610.0, 18612.0, 18600.0, 18596.0, 18600.0, 18602.0, 18578.0, 18552.0, 18592.0, 18600.0, 18600.0, 18578.0, 18584.0, 18568.0, 18570.0, 18592.0, 18608.0]
    },
    "slices": {}
  }
}