{
  "AcquisitionMatrixPE": 104,
  "AcquisitionNumber": 1,
  "AcquisitionTime": "11:20:5.250000",
  "BandwidthPerPixelPhaseEncode": 17.17,
  "BaseResolution": 104,
  "BodyPartExamined": "BRAIN",
  "CoilString": "HC1-7;NC1_2",
  "ConsistencyInfo": "N4_VE11C_LATEST_20160120",
  "ConversionSoftware": "dcm2niix",
  "ConversionSoftwareVersion": "v1.0.20190902",
  "DerivedVendorReportedEchoSpacing": 0.000560011,
  "DeviceSerialNumber": "167006",
  "DwellTime": 2.1e-06,
  "EchoTime": 0.037,
  "EchoTrainLength": 104,
  "EffectiveEchoSpacing": 0.000560011,
  "FlipAngle": 52,
  "ImageComments": "Unaliased_MB4_PE3_LB",
  "ImageOrientationPatientDICOM": [0.999809, 0.0190386, 0.00445346, -0.0137863, 0.847941, -0.529912],
  "ImageType": [
    "ORIGINAL",
    "PRIMARY",
    "P",
    "MB",
    "ND",
    "MOSAIC"
],
  "ImagingFrequency": 123.259,
  "InPlanePhaseEncodingDirectionDICOM": "COL",
  "InstitutionAddress": "Chemin_Queen-Mary_4565_Montreal_District_CA_H3W_1W5",
  "InstitutionName": "IUGM",
  "InstitutionalDepartmentName": "Department",
  "MRAcquisitionType": "2D",
  "MagneticFieldStrength": 3,
  "Manufacturer": "Siemens",
  "ManufacturersModelName": "Prisma_fit",
  "Modality": "MR",
  "MultibandAccelerationFactor": 4,
  "PartialFourier": 1,
  "PatientPosition": "HFS",
  "PercentPhaseFOV": 100,
  "PhaseEncodingDirection": "j",
  "PhaseEncodingSteps": 104,
  "PhaseResolution": 1,
  "PixelBandwidth": 2290,
  "ProcedureStepDescription": "memory_things",
  "ProtocolName": "func_task-things_run-3",
  "PulseSequenceDetails": "%CustomerSeq%_cmrr_mbep2d_bold",
  "ReceiveCoilActiveElements": "HC1-7;NC1,2",
  "ReceiveCoilName": "HeadNeck_64",
  "ReconMatrixPE": 104,
  "RepetitionTime": 1.49,
  "SAR": 0.0572895,
  "ScanOptions": "FS",
  "ScanningSequence": "EP",
  "SequenceName": "epfid2d1_104",
  "SequenceVariant": "SK_SS",
  "SeriesDescription": "func_task-things_run-3",
  "SeriesNumber": 17,
  "ShimSetting": [613, -7182, -8858, 320, 13, -142, -61, -33],
  "SliceThickness": 2,
  "SliceTiming": [0, 0.7825, 0.0975, 0.88, 0.195, 0.98, 0.2925, 1.0775, 0.39, 1.175, 0.49, 1.2725, 0.5875, 1.37, 0.685, 0, 0.7825, 0.0975, 0.88, 0.195, 0.98, 0.2925, 1.0775, 0.39, 1.175, 0.49, 1.2725, 0.5875, 1.37, 0.685, 0, 0.7825, 0.0975, 0.88, 0.195, 0.98, 0.2925, 1.0775, 0.39, 1.175, 0.49, 1.2725, 0.5875, 1.37, 0.685, 0, 0.7825, 0.0975, 0.88, 0.195, 0.98, 0.2925, 1.0775, 0.39, 1.175, 0.49, 1.2725, 0.5875, 1.37, 0.685],
  "SoftwareVersions": "syngo_MR_E11",
  "SpacingBetweenSlices": 2,
  "StationName": "MRC35049",
  "TaskName": "things",
  "TotalReadoutTime": 0.0576811,
  "TxRefAmp": 287.78,
  "WipMemBlock": "c686aa15-b613-40be-bfe8-90d807d880f2||Sequence: R016 ve11c/master r/e634e98; Dec 19 2017 11:00:25 by eja",
  "dcmmeta_affine": [
    [-1.9996176958084106, -0.027572689577937126, 0.02773013710975647, 107.68294525146484],
    [-0.03807729855179787, 1.695881724357605, -1.059497594833374, -47.36752700805664],
    [0.00890691764652729, 1.0598230361938477, 1.6960824728012085, -92.62821960449219],
    [0.0, 0.0, 0.0, 1.0]
],
  "dcmmeta_reorient_transform": [
    [0.0, -1.0, 0.0, 103.0],
    [1.0, 0.0, 0.0, 0.0],
    [0.0, 0.0, 1.0, 0.0],
    [0.0, 0.0, 0.0, 1.0]
],
  "dcmmeta_shape": [104, 104, 60, 190],
  "dcmmeta_slice_dim": 2,
  "dcmmeta_version": 0.6,
  "global": {
    "const": {
      "AcquisitionMatrix": [104, 0, 0, 104],
      "AngioFlag": "N",
      "BitsAllocated": 16,
      "BitsStored": 16,
      "BodyPartExamined": "BRAIN",
      "Columns": 832,
      "EchoNumbers": 1,
      "EchoTime": 37.0,
      "EchoTrainLength": 104,
      "FlipAngle": 52.0,
      "HighBit": 15,
      "ImageOrientationPatient": [0.99980883001057, 0.01903864855799, 0.0044534586543, -0.0137863445043, 0.84794086182857, -0.5299115318113],
      "ImagePositionPatient": [-822.66733140962, -758.46937436403, 399.06703071553],
      "ImageType": [
        "ORIGINAL",
        "PRIMARY",
        "P",
        "MB",
        "ND",
        "MOSAIC"
],
      "ImagedNucleus": "1H",
      "ImagingFrequency": 123.25896,
      "InPlanePhaseEncodingDirection": "COL",
      "LargestImagePixelValue": 4095,
      "MRAcquisitionType": "2D",
      "MagneticFieldStrength": 3.0,
      "Manufacturer": "SIEMENS",
      "ManufacturerModelName": "Prisma_fit",
      "Modality": "MR",
      "NumberOfAverages": 1.0,
      "NumberOfPhaseEncodingSteps": 104,
      "PercentPhaseFieldOfView": 100.0,
      "PercentSampling": 100.0,
      "PerformedProcedureStepStartTime": "105314.960000",
      "PhotometricInterpretation": "MONOCHROME2",
      "PixelBandwidth": 2290.0,
      "PixelRepresentation": 0,
      "PixelSpacing": [2.0, 2.0],
      "ProtocolName": "func_task-things_run-3",
      "RepetitionTime": 1490.0,
      "RescaleIntercept": -4096.0,
      "RescaleSlope": 2.0,
      "RescaleType": "US",
      "Rows": 832,
      "SAR": 0.05728948719793,
      "SamplesPerPixel": 1,
      "ScanOptions": "FS",
      "ScanningSequence": "EP",
      "SequenceName": "epfid2d1_104",
      "SequenceVariant": [
        "SK",
        "SS"
],
      "SeriesDescription": "func_task-things_run-3",
      "SeriesNumber": 17,
      "SeriesTime": "112120.439000",
      "SliceLocation": -51.966628337402,
      "SliceThickness": 2.0,
      "SmallestImagePixelValue": 0,
      "SoftwareVersions": "syngo MR E11",
      "SpacingBetweenSlices": 1.9999999649142,
      "SpecificCharacterSet": "ISO_IR 100",
      "StudyID": "1",
      "StudyTime": "105314.886000",
      "TransmitCoilName": "Body",
      "VariableFlipAngleFlag": "N",
      "WindowCenterWidthExplanation": "Algo1",
      "dBdt": 0.0},
    "slices": {}
  },
  "time": {
    "samples": {
      "AcquisitionNumber": [1, 2, 3, 4, 5, 6, 7, 8, 9, 10, 11, 12, 13, 14, 15, 16, 17, 18, 19, 20, 21, 22, 23, 24, 25, 26, 27, 28, 29, 30, 31, 32, 33, 34, 35, 36, 37, 38, 39, 40, 41, 42, 43, 44, 45, 46, 47, 48, 49, 50, 51, 52, 53, 54, 55, 56, 57, 58, 59, 60, 61, 62, 63, 64, 65, 66, 67, 68, 69, 70, 71, 72, 73, 74, 75, 76, 77, 78, 79, 80, 81, 82, 83, 84, 85, 86, 87, 88, 89, 90, 91, 92, 93, 94, 95, 96, 97, 98, 99, 100, 101, 102, 103, 104, 105, 106, 107, 108, 109, 110, 111, 112, 113, 114, 115, 116, 117, 118, 119, 120, 121, 122, 123, 124, 125, 126, 127, 128, 129, 130, 131, 132, 133, 134, 135, 136, 137, 138, 139, 140, 141, 142, 143, 144, 145, 146, 147, 148, 149, 150, 151, 152, 153, 154, 155, 156, 157, 158, 159, 160, 161, 162, 163, 164, 165, 166, 167, 168, 169, 170, 171, 172, 173, 174, 175, 176, 177, 178, 179, 180, 181, 182, 183, 184, 185, 186, 187, 188, 189, 190],
      "AcquisitionTime": ["112005.250000", "112006.740000", "112008.230000", "112009.720000", "112011.210000", "112012.700000", "112014.190000", "112015.680000", "112017.170000", "112018.660000", "112020.150000", "112021.640000", "112023.130000", "112024.620000", "112026.110000", "112027.600000", "112029.090000", "112030.580000", "112032.070000", "112033.560000", "112035.050000", "112036.540000", "112038.030000", "112039.520000", "112041.010000", "112042.500000", "112043.990000", "112045.480000", "112046.970000", "112048.460000", "112049.950000", "112051.440000", "112052.930000", "112054.420000", "112055.910000", "112057.400000", "112058.890000", "112100.380000", "112101.870000", "112103.360000", "112104.850000", "112106.340000", "112107.830000", "112109.320000", "112110.810000", "112112.300000", "112113.790000", "112115.280000", "112116.770000", "112118.260000", "112119.750000", "112121.240000", "112122.730000", "112124.220000", "112125.710000", "112127.200000", "112128.690000", "112130.180000", "112131.670000", "112133.160000", "112134.650000", "112136.140000", "112137.630000", "112139.120000", "112140.610000", "112142.100000", "112143.590000", "112145.080000", "112146.570000", "112148.060000", "112149.550000", "112151.040000", "112152.530000", "112154.020000", "112155.510000", "112157.000000", "112158.490000", "112159.980000", "112201.470000", "112202.960000", "112204.450000", "112205.940000", "112207.430000", "112208.920000", "112210.410000", "112211.900000", "112213.390000", "112214.880000", "112216.370000", "112217.860000", "112219.350000", "112220.840000", "112222.330000", "112223.820000", "112225.310000", "112226.800000", "112228.290000", "112229.780000", "112231.270000", "112232.760000", "112234.250000", "112235.740000", "112237.230000", "112238.720000", "112240.210000", "112241.700000", "112243.190000", "112244.680000", "112246.170000", "112247.660000", "112249.150000", "112250.640000", "112252.130000", "112253.620000", "112255.110000", "112256.600000", "112258.090000", "112259.580000", "112301.070000", "112302.560000", "112304.050000", "112305.540000", "112307.030000", "112308.520000", "112310.010000", "112311.500000", "112312.990000", "112314.480000", "112315.970000", "112317.460000", "112318.950000", "112320.440000", "112321.930000", "112323.420000", "112324.910000", "112326.400000", "112327.890000", "112329.380000", "112330.870000", "112332.360000", "112333.850000", "112335.340000", "112336.830000", "112338.320000", "112339.810000", "112341.300000", "112342.790000", "112344.280000", "112345.770000", "112347.260000", "112348.750000", "112350.240000", "112351.730000", "112353.220000", "112354.710000", "112356.200000", "112357.690000", "112359.180000", "112400.670000", "112402.160000", "112403.650000", "112405.140000", "112406.630000", "112408.120000", "112409.610000", "112411.100000", "112412.590000", "112414.080000", "112415.570000", "112417.060000", "112418.550000", "112420.040000", "112421.530000", "112423.020000", "112424.510000", "112426.000000", "112427.490000", "112428.980000", "112430.470000", "112431.960000", "112433.450000", "112434.940000", "112436.430000", "112437.920000", "112439.410000", "112440.900000", "112442.390000", "112443.880000", "112445.370000", "112446.860000"],
      "ContentTime": ["112120.441000", "112120.444000", "112120.452000", "112120.454000", "112120.457000", "112120.459000", "112120.462000", "112120.465000", "112120.467000", "112120.470000", "112120.486000", "112120.489000", "112120.491000", "112120.494000", "112120.503000", "112120.505000", "112120.508000", "112120.510000", "112120.513000", "112120.515000", "112140.376000", "112140.378000", "112140.381000", "112140.384000", "112140.386000", "112140.389000", "112140.391000", "112140.394000", "112140.396000", "112140.399000", "112140.401000", "112140.404000", "112140.407000", "112140.409000", "112140.412000", "112140.414000", "112140.417000", "112140.419000", "112140.422000", "112140.424000", "112140.427000", "112200.375000", "112200.377000", "112200.380000", "112200.383000", "112200.385000", "112200.388000", "112200.390000", "112200.393000", "112200.395000", "112200.404000", "112200.406000", "112200.409000", "112200.411000", "112200.414000", "112200.416000", "112200.419000", "112200.421000", "112200.424000", "112200.426000", "112200.429000", "112220.368000", "112220.371000", "112220.373000", "112220.376000", "112220.379000", "112220.381000", "112220.384000", "112220.386000", "112220.389000", "112220.391000", "112220.394000", "112220.396000", "112220.399000", "112220.401000", "112220.404000", "112220.407000", "112220.409000", "112220.412000", "112220.414000", "112220.417000", "112240.378000", "112240.381000", "112240.384000", "112240.386000", "112240.389000", "112240.391000", "112240.394000", "112240.396000", "112240.399000", "112240.402000", "112240.404000", "112240.406000", "112240.409000", "112240.411000", "112240.414000", "112240.416000", "112240.419000", "112240.421000", "112240.424000", "112240.426000", "112320.414000", "112320.417000", "112320.420000", "112320.423000", "112320.425000", "112320.428000", "112320.430000", "112320.433000", "112320.435000", "112320.438000", "112320.441000", "112320.443000", "112320.446000", "112320.448000", "112320.451000", "112320.453000", "112320.456000", "112320.458000", "112320.461000", "112320.464000", "112320.466000", "112320.469000", "112320.477000", "112320.480000", "112320.482000", "112320.485000", "112320.488000", "112320.490000", "112320.493000", "112400.406000", "112400.409000", "112400.411000", "112400.414000", "112400.416000", "112400.419000", "112400.422000", "112400.424000", "112400.427000", "112400.429000", "112400.432000", "112400.435000", "112400.437000", "112400.440000", "112400.442000", "112400.445000", "112400.447000", "112400.450000", "112400.453000", "112400.455000", "112400.458000", "112400.460000", "112400.463000", "112400.465000", "112400.468000", "112400.470000", "112400.473000", "112440.396000", "112440.399000", "112440.401000", "112440.404000", "112440.406000", "112440.409000", "112440.412000", "112440.414000", "112440.417000", "112440.419000", "112440.422000", "112440.424000", "112440.427000", "112440.429000", "112440.432000", "112440.434000", "112440.437000", "112440.440000", "112440.442000", "112440.445000", "112440.447000", "112440.450000", "112440.452000", "112440.455000", "112440.457000", "112440.460000", "112440.462000", "112449.127000", "112449.130000", "112449.133000", "112449.135000", "112449.138000", "112449.141000"],
      "InstanceCreationTime": ["112120.441000", "112120.444000", "112120.452000", "112120.454000", "112120.457000", "112120.459000", "112120.462000", "112120.465000", "112120.467000", "112120.470000", "112120.486000", "112120.489000", "112120.491000", "112120.494000", "112120.503000", "112120.505000", "112120.508000", "112120.510000", "112120.513000", "112120.515000", "112140.376000", "112140.378000", "112140.381000", "112140.384000", "112140.386000", "112140.389000", "112140.391000", "112140.394000", "112140.396000", "112140.399000", "112140.401000", "112140.404000", "112140.407000", "112140.409000", "112140.412000", "112140.414000", "112140.417000", "112140.419000", "112140.422000", "112140.424000", "112140.427000", "112200.375000", "112200.377000", "112200.380000", "112200.383000", "112200.385000", "112200.388000", "112200.390000", "112200.393000", "112200.395000", "112200.404000", "112200.406000", "112200.409000", "112200.411000", "112200.414000", "112200.416000", "112200.419000", "112200.421000", "112200.424000", "112200.426000", "112200.429000", "112220.368000", "112220.371000", "112220.373000", "112220.376000", "112220.379000", "112220.381000", "112220.384000", "112220.386000", "112220.389000", "112220.391000", "112220.394000", "112220.396000", "112220.399000", "112220.401000", "112220.404000", "112220.407000", "112220.409000", "112220.412000", "112220.414000", "112220.417000", "112240.378000", "112240.381000", "112240.384000", "112240.386000", "112240.389000", "112240.391000", "112240.394000", "112240.396000", "112240.399000", "112240.402000", "112240.404000", "112240.406000", "112240.409000", "112240.411000", "112240.414000", "112240.416000", "112240.419000", "112240.421000", "112240.424000", "112240.426000", "112320.414000", "112320.417000", "112320.420000", "112320.423000", "112320.425000", "112320.428000", "112320.430000", "112320.433000", "112320.435000", "112320.438000", "112320.441000", "112320.443000", "112320.446000", "112320.448000", "112320.451000", "112320.453000", "112320.456000", "112320.458000", "112320.461000", "112320.464000", "112320.466000", "112320.469000", "112320.477000", "112320.480000", "112320.482000", "112320.485000", "112320.488000", "112320.490000", "112320.493000", "112400.406000", "112400.409000", "112400.411000", "112400.414000", "112400.416000", "112400.419000", "112400.422000", "112400.424000", "112400.427000", "112400.429000", "112400.432000", "112400.435000", "112400.437000", "112400.440000", "112400.442000", "112400.445000", "112400.447000", "112400.450000", "112400.453000", "112400.455000", "112400.458000", "112400.460000", "112400.463000", "112400.465000", "112400.468000", "112400.470000", "112400.473000", "112440.396000", "112440.399000", "112440.401000", "112440.404000", "112440.406000", "112440.409000", "112440.412000", "112440.414000", "112440.417000", "112440.419000", "112440.422000", "112440.424000", "112440.427000", "112440.429000", "112440.432000", "112440.434000", "112440.437000", "112440.440000", "112440.442000", "112440.445000", "112440.447000", "112440.450000", "112440.452000", "112440.455000", "112440.457000", "112440.460000", "112440.462000", "112449.127000", "112449.130000", "112449.133000", "112449.135000", "112449.138000", "112449.141000"],
      "InstanceNumber": [1, 2, 3, 4, 5, 6, 7, 8, 9, 10, 11, 12, 13, 14, 15, 16, 17, 18, 19, 20, 21, 22, 23, 24, 25, 26, 27, 28, 29, 30, 31, 32, 33, 34, 35, 36, 37, 38, 39, 40, 41, 42, 43, 44, 45, 46, 47, 48, 49, 50, 51, 52, 53, 54, 55, 56, 57, 58, 59, 60, 61, 62, 63, 64, 65, 66, 67, 68, 69, 70, 71, 72, 73, 74, 75, 76, 77, 78, 79, 80, 81, 82, 83, 84, 85, 86, 87, 88, 89, 90, 91, 92, 93, 94, 95, 96, 97, 98, 99, 100, 101, 102, 103, 104, 105, 106, 107, 108, 109, 110, 111, 112, 113, 114, 115, 116, 117, 118, 119, 120, 121, 122, 123, 124, 125, 126, 127, 128, 129, 130, 131, 132, 133, 134, 135, 136, 137, 138, 139, 140, 141, 142, 143, 144, 145, 146, 147, 148, 149, 150, 151, 152, 153, 154, 155, 156, 157, 158, 159, 160, 161, 162, 163, 164, 165, 166, 167, 168, 169, 170, 171, 172, 173, 174, 175, 176, 177, 178, 179, 180, 181, 182, 183, 184, 185, 186, 187, 188, 189, 190],
      "WindowCenter": [4818.0, 4794.0, 4796.0, 4794.0, 4820.0, 4820.0, 4794.0, 4796.0, 4792.0, 4792.0, 4792.0, 4818.0, 4796.0, 4826.0, 4796.0, 4796.0, 4798.0, 4794.0, 4794.0, 4794.0, 4796.0, 4796.0, 4826.0, 4850.0, 4794.0, 4820.0, 4822.0, 4792.0, 4796.0, 4798.0, 4790.0, 4822.0, 4818.0, 4798.0, 4850.0, 4820.0, 4792.0, 4824.0, 4794.0, 4794.0, 4794.0, 4792.0, 4796.0, 4856.0, 4854.0, 4818.0, 4818.0, 4794.0, 4792.0, 4798.0, 4794.0, 4792.0, 4826.0, 4828.0, 4818.0, 4818.0, 4796.0, 4792.0, 4826.0, 4824.0, 4794.0, 4794.0, 4794.0, 4794.0, 4824.0, 4818.0, 4794.0, 4794.0, 4792.0, 4796.0, 4854.0, 4854.0, 4818.0, 4796.0, 4796.0, 4794.0, 4820.0, 4822.0, 4818.0, 4794.0, 4794.0, 4796.0, 4848.0, 4828.0, 4818.0, 4794.0, 4820.0, 4818.0, 4794.0, 4796.0, 4794.0, 4826.0, 4822.0, 4796.0, 4852.0, 4824.0, 4796.0, 4792.0, 4796.0, 4796.0, 4790.0, 4792.0, 4818.0, 4880.0, 4860.0, 4820.0, 4818.0, 4798.0, 4792.0, 4792.0, 4792.0, 4796.0, 4824.0, 4824.0, 4818.0, 4828.0, 4822.0, 4792.0, 4818.0, 4822.0, 4794.0, 4796.0, 4818.0, 4794.0, 4822.0, 4826.0, 4822.0, 4796.0, 4794.0, 4820.0, 4854.0, 4878.0, 4822.0, 4790.0, 4790.0, 4812.0, 4794.0, 4822.0, 4822.0, 4822.0, 4824.0, 4822.0, 4828.0, 4850.0, 4796.0, 4794.0, 4818.0, 4794.0, 4794.0, 4818.0, 4790.0, 4828.0, 4826.0, 4818.0, 4824.0, 4818.0, 4816.0, 4820.0, 4820.0, 4796.0, 4792.0, 4822.0, 4820.0, 4822.0, 4828.0, 4820.0, 4822.0, 4818.0, 4794.0, 4798.0, 4792.0, 4818.0, 4826.0, 4820.0, 4824.0, 4822.0, 4796.0, 4822.0, 4822.0, 4820.0, 4796.0, 4824.0, 4824.0, 4796.0, 4822.0, 4852.0, 4824.0, 4794.0, 4820.0, 4796.0],
      "WindowWidth": [18576.0, 18552.0, 18544.0, 18544.0, 18572.0, 18572.0, 18544.0, 18542.0, 18548.0, 18538.0, 18546.0, 18574.0, 18546.0, 18580.0, 18544.0, 18542.0, 18542.0, 18548.0, 18542.0, 18544.0, 18550.0, 18550.0, 18580.0, 18612.0, 18542.0, 18576.0, 18574.0, 18552.0, 18546.0, 18550.0, 18550.0, 18574.0, 18574.0, 18550.0, 18614.0, 18572.0, 18544.0, 18578.0, 18544.0, 18550.0, 18554.0, 18550.0, 18548.0, 18630.0, 18622.0, 18574.0, 18574.0, 18546.0, 18554.0, 18540.0, 18546.0, 18550.0, 18578.0, 18574.0, 18572.0, 18574.0, 18546.0, 18546.0, 18582.0, 18574.0, 18544.0, 18548.0, 18550.0, 18554.0, 18576.0, 18574.0, 18546.0, 18544.0, 18550.0, 18552.0, 18628.0, 18624.0, 18576.0, 18546.0, 18548.0, 18554.0, 18578.0, 18576.0, 18572.0, 18544.0, 18544.0, 18548.0, 18608.0, 18586.0, 18578.0, 18548.0, 18572.0, 18580.0, 18552.0, 18546.0, 18550.0, 18578.0, 18578.0, 18546.0, 18616.0, 18574.0, 18544.0, 18548.0, 18550.0, 18550.0, 18546.0, 18550.0, 18578.0, 18654.0, 18630.0, 18570.0, 18572.0, 18546.0, 18556.0, 18546.0, 18544.0, 18548.0, 18580.0, 18578.0, 18574.0, 18586.0, 18576.0, 18546.0, 18576.0, 18572.0, 18546.0, 18546.0, 18574.0, 18548.0, 18576.0, 18578.0, 18570.0, 18540.0, 18546.0, 18580.0, 18620.0, 18660.0, 18574.0, 18552.0, 18560.0, 18596.0, 18550.0, 18578.0, 18578.0, 18576.0, 18584.0, 18580.0, 18588.0, 18618.0, 18544.0, 18550.0, 18580.0, 18552.0, 18544.0, 18574.0, 18540.0, 18582.0, 18582.0, 18578.0, 18580.0, 18568.0, 18582.0, 18576.0, 18574.0, 18548.0, 18548.0, 18574.0, 18566.0, 18574.0, 18578.0, 18574.0, 18574.0, 18568.0, 18552.0, 18542.0, 18542.0, 18576.0, 18576.0, 18578.0, 18578.0, 18570.0, 18548.0, 18576.0, 18576.0, 18576.0, 18552.0, 18582.0, 18572.0, 18546.0, 18578.0, 18618.0, 18574.0, 18548.0, 18572.0, 18544.0]
    },
    "slices": {}
  }
}