{
  "AcquisitionMatrixPE": 104,
  "AcquisitionNumber": 1,
  "AcquisitionTime": "13:41:9.650000",
  "BandwidthPerPixelPhaseEncode": 17.17,
  "BaseResolution": 104,
  "BodyPartExamined": "BRAIN",
  "CoilString": "HC1-7;NC1_2",
  "ConsistencyInfo": "N4_VE11C_LATEST_20160120",
  "ConversionSoftware": "dcm2niix",
  "ConversionSoftwareVersion": "v1.0.20190902",
  "DerivedVendorReportedEchoSpacing": 0.000560011,
  "DeviceSerialNumber": "167006",
  "DwellTime": 2.1e-06,
  "EchoTime": 0.037,
  "EchoTrainLength": 104,
  "EffectiveEchoSpacing": 0.000560011,
  "FlipAngle": 52,
  "HeudiconvVersion": "0.10.0",
  "ImageComments": "Unaliased_MB4_PE3_LB",
  "ImageOrientationPatientDICOM": [0.998965, 0.00902103, 0.0445723, 0.00278967, 0.966125, -0.258058],
  "ImageType": [
    "ORIGINAL",
    "PRIMARY",
    "M",
    "MB",
    "ND",
    "MOSAIC"
],
  "ImagingFrequency": 123.259,
  "InPlanePhaseEncodingDirectionDICOM": "COL",
  "InstitutionAddress": "Chemin_Queen-Mary_4565_Montreal_District_CA_H3W_1W5",
  "InstitutionName": "IUGM",
  "InstitutionalDepartmentName": "Department",
  "MRAcquisitionType": "2D",
  "MagneticFieldStrength": 3,
  "Manufacturer": "Siemens",
  "ManufacturersModelName": "Prisma_fit",
  "Modality": "MR",
  "MultibandAccelerationFactor": 4,
  "PartialFourier": 1,
  "PatientPosition": "HFS",
  "PercentPhaseFOV": 100,
  "PhaseEncodingDirection": "j",
  "PhaseEncodingSteps": 104,
  "PhaseResolution": 1,
  "PixelBandwidth": 2290,
  "ProcedureStepDescription": "memory_things",
  "ProtocolName": "func_task-things_run-4",
  "PulseSequenceDetails": "%CustomerSeq%_cmrr_mbep2d_bold",
  "ReceiveCoilActiveElements": "HC1-7;NC1,2",
  "ReceiveCoilName": "HeadNeck_64",
  "ReconMatrixPE": 104,
  "RepetitionTime": 1.49,
  "SAR": 0.0593549,
  "ScanOptions": "FS",
  "ScanningSequence": "EP",
  "SequenceName": "epfid2d1_104",
  "SequenceVariant": "SK_SS",
  "SeriesDescription": "func_task-things_run-4",
  "SeriesNumber": 19,
  "ShimSetting": [638, -7220, -8784, 756, 32, -15, 66, -10],
  "SliceThickness": 2,
  "SliceTiming": [0, 0.785, 0.0975, 0.8825, 0.1975, 0.98, 0.295, 1.0775, 0.3925, 1.1775, 0.49, 1.275, 0.5875, 1.3725, 0.6875, 0, 0.785, 0.0975, 0.8825, 0.1975, 0.98, 0.295, 1.0775, 0.3925, 1.1775, 0.49, 1.275, 0.5875, 1.3725, 0.6875, 0, 0.785, 0.0975, 0.8825, 0.1975, 0.98, 0.295, 1.0775, 0.3925, 1.1775, 0.49, 1.275, 0.5875, 1.3725, 0.6875, 0, 0.785, 0.0975, 0.8825, 0.1975, 0.98, 0.295, 1.0775, 0.3925, 1.1775, 0.49, 1.275, 0.5875, 1.3725, 0.6875],
  "SoftwareVersions": "syngo_MR_E11",
  "SpacingBetweenSlices": 2,
  "StationName": "MRC35049",
  "TaskName": "things",
  "TotalReadoutTime": 0.0576811,
  "TxRefAmp": 252.515,
  "WipMemBlock": "7a0d9518-38cd-4f95-bc24-05a166e39041||Sequence: R016 ve11c/master r/e634e98; Dec 19 2017 11:00:25 by eja",
  "dcmmeta_affine": [
    [-1.997930884361267, 0.005579340271651745, 0.0907808318734169, 106.51033782958984],
    [-0.018042055889964104, 1.9322509765625, -0.515829861164093, -73.41678619384766],
    [0.08914467692375183, 0.516115128993988, 1.9302016496658325, -67.06166076660156],
    [0.0, 0.0, 0.0, 1.0]
],
  "dcmmeta_reorient_transform": [
    [0.0, -1.0, 0.0, 103.0],
    [1.0, 0.0, 0.0, 0.0],
    [0.0, 0.0, 1.0, 0.0],
    [0.0, 0.0, 0.0, 1.0]
],
  "dcmmeta_shape": [104, 104, 60, 190],
  "dcmmeta_slice_dim": 2,
  "dcmmeta_version": 0.6,
  "global": {
    "const": {
      "AcquisitionMatrix": [104, 0, 0, 104],
      "AngioFlag": "N",
      "BitsAllocated": 16,
      "BitsStored": 16,
      "BodyPartExamined": "BRAIN",
      "Columns": 832,
      "EchoNumbers": 1,
      "EchoTime": 37.0,
      "EchoTrainLength": 104,
      "FlipAngle": 52.0,
      "HighBit": 15,
      "ImageOrientationPatient": [0.99896542871499, 0.00902102800957, 0.0445723376762, 0.00278967007465, 0.96612551299097, -0.2580575728182],
      "ImagePositionPatient": [-836.36272136473, -835.51175289248, 141.51545233248],
      "ImageType": [
        "ORIGINAL",
        "PRIMARY",
        "M",
        "MB",
        "ND",
        "MOSAIC"
],
      "ImagedNucleus": "1H",
      "ImagingFrequency": 123.25911,
      "InPlanePhaseEncodingDirection": "COL",
      "MRAcquisitionType": "2D",
      "MagneticFieldStrength": 3.0,
      "Manufacturer": "SIEMENS",
      "ManufacturerModelName": "Prisma_fit",
      "Modality": "MR",
      "NumberOfAverages": 1.0,
      "NumberOfPhaseEncodingSteps": 104,
      "PercentPhaseFieldOfView": 100.0,
      "PercentSampling": 100.0,
      "PerformedProcedureStepStartTime": "120338.588000",
      "PhotometricInterpretation": "MONOCHROME2",
      "PixelBandwidth": 2290.0,
      "PixelRepresentation": 0,
      "PixelSpacing": [2.0, 2.0],
      "ProtocolName": "func_task-things_run-4",
      "RepetitionTime": 1490.0,
      "Rows": 832,
      "SAR": 0.0593548999034,
      "SamplesPerPixel": 1,
      "ScanOptions": "FS",
      "ScanningSequence": "EP",
      "SequenceName": "epfid2d1_104",
      "SequenceVariant": [
        "SK",
        "SS"
],
      "SeriesDescription": "func_task-things_run-4",
      "SeriesNumber": 19,
      "SeriesTime": "134233.134000",
      "SliceLocation": -40.951428095534,
      "SliceThickness": 2.0,
      "SmallestImagePixelValue": 0,
      "SoftwareVersions": "syngo MR E11",
      "SpacingBetweenSlices": 2.0000000009706,
      "SpecificCharacterSet": "ISO_IR 100",
      "StudyID": "1",
      "StudyTime": "120338.480000",
      "TransmitCoilName": "Body",
      "VariableFlipAngleFlag": "N",
      "WindowCenterWidthExplanation": "Algo1",
      "dBdt": 0.0},
    "slices": {}
  },
  "time": {
    "samples": {
      "AcquisitionNumber": [1, 2, 3, 4, 5, 6, 7, 8, 9, 10, 11, 12, 13, 14, 15, 16, 17, 18, 19, 20, 21, 22, 23, 24, 25, 26, 27, 28, 29, 30, 31, 32, 33, 34, 35, 36, 37, 38, 39, 40, 41, 42, 43, 44, 45, 46, 47, 48, 49, 50, 51, 52, 53, 54, 55, 56, 57, 58, 59, 60, 61, 62, 63, 64, 65, 66, 67, 68, 69, 70, 71, 72, 73, 74, 75, 76, 77, 78, 79, 80, 81, 82, 83, 84, 85, 86, 87, 88, 89, 90, 91, 92, 93, 94, 95, 96, 97, 98, 99, 100, 101, 102, 103, 104, 105, 106, 107, 108, 109, 110, 111, 112, 113, 114, 115, 116, 117, 118, 119, 120, 121, 122, 123, 124, 125, 126, 127, 128, 129, 130, 131, 132, 133, 134, 135, 136, 137, 138, 139, 140, 141, 142, 143, 144, 145, 146, 147, 148, 149, 150, 151, 152, 153, 154, 155, 156, 157, 158, 159, 160, 161, 162, 163, 164, 165, 166, 167, 168, 169, 170, 171, 172, 173, 174, 175, 176, 177, 178, 179, 180, 181, 182, 183, 184, 185, 186, 187, 188, 189, 190],
      "AcquisitionTime": ["134109.650000", "134111.140000", "134112.630000", "134114.120000", "134115.610000", "134117.100000", "134118.590000", "134120.080000", "134121.570000", "134123.060000", "134124.550000", "134126.040000", "134127.530000", "134129.020000", "134130.510000", "134132.000000", "134133.490000", "134134.980000", "134136.470000", "134137.960000", "134139.450000", "134140.940000", "134142.430000", "134143.920000", "134145.410000", "134146.900000", "134148.390000", "134149.880000", "134151.370000", "134152.860000", "134154.350000", "134155.840000", "134157.330000", "134158.820000", "134200.310000", "134201.800000", "134203.290000", "134204.780000", "134206.270000", "134207.760000", "134209.250000", "134210.740000", "134212.230000", "134213.720000", "134215.210000", "134216.700000", "134218.190000", "134219.680000", "134221.170000", "134222.660000", "134224.150000", "134225.640000", "134227.130000", "134228.620000", "134230.110000", "134231.600000", "134233.090000", "134234.580000", "134236.070000", "134237.560000", "134239.050000", "134240.540000", "134242.030000", "134243.520000", "134245.010000", "134246.500000", "134247.990000", "134249.480000", "134250.970000", "134252.460000", "134253.950000", "134255.440000", "134256.930000", "134258.420000", "134259.910000", "134301.400000", "134302.890000", "134304.380000", "134305.870000", "134307.360000", "134308.850000", "134310.340000", "134311.830000", "134313.320000", "134314.810000", "134316.300000", "134317.790000", "134319.280000", "134320.770000", "134322.260000", "134323.750000", "134325.240000", "134326.730000", "134328.220000", "134329.710000", "134331.200000", "134332.690000", "134334.180000", "134335.670000", "134337.160000", "134338.650000", "134340.140000", "134341.630000", "134343.120000", "134344.610000", "134346.100000", "134347.590000", "134349.080000", "134350.570000", "134352.060000", "134353.550000", "134355.040000", "134356.530000", "134358.020000", "134359.510000", "134401.000000", "134402.490000", "134403.980000", "134405.470000", "134406.960000", "134408.450000", "134409.940000", "134411.430000", "134412.920000", "134414.410000", "134415.900000", "134417.390000", "134418.880000", "134420.370000", "134421.860000", "134423.350000", "134424.840000", "134426.330000", "134427.820000", "134429.310000", "134430.800000", "134432.290000", "134433.780000", "134435.270000", "134436.760000", "134438.250000", "134439.740000", "134441.230000", "134442.720000", "134444.210000", "134445.700000", "134447.190000", "134448.680000", "134450.170000", "134451.660000", "134453.150000", "134454.640000", "134456.130000", "134457.620000", "134459.110000", "134500.600000", "134502.090000", "134503.580000", "134505.070000", "134506.560000", "134508.050000", "134509.540000", "134511.030000", "134512.520000", "134514.010000", "134515.500000", "134516.990000", "134518.480000", "134519.970000", "134521.460000", "134522.950000", "134524.440000", "134525.930000", "134527.420000", "134528.910000", "134530.400000", "134531.890000", "134533.380000", "134534.870000", "134536.360000", "134537.850000", "134539.340000", "134540.830000", "134542.320000", "134543.810000", "134545.300000", "134546.790000", "134548.280000", "134549.770000", "134551.260000"],
      "ContentTime": ["134233.137000", "134233.141000", "134233.144000", "134233.148000", "134233.156000", "134233.159000", "134233.162000", "134233.166000", "134233.175000", "134233.179000", "134233.182000", "134233.185000", "134233.189000", "134233.192000", "134233.195000", "134233.199000", "134233.202000", "134233.205000", "134233.208000", "134233.212000", "134233.215000", "134233.218000", "134233.222000", "134233.225000", "134233.228000", "134233.231000", "134233.235000", "134233.238000", "134233.241000", "134253.095000", "134253.099000", "134253.102000", "134253.105000", "134253.109000", "134253.112000", "134253.115000", "134253.118000", "134253.122000", "134253.125000", "134253.128000", "134253.131000", "134253.135000", "134253.138000", "134253.143000", "134253.146000", "134253.149000", "134253.153000", "134253.156000", "134253.159000", "134313.095000", "134313.099000", "134313.102000", "134313.105000", "134313.109000", "134313.112000", "134313.115000", "134313.119000", "134313.127000", "134313.130000", "134313.134000", "134313.137000", "134313.140000", "134313.144000", "134313.147000", "134313.150000", "134313.153000", "134313.157000", "134313.160000", "134313.163000", "134333.095000", "134333.099000", "134333.102000", "134333.105000", "134333.109000", "134333.112000", "134333.115000", "134333.118000", "134333.122000", "134333.125000", "134333.128000", "134333.131000", "134333.135000", "134333.138000", "134333.152000", "134333.156000", "134333.159000", "134333.162000", "134333.174000", "134333.178000", "134413.095000", "134413.099000", "134413.102000", "134413.105000", "134413.109000", "134413.112000", "134413.115000", "134413.119000", "134413.122000", "134413.125000", "134413.128000", "134413.132000", "134413.135000", "134413.138000", "134413.142000", "134413.145000", "134413.148000", "134413.151000", "134413.155000", "134413.158000", "134413.161000", "134413.165000", "134413.168000", "134413.171000", "134413.174000", "134413.178000", "134413.181000", "134413.184000", "134413.188000", "134413.191000", "134413.194000", "134413.198000", "134413.201000", "134453.096000", "134453.100000", "134453.103000", "134453.106000", "134453.110000", "134453.113000", "134453.116000", "134453.119000", "134453.123000", "134453.126000", "134453.129000", "134453.133000", "134453.136000", "134453.139000", "134453.143000", "134453.146000", "134453.149000", "134453.152000", "134453.156000", "134453.159000", "134453.162000", "134453.165000", "134453.169000", "134453.172000", "134453.175000", "134453.179000", "134453.182000", "134533.095000", "134533.099000", "134533.102000", "134533.105000", "134533.109000", "134533.112000", "134533.115000", "134533.119000", "134533.122000", "134533.125000", "134533.128000", "134533.132000", "134533.135000", "134533.138000", "134533.142000", "134533.145000", "134533.148000", "134533.152000", "134533.155000", "134533.158000", "134533.161000", "134533.165000", "134533.168000", "134533.171000", "134533.175000", "134533.178000", "134533.181000", "134553.901000", "134553.905000", "134553.908000", "134553.912000", "134553.915000", "134553.918000", "134553.922000", "134553.925000", "134553.928000", "134553.932000", "134553.935000", "134553.961000", "134553.965000", "134553.969000"],
      "InstanceCreationTime": ["134233.137000", "134233.141000", "134233.144000", "134233.148000", "134233.156000", "134233.159000", "134233.162000", "134233.166000", "134233.175000", "134233.179000", "134233.182000", "134233.185000", "134233.189000", "134233.192000", "134233.195000", "134233.199000", "134233.202000", "134233.205000", "134233.208000", "134233.212000", "134233.215000", "134233.218000", "134233.222000", "134233.225000", "134233.228000", "134233.231000", "134233.235000", "134233.238000", "134233.241000", "134253.095000", "134253.099000", "134253.102000", "134253.105000", "134253.109000", "134253.112000", "134253.115000", "134253.118000", "134253.122000", "134253.125000", "134253.128000", "134253.131000", "134253.135000", "134253.138000", "134253.143000", "134253.146000", "134253.149000", "134253.153000", "134253.156000", "134253.159000", "134313.095000", "134313.099000", "134313.102000", "134313.105000", "134313.109000", "134313.112000", "134313.115000", "134313.119000", "134313.127000", "134313.130000", "134313.134000", "134313.137000", "134313.140000", "134313.144000", "134313.147000", "134313.150000", "134313.153000", "134313.157000", "134313.160000", "134313.163000", "134333.095000", "134333.099000", "134333.102000", "134333.105000", "134333.109000", "134333.112000", "134333.115000", "134333.118000", "134333.122000", "134333.125000", "134333.128000", "134333.131000", "134333.135000", "134333.138000", "134333.152000", "134333.156000", "134333.159000", "134333.162000", "134333.174000", "134333.178000", "134413.095000", "134413.099000", "134413.102000", "134413.105000", "134413.109000", "134413.112000", "134413.115000", "134413.119000", "134413.122000", "134413.125000", "134413.128000", "134413.132000", "134413.135000", "134413.138000", "134413.142000", "134413.145000", "134413.148000", "134413.151000", "134413.155000", "134413.158000", "134413.161000", "134413.165000", "134413.168000", "134413.171000", "134413.174000", "134413.178000", "134413.181000", "134413.184000", "134413.188000", "134413.191000", "134413.194000", "134413.198000", "134413.201000", "134453.096000", "134453.100000", "134453.103000", "134453.106000", "134453.110000", "134453.113000", "134453.116000", "134453.119000", "134453.123000", "134453.126000", "134453.129000", "134453.133000", "134453.136000", "134453.139000", "134453.143000", "134453.146000", "134453.149000", "134453.152000", "134453.156000", "134453.159000", "134453.162000", "134453.165000", "134453.169000", "134453.172000", "134453.175000", "134453.179000", "134453.182000", "134533.095000", "134533.099000", "134533.102000", "134533.105000", "134533.109000", "134533.112000", "134533.115000", "134533.119000", "134533.122000", "134533.125000", "134533.128000", "134533.132000", "134533.135000", "134533.138000", "134533.142000", "134533.145000", "134533.148000", "134533.152000", "134533.155000", "134533.158000", "134533.161000", "134533.165000", "134533.168000", "134533.171000", "134533.175000", "134533.178000", "134533.181000", "134553.901000", "134553.905000", "134553.908000", "134553.912000", "134553.915000", "134553.918000", "134553.922000", "134553.925000", "134553.928000", "134553.932000", "134553.935000", "134553.961000", "134553.965000", "134553.969000"],
      "InstanceNumber": [1, 2, 3, 4, 5, 6, 7, 8, 9, 10, 11, 12, 13, 14, 15, 16, 17, 18, 19, 20, 21, 22, 23, 24, 25, 26, 27, 28, 29, 30, 31, 32, 33, 34, 35, 36, 37, 38, 39, 40, 41, 42, 43, 44, 45, 46, 47, 48, 49, 50, 51, 52, 53, 54, 55, 56, 57, 58, 59, 60, 61, 62, 63, 64, 65, 66, 67, 68, 69, 70, 71, 72, 73, 74, 75, 76, 77, 78, 79, 80, 81, 82, 83, 84, 85, 86, 87, 88, 89, 90, 91, 92, 93, 94, 95, 96, 97, 98, 99, 100, 101, 102, 103, 104, 105, 106, 107, 108, 109, 110, 111, 112, 113, 114, 115, 116, 117, 118, 119, 120, 121, 122, 123, 124, 125, 126, 127, 128, 129, 130, 131, 132, 133, 134, 135, 136, 137, 138, 139, 140, 141, 142, 143, 144, 145, 146, 147, 148, 149, 150, 151, 152, 153, 154, 155, 156, 157, 158, 159, 160, 161, 162, 163, 164, 165, 166, 167, 168, 169, 170, 171, 172, 173, 174, 175, 176, 177, 178, 179, 180, 181, 182, 183, 184, 185, 186, 187, 188, 189, 190],
      "LargestImagePixelValue": [38876, 38732, 37929, 37653, 36985, 36836, 36999, 37228, 37371, 36644, 36660, 36566, 37067, 36909, 37047, 36675, 36759, 37285, 37411, 37063, 36918, 36379, 36413, 36928, 36856, 37221, 37055, 37201, 37306, 37548, 36666, 37131, 37046, 36911, 37033, 36569, 37028, 36758, 37097, 37124, 37125, 37280, 36588, 36931, 37172, 36902, 37094, 37340, 37137, 37005, 37115, 37393, 36854, 36854, 36852, 37115, 36823, 37244, 37112, 36706, 37367, 37349, 36998, 36871, 37117, 36984, 36989, 37378, 37136, 36896, 36346, 37278, 37334, 36904, 37034, 36409, 37231, 36636, 36754, 36229, 37112, 36903, 36183, 36309, 36910, 37158, 36637, 36619, 37297, 37219, 36735, 36820, 36588, 37200, 36968, 36836, 36558, 37033, 37005, 36756, 36612, 37355, 36747, 37052, 36253, 37156, 36861, 36804, 36310, 36703, 37102, 36969, 36329, 36990, 36743, 36618, 36560, 36618, 37227, 36729, 37047, 36776, 36309, 37281, 37302, 36805, 37008, 36684, 36828, 36800, 37155, 36858, 37224, 36912, 37289, 37361, 37234, 36617, 36609, 36407, 36718, 36787, 37118, 36590, 36782, 36598, 37238, 37133, 36733, 36615, 36502, 37048, 37120, 36570, 36682, 37310, 37054, 36773, 36989, 36362, 37270, 36508, 36871, 36303, 36962, 36986, 36967, 36515, 36638, 37149, 36679, 36370, 36554, 37199, 36770, 36888, 36379, 36234, 36832, 37230, 36439, 36553, 36840, 37106, 36578, 36811, 36510, 36690, 36499, 36889],
      "WindowCenter": [10075.0, 10056.0, 10056.0, 10074.0, 10079.0, 10072.0, 10053.0, 10038.0, 10034.0, 10044.0, 10052.0, 10053.0, 10044.0, 10035.0, 10040.0, 10034.0, 10028.0, 10024.0, 10029.0, 10024.0, 10032.0, 10033.0, 10043.0, 10036.0, 10019.0, 10004.0, 9995.0, 9994.0, 10019.0, 10031.0, 10034.0, 10030.0, 10031.0, 10031.0, 10041.0, 10042.0, 10040.0, 10033.0, 10039.0, 10032.0, 10032.0, 10032.0, 10018.0, 10024.0, 10031.0, 10034.0, 10030.0, 10023.0, 10015.0, 10024.0, 10031.0, 10032.0, 10010.0, 9997.0, 9988.0, 10002.0, 10004.0, 10012.0, 10016.0, 10017.0, 10013.0, 10014.0, 10022.0, 10024.0, 10025.0, 10026.0, 10017.0, 10022.0, 10025.0, 10026.0, 10018.0, 10015.0, 10019.0, 10017.0, 10034.0, 10037.0, 10041.0, 10018.0, 10008.0, 10010.0, 10031.0, 10032.0, 10020.0, 10011.0, 10007.0, 10023.0, 10027.0, 10021.0, 10021.0, 10008.0, 10014.0, 10017.0, 10035.0, 10051.0, 10042.0, 10011.0, 9984.0, 9989.0, 10004.0, 10008.0, 10010.0, 10024.0, 10026.0, 10035.0, 10021.0, 10017.0, 10008.0, 10015.0, 10011.0, 10026.0, 10032.0, 10026.0, 10020.0, 10025.0, 10019.0, 10028.0, 10044.0, 10023.0, 10008.0, 9989.0, 10004.0, 10016.0, 10021.0, 10025.0, 10015.0, 10000.0, 10014.0, 10031.0, 10045.0, 10045.0, 10037.0, 10021.0, 10017.0, 10017.0, 10032.0, 10024.0, 10018.0, 10011.0, 10004.0, 10002.0, 10012.0, 10032.0, 10042.0, 10021.0, 9997.0, 9984.0, 9997.0, 10006.0, 10017.0, 10027.0, 10038.0, 10041.0, 10020.0, 9995.0, 9997.0, 10004.0, 10030.0, 10042.0, 10044.0, 10022.0, 10025.0, 10019.0, 10018.0, 10020.0, 10041.0, 10042.0, 10034.0, 10021.0, 10028.0, 10049.0, 10037.0, 10007.0, 9994.0, 9998.0, 10000.0, 10027.0, 10037.0, 10034.0, 10030.0, 10012.0, 9994.0, 10017.0, 10042.0, 10038.0, 10014.0, 10009.0, 10008.0, 10034.0, 10045.0, 10036.0],
      "WindowWidth": [21444.0, 21377.0, 21366.0, 21403.0, 21413.0, 21398.0, 21349.0, 21316.0, 21304.0, 21332.0, 21349.0, 21351.0, 21327.0, 21308.0, 21316.0, 21307.0, 21294.0, 21278.0, 21287.0, 21282.0, 21300.0, 21299.0, 21323.0, 21308.0, 21268.0, 21228.0, 21210.0, 21208.0, 21265.0, 21295.0, 21303.0, 21290.0, 21293.0, 21296.0, 21320.0, 21322.0, 21316.0, 21300.0, 21309.0, 21297.0, 21296.0, 21297.0, 21268.0, 21278.0, 21293.0, 21303.0, 21289.0, 21276.0, 21258.0, 21279.0, 21294.0, 21296.0, 21246.0, 21217.0, 21195.0, 21228.0, 21235.0, 21252.0, 21265.0, 21265.0, 21251.0, 21255.0, 21274.0, 21281.0, 21284.0, 21286.0, 21265.0, 21273.0, 21284.0, 21286.0, 21268.0, 21257.0, 21264.0, 21266.0, 21304.0, 21315.0, 21317.0, 21268.0, 21245.0, 21253.0, 21296.0, 21297.0, 21272.0, 21251.0, 21240.0, 21275.0, 21288.0, 21274.0, 21266.0, 21242.0, 21252.0, 21263.0, 21305.0, 21339.0, 21317.0, 21250.0, 21189.0, 21198.0, 21234.0, 21244.0, 21249.0, 21279.0, 21287.0, 21308.0, 21278.0, 21264.0, 21243.0, 21258.0, 21255.0, 21286.0, 21296.0, 21286.0, 21274.0, 21281.0, 21269.0, 21292.0, 21327.0, 21280.0, 21239.0, 21197.0, 21229.0, 21262.0, 21276.0, 21278.0, 21254.0, 21225.0, 21255.0, 21296.0, 21332.0, 21330.0, 21310.0, 21273.0, 21262.0, 21263.0, 21294.0, 21277.0, 21265.0, 21248.0, 21236.0, 21231.0, 21253.0, 21293.0, 21316.0, 21271.0, 21218.0, 21187.0, 21217.0, 21239.0, 21266.0, 21290.0, 21314.0, 21314.0, 21268.0, 21212.0, 21213.0, 21231.0, 21291.0, 21321.0, 21325.0, 21279.0, 21282.0, 21269.0, 21268.0, 21274.0, 21315.0, 21317.0, 21299.0, 21274.0, 21288.0, 21331.0, 21306.0, 21241.0, 21211.0, 21218.0, 21226.0, 21286.0, 21312.0, 21307.0, 21293.0, 21252.0, 21209.0, 21264.0, 21320.0, 21312.0, 21259.0, 21242.0, 21240.0, 21301.0, 21327.0, 21304.0]
    },
    "slices": {}
  }
}