{
  "AcquisitionMatrixPE": 104,
  "AcquisitionNumber": 1,
  "AcquisitionTime": "13:47:25.990000",
  "BandwidthPerPixelPhaseEncode": 17.17,
  "BaseResolution": 104,
  "BodyPartExamined": "BRAIN",
  "CoilString": "HC1-7;NC1_2",
  "ConsistencyInfo": "N4_VE11C_LATEST_20160120",
  "ConversionSoftware": "dcm2niix",
  "ConversionSoftwareVersion": "v1.0.20190902",
  "DerivedVendorReportedEchoSpacing": 0.000560011,
  "DeviceSerialNumber": "167006",
  "DwellTime": 2.1e-06,
  "EchoTime": 0.037,
  "EchoTrainLength": 104,
  "EffectiveEchoSpacing": 0.000560011,
  "FlipAngle": 52,
  "HeudiconvVersion": "0.10.0",
  "ImageComments": "Unaliased_MB4_PE3_LB",
  "ImageOrientationPatientDICOM": [0.998965, 0.00902103, 0.0445723, 0.00278967, 0.966125, -0.258058],
  "ImageType": [
    "ORIGINAL",
    "PRIMARY",
    "M",
    "MB",
    "ND",
    "MOSAIC"
],
  "ImagingFrequency": 123.259,
  "InPlanePhaseEncodingDirectionDICOM": "COL",
  "InstitutionAddress": "Chemin_Queen-Mary_4565_Montreal_District_CA_H3W_1W5",
  "InstitutionName": "IUGM",
  "InstitutionalDepartmentName": "Department",
  "MRAcquisitionType": "2D",
  "MagneticFieldStrength": 3,
  "Manufacturer": "Siemens",
  "ManufacturersModelName": "Prisma_fit",
  "Modality": "MR",
  "MultibandAccelerationFactor": 4,
  "PartialFourier": 1,
  "PatientPosition": "HFS",
  "PercentPhaseFOV": 100,
  "PhaseEncodingDirection": "j",
  "PhaseEncodingSteps": 104,
  "PhaseResolution": 1,
  "PixelBandwidth": 2290,
  "ProcedureStepDescription": "memory_things",
  "ProtocolName": "func_task-things_run-5",
  "PulseSequenceDetails": "%CustomerSeq%_cmrr_mbep2d_bold",
  "ReceiveCoilActiveElements": "HC1-7;NC1,2",
  "ReceiveCoilName": "HeadNeck_64",
  "ReconMatrixPE": 104,
  "RepetitionTime": 1.49,
  "SAR": 0.0593549,
  "ScanOptions": "FS",
  "ScanningSequence": "EP",
  "SequenceName": "epfid2d1_104",
  "SequenceVariant": "SK_SS",
  "SeriesDescription": "func_task-things_run-5",
  "SeriesNumber": 22,
  "ShimSetting": [638, -7220, -8784, 756, 32, -15, 66, -10],
  "SliceThickness": 2,
  "SliceTiming": [0, 0.7825, 0.0975, 0.8825, 0.195, 0.98, 0.2925, 1.0775, 0.3925, 1.175, 0.49, 1.2725, 0.5875, 1.3725, 0.685, 0, 0.7825, 0.0975, 0.8825, 0.195, 0.98, 0.2925, 1.0775, 0.3925, 1.175, 0.49, 1.2725, 0.5875, 1.3725, 0.685, 0, 0.7825, 0.0975, 0.8825, 0.195, 0.98, 0.2925, 1.0775, 0.3925, 1.175, 0.49, 1.2725, 0.5875, 1.3725, 0.685, 0, 0.7825, 0.0975, 0.8825, 0.195, 0.98, 0.2925, 1.0775, 0.3925, 1.175, 0.49, 1.2725, 0.5875, 1.3725, 0.685],
  "SoftwareVersions": "syngo_MR_E11",
  "SpacingBetweenSlices": 2,
  "StationName": "MRC35049",
  "TaskName": "things",
  "TotalReadoutTime": 0.0576811,
  "TxRefAmp": 252.515,
  "WipMemBlock": "77822174-ee51-40fa-84db-c739f1e4f4b9||Sequence: R016 ve11c/master r/e634e98; Dec 19 2017 11:00:25 by eja",
  "dcmmeta_affine": [
    [-1.997930884361267, 0.005579340271651745, 0.0907808318734169, 106.51033782958984],
    [-0.018042055889964104, 1.9322509765625, -0.515829861164093, -73.41678619384766],
    [0.08914467692375183, 0.516115128993988, 1.9302016496658325, -67.06166076660156],
    [0.0, 0.0, 0.0, 1.0]
],
  "dcmmeta_reorient_transform": [
    [0.0, -1.0, 0.0, 103.0],
    [1.0, 0.0, 0.0, 0.0],
    [0.0, 0.0, 1.0, 0.0],
    [0.0, 0.0, 0.0, 1.0]
],
  "dcmmeta_shape": [104, 104, 60, 190],
  "dcmmeta_slice_dim": 2,
  "dcmmeta_version": 0.6,
  "global": {
    "const": {
      "AcquisitionMatrix": [104, 0, 0, 104],
      "AngioFlag": "N",
      "BitsAllocated": 16,
      "BitsStored": 16,
      "BodyPartExamined": "BRAIN",
      "Columns": 832,
      "EchoNumbers": 1,
      "EchoTime": 37.0,
      "EchoTrainLength": 104,
      "FlipAngle": 52.0,
      "HighBit": 15,
      "ImageOrientationPatient": [0.99896542871499, 0.00902102800957, 0.0445723376762, 0.00278967007465, 0.96612551299097, -0.2580575728182],
      "ImagePositionPatient": [-836.36272136473, -835.51175289248, 141.51545233248],
      "ImageType": [
        "ORIGINAL",
        "PRIMARY",
        "M",
        "MB",
        "ND",
        "MOSAIC"
],
      "ImagedNucleus": "1H",
      "ImagingFrequency": 123.259112,
      "InPlanePhaseEncodingDirection": "COL",
      "MRAcquisitionType": "2D",
      "MagneticFieldStrength": 3.0,
      "Manufacturer": "SIEMENS",
      "ManufacturerModelName": "Prisma_fit",
      "Modality": "MR",
      "NumberOfAverages": 1.0,
      "NumberOfPhaseEncodingSteps": 104,
      "PercentPhaseFieldOfView": 100.0,
      "PercentSampling": 100.0,
      "PerformedProcedureStepStartTime": "120338.588000",
      "PhotometricInterpretation": "MONOCHROME2",
      "PixelBandwidth": 2290.0,
      "PixelRepresentation": 0,
      "PixelSpacing": [2.0, 2.0],
      "ProtocolName": "func_task-things_run-5",
      "RepetitionTime": 1490.0,
      "Rows": 832,
      "SAR": 0.0593548999034,
      "SamplesPerPixel": 1,
      "ScanOptions": "FS",
      "ScanningSequence": "EP",
      "SequenceName": "epfid2d1_104",
      "SequenceVariant": [
        "SK",
        "SS"
],
      "SeriesDescription": "func_task-things_run-5",
      "SeriesNumber": 22,
      "SeriesTime": "134840.930000",
      "SliceLocation": -40.951428095534,
      "SliceThickness": 2.0,
      "SmallestImagePixelValue": 0,
      "SoftwareVersions": "syngo MR E11",
      "SpacingBetweenSlices": 2.0000000009706,
      "SpecificCharacterSet": "ISO_IR 100",
      "StudyID": "1",
      "StudyTime": "120338.480000",
      "TransmitCoilName": "Body",
      "VariableFlipAngleFlag": "N",
      "WindowCenterWidthExplanation": "Algo1",
      "dBdt": 0.0},
    "slices": {}
  },
  "time": {
    "samples": {
      "AcquisitionNumber": [1, 2, 3, 4, 5, 6, 7, 8, 9, 10, 11, 12, 13, 14, 15, 16, 17, 18, 19, 20, 21, 22, 23, 24, 25, 26, 27, 28, 29, 30, 31, 32, 33, 34, 35, 36, 37, 38, 39, 40, 41, 42, 43, 44, 45, 46, 47, 48, 49, 50, 51, 52, 53, 54, 55, 56, 57, 58, 59, 60, 61, 62, 63, 64, 65, 66, 67, 68, 69, 70, 71, 72, 73, 74, 75, 76, 77, 78, 79, 80, 81, 82, 83, 84, 85, 86, 87, 88, 89, 90, 91, 92, 93, 94, 95, 96, 97, 98, 99, 100, 101, 102, 103, 104, 105, 106, 107, 108, 109, 110, 111, 112, 113, 114, 115, 116, 117, 118, 119, 120, 121, 122, 123, 124, 125, 126, 127, 128, 129, 130, 131, 132, 133, 134, 135, 136, 137, 138, 139, 140, 141, 142, 143, 144, 145, 146, 147, 148, 149, 150, 151, 152, 153, 154, 155, 156, 157, 158, 159, 160, 161, 162, 163, 164, 165, 166, 167, 168, 169, 170, 171, 172, 173, 174, 175, 176, 177, 178, 179, 180, 181, 182, 183, 184, 185, 186, 187, 188, 189, 190],
      "AcquisitionTime": ["134725.990000", "134727.480000", "134728.970000", "134730.460000", "134731.950000", "134733.440000", "134734.930000", "134736.420000", "134737.910000", "134739.400000", "134740.890000", "134742.380000", "134743.870000", "134745.360000", "134746.850000", "134748.340000", "134749.830000", "134751.320000", "134752.810000", "134754.300000", "134755.790000", "134757.280000", "134758.770000", "134800.260000", "134801.750000", "134803.240000", "134804.730000", "134806.220000", "134807.710000", "134809.200000", "134810.690000", "134812.180000", "134813.670000", "134815.160000", "134816.650000", "134818.140000", "134819.630000", "134821.120000", "134822.610000", "134824.100000", "134825.590000", "134827.080000", "134828.570000", "134830.060000", "134831.550000", "134833.040000", "134834.530000", "134836.020000", "134837.510000", "134839.000000", "134840.490000", "134841.980000", "134843.470000", "134844.960000", "134846.450000", "134847.940000", "134849.430000", "134850.920000", "134852.410000", "134853.900000", "134855.390000", "134856.880000", "134858.370000", "134859.860000", "134901.350000", "134902.840000", "134904.330000", "134905.820000", "134907.310000", "134908.800000", "134910.290000", "134911.780000", "134913.270000", "134914.760000", "134916.250000", "134917.740000", "134919.230000", "134920.720000", "134922.210000", "134923.700000", "134925.190000", "134926.680000", "134928.170000", "134929.660000", "134931.150000", "134932.640000", "134934.130000", "134935.620000", "134937.110000", "134938.600000", "134940.090000", "134941.580000", "134943.070000", "134944.560000", "134946.050000", "134947.540000", "134949.030000", "134950.520000", "134952.010000", "134953.500000", "134954.990000", "134956.480000", "134957.970000", "134959.460000", "135000.950000", "135002.440000", "135003.930000", "135005.420000", "135006.910000", "135008.400000", "135009.890000", "135011.380000", "135012.870000", "135014.360000", "135015.850000", "135017.340000", "135018.830000", "135020.320000", "135021.810000", "135023.300000", "135024.790000", "135026.280000", "135027.770000", "135029.260000", "135030.750000", "135032.240000", "135033.730000", "135035.220000", "135036.710000", "135038.200000", "135039.690000", "135041.180000", "135042.670000", "135044.160000", "135045.650000", "135047.140000", "135048.630000", "135050.120000", "135051.610000", "135053.100000", "135054.590000", "135056.080000", "135057.570000", "135059.060000", "135100.550000", "135102.040000", "135103.530000", "135105.020000", "135106.510000", "135108.000000", "135109.490000", "135110.980000", "135112.470000", "135113.960000", "135115.450000", "135116.940000", "135118.430000", "135119.920000", "135121.410000", "135122.900000", "135124.390000", "135125.880000", "135127.370000", "135128.860000", "135130.350000", "135131.840000", "135133.330000", "135134.820000", "135136.310000", "135137.800000", "135139.290000", "135140.780000", "135142.270000", "135143.760000", "135145.250000", "135146.740000", "135148.230000", "135149.720000", "135151.210000", "135152.700000", "135154.190000", "135155.680000", "135157.170000", "135158.660000", "135200.150000", "135201.640000", "135203.130000", "135204.620000", "135206.110000", "135207.600000"],
      "ContentTime": ["134840.933000", "134840.936000", "134840.940000", "134840.943000", "134840.946000", "134840.949000", "134840.953000", "134840.956000", "134840.959000", "134840.962000", "134840.966000", "134840.969000", "134840.972000", "134840.975000", "134840.979000", "134840.982000", "134840.994000", "134840.998000", "134841.001000", "134841.004000", "134900.931000", "134900.935000", "134900.938000", "134900.941000", "134900.944000", "134900.947000", "134900.951000", "134900.954000", "134900.957000", "134900.960000", "134900.964000", "134900.967000", "134900.970000", "134900.973000", "134900.977000", "134900.980000", "134900.983000", "134900.986000", "134900.990000", "134900.993000", "134920.931000", "134920.935000", "134920.938000", "134920.941000", "134920.944000", "134920.948000", "134920.951000", "134920.954000", "134920.958000", "134920.962000", "134920.966000", "134920.969000", "134920.972000", "134920.975000", "134920.979000", "134920.982000", "134920.985000", "134920.988000", "134920.992000", "134920.995000", "134920.998000", "134940.931000", "134940.935000", "134940.938000", "134940.941000", "134940.944000", "134940.948000", "134940.951000", "134940.954000", "134940.958000", "134940.961000", "134940.964000", "134940.967000", "134940.971000", "134940.974000", "134940.977000", "134940.980000", "134940.984000", "134940.987000", "134940.990000", "134940.994000", "135000.931000", "135000.935000", "135000.938000", "135000.941000", "135000.944000", "135000.948000", "135000.951000", "135000.954000", "135000.958000", "135000.961000", "135000.964000", "135000.967000", "135000.971000", "135000.974000", "135000.977000", "135000.980000", "135000.984000", "135000.987000", "135000.990000", "135000.994000", "135040.931000", "135040.935000", "135040.938000", "135040.941000", "135040.945000", "135040.948000", "135040.951000", "135040.954000", "135040.958000", "135040.961000", "135040.964000", "135040.967000", "135040.971000", "135040.974000", "135040.977000", "135040.980000", "135040.984000", "135040.987000", "135040.990000", "135040.993000", "135040.997000", "135041.000000", "135041.003000", "135041.006000", "135041.010000", "135041.013000", "135041.016000", "135041.020000", "135041.023000", "135120.931000", "135120.935000", "135120.938000", "135120.941000", "135120.945000", "135120.948000", "135120.951000", "135120.954000", "135120.958000", "135120.961000", "135120.964000", "135120.968000", "135120.971000", "135120.974000", "135120.977000", "135120.981000", "135120.984000", "135120.987000", "135120.991000", "135120.994000", "135120.997000", "135121.001000", "135121.005000", "135121.008000", "135121.011000", "135121.015000", "135121.018000", "135200.931000", "135200.948000", "135200.952000", "135200.955000", "135200.958000", "135200.961000", "135200.965000", "135200.968000", "135200.971000", "135200.974000", "135200.978000", "135200.981000", "135200.984000", "135200.988000", "135200.991000", "135200.994000", "135200.997000", "135201.001000", "135201.004000", "135201.007000", "135201.010000", "135201.014000", "135201.017000", "135201.020000", "135201.024000", "135201.027000", "135201.030000", "135209.437000", "135209.441000", "135209.444000", "135209.447000", "135209.450000", "135209.454000"],
      "InstanceCreationTime": ["134840.933000", "134840.936000", "134840.940000", "134840.943000", "134840.946000", "134840.949000", "134840.953000", "134840.956000", "134840.959000", "134840.962000", "134840.966000", "134840.969000", "134840.972000", "134840.975000", "134840.979000", "134840.982000", "134840.994000", "134840.998000", "134841.001000", "134841.004000", "134900.931000", "134900.935000", "134900.938000", "134900.941000", "134900.944000", "134900.947000", "134900.951000", "134900.954000", "134900.957000", "134900.960000", "134900.964000", "134900.967000", "134900.970000", "134900.973000", "134900.977000", "134900.980000", "134900.983000", "134900.986000", "134900.990000", "134900.993000", "134920.931000", "134920.935000", "134920.938000", "134920.941000", "134920.944000", "134920.948000", "134920.951000", "134920.954000", "134920.958000", "134920.962000", "134920.966000", "134920.969000", "134920.972000", "134920.975000", "134920.979000", "134920.982000", "134920.985000", "134920.988000", "134920.992000", "134920.995000", "134920.998000", "134940.931000", "134940.935000", "134940.938000", "134940.941000", "134940.944000", "134940.948000", "134940.951000", "134940.954000", "134940.958000", "134940.961000", "134940.964000", "134940.967000", "134940.971000", "134940.974000", "134940.977000", "134940.980000", "134940.984000", "134940.987000", "134940.990000", "134940.994000", "135000.931000", "135000.935000", "135000.938000", "135000.941000", "135000.944000", "135000.948000", "135000.951000", "135000.954000", "135000.958000", "135000.961000", "135000.964000", "135000.967000", "135000.971000", "135000.974000", "135000.977000", "135000.980000", "135000.984000", "135000.987000", "135000.990000", "135000.994000", "135040.931000", "135040.935000", "135040.938000", "135040.941000", "135040.945000", "135040.948000", "135040.951000", "135040.954000", "135040.958000", "135040.961000", "135040.964000", "135040.967000", "135040.971000", "135040.974000", "135040.977000", "135040.980000", "135040.984000", "135040.987000", "135040.990000", "135040.993000", "135040.997000", "135041.000000", "135041.003000", "135041.006000", "135041.010000", "135041.013000", "135041.016000", "135041.020000", "135041.023000", "135120.931000", "135120.935000", "135120.938000", "135120.941000", "135120.945000", "135120.948000", "135120.951000", "135120.954000", "135120.958000", "135120.961000", "135120.964000", "135120.968000", "135120.971000", "135120.974000", "135120.977000", "135120.981000", "135120.984000", "135120.987000", "135120.991000", "135120.994000", "135120.997000", "135121.001000", "135121.005000", "135121.008000", "135121.011000", "135121.015000", "135121.018000", "135200.931000", "135200.948000", "135200.952000", "135200.955000", "135200.958000", "135200.961000", "135200.965000", "135200.968000", "135200.971000", "135200.974000", "135200.978000", "135200.981000", "135200.984000", "135200.988000", "135200.991000", "135200.994000", "135200.997000", "135201.001000", "135201.004000", "135201.007000", "135201.010000", "135201.014000", "135201.017000", "135201.020000", "135201.024000", "135201.027000", "135201.030000", "135209.437000", "135209.441000", "135209.444000", "135209.447000", "135209.450000", "135209.454000"],
      "InstanceNumber": [1, 2, 3, 4, 5, 6, 7, 8, 9, 10, 11, 12, 13, 14, 15, 16, 17, 18, 19, 20, 21, 22, 23, 24, 25, 26, 27, 28, 29, 30, 31, 32, 33, 34, 35, 36, 37, 38, 39, 40, 41, 42, 43, 44, 45, 46, 47, 48, 49, 50, 51, 52, 53, 54, 55, 56, 57, 58, 59, 60, 61, 62, 63, 64, 65, 66, 67, 68, 69, 70, 71, 72, 73, 74, 75, 76, 77, 78, 79, 80, 81, 82, 83, 84, 85, 86, 87, 88, 89, 90, 91, 92, 93, 94, 95, 96, 97, 98, 99, 100, 101, 102, 103, 104, 105, 106, 107, 108, 109, 110, 111, 112, 113, 114, 115, 116, 117, 118, 119, 120, 121, 122, 123, 124, 125, 126, 127, 128, 129, 130, 131, 132, 133, 134, 135, 136, 137, 138, 139, 140, 141, 142, 143, 144, 145, 146, 147, 148, 149, 150, 151, 152, 153, 154, 155, 156, 157, 158, 159, 160, 161, 162, 163, 164, 165, 166, 167, 168, 169, 170, 171, 172, 173, 174, 175, 176, 177, 178, 179, 180, 181, 182, 183, 184, 185, 186, 187, 188, 189, 190],
      "LargestImagePixelValue": [39271, 38043, 37832, 37345, 36653, 36823, 36849, 36492, 36640, 36471, 36642, 36449, 36568, 36508, 36643, 36575, 36507, 36473, 36270, 36507, 36573, 36528, 36825, 36429, 36371, 36456, 36454, 36756, 36705, 36745, 36605, 36542, 36519, 36405, 36371, 36218, 36637, 37014, 36292, 36501, 36744, 36643, 36582, 36722, 36382, 36594, 36427, 36668, 36766, 36570, 36439, 36514, 36497, 36591, 36647, 36934, 36352, 36671, 36430, 37138, 36566, 37116, 37068, 36969, 36569, 36564, 36584, 36615, 36710, 36698, 36928, 36667, 36942, 36794, 36655, 36456, 36706, 36286, 36275, 36892, 36618, 37263, 36625, 36697, 36664, 36589, 36708, 36799, 36678, 36635, 37268, 36630, 36705, 36606, 36638, 36601, 37095, 36888, 36675, 36564, 36717, 36333, 36875, 36835, 36580, 36990, 36505, 36854, 36599, 37064, 36351, 36475, 36722, 36603, 36840, 36901, 36501, 36829, 36682, 36726, 36856, 36300, 36553, 36771, 37089, 36590, 36715, 37112, 36760, 36660, 36491, 36992, 36673, 36923, 36570, 36560, 36543, 36377, 36340, 36506, 36563, 36363, 36401, 36621, 36594, 36588, 36455, 36782, 36442, 36494, 36419, 36603, 36650, 36805, 36810, 36408, 36433, 36598, 36566, 36886, 36333, 36439, 36763, 36591, 36385, 36558, 36666, 36676, 36685, 36383, 36530, 36675, 36309, 36482, 36548, 36685, 36968, 36657, 36423, 36668, 36571, 36272, 36530, 36837, 36329, 36252, 36341, 36388, 36733, 36467],
      "WindowCenter": [10065.0, 10014.0, 10018.0, 10019.0, 10028.0, 10032.0, 10039.0, 10032.0, 10037.0, 10032.0, 10036.0, 10028.0, 10044.0, 10048.0, 10048.0, 10047.0, 10049.0, 10047.0, 10034.0, 10030.0, 10030.0, 10030.0, 10061.0, 10056.0, 10040.0, 10006.0, 9986.0, 9982.0, 9998.0, 10015.0, 10026.0, 10029.0, 10029.0, 10020.0, 10012.0, 10011.0, 10019.0, 10025.0, 10015.0, 10020.0, 10018.0, 10019.0, 10028.0, 10034.0, 10030.0, 10020.0, 10009.0, 10013.0, 10015.0, 10018.0, 10010.0, 9995.0, 9992.0, 10000.0, 10009.0, 10016.0, 10027.0, 10028.0, 10011.0, 9999.0, 10001.0, 10014.0, 10014.0, 9999.0, 9985.0, 9982.0, 10006.0, 10009.0, 10009.0, 9992.0, 9999.0, 10005.0, 10009.0, 10010.0, 10018.0, 10003.0, 10018.0, 10014.0, 10019.0, 10011.0, 10003.0, 10014.0, 10017.0, 10016.0, 10002.0, 9999.0, 10014.0, 10017.0, 10016.0, 10003.0, 10014.0, 10034.0, 10052.0, 10031.0, 10005.0, 9986.0, 9996.0, 10000.0, 10018.0, 10019.0, 10026.0, 10020.0, 10028.0, 10029.0, 10014.0, 9993.0, 9985.0, 9998.0, 10016.0, 10024.0, 10022.0, 10018.0, 10018.0, 10018.0, 10026.0, 10017.0, 10019.0, 10027.0, 10036.0, 10035.0, 10021.0, 10006.0, 10004.0, 10002.0, 10022.0, 10028.0, 10045.0, 10045.0, 10022.0, 10002.0, 9986.0, 9987.0, 9999.0, 10010.0, 10020.0, 10020.0, 10013.0, 10012.0, 10022.0, 10030.0, 10023.0, 10005.0, 9997.0, 10001.0, 10018.0, 10021.0, 10023.0, 10011.0, 10011.0, 10002.0, 9994.0, 9984.0, 9991.0, 10001.0, 10016.0, 10004.0, 10003.0, 9994.0, 10004.0, 10017.0, 10020.0, 10032.0, 10039.0, 10015.0, 10003.0, 9993.0, 10008.0, 10017.0, 10018.0, 10020.0, 10013.0, 10011.0, 10005.0, 10004.0, 10003.0, 10011.0, 10001.0, 9992.0, 10000.0, 10019.0, 10020.0, 10014.0, 10010.0, 10018.0, 10011.0, 9996.0, 9982.0, 9984.0, 10005.0, 9995.0],
      "WindowWidth": [21414.0, 21284.0, 21281.0, 21277.0, 21295.0, 21304.0, 21319.0, 21303.0, 21313.0, 21304.0, 21308.0, 21292.0, 21329.0, 21339.0, 21337.0, 21335.0, 21341.0, 21333.0, 21308.0, 21296.0, 21295.0, 21296.0, 21362.0, 21355.0, 21317.0, 21238.0, 21194.0, 21183.0, 21220.0, 21259.0, 21286.0, 21295.0, 21294.0, 21270.0, 21256.0, 21253.0, 21270.0, 21281.0, 21266.0, 21271.0, 21266.0, 21269.0, 21290.0, 21303.0, 21295.0, 21270.0, 21245.0, 21249.0, 21258.0, 21268.0, 21252.0, 21218.0, 21207.0, 21226.0, 21248.0, 21264.0, 21289.0, 21290.0, 21249.0, 21221.0, 21227.0, 21253.0, 21255.0, 21222.0, 21192.0, 21186.0, 21239.0, 21249.0, 21249.0, 21210.0, 21226.0, 21237.0, 21247.0, 21249.0, 21268.0, 21236.0, 21266.0, 21262.0, 21270.0, 21250.0, 21233.0, 21253.0, 21263.0, 21258.0, 21228.0, 21222.0, 21255.0, 21265.0, 21263.0, 21235.0, 21257.0, 21305.0, 21345.0, 21299.0, 21239.0, 21192.0, 21211.0, 21228.0, 21267.0, 21272.0, 21287.0, 21274.0, 21293.0, 21294.0, 21259.0, 21210.0, 21192.0, 21222.0, 21261.0, 21279.0, 21277.0, 21266.0, 21267.0, 21268.0, 21283.0, 21265.0, 21271.0, 21289.0, 21309.0, 21303.0, 21274.0, 21241.0, 21237.0, 21230.0, 21271.0, 21292.0, 21331.0, 21330.0, 21276.0, 21226.0, 21193.0, 21191.0, 21224.0, 21250.0, 21275.0, 21274.0, 21261.0, 21257.0, 21278.0, 21293.0, 21278.0, 21236.0, 21219.0, 21226.0, 21267.0, 21275.0, 21280.0, 21249.0, 21249.0, 21230.0, 21211.0, 21190.0, 21204.0, 21226.0, 21261.0, 21238.0, 21234.0, 21217.0, 21239.0, 21266.0, 21276.0, 21304.0, 21316.0, 21259.0, 21232.0, 21209.0, 21244.0, 21265.0, 21268.0, 21272.0, 21257.0, 21253.0, 21240.0, 21238.0, 21235.0, 21251.0, 21229.0, 21207.0, 21227.0, 21270.0, 21272.0, 21260.0, 21246.0, 21263.0, 21248.0, 21214.0, 21181.0, 21187.0, 21232.0, 21217.0]
    },
    "slices": {}
  }
}