{
  "AcquisitionMatrixPE": 104,
  "AcquisitionNumber": 1,
  "AcquisitionTime": "13:55:10.715000",
  "BandwidthPerPixelPhaseEncode": 17.17,
  "BaseResolution": 104,
  "BodyPartExamined": "BRAIN",
  "CoilString": "HC1-7;NC1_2",
  "ConsistencyInfo": "N4_VE11C_LATEST_20160120",
  "ConversionSoftware": "dcm2niix",
  "ConversionSoftwareVersion": "v1.0.20190902",
  "DerivedVendorReportedEchoSpacing": 0.000560011,
  "DeviceSerialNumber": "167006",
  "DwellTime": 2.1e-06,
  "EchoTime": 0.037,
  "EchoTrainLength": 104,
  "EffectiveEchoSpacing": 0.000560011,
  "FlipAngle": 52,
  "HeudiconvVersion": "0.10.0",
  "ImageComments": "Unaliased_MB4_PE3_LB",
  "ImageOrientationPatientDICOM": [0.998965, 0.00902103, 0.0445723, 0.00278967, 0.966125, -0.258058],
  "ImageType": [
    "ORIGINAL",
    "PRIMARY",
    "M",
    "MB",
    "ND",
    "MOSAIC"
],
  "ImagingFrequency": 123.259,
  "InPlanePhaseEncodingDirectionDICOM": "COL",
  "InstitutionAddress": "Chemin_Queen-Mary_4565_Montreal_District_CA_H3W_1W5",
  "InstitutionName": "IUGM",
  "InstitutionalDepartmentName": "Department",
  "MRAcquisitionType": "2D",
  "MagneticFieldStrength": 3,
  "Manufacturer": "Siemens",
  "ManufacturersModelName": "Prisma_fit",
  "Modality": "MR",
  "MultibandAccelerationFactor": 4,
  "PartialFourier": 1,
  "PatientPosition": "HFS",
  "PercentPhaseFOV": 100,
  "PhaseEncodingDirection": "j",
  "PhaseEncodingSteps": 104,
  "PhaseResolution": 1,
  "PixelBandwidth": 2290,
  "ProcedureStepDescription": "memory_things",
  "ProtocolName": "func_task-things_run-6",
  "PulseSequenceDetails": "%CustomerSeq%_cmrr_mbep2d_bold",
  "ReceiveCoilActiveElements": "HC1-7;NC1,2",
  "ReceiveCoilName": "HeadNeck_64",
  "ReconMatrixPE": 104,
  "RepetitionTime": 1.49,
  "SAR": 0.0593549,
  "ScanOptions": "FS",
  "ScanningSequence": "EP",
  "SequenceName": "epfid2d1_104",
  "SequenceVariant": "SK_SS",
  "SeriesDescription": "func_task-things_run-6",
  "SeriesNumber": 25,
  "ShimSetting": [638, -7220, -8784, 756, 32, -15, 66, -10],
  "SliceThickness": 2,
  "SliceTiming": [0, 0.7825, 0.0975, 0.8825, 0.195, 0.98, 0.295, 1.0775, 0.3925, 1.175, 0.49, 1.2725, 0.5875, 1.3725, 0.685, 0, 0.7825, 0.0975, 0.8825, 0.195, 0.98, 0.295, 1.0775, 0.3925, 1.175, 0.49, 1.2725, 0.5875, 1.3725, 0.685, 0, 0.7825, 0.0975, 0.8825, 0.195, 0.98, 0.295, 1.0775, 0.3925, 1.175, 0.49, 1.2725, 0.5875, 1.3725, 0.685, 0, 0.7825, 0.0975, 0.8825, 0.195, 0.98, 0.295, 1.0775, 0.3925, 1.175, 0.49, 1.2725, 0.5875, 1.3725, 0.685],
  "SoftwareVersions": "syngo_MR_E11",
  "SpacingBetweenSlices": 2,
  "StationName": "MRC35049",
  "TaskName": "things",
  "TotalReadoutTime": 0.0576811,
  "TxRefAmp": 252.515,
  "WipMemBlock": "78902fbb-045b-440b-8d4a-71b1611eaf6c||Sequence: R016 ve11c/master r/e634e98; Dec 19 2017 11:00:25 by eja",
  "dcmmeta_affine": [
    [-1.997930884361267, 0.005579340271651745, 0.0907808318734169, 106.51033782958984],
    [-0.018042055889964104, 1.9322509765625, -0.515829861164093, -73.41678619384766],
    [0.08914467692375183, 0.516115128993988, 1.9302016496658325, -67.06166076660156],
    [0.0, 0.0, 0.0, 1.0]
],
  "dcmmeta_reorient_transform": [
    [0.0, -1.0, 0.0, 103.0],
    [1.0, 0.0, 0.0, 0.0],
    [0.0, 0.0, 1.0, 0.0],
    [0.0, 0.0, 0.0, 1.0]
],
  "dcmmeta_shape": [104, 104, 60, 190],
  "dcmmeta_slice_dim": 2,
  "dcmmeta_version": 0.6,
  "global": {
    "const": {
      "AcquisitionMatrix": [104, 0, 0, 104],
      "AngioFlag": "N",
      "BitsAllocated": 16,
      "BitsStored": 16,
      "BodyPartExamined": "BRAIN",
      "Columns": 832,
      "EchoNumbers": 1,
      "EchoTime": 37.0,
      "EchoTrainLength": 104,
      "FlipAngle": 52.0,
      "HighBit": 15,
      "ImageOrientationPatient": [0.99896542871499, 0.00902102800957, 0.0445723376762, 0.00278967007465, 0.96612551299097, -0.2580575728182],
      "ImagePositionPatient": [-836.36272136473, -835.51175289248, 141.51545233248],
      "ImageType": [
        "ORIGINAL",
        "PRIMARY",
        "M",
        "MB",
        "ND",
        "MOSAIC"
],
      "ImagedNucleus": "1H",
      "ImagingFrequency": 123.259114,
      "InPlanePhaseEncodingDirection": "COL",
      "MRAcquisitionType": "2D",
      "MagneticFieldStrength": 3.0,
      "Manufacturer": "SIEMENS",
      "ManufacturerModelName": "Prisma_fit",
      "Modality": "MR",
      "NumberOfAverages": 1.0,
      "NumberOfPhaseEncodingSteps": 104,
      "PercentPhaseFieldOfView": 100.0,
      "PercentSampling": 100.0,
      "PerformedProcedureStepStartTime": "120338.588000",
      "PhotometricInterpretation": "MONOCHROME2",
      "PixelBandwidth": 2290.0,
      "PixelRepresentation": 0,
      "PixelSpacing": [2.0, 2.0],
      "ProtocolName": "func_task-things_run-6",
      "RepetitionTime": 1490.0,
      "Rows": 832,
      "SAR": 0.0593548999034,
      "SamplesPerPixel": 1,
      "ScanOptions": "FS",
      "ScanningSequence": "EP",
      "SequenceName": "epfid2d1_104",
      "SequenceVariant": [
        "SK",
        "SS"
],
      "SeriesDescription": "func_task-things_run-6",
      "SeriesNumber": 25,
      "SeriesTime": "135632.106000",
      "SliceLocation": -40.951428095534,
      "SliceThickness": 2.0,
      "SmallestImagePixelValue": 0,
      "SoftwareVersions": "syngo MR E11",
      "SpacingBetweenSlices": 2.0000000009706,
      "SpecificCharacterSet": "ISO_IR 100",
      "StudyID": "1",
      "StudyTime": "120338.480000",
      "TransmitCoilName": "Body",
      "VariableFlipAngleFlag": "N",
      "WindowCenterWidthExplanation": "Algo1",
      "dBdt": 0.0},
    "slices": {}
  },
  "time": {
    "samples": {
      "AcquisitionNumber": [1, 2, 3, 4, 5, 6, 7, 8, 9, 10, 11, 12, 13, 14, 15, 16, 17, 18, 19, 20, 21, 22, 23, 24, 25, 26, 27, 28, 29, 30, 31, 32, 33, 34, 35, 36, 37, 38, 39, 40, 41, 42, 43, 44, 45, 46, 47, 48, 49, 50, 51, 52, 53, 54, 55, 56, 57, 58, 59, 60, 61, 62, 63, 64, 65, 66, 67, 68, 69, 70, 71, 72, 73, 74, 75, 76, 77, 78, 79, 80, 81, 82, 83, 84, 85, 86, 87, 88, 89, 90, 91, 92, 93, 94, 95, 96, 97, 98, 99, 100, 101, 102, 103, 104, 105, 106, 107, 108, 109, 110, 111, 112, 113, 114, 115, 116, 117, 118, 119, 120, 121, 122, 123, 124, 125, 126, 127, 128, 129, 130, 131, 132, 133, 134, 135, 136, 137, 138, 139, 140, 141, 142, 143, 144, 145, 146, 147, 148, 149, 150, 151, 152, 153, 154, 155, 156, 157, 158, 159, 160, 161, 162, 163, 164, 165, 166, 167, 168, 169, 170, 171, 172, 173, 174, 175, 176, 177, 178, 179, 180, 181, 182, 183, 184, 185, 186, 187, 188, 189, 190],
      "AcquisitionTime": ["135510.715000", "135512.205000", "135513.695000", "135515.185000", "135516.675000", "135518.165000", "135519.655000", "135521.145000", "135522.635000", "135524.125000", "135525.615000", "135527.105000", "135528.595000", "135530.085000", "135531.575000", "135533.065000", "135534.555000", "135536.045000", "135537.535000", "135539.025000", "135540.515000", "135542.005000", "135543.495000", "135544.985000", "135546.475000", "135547.965000", "135549.455000", "135550.945000", "135552.435000", "135553.925000", "135555.415000", "135556.905000", "135558.395000", "135559.885000", "135601.375000", "135602.865000", "135604.355000", "135605.845000", "135607.335000", "135608.825000", "135610.315000", "135611.805000", "135613.295000", "135614.785000", "135616.275000", "135617.765000", "135619.255000", "135620.745000", "135622.235000", "135623.725000", "135625.215000", "135626.705000", "135628.195000", "135629.685000", "135631.175000", "135632.665000", "135634.155000", "135635.645000", "135637.135000", "135638.625000", "135640.115000", "135641.605000", "135643.095000", "135644.585000", "135646.075000", "135647.565000", "135649.055000", "135650.545000", "135652.035000", "135653.525000", "135655.015000", "135656.505000", "135657.995000", "135659.485000", "135700.975000", "135702.465000", "135703.955000", "135705.445000", "135706.935000", "135708.425000", "135709.915000", "135711.405000", "135712.895000", "135714.385000", "135715.875000", "135717.365000", "135718.855000", "135720.345000", "135721.835000", "135723.325000", "135724.815000", "135726.305000", "135727.795000", "135729.285000", "135730.775000", "135732.265000", "135733.755000", "135735.245000", "135736.735000", "135738.225000", "135739.715000", "135741.205000", "135742.695000", "135744.185000", "135745.675000", "135747.165000", "135748.655000", "135750.145000", "135751.635000", "135753.125000", "135754.615000", "135756.105000", "135757.595000", "135759.085000", "135800.575000", "135802.065000", "135803.555000", "135805.045000", "135806.535000", "135808.025000", "135809.515000", "135811.005000", "135812.495000", "135813.985000", "135815.475000", "135816.965000", "135818.455000", "135819.945000", "135821.435000", "135822.925000", "135824.415000", "135825.905000", "135827.395000", "135828.885000", "135830.375000", "135831.865000", "135833.355000", "135834.845000", "135836.335000", "135837.825000", "135839.315000", "135840.805000", "135842.295000", "135843.785000", "135845.275000", "135846.765000", "135848.255000", "135849.745000", "135851.235000", "135852.725000", "135854.215000", "135855.705000", "135857.195000", "135858.685000", "135900.175000", "135901.665000", "135903.155000", "135904.645000", "135906.135000", "135907.625000", "135909.115000", "135910.605000", "135912.095000", "135913.585000", "135915.075000", "135916.565000", "135918.055000", "135919.545000", "135921.035000", "135922.525000", "135924.015000", "135925.505000", "135926.995000", "135928.485000", "135929.975000", "135931.465000", "135932.955000", "135934.445000", "135935.935000", "135937.425000", "135938.915000", "135940.405000", "135941.895000", "135943.385000", "135944.875000", "135946.365000", "135947.855000", "135949.345000", "135950.835000", "135952.325000"],
      "ContentTime": ["135632.109000", "135632.113000", "135632.116000", "135632.119000", "135632.123000", "135632.126000", "135632.129000", "135632.132000", "135632.136000", "135632.139000", "135632.142000", "135632.145000", "135632.149000", "135632.152000", "135632.155000", "135632.159000", "135632.162000", "135632.165000", "135632.168000", "135632.179000", "135632.182000", "135632.186000", "135632.189000", "135632.192000", "135632.195000", "135632.199000", "135632.202000", "135652.063000", "135652.067000", "135652.070000", "135652.073000", "135652.077000", "135652.080000", "135652.083000", "135652.086000", "135652.090000", "135652.093000", "135652.096000", "135652.122000", "135652.126000", "135652.129000", "135652.132000", "135652.135000", "135652.139000", "135652.142000", "135652.145000", "135652.148000", "135712.062000", "135712.066000", "135712.069000", "135712.072000", "135712.076000", "135712.079000", "135712.082000", "135712.085000", "135712.089000", "135712.092000", "135712.095000", "135712.104000", "135712.107000", "135712.110000", "135712.114000", "135712.117000", "135712.120000", "135712.123000", "135712.127000", "135712.130000", "135712.133000", "135732.062000", "135732.066000", "135732.069000", "135732.072000", "135732.075000", "135732.079000", "135732.082000", "135732.085000", "135732.089000", "135732.092000", "135732.095000", "135732.098000", "135732.102000", "135732.105000", "135732.118000", "135732.121000", "135732.124000", "135732.127000", "135732.131000", "135732.134000", "135812.062000", "135812.066000", "135812.069000", "135812.072000", "135812.076000", "135812.079000", "135812.082000", "135812.085000", "135812.089000", "135812.092000", "135812.095000", "135812.099000", "135812.102000", "135812.105000", "135812.108000", "135812.112000", "135812.115000", "135812.118000", "135812.121000", "135812.125000", "135812.138000", "135812.141000", "135812.144000", "135812.148000", "135812.151000", "135812.154000", "135812.157000", "135812.161000", "135812.164000", "135812.167000", "135812.171000", "135812.174000", "135812.177000", "135852.063000", "135852.067000", "135852.070000", "135852.073000", "135852.077000", "135852.080000", "135852.083000", "135852.086000", "135852.090000", "135852.093000", "135852.096000", "135852.100000", "135852.103000", "135852.106000", "135852.110000", "135852.113000", "135852.116000", "135852.120000", "135852.124000", "135852.127000", "135852.131000", "135852.135000", "135852.139000", "135852.143000", "135852.146000", "135852.149000", "135932.062000", "135932.066000", "135932.069000", "135932.072000", "135932.076000", "135932.079000", "135932.082000", "135932.085000", "135932.092000", "135932.095000", "135932.099000", "135932.102000", "135932.105000", "135932.109000", "135932.112000", "135932.115000", "135932.119000", "135932.122000", "135932.125000", "135932.129000", "135932.132000", "135932.135000", "135932.139000", "135932.142000", "135932.145000", "135932.148000", "135932.152000", "135954.757000", "135954.760000", "135954.763000", "135954.767000", "135954.770000", "135954.774000", "135954.777000", "135954.780000", "135954.784000", "135954.787000", "135954.790000", "135954.793000", "135954.797000", "135954.800000", "135954.803000", "135954.807000"],
      "InstanceCreationTime": ["135632.109000", "135632.113000", "135632.116000", "135632.119000", "135632.123000", "135632.126000", "135632.129000", "135632.132000", "135632.136000", "135632.139000", "135632.142000", "135632.145000", "135632.149000", "135632.152000", "135632.155000", "135632.159000", "135632.162000", "135632.165000", "135632.168000", "135632.179000", "135632.182000", "135632.186000", "135632.189000", "135632.192000", "135632.195000", "135632.199000", "135632.202000", "135652.063000", "135652.067000", "135652.070000", "135652.073000", "135652.077000", "135652.080000", "135652.083000", "135652.086000", "135652.090000", "135652.093000", "135652.096000", "135652.122000", "135652.126000", "135652.129000", "135652.132000", "135652.135000", "135652.139000", "135652.142000", "135652.145000", "135652.148000", "135712.062000", "135712.066000", "135712.069000", "135712.072000", "135712.076000", "135712.079000", "135712.082000", "135712.085000", "135712.089000", "135712.092000", "135712.095000", "135712.104000", "135712.107000", "135712.110000", "135712.114000", "135712.117000", "135712.120000", "135712.123000", "135712.127000", "135712.130000", "135712.133000", "135732.062000", "135732.066000", "135732.069000", "135732.072000", "135732.075000", "135732.079000", "135732.082000", "135732.085000", "135732.089000", "135732.092000", "135732.095000", "135732.098000", "135732.102000", "135732.105000", "135732.118000", "135732.121000", "135732.124000", "135732.127000", "135732.131000", "135732.134000", "135812.062000", "135812.066000", "135812.069000", "135812.072000", "135812.076000", "135812.079000", "135812.082000", "135812.085000", "135812.089000", "135812.092000", "135812.095000", "135812.099000", "135812.102000", "135812.105000", "135812.108000", "135812.112000", "135812.115000", "135812.118000", "135812.121000", "135812.125000", "135812.138000", "135812.141000", "135812.144000", "135812.148000", "135812.151000", "135812.154000", "135812.157000", "135812.161000", "135812.164000", "135812.167000", "135812.171000", "135812.174000", "135812.177000", "135852.063000", "135852.067000", "135852.070000", "135852.073000", "135852.077000", "135852.080000", "135852.083000", "135852.086000", "135852.090000", "135852.093000", "135852.096000", "135852.100000", "135852.103000", "135852.106000", "135852.110000", "135852.113000", "135852.116000", "135852.120000", "135852.124000", "135852.127000", "135852.131000", "135852.135000", "135852.139000", "135852.143000", "135852.146000", "135852.149000", "135932.062000", "135932.066000", "135932.069000", "135932.072000", "135932.076000", "135932.079000", "135932.082000", "135932.085000", "135932.092000", "135932.095000", "135932.099000", "135932.102000", "135932.105000", "135932.109000", "135932.112000", "135932.115000", "135932.119000", "135932.122000", "135932.125000", "135932.129000", "135932.132000", "135932.135000", "135932.139000", "135932.142000", "135932.145000", "135932.148000", "135932.152000", "135954.757000", "135954.760000", "135954.763000", "135954.767000", "135954.770000", "135954.774000", "135954.777000", "135954.780000", "135954.784000", "135954.787000", "135954.790000", "135954.793000", "135954.797000", "135954.800000", "135954.803000", "135954.807000"],
      "InstanceNumber": [1, 2, 3, 4, 5, 6, 7, 8, 9, 10, 11, 12, 13, 14, 15, 16, 17, 18, 19, 20, 21, 22, 23, 24, 25, 26, 27, 28, 29, 30, 31, 32, 33, 34, 35, 36, 37, 38, 39, 40, 41, 42, 43, 44, 45, 46, 47, 48, 49, 50, 51, 52, 53, 54, 55, 56, 57, 58, 59, 60, 61, 62, 63, 64, 65, 66, 67, 68, 69, 70, 71, 72, 73, 74, 75, 76, 77, 78, 79, 80, 81, 82, 83, 84, 85, 86, 87, 88, 89, 90, 91, 92, 93, 94, 95, 96, 97, 98, 99, 100, 101, 102, 103, 104, 105, 106, 107, 108, 109, 110, 111, 112, 113, 114, 115, 116, 117, 118, 119, 120, 121, 122, 123, 124, 125, 126, 127, 128, 129, 130, 131, 132, 133, 134, 135, 136, 137, 138, 139, 140, 141, 142, 143, 144, 145, 146, 147, 148, 149, 150, 151, 152, 153, 154, 155, 156, 157, 158, 159, 160, 161, 162, 163, 164, 165, 166, 167, 168, 169, 170, 171, 172, 173, 174, 175, 176, 177, 178, 179, 180, 181, 182, 183, 184, 185, 186, 187, 188, 189, 190],
      "LargestImagePixelValue": [39589, 38533, 37822, 37346, 36903, 36727, 36951, 36515, 36845, 36471, 36928, 36672, 36146, 36372, 36792, 36543, 36695, 36513, 36518, 36910, 36448, 36357, 36754, 36548, 36558, 36601, 36633, 36646, 36569, 36435, 36814, 36475, 36678, 36620, 36470, 36532, 36779, 36755, 36814, 36398, 36373, 36563, 36821, 36518, 36696, 36899, 36719, 36377, 36546, 36782, 36998, 37236, 36405, 36716, 36080, 37056, 36430, 36657, 36518, 36679, 36619, 36635, 36223, 36207, 36633, 36942, 36848, 36160, 36576, 36655, 36580, 36399, 36310, 36649, 36738, 36585, 36377, 36396, 36578, 36880, 36539, 36520, 36333, 37124, 36749, 36475, 36164, 36878, 36812, 36968, 36229, 37009, 36558, 36272, 36074, 35972, 36458, 36293, 35914, 36111, 36477, 36707, 36373, 36179, 36341, 36063, 36816, 36956, 36584, 36444, 36296, 35997, 36390, 36789, 36198, 36295, 36076, 36753, 36558, 36577, 35960, 36074, 36575, 36835, 36138, 36044, 36500, 36860, 36702, 36929, 36267, 36455, 36445, 36507, 36195, 36670, 36866, 36594, 36625, 37112, 36699, 36568, 36275, 37339, 36547, 36704, 36011, 36766, 36993, 36930, 35996, 37098, 36718, 36909, 36153, 36572, 36019, 37188, 36831, 36611, 36096, 36248, 36224, 36742, 36541, 35973, 36798, 36450, 36557, 36139, 36130, 35804, 36388, 36163, 36277, 36599, 36174, 36423, 36335, 36415, 36147, 36498, 36754, 36898, 36210, 36263, 35936, 36444, 36299, 36242],
      "WindowCenter": [10043.0, 9998.0, 9996.0, 9995.0, 9995.0, 9998.0, 10006.0, 10000.0, 9996.0, 9991.0, 10008.0, 10024.0, 10021.0, 10011.0, 10009.0, 10001.0, 10014.0, 10001.0, 10007.0, 10007.0, 10008.0, 10000.0, 10007.0, 10008.0, 10007.0, 10016.0, 10016.0, 10018.0, 10009.0, 10008.0, 9999.0, 9999.0, 9993.0, 9983.0, 9989.0, 9991.0, 9996.0, 9982.0, 9988.0, 9987.0, 9989.0, 9982.0, 9971.0, 9962.0, 9978.0, 9997.0, 10000.0, 9985.0, 9974.0, 9971.0, 9971.0, 9977.0, 9980.0, 9995.0, 9992.0, 10012.0, 9994.0, 9983.0, 9971.0, 9978.0, 9987.0, 9999.0, 10002.0, 10001.0, 9992.0, 10000.0, 9998.0, 10002.0, 10011.0, 10009.0, 9985.0, 9982.0, 9976.0, 9997.0, 9997.0, 9983.0, 9966.0, 9973.0, 9982.0, 10014.0, 10013.0, 10005.0, 9993.0, 9998.0, 9999.0, 10000.0, 9993.0, 9992.0, 9998.0, 10021.0, 10022.0, 10026.0, 9996.0, 9986.0, 9991.0, 10013.0, 10035.0, 10023.0, 9997.0, 9978.0, 9974.0, 9973.0, 9973.0, 9976.0, 9990.0, 9984.0, 9982.0, 9983.0, 9983.0, 9983.0, 9976.0, 9977.0, 9999.0, 10009.0, 9997.0, 9987.0, 9970.0, 9980.0, 9992.0, 10009.0, 9996.0, 9984.0, 9981.0, 10005.0, 10001.0, 9996.0, 9983.0, 9965.0, 9953.0, 9961.0, 9965.0, 9980.0, 9973.0, 9960.0, 9951.0, 9961.0, 9971.0, 9992.0, 9993.0, 9990.0, 9974.0, 9976.0, 9979.0, 9997.0, 9969.0, 9972.0, 9967.0, 9987.0, 10013.0, 10012.0, 9980.0, 9963.0, 9944.0, 9944.0, 9947.0, 9989.0, 9993.0, 9996.0, 9971.0, 9949.0, 9946.0, 9954.0, 9974.0, 9989.0, 9979.0, 9956.0, 9946.0, 9944.0, 9962.0, 9989.0, 10000.0, 9979.0, 9966.0, 9950.0, 9948.0, 9955.0, 9958.0, 9973.0, 9972.0, 9964.0, 9950.0, 9971.0, 9988.0, 9990.0, 9977.0, 9967.0, 9950.0, 9955.0, 9963.0, 9966.0],
      "WindowWidth": [21364.0, 21243.0, 21232.0, 21224.0, 21222.0, 21226.0, 21241.0, 21231.0, 21216.0, 21207.0, 21247.0, 21284.0, 21280.0, 21255.0, 21247.0, 21231.0, 21260.0, 21233.0, 21243.0, 21245.0, 21245.0, 21229.0, 21242.0, 21245.0, 21243.0, 21262.0, 21263.0, 21268.0, 21250.0, 21247.0, 21227.0, 21225.0, 21213.0, 21190.0, 21201.0, 21207.0, 21215.0, 21184.0, 21196.0, 21193.0, 21202.0, 21185.0, 21158.0, 21140.0, 21177.0, 21219.0, 21228.0, 21195.0, 21166.0, 21158.0, 21159.0, 21172.0, 21181.0, 21213.0, 21212.0, 21250.0, 21213.0, 21187.0, 21158.0, 21175.0, 21197.0, 21228.0, 21236.0, 21231.0, 21212.0, 21226.0, 21219.0, 21235.0, 21252.0, 21246.0, 21192.0, 21183.0, 21173.0, 21218.0, 21217.0, 21190.0, 21150.0, 21164.0, 21186.0, 21257.0, 21258.0, 21239.0, 21209.0, 21218.0, 21222.0, 21227.0, 21213.0, 21209.0, 21219.0, 21270.0, 21279.0, 21284.0, 21218.0, 21195.0, 21207.0, 21261.0, 21305.0, 21283.0, 21220.0, 21178.0, 21165.0, 21165.0, 21165.0, 21175.0, 21202.0, 21191.0, 21184.0, 21186.0, 21188.0, 21188.0, 21174.0, 21177.0, 21222.0, 21246.0, 21222.0, 21198.0, 21159.0, 21176.0, 21208.0, 21247.0, 21221.0, 21191.0, 21181.0, 21233.0, 21228.0, 21221.0, 21184.0, 21144.0, 21114.0, 21133.0, 21148.0, 21180.0, 21164.0, 21137.0, 21117.0, 21136.0, 21161.0, 21210.0, 21214.0, 21202.0, 21166.0, 21174.0, 21183.0, 21215.0, 21158.0, 21160.0, 21151.0, 21193.0, 21250.0, 21251.0, 21180.0, 21136.0, 21094.0, 21096.0, 21107.0, 21202.0, 21213.0, 21213.0, 21154.0, 21108.0, 21101.0, 21122.0, 21166.0, 21200.0, 21182.0, 21131.0, 21101.0, 21096.0, 21140.0, 21203.0, 21229.0, 21180.0, 21146.0, 21110.0, 21106.0, 21122.0, 21134.0, 21162.0, 21160.0, 21143.0, 21114.0, 21158.0, 21197.0, 21203.0, 21175.0, 21151.0, 21113.0, 21123.0, 21141.0, 21149.0]
    },
    "slices": {}
  }
}