{
  "AcquisitionMatrixPE": 104,
  "AcquisitionNumber": 1,
  "AcquisitionTime": "13:26:17.217500",
  "BandwidthPerPixelPhaseEncode": 17.17,
  "BaseResolution": 104,
  "BodyPartExamined": "BRAIN",
  "CoilString": "HC1-7;NC1_2",
  "ConsistencyInfo": "N4_VE11C_LATEST_20160120",
  "ConversionSoftware": "dcm2niix",
  "ConversionSoftwareVersion": "v1.0.20190902",
  "DerivedVendorReportedEchoSpacing": 0.000560011,
  "DeviceSerialNumber": "167006",
  "DwellTime": 2.1e-06,
  "EchoTime": 0.037,
  "EchoTrainLength": 104,
  "EffectiveEchoSpacing": 0.000560011,
  "FlipAngle": 52,
  "HeudiconvVersion": "0.10.0",
  "ImageComments": "Unaliased_MB4_PE3_LB",
  "ImageOrientationPatientDICOM": [0.998965, 0.00902103, 0.0445723, 0.00278967, 0.966125, -0.258058],
  "ImageType": [
    "ORIGINAL",
    "PRIMARY",
    "M",
    "MB",
    "ND",
    "MOSAIC"
],
  "ImagingFrequency": 123.259,
  "InPlanePhaseEncodingDirectionDICOM": "COL",
  "InstitutionAddress": "Chemin_Queen-Mary_4565_Montreal_District_CA_H3W_1W5",
  "InstitutionName": "IUGM",
  "InstitutionalDepartmentName": "Department",
  "MRAcquisitionType": "2D",
  "MagneticFieldStrength": 3,
  "Manufacturer": "Siemens",
  "ManufacturersModelName": "Prisma_fit",
  "Modality": "MR",
  "MultibandAccelerationFactor": 4,
  "PartialFourier": 1,
  "PatientPosition": "HFS",
  "PercentPhaseFOV": 100,
  "PhaseEncodingDirection": "j",
  "PhaseEncodingSteps": 104,
  "PhaseResolution": 1,
  "PixelBandwidth": 2290,
  "ProcedureStepDescription": "memory_things",
  "ProtocolName": "func_task-things_run-2",
  "PulseSequenceDetails": "%CustomerSeq%_cmrr_mbep2d_bold",
  "ReceiveCoilActiveElements": "HC1-7;NC1,2",
  "ReceiveCoilName": "HeadNeck_64",
  "ReconMatrixPE": 104,
  "RepetitionTime": 1.49,
  "SAR": 0.0593549,
  "ScanOptions": "FS",
  "ScanningSequence": "EP",
  "SequenceName": "epfid2d1_104",
  "SequenceVariant": "SK_SS",
  "SeriesDescription": "func_task-things_run-2",
  "SeriesNumber": 13,
  "ShimSetting": [638, -7220, -8784, 756, 32, -15, 66, -10],
  "SliceThickness": 2,
  "SliceTiming": [0, 0.7825, 0.0975, 0.88, 0.195, 0.98, 0.2925, 1.0775, 0.39, 1.175, 0.49, 1.2725, 0.5875, 1.37, 0.685, 0, 0.7825, 0.0975, 0.88, 0.195, 0.98, 0.2925, 1.0775, 0.39, 1.175, 0.49, 1.2725, 0.5875, 1.37, 0.685, 0, 0.7825, 0.0975, 0.88, 0.195, 0.98, 0.2925, 1.0775, 0.39, 1.175, 0.49, 1.2725, 0.5875, 1.37, 0.685, 0, 0.7825, 0.0975, 0.88, 0.195, 0.98, 0.2925, 1.0775, 0.39, 1.175, 0.49, 1.2725, 0.5875, 1.37, 0.685],
  "SoftwareVersions": "syngo_MR_E11",
  "SpacingBetweenSlices": 2,
  "StationName": "MRC35049",
  "TaskName": "things",
  "TotalReadoutTime": 0.0576811,
  "TxRefAmp": 252.515,
  "WipMemBlock": "7b5d3b1b-3ebf-498b-82ce-261e75bc20d8||Sequence: R016 ve11c/master r/e634e98; Dec 19 2017 11:00:25 by eja",
  "dcmmeta_affine": [
    [-1.997930884361267, 0.005579340271651745, 0.0907808318734169, 106.51033782958984],
    [-0.018042055889964104, 1.9322509765625, -0.515829861164093, -73.41678619384766],
    [0.08914467692375183, 0.516115128993988, 1.9302016496658325, -67.06166076660156],
    [0.0, 0.0, 0.0, 1.0]
],
  "dcmmeta_reorient_transform": [
    [0.0, -1.0, 0.0, 103.0],
    [1.0, 0.0, 0.0, 0.0],
    [0.0, 0.0, 1.0, 0.0],
    [0.0, 0.0, 0.0, 1.0]
],
  "dcmmeta_shape": [104, 104, 60, 190],
  "dcmmeta_slice_dim": 2,
  "dcmmeta_version": 0.6,
  "global": {
    "const": {
      "AcquisitionMatrix": [104, 0, 0, 104],
      "AngioFlag": "N",
      "BitsAllocated": 16,
      "BitsStored": 16,
      "BodyPartExamined": "BRAIN",
      "Columns": 832,
      "EchoNumbers": 1,
      "EchoTime": 37.0,
      "EchoTrainLength": 104,
      "FlipAngle": 52.0,
      "HighBit": 15,
      "ImageOrientationPatient": [0.99896542871499, 0.00902102800957, 0.0445723376762, 0.00278967007465, 0.96612551299097, -0.2580575728182],
      "ImagePositionPatient": [-836.36272136473, -835.51175289248, 141.51545233248],
      "ImageType": [
        "ORIGINAL",
        "PRIMARY",
        "M",
        "MB",
        "ND",
        "MOSAIC"
],
      "ImagedNucleus": "1H",
      "ImagingFrequency": 123.259104,
      "InPlanePhaseEncodingDirection": "COL",
      "MRAcquisitionType": "2D",
      "MagneticFieldStrength": 3.0,
      "Manufacturer": "SIEMENS",
      "ManufacturerModelName": "Prisma_fit",
      "Modality": "MR",
      "NumberOfAverages": 1.0,
      "NumberOfPhaseEncodingSteps": 104,
      "PercentPhaseFieldOfView": 100.0,
      "PercentSampling": 100.0,
      "PerformedProcedureStepStartTime": "120338.588000",
      "PhotometricInterpretation": "MONOCHROME2",
      "PixelBandwidth": 2290.0,
      "PixelRepresentation": 0,
      "PixelSpacing": [2.0, 2.0],
      "ProtocolName": "func_task-things_run-2",
      "RepetitionTime": 1490.0,
      "Rows": 832,
      "SAR": 0.0593548999034,
      "SamplesPerPixel": 1,
      "ScanOptions": "FS",
      "ScanningSequence": "EP",
      "SequenceName": "epfid2d1_104",
      "SequenceVariant": [
        "SK",
        "SS"
],
      "SeriesDescription": "func_task-things_run-2",
      "SeriesNumber": 13,
      "SeriesTime": "132720.977000",
      "SliceLocation": -40.951428095534,
      "SliceThickness": 2.0,
      "SmallestImagePixelValue": 0,
      "SoftwareVersions": "syngo MR E11",
      "SpacingBetweenSlices": 2.0000000009706,
      "SpecificCharacterSet": "ISO_IR 100",
      "StudyID": "1",
      "StudyTime": "120338.480000",
      "TransmitCoilName": "Body",
      "VariableFlipAngleFlag": "N",
      "WindowCenterWidthExplanation": "Algo1",
      "dBdt": 0.0},
    "slices": {}
  },
  "time": {
    "samples": {
      "AcquisitionNumber": [1, 2, 3, 4, 5, 6, 7, 8, 9, 10, 11, 12, 13, 14, 15, 16, 17, 18, 19, 20, 21, 22, 23, 24, 25, 26, 27, 28, 29, 30, 31, 32, 33, 34, 35, 36, 37, 38, 39, 40, 41, 42, 43, 44, 45, 46, 47, 48, 49, 50, 51, 52, 53, 54, 55, 56, 57, 58, 59, 60, 61, 62, 63, 64, 65, 66, 67, 68, 69, 70, 71, 72, 73, 74, 75, 76, 77, 78, 79, 80, 81, 82, 83, 84, 85, 86, 87, 88, 89, 90, 91, 92, 93, 94, 95, 96, 97, 98, 99, 100, 101, 102, 103, 104, 105, 106, 107, 108, 109, 110, 111, 112, 113, 114, 115, 116, 117, 118, 119, 120, 121, 122, 123, 124, 125, 126, 127, 128, 129, 130, 131, 132, 133, 134, 135, 136, 137, 138, 139, 140, 141, 142, 143, 144, 145, 146, 147, 148, 149, 150, 151, 152, 153, 154, 155, 156, 157, 158, 159, 160, 161, 162, 163, 164, 165, 166, 167, 168, 169, 170, 171, 172, 173, 174, 175, 176, 177, 178, 179, 180, 181, 182, 183, 184, 185, 186, 187, 188, 189, 190],
      "AcquisitionTime": ["132617.217500", "132618.707500", "132620.197500", "132621.687500", "132623.177500", "132624.667500", "132626.157500", "132627.647500", "132629.137500", "132630.627500", "132632.117500", "132633.607500", "132635.097500", "132636.587500", "132638.077500", "132639.567500", "132641.057500", "132642.547500", "132644.037500", "132645.527500", "132647.017500", "132648.507500", "132649.997500", "132651.487500", "132652.977500", "132654.467500", "132655.957500", "132657.447500", "132658.937500", "132700.427500", "132701.917500", "132703.407500", "132704.897500", "132706.387500", "132707.877500", "132709.367500", "132710.857500", "132712.347500", "132713.837500", "132715.327500", "132716.817500", "132718.307500", "132719.797500", "132721.287500", "132722.777500", "132724.267500", "132725.757500", "132727.247500", "132728.737500", "132730.227500", "132731.717500", "132733.207500", "132734.697500", "132736.187500", "132737.677500", "132739.167500", "132740.657500", "132742.147500", "132743.637500", "132745.127500", "132746.617500", "132748.107500", "132749.597500", "132751.087500", "132752.577500", "132754.067500", "132755.557500", "132757.047500", "132758.537500", "132800.027500", "132801.517500", "132803.007500", "132804.497500", "132805.987500", "132807.477500", "132808.967500", "132810.457500", "132811.947500", "132813.437500", "132814.927500", "132816.417500", "132817.907500", "132819.397500", "132820.887500", "132822.377500", "132823.867500", "132825.357500", "132826.847500", "132828.337500", "132829.827500", "132831.317500", "132832.807500", "132834.297500", "132835.787500", "132837.277500", "132838.767500", "132840.257500", "132841.747500", "132843.237500", "132844.727500", "132846.217500", "132847.707500", "132849.197500", "132850.687500", "132852.177500", "132853.667500", "132855.157500", "132856.647500", "132858.137500", "132859.627500", "132901.117500", "132902.607500", "132904.097500", "132905.587500", "132907.077500", "132908.567500", "132910.057500", "132911.547500", "132913.037500", "132914.527500", "132916.017500", "132917.507500", "132918.997500", "132920.487500", "132921.977500", "132923.467500", "132924.957500", "132926.447500", "132927.937500", "132929.427500", "132930.917500", "132932.407500", "132933.897500", "132935.387500", "132936.877500", "132938.367500", "132939.857500", "132941.347500", "132942.837500", "132944.327500", "132945.817500", "132947.307500", "132948.797500", "132950.287500", "132951.777500", "132953.267500", "132954.757500", "132956.247500", "132957.737500", "132959.227500", "133000.717500", "133002.207500", "133003.697500", "133005.187500", "133006.677500", "133008.167500", "133009.657500", "133011.147500", "133012.637500", "133014.127500", "133015.617500", "133017.107500", "133018.597500", "133020.087500", "133021.577500", "133023.067500", "133024.557500", "133026.047500", "133027.537500", "133029.027500", "133030.517500", "133032.007500", "133033.497500", "133034.987500", "133036.477500", "133037.967500", "133039.457500", "133040.947500", "133042.437500", "133043.927500", "133045.417500", "133046.907500", "133048.397500", "133049.887500", "133051.377500", "133052.867500", "133054.357500", "133055.847500", "133057.337500", "133058.827500"],
      "ContentTime": ["132720.980000", "132720.983000", "132720.987000", "132720.990000", "132720.993000", "132720.997000", "132721.000000", "132721.003000", "132721.007000", "132721.013000", "132740.931000", "132740.935000", "132740.938000", "132740.941000", "132740.944000", "132740.948000", "132740.951000", "132740.954000", "132740.957000", "132740.961000", "132740.964000", "132740.967000", "132740.971000", "132740.974000", "132740.977000", "132740.980000", "132740.986000", "132740.989000", "132740.992000", "132740.995000", "132741.000000", "132800.931000", "132800.935000", "132800.938000", "132800.941000", "132800.944000", "132800.948000", "132800.951000", "132800.954000", "132800.957000", "132800.961000", "132800.964000", "132800.967000", "132800.970000", "132800.974000", "132800.977000", "132800.980000", "132800.984000", "132800.987000", "132800.990000", "132800.993000", "132820.931000", "132820.935000", "132820.938000", "132820.941000", "132820.945000", "132820.948000", "132820.951000", "132820.954000", "132820.958000", "132820.961000", "132820.964000", "132820.967000", "132820.971000", "132820.974000", "132820.977000", "132820.980000", "132820.984000", "132820.987000", "132820.990000", "132820.993000", "132840.931000", "132840.949000", "132840.953000", "132840.956000", "132840.959000", "132840.973000", "132840.976000", "132840.979000", "132840.982000", "132840.985000", "132840.989000", "132840.992000", "132840.995000", "132841.000000", "132841.003000", "132841.006000", "132841.009000", "132841.013000", "132841.016000", "132841.019000", "132920.931000", "132920.935000", "132920.938000", "132920.941000", "132920.945000", "132920.948000", "132920.951000", "132920.954000", "132920.957000", "132920.961000", "132920.964000", "132920.967000", "132920.970000", "132920.974000", "132920.977000", "132920.980000", "132920.984000", "132920.987000", "132920.990000", "132920.993000", "132920.997000", "132921.001000", "132921.004000", "132921.008000", "132921.011000", "132921.014000", "132921.017000", "132921.021000", "132921.024000", "132921.027000", "132921.031000", "132921.034000", "133000.931000", "133000.935000", "133000.938000", "133000.941000", "133000.948000", "133000.951000", "133000.955000", "133000.958000", "133000.962000", "133000.966000", "133000.969000", "133000.972000", "133000.976000", "133000.979000", "133000.982000", "133000.985000", "133000.989000", "133000.992000", "133000.996000", "133001.000000", "133001.003000", "133001.006000", "133001.010000", "133001.013000", "133001.016000", "133001.019000", "133040.931000", "133040.935000", "133040.938000", "133040.941000", "133040.945000", "133040.948000", "133040.951000", "133040.955000", "133040.958000", "133040.961000", "133040.964000", "133040.968000", "133040.971000", "133040.974000", "133040.978000", "133040.981000", "133040.984000", "133040.987000", "133040.991000", "133040.994000", "133040.997000", "133041.001000", "133041.005000", "133041.008000", "133041.011000", "133041.015000", "133041.034000", "133100.759000", "133100.762000", "133100.766000", "133100.769000", "133100.773000", "133100.776000", "133100.779000", "133100.783000", "133100.786000", "133100.789000", "133100.792000", "133100.796000", "133100.799000", "133100.802000"],
      "InstanceCreationTime": ["132720.980000", "132720.983000", "132720.987000", "132720.990000", "132720.993000", "132720.997000", "132721.000000", "132721.003000", "132721.007000", "132721.013000", "132740.931000", "132740.935000", "132740.938000", "132740.941000", "132740.944000", "132740.948000", "132740.951000", "132740.954000", "132740.957000", "132740.961000", "132740.964000", "132740.967000", "132740.971000", "132740.974000", "132740.977000", "132740.980000", "132740.986000", "132740.989000", "132740.992000", "132740.995000", "132741.000000", "132800.931000", "132800.935000", "132800.938000", "132800.941000", "132800.944000", "132800.948000", "132800.951000", "132800.954000", "132800.957000", "132800.961000", "132800.964000", "132800.967000", "132800.970000", "132800.974000", "132800.977000", "132800.980000", "132800.984000", "132800.987000", "132800.990000", "132800.993000", "132820.931000", "132820.935000", "132820.938000", "132820.941000", "132820.945000", "132820.948000", "132820.951000", "132820.954000", "132820.958000", "132820.961000", "132820.964000", "132820.967000", "132820.971000", "132820.974000", "132820.977000", "132820.980000", "132820.984000", "132820.987000", "132820.990000", "132820.993000", "132840.931000", "132840.949000", "132840.953000", "132840.956000", "132840.959000", "132840.973000", "132840.976000", "132840.979000", "132840.982000", "132840.985000", "132840.989000", "132840.992000", "132840.995000", "132841.000000", "132841.003000", "132841.006000", "132841.009000", "132841.013000", "132841.016000", "132841.019000", "132920.931000", "132920.935000", "132920.938000", "132920.941000", "132920.945000", "132920.948000", "132920.951000", "132920.954000", "132920.957000", "132920.961000", "132920.964000", "132920.967000", "132920.970000", "132920.974000", "132920.977000", "132920.980000", "132920.984000", "132920.987000", "132920.990000", "132920.993000", "132920.997000", "132921.001000", "132921.004000", "132921.008000", "132921.011000", "132921.014000", "132921.017000", "132921.021000", "132921.024000", "132921.027000", "132921.031000", "132921.034000", "133000.931000", "133000.935000", "133000.938000", "133000.941000", "133000.948000", "133000.951000", "133000.955000", "133000.958000", "133000.962000", "133000.966000", "133000.969000", "133000.972000", "133000.976000", "133000.979000", "133000.982000", "133000.985000", "133000.989000", "133000.992000", "133000.996000", "133001.000000", "133001.003000", "133001.006000", "133001.010000", "133001.013000", "133001.016000", "133001.019000", "133040.931000", "133040.935000", "133040.938000", "133040.941000", "133040.945000", "133040.948000", "133040.951000", "133040.955000", "133040.958000", "133040.961000", "133040.964000", "133040.968000", "133040.971000", "133040.974000", "133040.978000", "133040.981000", "133040.984000", "133040.987000", "133040.991000", "133040.994000", "133040.997000", "133041.001000", "133041.005000", "133041.008000", "133041.011000", "133041.015000", "133041.034000", "133100.759000", "133100.762000", "133100.766000", "133100.769000", "133100.773000", "133100.776000", "133100.779000", "133100.783000", "133100.786000", "133100.789000", "133100.792000", "133100.796000", "133100.799000", "133100.802000"],
      "InstanceNumber": [1, 2, 3, 4, 5, 6, 7, 8, 9, 10, 11, 12, 13, 14, 15, 16, 17, 18, 19, 20, 21, 22, 23, 24, 25, 26, 27, 28, 29, 30, 31, 32, 33, 34, 35, 36, 37, 38, 39, 40, 41, 42, 43, 44, 45, 46, 47, 48, 49, 50, 51, 52, 53, 54, 55, 56, 57, 58, 59, 60, 61, 62, 63, 64, 65, 66, 67, 68, 69, 70, 71, 72, 73, 74, 75, 76, 77, 78, 79, 80, 81, 82, 83, 84, 85, 86, 87, 88, 89, 90, 91, 92, 93, 94, 95, 96, 97, 98, 99, 100, 101, 102, 103, 104, 105, 106, 107, 108, 109, 110, 111, 112, 113, 114, 115, 116, 117, 118, 119, 120, 121, 122, 123, 124, 125, 126, 127, 128, 129, 130, 131, 132, 133, 134, 135, 136, 137, 138, 139, 140, 141, 142, 143, 144, 145, 146, 147, 148, 149, 150, 151, 152, 153, 154, 155, 156, 157, 158, 159, 160, 161, 162, 163, 164, 165, 166, 167, 168, 169, 170, 171, 172, 173, 174, 175, 176, 177, 178, 179, 180, 181, 182, 183, 184, 185, 186, 187, 188, 189, 190],
      "LargestImagePixelValue": [40426, 39285, 38958, 38399, 38303, 37991, 38273, 38147, 38249, 37557, 37859, 38279, 38556, 38388, 37679, 37656, 38598, 38805, 38462, 38010, 38233, 37988, 38326, 37745, 38616, 38066, 38211, 38071, 38089, 38252, 38157, 37568, 38047, 38089, 37783, 37836, 38294, 38213, 37826, 37979, 38290, 38209, 38572, 38207, 38510, 38361, 38303, 38086, 37886, 38273, 38309, 38045, 37478, 37913, 38052, 38530, 38129, 38269, 38131, 38215, 38101, 38328, 37634, 37981, 37683, 37885, 38414, 38122, 37963, 38291, 37922, 37586, 37662, 38284, 37998, 38184, 38179, 37484, 37519, 38304, 38214, 38123, 37774, 37452, 38336, 37831, 37972, 37952, 37601, 37562, 38102, 38078, 37880, 37752, 37961, 37601, 38041, 37669, 38009, 37708, 38519, 37642, 37689, 37588, 37785, 38124, 38273, 38027, 38118, 38031, 37860, 37727, 37768, 37495, 37887, 37553, 36745, 37760, 38138, 37233, 37707, 37475, 37875, 37480, 37728, 37260, 37757, 37318, 37798, 37562, 37386, 37882, 38288, 38276, 37667, 37474, 37423, 37761, 37346, 37441, 37645, 37605, 37433, 37216, 37804, 37552, 37596, 37859, 37390, 37452, 38189, 38170, 38199, 38124, 37188, 37837, 37520, 37562, 37143, 37287, 37894, 37627, 37895, 37730, 36707, 37797, 37682, 37998, 37836, 37113, 37288, 37910, 37613, 37749, 38084, 37926, 37757, 37791, 38103, 37705, 38144, 37902, 38047, 37641, 38503, 38272, 38257, 37864, 37971, 37242],
      "WindowCenter": [10160.0, 10112.0, 10108.0, 10109.0, 10117.0, 10096.0, 10083.0, 10068.0, 10075.0, 10077.0, 10083.0, 10088.0, 10083.0, 10089.0, 10078.0, 10077.0, 10090.0, 10091.0, 10091.0, 10086.0, 10091.0, 10074.0, 10073.0, 10076.0, 10087.0, 10081.0, 10082.0, 10091.0, 10090.0, 10090.0, 10076.0, 10059.0, 10062.0, 10074.0, 10085.0, 10084.0, 10072.0, 10066.0, 10067.0, 10082.0, 10090.0, 10075.0, 10065.0, 10055.0, 10064.0, 10079.0, 10081.0, 10077.0, 10073.0, 10074.0, 10075.0, 10083.0, 10063.0, 10060.0, 10066.0, 10082.0, 10085.0, 10093.0, 10063.0, 10052.0, 10051.0, 10065.0, 10070.0, 10092.0, 10102.0, 10095.0, 10077.0, 10060.0, 10059.0, 10066.0, 10073.0, 10078.0, 10085.0, 10098.0, 10078.0, 10084.0, 10084.0, 10088.0, 10095.0, 10099.0, 10087.0, 10084.0, 10097.0, 10099.0, 10092.0, 10054.0, 10042.0, 10048.0, 10074.0, 10095.0, 10102.0, 10087.0, 10069.0, 10067.0, 10074.0, 10072.0, 10069.0, 10060.0, 10050.0, 10048.0, 10053.0, 10060.0, 10067.0, 10087.0, 10089.0, 10069.0, 10042.0, 10040.0, 10058.0, 10077.0, 10064.0, 10053.0, 10036.0, 10050.0, 10067.0, 10079.0, 10074.0, 10077.0, 10067.0, 10063.0, 10068.0, 10079.0, 10079.0, 10073.0, 10063.0, 10065.0, 10083.0, 10087.0, 10081.0, 10066.0, 10061.0, 10078.0, 10093.0, 10095.0, 10079.0, 10064.0, 10062.0, 10062.0, 10061.0, 10071.0, 10078.0, 10072.0, 10064.0, 10050.0, 10053.0, 10051.0, 10061.0, 10069.0, 10081.0, 10089.0, 10101.0, 10088.0, 10078.0, 10060.0, 10055.0, 10069.0, 10073.0, 10079.0, 10083.0, 10088.0, 10090.0, 10088.0, 10073.0, 10061.0, 10049.0, 10062.0, 10087.0, 10096.0, 10083.0, 10060.0, 10055.0, 10045.0, 10053.0, 10077.0, 10087.0, 10079.0, 10064.0, 10062.0, 10084.0, 10097.0, 10089.0, 10074.0, 10069.0, 10095.0, 10119.0, 10115.0, 10090.0, 10066.0, 10062.0, 10038.0],
      "WindowWidth": [21640.0, 21509.0, 21489.0, 21487.0, 21501.0, 21450.0, 21415.0, 21385.0, 21399.0, 21408.0, 21417.0, 21424.0, 21414.0, 21426.0, 21407.0, 21402.0, 21430.0, 21434.0, 21433.0, 21423.0, 21430.0, 21395.0, 21392.0, 21401.0, 21419.0, 21410.0, 21413.0, 21434.0, 21430.0, 21430.0, 21396.0, 21361.0, 21365.0, 21396.0, 21422.0, 21419.0, 21389.0, 21378.0, 21382.0, 21416.0, 21432.0, 21397.0, 21369.0, 21349.0, 21371.0, 21404.0, 21410.0, 21403.0, 21392.0, 21394.0, 21397.0, 21415.0, 21373.0, 21364.0, 21376.0, 21411.0, 21420.0, 21438.0, 21372.0, 21344.0, 21342.0, 21374.0, 21390.0, 21436.0, 21457.0, 21441.0, 21399.0, 21361.0, 21359.0, 21374.0, 21390.0, 21407.0, 21421.0, 21448.0, 21405.0, 21415.0, 21416.0, 21430.0, 21444.0, 21450.0, 21426.0, 21419.0, 21450.0, 21457.0, 21433.0, 21349.0, 21320.0, 21332.0, 21394.0, 21446.0, 21460.0, 21424.0, 21382.0, 21378.0, 21396.0, 21395.0, 21380.0, 21360.0, 21332.0, 21330.0, 21339.0, 21360.0, 21378.0, 21425.0, 21428.0, 21381.0, 21317.0, 21314.0, 21355.0, 21402.0, 21374.0, 21346.0, 21306.0, 21338.0, 21376.0, 21409.0, 21400.0, 21400.0, 21376.0, 21370.0, 21381.0, 21408.0, 21406.0, 21395.0, 21371.0, 21377.0, 21413.0, 21425.0, 21412.0, 21378.0, 21366.0, 21403.0, 21437.0, 21440.0, 21404.0, 21370.0, 21364.0, 21364.0, 21364.0, 21386.0, 21404.0, 21390.0, 21374.0, 21345.0, 21346.0, 21343.0, 21367.0, 21386.0, 21415.0, 21431.0, 21454.0, 21426.0, 21399.0, 21359.0, 21354.0, 21383.0, 21394.0, 21405.0, 21418.0, 21425.0, 21429.0, 21427.0, 21392.0, 21362.0, 21341.0, 21366.0, 21425.0, 21444.0, 21416.0, 21367.0, 21350.0, 21327.0, 21346.0, 21401.0, 21424.0, 21404.0, 21371.0, 21367.0, 21415.0, 21448.0, 21429.0, 21394.0, 21379.0, 21441.0, 21495.0, 21486.0, 21427.0, 21373.0, 21359.0, 21310.0]
    },
    "slices": {}
  }
}