{
  "AcquisitionMatrixPE": 104,
  "AcquisitionNumber": 1,
  "AcquisitionTime": "13:26:17.217500",
  "BandwidthPerPixelPhaseEncode": 17.17,
  "BaseResolution": 104,
  "BodyPartExamined": "BRAIN",
  "CoilString": "HC1-7;NC1_2",
  "ConsistencyInfo": "N4_VE11C_LATEST_20160120",
  "ConversionSoftware": "dcm2niix",
  "ConversionSoftwareVersion": "v1.0.20190902",
  "DerivedVendorReportedEchoSpacing": 0.000560011,
  "DeviceSerialNumber": "167006",
  "DwellTime": 2.1e-06,
  "EchoTime": 0.037,
  "EchoTrainLength": 104,
  "EffectiveEchoSpacing": 0.000560011,
  "FlipAngle": 52,
  "HeudiconvVersion": "0.10.0",
  "ImageComments": "Unaliased_MB4_PE3_LB",
  "ImageOrientationPatientDICOM": [0.998965, 0.00902103, 0.0445723, 0.00278967, 0.966125, -0.258058],
  "ImageType": [
    "ORIGINAL",
    "PRIMARY",
    "P",
    "MB",
    "ND",
    "MOSAIC"
],
  "ImagingFrequency": 123.259,
  "InPlanePhaseEncodingDirectionDICOM": "COL",
  "InstitutionAddress": "Chemin_Queen-Mary_4565_Montreal_District_CA_H3W_1W5",
  "InstitutionName": "IUGM",
  "InstitutionalDepartmentName": "Department",
  "MRAcquisitionType": "2D",
  "MagneticFieldStrength": 3,
  "Manufacturer": "Siemens",
  "ManufacturersModelName": "Prisma_fit",
  "Modality": "MR",
  "MultibandAccelerationFactor": 4,
  "PartialFourier": 1,
  "PatientPosition": "HFS",
  "PercentPhaseFOV": 100,
  "PhaseEncodingDirection": "j",
  "PhaseEncodingSteps": 104,
  "PhaseResolution": 1,
  "PixelBandwidth": 2290,
  "ProcedureStepDescription": "memory_things",
  "ProtocolName": "func_task-things_run-2",
  "PulseSequenceDetails": "%CustomerSeq%_cmrr_mbep2d_bold",
  "ReceiveCoilActiveElements": "HC1-7;NC1,2",
  "ReceiveCoilName": "HeadNeck_64",
  "ReconMatrixPE": 104,
  "RepetitionTime": 1.49,
  "SAR": 0.0593549,
  "ScanOptions": "FS",
  "ScanningSequence": "EP",
  "SequenceName": "epfid2d1_104",
  "SequenceVariant": "SK_SS",
  "SeriesDescription": "func_task-things_run-2",
  "SeriesNumber": 14,
  "ShimSetting": [638, -7220, -8784, 756, 32, -15, 66, -10],
  "SliceThickness": 2,
  "SliceTiming": [0, 0.7825, 0.0975, 0.88, 0.195, 0.98, 0.2925, 1.0775, 0.39, 1.175, 0.49, 1.2725, 0.5875, 1.37, 0.685, 0, 0.7825, 0.0975, 0.88, 0.195, 0.98, 0.2925, 1.0775, 0.39, 1.175, 0.49, 1.2725, 0.5875, 1.37, 0.685, 0, 0.7825, 0.0975, 0.88, 0.195, 0.98, 0.2925, 1.0775, 0.39, 1.175, 0.49, 1.2725, 0.5875, 1.37, 0.685, 0, 0.7825, 0.0975, 0.88, 0.195, 0.98, 0.2925, 1.0775, 0.39, 1.175, 0.49, 1.2725, 0.5875, 1.37, 0.685],
  "SoftwareVersions": "syngo_MR_E11",
  "SpacingBetweenSlices": 2,
  "StationName": "MRC35049",
  "TaskName": "things",
  "TotalReadoutTime": 0.0576811,
  "TxRefAmp": 252.515,
  "WipMemBlock": "7b5d3b1b-3ebf-498b-82ce-261e75bc20d8||Sequence: R016 ve11c/master r/e634e98; Dec 19 2017 11:00:25 by eja",
  "dcmmeta_affine": [
    [-1.997930884361267, 0.005579340271651745, 0.0907808318734169, 106.51033782958984],
    [-0.018042055889964104, 1.9322509765625, -0.515829861164093, -73.41678619384766],
    [0.08914467692375183, 0.516115128993988, 1.9302016496658325, -67.06166076660156],
    [0.0, 0.0, 0.0, 1.0]
],
  "dcmmeta_reorient_transform": [
    [0.0, -1.0, 0.0, 103.0],
    [1.0, 0.0, 0.0, 0.0],
    [0.0, 0.0, 1.0, 0.0],
    [0.0, 0.0, 0.0, 1.0]
],
  "dcmmeta_shape": [104, 104, 60, 190],
  "dcmmeta_slice_dim": 2,
  "dcmmeta_version": 0.6,
  "global": {
    "const": {
      "AcquisitionMatrix": [104, 0, 0, 104],
      "AngioFlag": "N",
      "BitsAllocated": 16,
      "BitsStored": 16,
      "BodyPartExamined": "BRAIN",
      "Columns": 832,
      "EchoNumbers": 1,
      "EchoTime": 37.0,
      "EchoTrainLength": 104,
      "FlipAngle": 52.0,
      "HighBit": 15,
      "ImageOrientationPatient": [0.99896542871499, 0.00902102800957, 0.0445723376762, 0.00278967007465, 0.96612551299097, -0.2580575728182],
      "ImagePositionPatient": [-836.36272136473, -835.51175289248, 141.51545233248],
      "ImageType": [
        "ORIGINAL",
        "PRIMARY",
        "P",
        "MB",
        "ND",
        "MOSAIC"
],
      "ImagedNucleus": "1H",
      "ImagingFrequency": 123.259104,
      "InPlanePhaseEncodingDirection": "COL",
      "LargestImagePixelValue": 4095,
      "MRAcquisitionType": "2D",
      "MagneticFieldStrength": 3.0,
      "Manufacturer": "SIEMENS",
      "ManufacturerModelName": "Prisma_fit",
      "Modality": "MR",
      "NumberOfAverages": 1.0,
      "NumberOfPhaseEncodingSteps": 104,
      "PercentPhaseFieldOfView": 100.0,
      "PercentSampling": 100.0,
      "PerformedProcedureStepStartTime": "120338.588000",
      "PhotometricInterpretation": "MONOCHROME2",
      "PixelBandwidth": 2290.0,
      "PixelRepresentation": 0,
      "PixelSpacing": [2.0, 2.0],
      "ProtocolName": "func_task-things_run-2",
      "RepetitionTime": 1490.0,
      "RescaleIntercept": -4096.0,
      "RescaleSlope": 2.0,
      "RescaleType": "US",
      "Rows": 832,
      "SAR": 0.0593548999034,
      "SamplesPerPixel": 1,
      "ScanOptions": "FS",
      "ScanningSequence": "EP",
      "SequenceName": "epfid2d1_104",
      "SequenceVariant": [
        "SK",
        "SS"
],
      "SeriesDescription": "func_task-things_run-2",
      "SeriesNumber": 14,
      "SeriesTime": "132721.040000",
      "SliceLocation": -40.951428095534,
      "SliceThickness": 2.0,
      "SmallestImagePixelValue": 0,
      "SoftwareVersions": "syngo MR E11",
      "SpacingBetweenSlices": 2.0000000009706,
      "SpecificCharacterSet": "ISO_IR 100",
      "StudyID": "1",
      "StudyTime": "120338.480000",
      "TransmitCoilName": "Body",
      "VariableFlipAngleFlag": "N",
      "WindowCenterWidthExplanation": "Algo1",
      "dBdt": 0.0},
    "slices": {}
  },
  "time": {
    "samples": {
      "AcquisitionNumber": [1, 2, 3, 4, 5, 6, 7, 8, 9, 10, 11, 12, 13, 14, 15, 16, 17, 18, 19, 20, 21, 22, 23, 24, 25, 26, 27, 28, 29, 30, 31, 32, 33, 34, 35, 36, 37, 38, 39, 40, 41, 42, 43, 44, 45, 46, 47, 48, 49, 50, 51, 52, 53, 54, 55, 56, 57, 58, 59, 60, 61, 62, 63, 64, 65, 66, 67, 68, 69, 70, 71, 72, 73, 74, 75, 76, 77, 78, 79, 80, 81, 82, 83, 84, 85, 86, 87, 88, 89, 90, 91, 92, 93, 94, 95, 96, 97, 98, 99, 100, 101, 102, 103, 104, 105, 106, 107, 108, 109, 110, 111, 112, 113, 114, 115, 116, 117, 118, 119, 120, 121, 122, 123, 124, 125, 126, 127, 128, 129, 130, 131, 132, 133, 134, 135, 136, 137, 138, 139, 140, 141, 142, 143, 144, 145, 146, 147, 148, 149, 150, 151, 152, 153, 154, 155, 156, 157, 158, 159, 160, 161, 162, 163, 164, 165, 166, 167, 168, 169, 170, 171, 172, 173, 174, 175, 176, 177, 178, 179, 180, 181, 182, 183, 184, 185, 186, 187, 188, 189, 190],
      "AcquisitionTime": ["132617.217500", "132618.707500", "132620.197500", "132621.687500", "132623.177500", "132624.667500", "132626.157500", "132627.647500", "132629.137500", "132630.627500", "132632.117500", "132633.607500", "132635.097500", "132636.587500", "132638.077500", "132639.567500", "132641.057500", "132642.547500", "132644.037500", "132645.527500", "132647.017500", "132648.507500", "132649.997500", "132651.487500", "132652.977500", "132654.467500", "132655.957500", "132657.447500", "132658.937500", "132700.427500", "132701.917500", "132703.407500", "132704.897500", "132706.387500", "132707.877500", "132709.367500", "132710.857500", "132712.347500", "132713.837500", "132715.327500", "132716.817500", "132718.307500", "132719.797500", "132721.287500", "132722.777500", "132724.267500", "132725.757500", "132727.247500", "132728.737500", "132730.227500", "132731.717500", "132733.207500", "132734.697500", "132736.187500", "132737.677500", "132739.167500", "132740.657500", "132742.147500", "132743.637500", "132745.127500", "132746.617500", "132748.107500", "132749.597500", "132751.087500", "132752.577500", "132754.067500", "132755.557500", "132757.047500", "132758.537500", "132800.027500", "132801.517500", "132803.007500", "132804.497500", "132805.987500", "132807.477500", "132808.967500", "132810.457500", "132811.947500", "132813.437500", "132814.927500", "132816.417500", "132817.907500", "132819.397500", "132820.887500", "132822.377500", "132823.867500", "132825.357500", "132826.847500", "132828.337500", "132829.827500", "132831.317500", "132832.807500", "132834.297500", "132835.787500", "132837.277500", "132838.767500", "132840.257500", "132841.747500", "132843.237500", "132844.727500", "132846.217500", "132847.707500", "132849.197500", "132850.687500", "132852.177500", "132853.667500", "132855.157500", "132856.647500", "132858.137500", "132859.627500", "132901.117500", "132902.607500", "132904.097500", "132905.587500", "132907.077500", "132908.567500", "132910.057500", "132911.547500", "132913.037500", "132914.527500", "132916.017500", "132917.507500", "132918.997500", "132920.487500", "132921.977500", "132923.467500", "132924.957500", "132926.447500", "132927.937500", "132929.427500", "132930.917500", "132932.407500", "132933.897500", "132935.387500", "132936.877500", "132938.367500", "132939.857500", "132941.347500", "132942.837500", "132944.327500", "132945.817500", "132947.307500", "132948.797500", "132950.287500", "132951.777500", "132953.267500", "132954.757500", "132956.247500", "132957.737500", "132959.227500", "133000.717500", "133002.207500", "133003.697500", "133005.187500", "133006.677500", "133008.167500", "133009.657500", "133011.147500", "133012.637500", "133014.127500", "133015.617500", "133017.107500", "133018.597500", "133020.087500", "133021.577500", "133023.067500", "133024.557500", "133026.047500", "133027.537500", "133029.027500", "133030.517500", "133032.007500", "133033.497500", "133034.987500", "133036.477500", "133037.967500", "133039.457500", "133040.947500", "133042.437500", "133043.927500", "133045.417500", "133046.907500", "133048.397500", "133049.887500", "133051.377500", "133052.867500", "133054.357500", "133055.847500", "133057.337500", "133058.827500"],
      "ContentTime": ["132721.042000", "132721.045000", "132721.047000", "132721.050000", "132721.052000", "132721.055000", "132721.057000", "132721.059000", "132721.062000", "132721.064000", "132741.040000", "132741.042000", "132741.045000", "132741.047000", "132741.050000", "132741.052000", "132741.054000", "132741.057000", "132741.059000", "132741.069000", "132741.072000", "132741.074000", "132741.077000", "132741.079000", "132741.082000", "132741.084000", "132741.086000", "132741.089000", "132741.091000", "132741.094000", "132741.096000", "132801.038000", "132801.041000", "132801.043000", "132801.046000", "132801.048000", "132801.051000", "132801.053000", "132801.056000", "132801.058000", "132801.061000", "132801.063000", "132801.066000", "132801.068000", "132801.071000", "132801.073000", "132801.075000", "132801.078000", "132801.080000", "132801.083000", "132801.085000", "132821.036000", "132821.039000", "132821.041000", "132821.044000", "132821.046000", "132821.049000", "132821.051000", "132821.054000", "132821.056000", "132821.058000", "132821.061000", "132821.063000", "132821.066000", "132821.068000", "132821.071000", "132821.073000", "132821.076000", "132821.078000", "132821.081000", "132821.083000", "132841.070000", "132841.073000", "132841.076000", "132841.079000", "132841.081000", "132841.084000", "132841.086000", "132841.089000", "132841.091000", "132841.094000", "132841.096000", "132841.099000", "132841.101000", "132841.103000", "132841.106000", "132841.108000", "132841.111000", "132841.113000", "132841.116000", "132841.118000", "132921.083000", "132921.086000", "132921.088000", "132921.091000", "132921.093000", "132921.096000", "132921.098000", "132921.101000", "132921.103000", "132921.106000", "132921.108000", "132921.110000", "132921.113000", "132921.115000", "132921.118000", "132921.120000", "132921.123000", "132921.125000", "132921.128000", "132921.130000", "132921.133000", "132921.135000", "132921.138000", "132921.140000", "132921.143000", "132921.145000", "132921.147000", "132921.150000", "132921.152000", "132921.155000", "132921.157000", "132921.160000", "133001.063000", "133001.065000", "133001.068000", "133001.070000", "133001.073000", "133001.075000", "133001.078000", "133001.080000", "133001.083000", "133001.085000", "133001.088000", "133001.090000", "133001.093000", "133001.096000", "133001.099000", "133001.101000", "133001.104000", "133001.106000", "133001.109000", "133001.112000", "133001.115000", "133001.118000", "133001.120000", "133001.123000", "133001.125000", "133001.128000", "133041.082000", "133041.084000", "133041.087000", "133041.089000", "133041.092000", "133041.094000", "133041.097000", "133041.099000", "133041.102000", "133041.104000", "133041.107000", "133041.117000", "133041.120000", "133041.122000", "133041.125000", "133041.127000", "133041.130000", "133041.132000", "133041.134000", "133041.137000", "133041.139000", "133041.142000", "133041.144000", "133041.147000", "133041.149000", "133041.158000", "133041.161000", "133100.841000", "133100.843000", "133100.846000", "133100.848000", "133100.851000", "133100.854000", "133100.856000", "133100.859000", "133100.861000", "133100.864000", "133100.866000", "133100.869000", "133100.872000", "133100.874000"],
      "InstanceCreationTime": ["132721.042000", "132721.045000", "132721.047000", "132721.050000", "132721.052000", "132721.055000", "132721.057000", "132721.059000", "132721.062000", "132721.064000", "132741.040000", "132741.042000", "132741.045000", "132741.047000", "132741.050000", "132741.052000", "132741.054000", "132741.057000", "132741.059000", "132741.069000", "132741.072000", "132741.074000", "132741.077000", "132741.079000", "132741.082000", "132741.084000", "132741.086000", "132741.089000", "132741.091000", "132741.094000", "132741.096000", "132801.038000", "132801.041000", "132801.043000", "132801.046000", "132801.048000", "132801.051000", "132801.053000", "132801.056000", "132801.058000", "132801.061000", "132801.063000", "132801.066000", "132801.068000", "132801.071000", "132801.073000", "132801.075000", "132801.078000", "132801.080000", "132801.083000", "132801.085000", "132821.036000", "132821.039000", "132821.041000", "132821.044000", "132821.046000", "132821.049000", "132821.051000", "132821.054000", "132821.056000", "132821.058000", "132821.061000", "132821.063000", "132821.066000", "132821.068000", "132821.071000", "132821.073000", "132821.076000", "132821.078000", "132821.081000", "132821.083000", "132841.070000", "132841.073000", "132841.076000", "132841.079000", "132841.081000", "132841.084000", "132841.086000", "132841.089000", "132841.091000", "132841.094000", "132841.096000", "132841.099000", "132841.101000", "132841.103000", "132841.106000", "132841.108000", "132841.111000", "132841.113000", "132841.116000", "132841.118000", "132921.083000", "132921.086000", "132921.088000", "132921.091000", "132921.093000", "132921.096000", "132921.098000", "132921.101000", "132921.103000", "132921.106000", "132921.108000", "132921.110000", "132921.113000", "132921.115000", "132921.118000", "132921.120000", "132921.123000", "132921.125000", "132921.128000", "132921.130000", "132921.133000", "132921.135000", "132921.138000", "132921.140000", "132921.143000", "132921.145000", "132921.147000", "132921.150000", "132921.152000", "132921.155000", "132921.157000", "132921.160000", "133001.063000", "133001.065000", "133001.068000", "133001.070000", "133001.073000", "133001.075000", "133001.078000", "133001.080000", "133001.083000", "133001.085000", "133001.088000", "133001.090000", "133001.093000", "133001.096000", "133001.099000", "133001.101000", "133001.104000", "133001.106000", "133001.109000", "133001.112000", "133001.115000", "133001.118000", "133001.120000", "133001.123000", "133001.125000", "133001.128000", "133041.082000", "133041.084000", "133041.087000", "133041.089000", "133041.092000", "133041.094000", "133041.097000", "133041.099000", "133041.102000", "133041.104000", "133041.107000", "133041.117000", "133041.120000", "133041.122000", "133041.125000", "133041.127000", "133041.130000", "133041.132000", "133041.134000", "133041.137000", "133041.139000", "133041.142000", "133041.144000", "133041.147000", "133041.149000", "133041.158000", "133041.161000", "133100.841000", "133100.843000", "133100.846000", "133100.848000", "133100.851000", "133100.854000", "133100.856000", "133100.859000", "133100.861000", "133100.864000", "133100.866000", "133100.869000", "133100.872000", "133100.874000"],
      "InstanceNumber": [1, 2, 3, 4, 5, 6, 7, 8, 9, 10, 11, 12, 13, 14, 15, 16, 17, 18, 19, 20, 21, 22, 23, 24, 25, 26, 27, 28, 29, 30, 31, 32, 33, 34, 35, 36, 37, 38, 39, 40, 41, 42, 43, 44, 45, 46, 47, 48, 49, 50, 51, 52, 53, 54, 55, 56, 57, 58, 59, 60, 61, 62, 63, 64, 65, 66, 67, 68, 69, 70, 71, 72, 73, 74, 75, 76, 77, 78, 79, 80, 81, 82, 83, 84, 85, 86, 87, 88, 89, 90, 91, 92, 93, 94, 95, 96, 97, 98, 99, 100, 101, 102, 103, 104, 105, 106, 107, 108, 109, 110, 111, 112, 113, 114, 115, 116, 117, 118, 119, 120, 121, 122, 123, 124, 125, 126, 127, 128, 129, 130, 131, 132, 133, 134, 135, 136, 137, 138, 139, 140, 141, 142, 143, 144, 145, 146, 147, 148, 149, 150, 151, 152, 153, 154, 155, 156, 157, 158, 159, 160, 161, 162, 163, 164, 165, 166, 167, 168, 169, 170, 171, 172, 173, 174, 175, 176, 177, 178, 179, 180, 181, 182, 183, 184, 185, 186, 187, 188, 189, 190],
      "WindowCenter": [4862.0, 4834.0, 4862.0, 4838.0, 4860.0, 4862.0, 4862.0, 4862.0, 4866.0, 4864.0, 4862.0, 4862.0, 4864.0, 4860.0, 4864.0, 4862.0, 4862.0, 4866.0, 4864.0, 4862.0, 4862.0, 4858.0, 4858.0, 4862.0, 4862.0, 4864.0, 4862.0, 4864.0, 4862.0, 4864.0, 4860.0, 4866.0, 4838.0, 4864.0, 4864.0, 4866.0, 4862.0, 4860.0, 4862.0, 4862.0, 4862.0, 4862.0, 4862.0, 4862.0, 4860.0, 4864.0, 4862.0, 4864.0, 4864.0, 4864.0, 4840.0, 4862.0, 4862.0, 4862.0, 4860.0, 4864.0, 4864.0, 4864.0, 4862.0, 4862.0, 4862.0, 4866.0, 4864.0, 4864.0, 4864.0, 4862.0, 4864.0, 4860.0, 4864.0, 4864.0, 4862.0, 4862.0, 4864.0, 4864.0, 4862.0, 4862.0, 4862.0, 4862.0, 4860.0, 4864.0, 4862.0, 4866.0, 4866.0, 4862.0, 4868.0, 4862.0, 4864.0, 4866.0, 4860.0, 4862.0, 4866.0, 4864.0, 4864.0, 4864.0, 4858.0, 4862.0, 4866.0, 4862.0, 4862.0, 4864.0, 4862.0, 4866.0, 4862.0, 4868.0, 4864.0, 4862.0, 4864.0, 4866.0, 4860.0, 4866.0, 4838.0, 4862.0, 4864.0, 4862.0, 4862.0, 4864.0, 4862.0, 4864.0, 4864.0, 4864.0, 4862.0, 4864.0, 4862.0, 4864.0, 4862.0, 4864.0, 4860.0, 4866.0, 4864.0, 4866.0, 4860.0, 4862.0, 4866.0, 4864.0, 4862.0, 4864.0, 4862.0, 4864.0, 4864.0, 4864.0, 4862.0, 4864.0, 4864.0, 4860.0, 4864.0, 4860.0, 4864.0, 4868.0, 4864.0, 4860.0, 4864.0, 4862.0, 4864.0, 4864.0, 4864.0, 4864.0, 4864.0, 4866.0, 4864.0, 4864.0, 4862.0, 4840.0, 4840.0, 4862.0, 4864.0, 4862.0, 4864.0, 4860.0, 4862.0, 4864.0, 4862.0, 4862.0, 4864.0, 4864.0, 4840.0, 4866.0, 4862.0, 4864.0, 4864.0, 4864.0, 4866.0, 4868.0, 4864.0, 4864.0, 4862.0, 4864.0, 4862.0, 4862.0, 4864.0, 4864.0],
      "WindowWidth": [18610.0, 18574.0, 18606.0, 18576.0, 18608.0, 18610.0, 18610.0, 18610.0, 18608.0, 18612.0, 18612.0, 18610.0, 18608.0, 18608.0, 18612.0, 18606.0, 18612.0, 18614.0, 18608.0, 18606.0, 18610.0, 18606.0, 18604.0, 18606.0, 18604.0, 18608.0, 18608.0, 18612.0, 18608.0, 18610.0, 18610.0, 18606.0, 18580.0, 18610.0, 18610.0, 18614.0, 18610.0, 18606.0, 18606.0, 18604.0, 18608.0, 18612.0, 18604.0, 18610.0, 18610.0, 18610.0, 18606.0, 18610.0, 18608.0, 18610.0, 18574.0, 18608.0, 18612.0, 18606.0, 18610.0, 18614.0, 18610.0, 18608.0, 18614.0, 18606.0, 18608.0, 18610.0, 18612.0, 18610.0, 18608.0, 18606.0, 18604.0, 18610.0, 18612.0, 18610.0, 18612.0, 18608.0, 18606.0, 18610.0, 18602.0, 18606.0, 18606.0, 18608.0, 18608.0, 18612.0, 18610.0, 18612.0, 18608.0, 18610.0, 18610.0, 18610.0, 18608.0, 18618.0, 18610.0, 18614.0, 18608.0, 18610.0, 18612.0, 18606.0, 18610.0, 18610.0, 18608.0, 18606.0, 18614.0, 18610.0, 18612.0, 18608.0, 18614.0, 18614.0, 18608.0, 18610.0, 18610.0, 18612.0, 18608.0, 18616.0, 18572.0, 18608.0, 18608.0, 18608.0, 18610.0, 18610.0, 18612.0, 18608.0, 18612.0, 18608.0, 18610.0, 18612.0, 18606.0, 18604.0, 18606.0, 18612.0, 18606.0, 18606.0, 18608.0, 18612.0, 18608.0, 18612.0, 18612.0, 18608.0, 18608.0, 18612.0, 18608.0, 18604.0, 18608.0, 18612.0, 18608.0, 18608.0, 18608.0, 18610.0, 18604.0, 18606.0, 18616.0, 18612.0, 18606.0, 18604.0, 18606.0, 18606.0, 18610.0, 18612.0, 18612.0, 18612.0, 18612.0, 18610.0, 18610.0, 18612.0, 18608.0, 18584.0, 18578.0, 18610.0, 18608.0, 18610.0, 18608.0, 18610.0, 18608.0, 18612.0, 18614.0, 18608.0, 18604.0, 18612.0, 18574.0, 18612.0, 18602.0, 18608.0, 18608.0, 18610.0, 18606.0, 18616.0, 18610.0, 18610.0, 18610.0, 18610.0, 18608.0, 18608.0, 18608.0, 18614.0]
    },
    "slices": {}
  }
}