{
  "AcquisitionMatrixPE": 104,
  "AcquisitionNumber": 1,
  "AcquisitionTime": "13:47:25.990000",
  "BandwidthPerPixelPhaseEncode": 17.17,
  "BaseResolution": 104,
  "BodyPartExamined": "BRAIN",
  "CoilString": "HC1-7;NC1_2",
  "ConsistencyInfo": "N4_VE11C_LATEST_20160120",
  "ConversionSoftware": "dcm2niix",
  "ConversionSoftwareVersion": "v1.0.20190902",
  "DerivedVendorReportedEchoSpacing": 0.000560011,
  "DeviceSerialNumber": "167006",
  "DwellTime": 2.1e-06,
  "EchoTime": 0.037,
  "EchoTrainLength": 104,
  "EffectiveEchoSpacing": 0.000560011,
  "FlipAngle": 52,
  "HeudiconvVersion": "0.10.0",
  "ImageComments": "Unaliased_MB4_PE3_LB",
  "ImageOrientationPatientDICOM": [0.998965, 0.00902103, 0.0445723, 0.00278967, 0.966125, -0.258058],
  "ImageType": [
    "ORIGINAL",
    "PRIMARY",
    "P",
    "MB",
    "ND",
    "MOSAIC"
],
  "ImagingFrequency": 123.259,
  "InPlanePhaseEncodingDirectionDICOM": "COL",
  "InstitutionAddress": "Chemin_Queen-Mary_4565_Montreal_District_CA_H3W_1W5",
  "InstitutionName": "IUGM",
  "InstitutionalDepartmentName": "Department",
  "MRAcquisitionType": "2D",
  "MagneticFieldStrength": 3,
  "Manufacturer": "Siemens",
  "ManufacturersModelName": "Prisma_fit",
  "Modality": "MR",
  "MultibandAccelerationFactor": 4,
  "PartialFourier": 1,
  "PatientPosition": "HFS",
  "PercentPhaseFOV": 100,
  "PhaseEncodingDirection": "j",
  "PhaseEncodingSteps": 104,
  "PhaseResolution": 1,
  "PixelBandwidth": 2290,
  "ProcedureStepDescription": "memory_things",
  "ProtocolName": "func_task-things_run-5",
  "PulseSequenceDetails": "%CustomerSeq%_cmrr_mbep2d_bold",
  "ReceiveCoilActiveElements": "HC1-7;NC1,2",
  "ReceiveCoilName": "HeadNeck_64",
  "ReconMatrixPE": 104,
  "RepetitionTime": 1.49,
  "SAR": 0.0593549,
  "ScanOptions": "FS",
  "ScanningSequence": "EP",
  "SequenceName": "epfid2d1_104",
  "SequenceVariant": "SK_SS",
  "SeriesDescription": "func_task-things_run-5",
  "SeriesNumber": 23,
  "ShimSetting": [638, -7220, -8784, 756, 32, -15, 66, -10],
  "SliceThickness": 2,
  "SliceTiming": [0, 0.7825, 0.0975, 0.8825, 0.195, 0.98, 0.2925, 1.0775, 0.3925, 1.175, 0.49, 1.2725, 0.5875, 1.3725, 0.685, 0, 0.7825, 0.0975, 0.8825, 0.195, 0.98, 0.2925, 1.0775, 0.3925, 1.175, 0.49, 1.2725, 0.5875, 1.3725, 0.685, 0, 0.7825, 0.0975, 0.8825, 0.195, 0.98, 0.2925, 1.0775, 0.3925, 1.175, 0.49, 1.2725, 0.5875, 1.3725, 0.685, 0, 0.7825, 0.0975, 0.8825, 0.195, 0.98, 0.2925, 1.0775, 0.3925, 1.175, 0.49, 1.2725, 0.5875, 1.3725, 0.685],
  "SoftwareVersions": "syngo_MR_E11",
  "SpacingBetweenSlices": 2,
  "StationName": "MRC35049",
  "TaskName": "things",
  "TotalReadoutTime": 0.0576811,
  "TxRefAmp": 252.515,
  "WipMemBlock": "77822174-ee51-40fa-84db-c739f1e4f4b9||Sequence: R016 ve11c/master r/e634e98; Dec 19 2017 11:00:25 by eja",
  "dcmmeta_affine": [
    [-1.997930884361267, 0.005579340271651745, 0.0907808318734169, 106.51033782958984],
    [-0.018042055889964104, 1.9322509765625, -0.515829861164093, -73.41678619384766],
    [0.08914467692375183, 0.516115128993988, 1.9302016496658325, -67.06166076660156],
    [0.0, 0.0, 0.0, 1.0]
],
  "dcmmeta_reorient_transform": [
    [0.0, -1.0, 0.0, 103.0],
    [1.0, 0.0, 0.0, 0.0],
    [0.0, 0.0, 1.0, 0.0],
    [0.0, 0.0, 0.0, 1.0]
],
  "dcmmeta_shape": [104, 104, 60, 190],
  "dcmmeta_slice_dim": 2,
  "dcmmeta_version": 0.6,
  "global": {
    "const": {
      "AcquisitionMatrix": [104, 0, 0, 104],
      "AngioFlag": "N",
      "BitsAllocated": 16,
      "BitsStored": 16,
      "BodyPartExamined": "BRAIN",
      "Columns": 832,
      "EchoNumbers": 1,
      "EchoTime": 37.0,
      "EchoTrainLength": 104,
      "FlipAngle": 52.0,
      "HighBit": 15,
      "ImageOrientationPatient": [0.99896542871499, 0.00902102800957, 0.0445723376762, 0.00278967007465, 0.96612551299097, -0.2580575728182],
      "ImagePositionPatient": [-836.36272136473, -835.51175289248, 141.51545233248],
      "ImageType": [
        "ORIGINAL",
        "PRIMARY",
        "P",
        "MB",
        "ND",
        "MOSAIC"
],
      "ImagedNucleus": "1H",
      "ImagingFrequency": 123.259112,
      "InPlanePhaseEncodingDirection": "COL",
      "LargestImagePixelValue": 4095,
      "MRAcquisitionType": "2D",
      "MagneticFieldStrength": 3.0,
      "Manufacturer": "SIEMENS",
      "ManufacturerModelName": "Prisma_fit",
      "Modality": "MR",
      "NumberOfAverages": 1.0,
      "NumberOfPhaseEncodingSteps": 104,
      "PercentPhaseFieldOfView": 100.0,
      "PercentSampling": 100.0,
      "PerformedProcedureStepStartTime": "120338.588000",
      "PhotometricInterpretation": "MONOCHROME2",
      "PixelBandwidth": 2290.0,
      "PixelRepresentation": 0,
      "PixelSpacing": [2.0, 2.0],
      "ProtocolName": "func_task-things_run-5",
      "RepetitionTime": 1490.0,
      "RescaleIntercept": -4096.0,
      "RescaleSlope": 2.0,
      "RescaleType": "US",
      "Rows": 832,
      "SAR": 0.0593548999034,
      "SamplesPerPixel": 1,
      "ScanOptions": "FS",
      "ScanningSequence": "EP",
      "SequenceName": "epfid2d1_104",
      "SequenceVariant": [
        "SK",
        "SS"
],
      "SeriesDescription": "func_task-things_run-5",
      "SeriesNumber": 23,
      "SeriesTime": "134841.038000",
      "SliceLocation": -40.951428095534,
      "SliceThickness": 2.0,
      "SmallestImagePixelValue": 0,
      "SoftwareVersions": "syngo MR E11",
      "SpacingBetweenSlices": 2.0000000009706,
      "SpecificCharacterSet": "ISO_IR 100",
      "StudyID": "1",
      "StudyTime": "120338.480000",
      "TransmitCoilName": "Body",
      "VariableFlipAngleFlag": "N",
      "WindowCenterWidthExplanation": "Algo1",
      "dBdt": 0.0},
    "slices": {}
  },
  "time": {
    "samples": {
      "AcquisitionNumber": [1, 2, 3, 4, 5, 6, 7, 8, 9, 10, 11, 12, 13, 14, 15, 16, 17, 18, 19, 20, 21, 22, 23, 24, 25, 26, 27, 28, 29, 30, 31, 32, 33, 34, 35, 36, 37, 38, 39, 40, 41, 42, 43, 44, 45, 46, 47, 48, 49, 50, 51, 52, 53, 54, 55, 56, 57, 58, 59, 60, 61, 62, 63, 64, 65, 66, 67, 68, 69, 70, 71, 72, 73, 74, 75, 76, 77, 78, 79, 80, 81, 82, 83, 84, 85, 86, 87, 88, 89, 90, 91, 92, 93, 94, 95, 96, 97, 98, 99, 100, 101, 102, 103, 104, 105, 106, 107, 108, 109, 110, 111, 112, 113, 114, 115, 116, 117, 118, 119, 120, 121, 122, 123, 124, 125, 126, 127, 128, 129, 130, 131, 132, 133, 134, 135, 136, 137, 138, 139, 140, 141, 142, 143, 144, 145, 146, 147, 148, 149, 150, 151, 152, 153, 154, 155, 156, 157, 158, 159, 160, 161, 162, 163, 164, 165, 166, 167, 168, 169, 170, 171, 172, 173, 174, 175, 176, 177, 178, 179, 180, 181, 182, 183, 184, 185, 186, 187, 188, 189, 190],
      "AcquisitionTime": ["134725.990000", "134727.480000", "134728.970000", "134730.460000", "134731.950000", "134733.440000", "134734.930000", "134736.420000", "134737.910000", "134739.400000", "134740.890000", "134742.380000", "134743.870000", "134745.360000", "134746.850000", "134748.340000", "134749.830000", "134751.320000", "134752.810000", "134754.300000", "134755.790000", "134757.280000", "134758.770000", "134800.260000", "134801.750000", "134803.240000", "134804.730000", "134806.220000", "134807.710000", "134809.200000", "134810.690000", "134812.180000", "134813.670000", "134815.160000", "134816.650000", "134818.140000", "134819.630000", "134821.120000", "134822.610000", "134824.100000", "134825.590000", "134827.080000", "134828.570000", "134830.060000", "134831.550000", "134833.040000", "134834.530000", "134836.020000", "134837.510000", "134839.000000", "134840.490000", "134841.980000", "134843.470000", "134844.960000", "134846.450000", "134847.940000", "134849.430000", "134850.920000", "134852.410000", "134853.900000", "134855.390000", "134856.880000", "134858.370000", "134859.860000", "134901.350000", "134902.840000", "134904.330000", "134905.820000", "134907.310000", "134908.800000", "134910.290000", "134911.780000", "134913.270000", "134914.760000", "134916.250000", "134917.740000", "134919.230000", "134920.720000", "134922.210000", "134923.700000", "134925.190000", "134926.680000", "134928.170000", "134929.660000", "134931.150000", "134932.640000", "134934.130000", "134935.620000", "134937.110000", "134938.600000", "134940.090000", "134941.580000", "134943.070000", "134944.560000", "134946.050000", "134947.540000", "134949.030000", "134950.520000", "134952.010000", "134953.500000", "134954.990000", "134956.480000", "134957.970000", "134959.460000", "135000.950000", "135002.440000", "135003.930000", "135005.420000", "135006.910000", "135008.400000", "135009.890000", "135011.380000", "135012.870000", "135014.360000", "135015.850000", "135017.340000", "135018.830000", "135020.320000", "135021.810000", "135023.300000", "135024.790000", "135026.280000", "135027.770000", "135029.260000", "135030.750000", "135032.240000", "135033.730000", "135035.220000", "135036.710000", "135038.200000", "135039.690000", "135041.180000", "135042.670000", "135044.160000", "135045.650000", "135047.140000", "135048.630000", "135050.120000", "135051.610000", "135053.100000", "135054.590000", "135056.080000", "135057.570000", "135059.060000", "135100.550000", "135102.040000", "135103.530000", "135105.020000", "135106.510000", "135108.000000", "135109.490000", "135110.980000", "135112.470000", "135113.960000", "135115.450000", "135116.940000", "135118.430000", "135119.920000", "135121.410000", "135122.900000", "135124.390000", "135125.880000", "135127.370000", "135128.860000", "135130.350000", "135131.840000", "135133.330000", "135134.820000", "135136.310000", "135137.800000", "135139.290000", "135140.780000", "135142.270000", "135143.760000", "135145.250000", "135146.740000", "135148.230000", "135149.720000", "135151.210000", "135152.700000", "135154.190000", "135155.680000", "135157.170000", "135158.660000", "135200.150000", "135201.640000", "135203.130000", "135204.620000", "135206.110000", "135207.600000"],
      "ContentTime": ["134841.040000", "134841.049000", "134841.052000", "134841.054000", "134841.056000", "134841.059000", "134841.061000", "134841.064000", "134841.066000", "134841.069000", "134841.071000", "134841.074000", "134841.076000", "134841.079000", "134841.081000", "134841.084000", "134841.086000", "134841.089000", "134841.091000", "134841.094000", "134901.044000", "134901.047000", "134901.050000", "134901.052000", "134901.055000", "134901.057000", "134901.060000", "134901.063000", "134901.065000", "134901.068000", "134901.071000", "134901.074000", "134901.077000", "134901.080000", "134901.082000", "134901.085000", "134901.087000", "134901.089000", "134901.092000", "134901.094000", "134921.042000", "134921.045000", "134921.048000", "134921.050000", "134921.053000", "134921.055000", "134921.057000", "134921.060000", "134921.062000", "134921.065000", "134921.067000", "134921.070000", "134921.072000", "134921.075000", "134921.077000", "134921.079000", "134921.082000", "134921.084000", "134921.087000", "134921.089000", "134921.092000", "134941.030000", "134941.032000", "134941.035000", "134941.037000", "134941.040000", "134941.042000", "134941.045000", "134941.047000", "134941.050000", "134941.052000", "134941.055000", "134941.057000", "134941.060000", "134941.062000", "134941.064000", "134941.067000", "134941.069000", "134941.072000", "134941.074000", "134941.077000", "135001.035000", "135001.037000", "135001.048000", "135001.050000", "135001.053000", "135001.055000", "135001.058000", "135001.060000", "135001.063000", "135001.065000", "135001.067000", "135001.070000", "135001.072000", "135001.075000", "135001.077000", "135001.080000", "135001.082000", "135001.085000", "135001.087000", "135001.090000", "135041.066000", "135041.069000", "135041.071000", "135041.074000", "135041.076000", "135041.079000", "135041.081000", "135041.084000", "135041.086000", "135041.088000", "135041.091000", "135041.093000", "135041.096000", "135041.098000", "135041.101000", "135041.103000", "135041.106000", "135041.108000", "135041.111000", "135041.113000", "135041.116000", "135041.118000", "135041.120000", "135041.123000", "135041.125000", "135041.128000", "135041.130000", "135041.133000", "135041.135000", "135121.068000", "135121.070000", "135121.073000", "135121.075000", "135121.078000", "135121.080000", "135121.083000", "135121.085000", "135121.088000", "135121.090000", "135121.093000", "135121.095000", "135121.098000", "135121.100000", "135121.103000", "135121.105000", "135121.108000", "135121.110000", "135121.112000", "135121.115000", "135121.117000", "135121.120000", "135121.122000", "135121.125000", "135121.128000", "135121.131000", "135121.133000", "135201.083000", "135201.086000", "135201.088000", "135201.091000", "135201.093000", "135201.096000", "135201.098000", "135201.101000", "135201.103000", "135201.106000", "135201.108000", "135201.111000", "135201.113000", "135201.116000", "135201.118000", "135201.121000", "135201.123000", "135201.126000", "135201.128000", "135201.131000", "135201.133000", "135201.136000", "135201.138000", "135201.141000", "135201.143000", "135201.146000", "135201.149000", "135209.502000", "135209.505000", "135209.507000", "135209.510000", "135209.512000", "135209.515000"],
      "InstanceCreationTime": ["134841.040000", "134841.049000", "134841.052000", "134841.054000", "134841.056000", "134841.059000", "134841.061000", "134841.064000", "134841.066000", "134841.069000", "134841.071000", "134841.074000", "134841.076000", "134841.079000", "134841.081000", "134841.084000", "134841.086000", "134841.089000", "134841.091000", "134841.094000", "134901.044000", "134901.047000", "134901.050000", "134901.052000", "134901.055000", "134901.057000", "134901.060000", "134901.063000", "134901.065000", "134901.068000", "134901.071000", "134901.074000", "134901.077000", "134901.080000", "134901.082000", "134901.085000", "134901.087000", "134901.089000", "134901.092000", "134901.094000", "134921.042000", "134921.045000", "134921.048000", "134921.050000", "134921.053000", "134921.055000", "134921.057000", "134921.060000", "134921.062000", "134921.065000", "134921.067000", "134921.070000", "134921.072000", "134921.075000", "134921.077000", "134921.079000", "134921.082000", "134921.084000", "134921.087000", "134921.089000", "134921.092000", "134941.030000", "134941.032000", "134941.035000", "134941.037000", "134941.040000", "134941.042000", "134941.045000", "134941.047000", "134941.050000", "134941.052000", "134941.055000", "134941.057000", "134941.060000", "134941.062000", "134941.064000", "134941.067000", "134941.069000", "134941.072000", "134941.074000", "134941.077000", "135001.035000", "135001.037000", "135001.048000", "135001.050000", "135001.053000", "135001.055000", "135001.058000", "135001.060000", "135001.063000", "135001.065000", "135001.067000", "135001.070000", "135001.072000", "135001.075000", "135001.077000", "135001.080000", "135001.082000", "135001.085000", "135001.087000", "135001.090000", "135041.066000", "135041.069000", "135041.071000", "135041.074000", "135041.076000", "135041.079000", "135041.081000", "135041.084000", "135041.086000", "135041.088000", "135041.091000", "135041.093000", "135041.096000", "135041.098000", "135041.101000", "135041.103000", "135041.106000", "135041.108000", "135041.111000", "135041.113000", "135041.116000", "135041.118000", "135041.120000", "135041.123000", "135041.125000", "135041.128000", "135041.130000", "135041.133000", "135041.135000", "135121.068000", "135121.070000", "135121.073000", "135121.075000", "135121.078000", "135121.080000", "135121.083000", "135121.085000", "135121.088000", "135121.090000", "135121.093000", "135121.095000", "135121.098000", "135121.100000", "135121.103000", "135121.105000", "135121.108000", "135121.110000", "135121.112000", "135121.115000", "135121.117000", "135121.120000", "135121.122000", "135121.125000", "135121.128000", "135121.131000", "135121.133000", "135201.083000", "135201.086000", "135201.088000", "135201.091000", "135201.093000", "135201.096000", "135201.098000", "135201.101000", "135201.103000", "135201.106000", "135201.108000", "135201.111000", "135201.113000", "135201.116000", "135201.118000", "135201.121000", "135201.123000", "135201.126000", "135201.128000", "135201.131000", "135201.133000", "135201.136000", "135201.138000", "135201.141000", "135201.143000", "135201.146000", "135201.149000", "135209.502000", "135209.505000", "135209.507000", "135209.510000", "135209.512000", "135209.515000"],
      "InstanceNumber": [1, 2, 3, 4, 5, 6, 7, 8, 9, 10, 11, 12, 13, 14, 15, 16, 17, 18, 19, 20, 21, 22, 23, 24, 25, 26, 27, 28, 29, 30, 31, 32, 33, 34, 35, 36, 37, 38, 39, 40, 41, 42, 43, 44, 45, 46, 47, 48, 49, 50, 51, 52, 53, 54, 55, 56, 57, 58, 59, 60, 61, 62, 63, 64, 65, 66, 67, 68, 69, 70, 71, 72, 73, 74, 75, 76, 77, 78, 79, 80, 81, 82, 83, 84, 85, 86, 87, 88, 89, 90, 91, 92, 93, 94, 95, 96, 97, 98, 99, 100, 101, 102, 103, 104, 105, 106, 107, 108, 109, 110, 111, 112, 113, 114, 115, 116, 117, 118, 119, 120, 121, 122, 123, 124, 125, 126, 127, 128, 129, 130, 131, 132, 133, 134, 135, 136, 137, 138, 139, 140, 141, 142, 143, 144, 145, 146, 147, 148, 149, 150, 151, 152, 153, 154, 155, 156, 157, 158, 159, 160, 161, 162, 163, 164, 165, 166, 167, 168, 169, 170, 171, 172, 173, 174, 175, 176, 177, 178, 179, 180, 181, 182, 183, 184, 185, 186, 187, 188, 189, 190],
      "WindowCenter": [4838.0, 4836.0, 4836.0, 4836.0, 4838.0, 4838.0, 4838.0, 4838.0, 4838.0, 4836.0, 4834.0, 4836.0, 4838.0, 4836.0, 4860.0, 4838.0, 4862.0, 4838.0, 4840.0, 4836.0, 4840.0, 4834.0, 4836.0, 4836.0, 4838.0, 4840.0, 4834.0, 4836.0, 4838.0, 4840.0, 4840.0, 4838.0, 4836.0, 4838.0, 4838.0, 4838.0, 4836.0, 4836.0, 4838.0, 4860.0, 4864.0, 4838.0, 4838.0, 4838.0, 4834.0, 4836.0, 4834.0, 4838.0, 4834.0, 4862.0, 4838.0, 4840.0, 4840.0, 4836.0, 4840.0, 4838.0, 4840.0, 4862.0, 4858.0, 4836.0, 4838.0, 4838.0, 4838.0, 4838.0, 4838.0, 4836.0, 4840.0, 4836.0, 4838.0, 4838.0, 4862.0, 4836.0, 4858.0, 4838.0, 4838.0, 4840.0, 4838.0, 4838.0, 4836.0, 4840.0, 4860.0, 4834.0, 4860.0, 4840.0, 4836.0, 4834.0, 4860.0, 4836.0, 4862.0, 4860.0, 4862.0, 4838.0, 4862.0, 4836.0, 4840.0, 4838.0, 4860.0, 4836.0, 4840.0, 4834.0, 4840.0, 4838.0, 4838.0, 4836.0, 4862.0, 4838.0, 4862.0, 4838.0, 4838.0, 4836.0, 4838.0, 4840.0, 4860.0, 4860.0, 4862.0, 4838.0, 4862.0, 4838.0, 4862.0, 4834.0, 4838.0, 4838.0, 4838.0, 4862.0, 4840.0, 4840.0, 4866.0, 4838.0, 4838.0, 4838.0, 4860.0, 4838.0, 4860.0, 4860.0, 4862.0, 4836.0, 4838.0, 4836.0, 4838.0, 4840.0, 4840.0, 4836.0, 4836.0, 4834.0, 4862.0, 4836.0, 4838.0, 4836.0, 4862.0, 4838.0, 4860.0, 4836.0, 4862.0, 4838.0, 4840.0, 4838.0, 4840.0, 4840.0, 4862.0, 4860.0, 4862.0, 4860.0, 4840.0, 4836.0, 4838.0, 4836.0, 4858.0, 4860.0, 4862.0, 4838.0, 4858.0, 4860.0, 4838.0, 4838.0, 4858.0, 4838.0, 4838.0, 4838.0, 4838.0, 4860.0, 4838.0, 4860.0, 4838.0, 4860.0, 4836.0, 4860.0, 4836.0, 4836.0, 4840.0, 4838.0],
      "WindowWidth": [18580.0, 18576.0, 18576.0, 18582.0, 18580.0, 18576.0, 18578.0, 18580.0, 18580.0, 18582.0, 18576.0, 18586.0, 18582.0, 18580.0, 18612.0, 18578.0, 18610.0, 18584.0, 18582.0, 18582.0, 18582.0, 18578.0, 18578.0, 18582.0, 18584.0, 18580.0, 18576.0, 18578.0, 18584.0, 18582.0, 18578.0, 18576.0, 18578.0, 18580.0, 18580.0, 18578.0, 18580.0, 18580.0, 18582.0, 18614.0, 18610.0, 18584.0, 18580.0, 18580.0, 18580.0, 18578.0, 18580.0, 18578.0, 18576.0, 18612.0, 18586.0, 18580.0, 18578.0, 18578.0, 18586.0, 18580.0, 18582.0, 18612.0, 18608.0, 18580.0, 18580.0, 18578.0, 18582.0, 18582.0, 18582.0, 18584.0, 18578.0, 18578.0, 18578.0, 18580.0, 18612.0, 18582.0, 18610.0, 18578.0, 18580.0, 18584.0, 18580.0, 18574.0, 18580.0, 18584.0, 18610.0, 18578.0, 18610.0, 18578.0, 18582.0, 18576.0, 18608.0, 18580.0, 18610.0, 18610.0, 18608.0, 18576.0, 18610.0, 18572.0, 18580.0, 18586.0, 18612.0, 18580.0, 18582.0, 18578.0, 18580.0, 18582.0, 18580.0, 18574.0, 18610.0, 18578.0, 18608.0, 18580.0, 18580.0, 18576.0, 18582.0, 18584.0, 18608.0, 18614.0, 18610.0, 18580.0, 18610.0, 18582.0, 18608.0, 18576.0, 18580.0, 18580.0, 18580.0, 18614.0, 18584.0, 18584.0, 18610.0, 18578.0, 18574.0, 18582.0, 18612.0, 18582.0, 18610.0, 18606.0, 18608.0, 18576.0, 18578.0, 18582.0, 18578.0, 18588.0, 18580.0, 18578.0, 18586.0, 18576.0, 18612.0, 18578.0, 18580.0, 18580.0, 18610.0, 18578.0, 18610.0, 18576.0, 18614.0, 18582.0, 18582.0, 18582.0, 18584.0, 18584.0, 18606.0, 18610.0, 18612.0, 18614.0, 18582.0, 18578.0, 18584.0, 18584.0, 18612.0, 18612.0, 18612.0, 18582.0, 18610.0, 18608.0, 18580.0, 18576.0, 18612.0, 18578.0, 18582.0, 18582.0, 18580.0, 18608.0, 18580.0, 18608.0, 18582.0, 18612.0, 18580.0, 18610.0, 18572.0, 18578.0, 18580.0, 18576.0]
    },
    "slices": {}
  }
}