{
  "AcquisitionMatrixPE": 104,
  "AcquisitionNumber": 1,
  "AcquisitionTime": "13:55:10.715000",
  "BandwidthPerPixelPhaseEncode": 17.17,
  "BaseResolution": 104,
  "BodyPartExamined": "BRAIN",
  "CoilString": "HC1-7;NC1_2",
  "ConsistencyInfo": "N4_VE11C_LATEST_20160120",
  "ConversionSoftware": "dcm2niix",
  "ConversionSoftwareVersion": "v1.0.20190902",
  "DerivedVendorReportedEchoSpacing": 0.000560011,
  "DeviceSerialNumber": "167006",
  "DwellTime": 2.1e-06,
  "EchoTime": 0.037,
  "EchoTrainLength": 104,
  "EffectiveEchoSpacing": 0.000560011,
  "FlipAngle": 52,
  "HeudiconvVersion": "0.10.0",
  "ImageComments": "Unaliased_MB4_PE3_LB",
  "ImageOrientationPatientDICOM": [0.998965, 0.00902103, 0.0445723, 0.00278967, 0.966125, -0.258058],
  "ImageType": [
    "ORIGINAL",
    "PRIMARY",
    "P",
    "MB",
    "ND",
    "MOSAIC"
],
  "ImagingFrequency": 123.259,
  "InPlanePhaseEncodingDirectionDICOM": "COL",
  "InstitutionAddress": "Chemin_Queen-Mary_4565_Montreal_District_CA_H3W_1W5",
  "InstitutionName": "IUGM",
  "InstitutionalDepartmentName": "Department",
  "MRAcquisitionType": "2D",
  "MagneticFieldStrength": 3,
  "Manufacturer": "Siemens",
  "ManufacturersModelName": "Prisma_fit",
  "Modality": "MR",
  "MultibandAccelerationFactor": 4,
  "PartialFourier": 1,
  "PatientPosition": "HFS",
  "PercentPhaseFOV": 100,
  "PhaseEncodingDirection": "j",
  "PhaseEncodingSteps": 104,
  "PhaseResolution": 1,
  "PixelBandwidth": 2290,
  "ProcedureStepDescription": "memory_things",
  "ProtocolName": "func_task-things_run-6",
  "PulseSequenceDetails": "%CustomerSeq%_cmrr_mbep2d_bold",
  "ReceiveCoilActiveElements": "HC1-7;NC1,2",
  "ReceiveCoilName": "HeadNeck_64",
  "ReconMatrixPE": 104,
  "RepetitionTime": 1.49,
  "SAR": 0.0593549,
  "ScanOptions": "FS",
  "ScanningSequence": "EP",
  "SequenceName": "epfid2d1_104",
  "SequenceVariant": "SK_SS",
  "SeriesDescription": "func_task-things_run-6",
  "SeriesNumber": 26,
  "ShimSetting": [638, -7220, -8784, 756, 32, -15, 66, -10],
  "SliceThickness": 2,
  "SliceTiming": [0, 0.7825, 0.0975, 0.8825, 0.195, 0.98, 0.295, 1.0775, 0.3925, 1.175, 0.49, 1.2725, 0.5875, 1.3725, 0.685, 0, 0.7825, 0.0975, 0.8825, 0.195, 0.98, 0.295, 1.0775, 0.3925, 1.175, 0.49, 1.2725, 0.5875, 1.3725, 0.685, 0, 0.7825, 0.0975, 0.8825, 0.195, 0.98, 0.295, 1.0775, 0.3925, 1.175, 0.49, 1.2725, 0.5875, 1.3725, 0.685, 0, 0.7825, 0.0975, 0.8825, 0.195, 0.98, 0.295, 1.0775, 0.3925, 1.175, 0.49, 1.2725, 0.5875, 1.3725, 0.685],
  "SoftwareVersions": "syngo_MR_E11",
  "SpacingBetweenSlices": 2,
  "StationName": "MRC35049",
  "TaskName": "things",
  "TotalReadoutTime": 0.0576811,
  "TxRefAmp": 252.515,
  "WipMemBlock": "78902fbb-045b-440b-8d4a-71b1611eaf6c||Sequence: R016 ve11c/master r/e634e98; Dec 19 2017 11:00:25 by eja",
  "dcmmeta_affine": [
    [-1.997930884361267, 0.005579340271651745, 0.0907808318734169, 106.51033782958984],
    [-0.018042055889964104, 1.9322509765625, -0.515829861164093, -73.41678619384766],
    [0.08914467692375183, 0.516115128993988, 1.9302016496658325, -67.06166076660156],
    [0.0, 0.0, 0.0, 1.0]
],
  "dcmmeta_reorient_transform": [
    [0.0, -1.0, 0.0, 103.0],
    [1.0, 0.0, 0.0, 0.0],
    [0.0, 0.0, 1.0, 0.0],
    [0.0, 0.0, 0.0, 1.0]
],
  "dcmmeta_shape": [104, 104, 60, 190],
  "dcmmeta_slice_dim": 2,
  "dcmmeta_version": 0.6,
  "global": {
    "const": {
      "AcquisitionMatrix": [104, 0, 0, 104],
      "AngioFlag": "N",
      "BitsAllocated": 16,
      "BitsStored": 16,
      "BodyPartExamined": "BRAIN",
      "Columns": 832,
      "EchoNumbers": 1,
      "EchoTime": 37.0,
      "EchoTrainLength": 104,
      "FlipAngle": 52.0,
      "HighBit": 15,
      "ImageOrientationPatient": [0.99896542871499, 0.00902102800957, 0.0445723376762, 0.00278967007465, 0.96612551299097, -0.2580575728182],
      "ImagePositionPatient": [-836.36272136473, -835.51175289248, 141.51545233248],
      "ImageType": [
        "ORIGINAL",
        "PRIMARY",
        "P",
        "MB",
        "ND",
        "MOSAIC"
],
      "ImagedNucleus": "1H",
      "ImagingFrequency": 123.259114,
      "InPlanePhaseEncodingDirection": "COL",
      "LargestImagePixelValue": 4095,
      "MRAcquisitionType": "2D",
      "MagneticFieldStrength": 3.0,
      "Manufacturer": "SIEMENS",
      "ManufacturerModelName": "Prisma_fit",
      "Modality": "MR",
      "NumberOfAverages": 1.0,
      "NumberOfPhaseEncodingSteps": 104,
      "PercentPhaseFieldOfView": 100.0,
      "PercentSampling": 100.0,
      "PerformedProcedureStepStartTime": "120338.588000",
      "PhotometricInterpretation": "MONOCHROME2",
      "PixelBandwidth": 2290.0,
      "PixelRepresentation": 0,
      "PixelSpacing": [2.0, 2.0],
      "ProtocolName": "func_task-things_run-6",
      "RepetitionTime": 1490.0,
      "RescaleIntercept": -4096.0,
      "RescaleSlope": 2.0,
      "RescaleType": "US",
      "Rows": 832,
      "SAR": 0.0593548999034,
      "SamplesPerPixel": 1,
      "ScanOptions": "FS",
      "ScanningSequence": "EP",
      "SequenceName": "epfid2d1_104",
      "SequenceVariant": [
        "SK",
        "SS"
],
      "SeriesDescription": "func_task-things_run-6",
      "SeriesNumber": 26,
      "SeriesTime": "135632.241000",
      "SliceLocation": -40.951428095534,
      "SliceThickness": 2.0,
      "SmallestImagePixelValue": 0,
      "SoftwareVersions": "syngo MR E11",
      "SpacingBetweenSlices": 2.0000000009706,
      "SpecificCharacterSet": "ISO_IR 100",
      "StudyID": "1",
      "StudyTime": "120338.480000",
      "TransmitCoilName": "Body",
      "VariableFlipAngleFlag": "N",
      "WindowCenterWidthExplanation": "Algo1",
      "dBdt": 0.0},
    "slices": {}
  },
  "time": {
    "samples": {
      "AcquisitionNumber": [1, 2, 3, 4, 5, 6, 7, 8, 9, 10, 11, 12, 13, 14, 15, 16, 17, 18, 19, 20, 21, 22, 23, 24, 25, 26, 27, 28, 29, 30, 31, 32, 33, 34, 35, 36, 37, 38, 39, 40, 41, 42, 43, 44, 45, 46, 47, 48, 49, 50, 51, 52, 53, 54, 55, 56, 57, 58, 59, 60, 61, 62, 63, 64, 65, 66, 67, 68, 69, 70, 71, 72, 73, 74, 75, 76, 77, 78, 79, 80, 81, 82, 83, 84, 85, 86, 87, 88, 89, 90, 91, 92, 93, 94, 95, 96, 97, 98, 99, 100, 101, 102, 103, 104, 105, 106, 107, 108, 109, 110, 111, 112, 113, 114, 115, 116, 117, 118, 119, 120, 121, 122, 123, 124, 125, 126, 127, 128, 129, 130, 131, 132, 133, 134, 135, 136, 137, 138, 139, 140, 141, 142, 143, 144, 145, 146, 147, 148, 149, 150, 151, 152, 153, 154, 155, 156, 157, 158, 159, 160, 161, 162, 163, 164, 165, 166, 167, 168, 169, 170, 171, 172, 173, 174, 175, 176, 177, 178, 179, 180, 181, 182, 183, 184, 185, 186, 187, 188, 189, 190],
      "AcquisitionTime": ["135510.715000", "135512.205000", "135513.695000", "135515.185000", "135516.675000", "135518.165000", "135519.655000", "135521.145000", "135522.635000", "135524.125000", "135525.615000", "135527.105000", "135528.595000", "135530.085000", "135531.575000", "135533.065000", "135534.555000", "135536.045000", "135537.535000", "135539.025000", "135540.515000", "135542.005000", "135543.495000", "135544.985000", "135546.475000", "135547.965000", "135549.455000", "135550.945000", "135552.435000", "135553.925000", "135555.415000", "135556.905000", "135558.395000", "135559.885000", "135601.375000", "135602.865000", "135604.355000", "135605.845000", "135607.335000", "135608.825000", "135610.315000", "135611.805000", "135613.295000", "135614.785000", "135616.275000", "135617.765000", "135619.255000", "135620.745000", "135622.235000", "135623.725000", "135625.215000", "135626.705000", "135628.195000", "135629.685000", "135631.175000", "135632.665000", "135634.155000", "135635.645000", "135637.135000", "135638.625000", "135640.115000", "135641.605000", "135643.095000", "135644.585000", "135646.075000", "135647.565000", "135649.055000", "135650.545000", "135652.035000", "135653.525000", "135655.015000", "135656.505000", "135657.995000", "135659.485000", "135700.975000", "135702.465000", "135703.955000", "135705.445000", "135706.935000", "135708.425000", "135709.915000", "135711.405000", "135712.895000", "135714.385000", "135715.875000", "135717.365000", "135718.855000", "135720.345000", "135721.835000", "135723.325000", "135724.815000", "135726.305000", "135727.795000", "135729.285000", "135730.775000", "135732.265000", "135733.755000", "135735.245000", "135736.735000", "135738.225000", "135739.715000", "135741.205000", "135742.695000", "135744.185000", "135745.675000", "135747.165000", "135748.655000", "135750.145000", "135751.635000", "135753.125000", "135754.615000", "135756.105000", "135757.595000", "135759.085000", "135800.575000", "135802.065000", "135803.555000", "135805.045000", "135806.535000", "135808.025000", "135809.515000", "135811.005000", "135812.495000", "135813.985000", "135815.475000", "135816.965000", "135818.455000", "135819.945000", "135821.435000", "135822.925000", "135824.415000", "135825.905000", "135827.395000", "135828.885000", "135830.375000", "135831.865000", "135833.355000", "135834.845000", "135836.335000", "135837.825000", "135839.315000", "135840.805000", "135842.295000", "135843.785000", "135845.275000", "135846.765000", "135848.255000", "135849.745000", "135851.235000", "135852.725000", "135854.215000", "135855.705000", "135857.195000", "135858.685000", "135900.175000", "135901.665000", "135903.155000", "135904.645000", "135906.135000", "135907.625000", "135909.115000", "135910.605000", "135912.095000", "135913.585000", "135915.075000", "135916.565000", "135918.055000", "135919.545000", "135921.035000", "135922.525000", "135924.015000", "135925.505000", "135926.995000", "135928.485000", "135929.975000", "135931.465000", "135932.955000", "135934.445000", "135935.935000", "135937.425000", "135938.915000", "135940.405000", "135941.895000", "135943.385000", "135944.875000", "135946.365000", "135947.855000", "135949.345000", "135950.835000", "135952.325000"],
      "ContentTime": ["135632.243000", "135632.246000", "135632.249000", "135632.251000", "135632.254000", "135632.256000", "135632.259000", "135632.261000", "135632.264000", "135632.266000", "135632.269000", "135632.271000", "135632.274000", "135632.276000", "135632.279000", "135632.281000", "135632.284000", "135632.286000", "135632.289000", "135632.291000", "135632.294000", "135632.296000", "135632.298000", "135632.301000", "135632.303000", "135632.306000", "135632.308000", "135652.189000", "135652.192000", "135652.194000", "135652.197000", "135652.199000", "135652.202000", "135652.204000", "135652.207000", "135652.209000", "135652.211000", "135652.214000", "135652.216000", "135652.219000", "135652.221000", "135652.224000", "135652.226000", "135652.228000", "135652.231000", "135652.233000", "135652.236000", "135712.177000", "135712.180000", "135712.182000", "135712.185000", "135712.187000", "135712.190000", "135712.192000", "135712.195000", "135712.197000", "135712.200000", "135712.202000", "135712.205000", "135712.207000", "135712.209000", "135712.212000", "135712.215000", "135712.217000", "135712.220000", "135712.222000", "135712.225000", "135712.227000", "135732.170000", "135732.173000", "135732.175000", "135732.178000", "135732.180000", "135732.183000", "135732.185000", "135732.188000", "135732.190000", "135732.192000", "135732.195000", "135732.197000", "135732.200000", "135732.202000", "135732.205000", "135732.207000", "135732.210000", "135732.212000", "135732.215000", "135732.217000", "135812.225000", "135812.227000", "135812.230000", "135812.232000", "135812.235000", "135812.237000", "135812.240000", "135812.242000", "135812.245000", "135812.247000", "135812.249000", "135812.252000", "135812.254000", "135812.257000", "135812.259000", "135812.262000", "135812.265000", "135812.267000", "135812.270000", "135812.272000", "135812.275000", "135812.277000", "135812.279000", "135812.282000", "135812.284000", "135812.287000", "135812.289000", "135812.292000", "135812.294000", "135812.297000", "135812.299000", "135812.302000", "135812.304000", "135852.209000", "135852.212000", "135852.215000", "135852.217000", "135852.220000", "135852.222000", "135852.225000", "135852.227000", "135852.230000", "135852.232000", "135852.234000", "135852.237000", "135852.239000", "135852.242000", "135852.244000", "135852.247000", "135852.249000", "135852.252000", "135852.254000", "135852.257000", "135852.259000", "135852.262000", "135852.264000", "135852.267000", "135852.269000", "135852.272000", "135932.205000", "135932.208000", "135932.210000", "135932.213000", "135932.216000", "135932.219000", "135932.221000", "135932.224000", "135932.226000", "135932.229000", "135932.231000", "135932.234000", "135932.236000", "135932.239000", "135932.241000", "135932.244000", "135932.246000", "135932.249000", "135932.251000", "135932.254000", "135932.256000", "135932.259000", "135932.261000", "135932.264000", "135932.266000", "135932.269000", "135932.271000", "135954.839000", "135954.841000", "135954.844000", "135954.846000", "135954.849000", "135954.851000", "135954.854000", "135954.856000", "135954.859000", "135954.861000", "135954.864000", "135954.866000", "135954.869000", "135954.871000", "135954.874000", "135954.876000"],
      "InstanceCreationTime": ["135632.243000", "135632.246000", "135632.249000", "135632.251000", "135632.254000", "135632.256000", "135632.259000", "135632.261000", "135632.264000", "135632.266000", "135632.269000", "135632.271000", "135632.274000", "135632.276000", "135632.279000", "135632.281000", "135632.284000", "135632.286000", "135632.289000", "135632.291000", "135632.294000", "135632.296000", "135632.298000", "135632.301000", "135632.303000", "135632.306000", "135632.308000", "135652.189000", "135652.192000", "135652.194000", "135652.197000", "135652.199000", "135652.202000", "135652.204000", "135652.207000", "135652.209000", "135652.211000", "135652.214000", "135652.216000", "135652.219000", "135652.221000", "135652.224000", "135652.226000", "135652.228000", "135652.231000", "135652.233000", "135652.236000", "135712.177000", "135712.180000", "135712.182000", "135712.185000", "135712.187000", "135712.190000", "135712.192000", "135712.195000", "135712.197000", "135712.200000", "135712.202000", "135712.205000", "135712.207000", "135712.209000", "135712.212000", "135712.215000", "135712.217000", "135712.220000", "135712.222000", "135712.225000", "135712.227000", "135732.170000", "135732.173000", "135732.175000", "135732.178000", "135732.180000", "135732.183000", "135732.185000", "135732.188000", "135732.190000", "135732.192000", "135732.195000", "135732.197000", "135732.200000", "135732.202000", "135732.205000", "135732.207000", "135732.210000", "135732.212000", "135732.215000", "135732.217000", "135812.225000", "135812.227000", "135812.230000", "135812.232000", "135812.235000", "135812.237000", "135812.240000", "135812.242000", "135812.245000", "135812.247000", "135812.249000", "135812.252000", "135812.254000", "135812.257000", "135812.259000", "135812.262000", "135812.265000", "135812.267000", "135812.270000", "135812.272000", "135812.275000", "135812.277000", "135812.279000", "135812.282000", "135812.284000", "135812.287000", "135812.289000", "135812.292000", "135812.294000", "135812.297000", "135812.299000", "135812.302000", "135812.304000", "135852.209000", "135852.212000", "135852.215000", "135852.217000", "135852.220000", "135852.222000", "135852.225000", "135852.227000", "135852.230000", "135852.232000", "135852.234000", "135852.237000", "135852.239000", "135852.242000", "135852.244000", "135852.247000", "135852.249000", "135852.252000", "135852.254000", "135852.257000", "135852.259000", "135852.262000", "135852.264000", "135852.267000", "135852.269000", "135852.272000", "135932.205000", "135932.208000", "135932.210000", "135932.213000", "135932.216000", "135932.219000", "135932.221000", "135932.224000", "135932.226000", "135932.229000", "135932.231000", "135932.234000", "135932.236000", "135932.239000", "135932.241000", "135932.244000", "135932.246000", "135932.249000", "135932.251000", "135932.254000", "135932.256000", "135932.259000", "135932.261000", "135932.264000", "135932.266000", "135932.269000", "135932.271000", "135954.839000", "135954.841000", "135954.844000", "135954.846000", "135954.849000", "135954.851000", "135954.854000", "135954.856000", "135954.859000", "135954.861000", "135954.864000", "135954.866000", "135954.869000", "135954.871000", "135954.874000", "135954.876000"],
      "InstanceNumber": [1, 2, 3, 4, 5, 6, 7, 8, 9, 10, 11, 12, 13, 14, 15, 16, 17, 18, 19, 20, 21, 22, 23, 24, 25, 26, 27, 28, 29, 30, 31, 32, 33, 34, 35, 36, 37, 38, 39, 40, 41, 42, 43, 44, 45, 46, 47, 48, 49, 50, 51, 52, 53, 54, 55, 56, 57, 58, 59, 60, 61, 62, 63, 64, 65, 66, 67, 68, 69, 70, 71, 72, 73, 74, 75, 76, 77, 78, 79, 80, 81, 82, 83, 84, 85, 86, 87, 88, 89, 90, 91, 92, 93, 94, 95, 96, 97, 98, 99, 100, 101, 102, 103, 104, 105, 106, 107, 108, 109, 110, 111, 112, 113, 114, 115, 116, 117, 118, 119, 120, 121, 122, 123, 124, 125, 126, 127, 128, 129, 130, 131, 132, 133, 134, 135, 136, 137, 138, 139, 140, 141, 142, 143, 144, 145, 146, 147, 148, 149, 150, 151, 152, 153, 154, 155, 156, 157, 158, 159, 160, 161, 162, 163, 164, 165, 166, 167, 168, 169, 170, 171, 172, 173, 174, 175, 176, 177, 178, 179, 180, 181, 182, 183, 184, 185, 186, 187, 188, 189, 190],
      "WindowCenter": [4832.0, 4830.0, 4832.0, 4828.0, 4830.0, 4838.0, 4836.0, 4834.0, 4834.0, 4832.0, 4834.0, 4834.0, 4834.0, 4830.0, 4832.0, 4830.0, 4834.0, 4834.0, 4832.0, 4832.0, 4836.0, 4836.0, 4832.0, 4834.0, 4830.0, 4834.0, 4828.0, 4834.0, 4830.0, 4832.0, 4830.0, 4834.0, 4834.0, 4828.0, 4830.0, 4830.0, 4834.0, 4832.0, 4836.0, 4832.0, 4832.0, 4834.0, 4834.0, 4832.0, 4834.0, 4838.0, 4830.0, 4836.0, 4834.0, 4834.0, 4830.0, 4836.0, 4834.0, 4836.0, 4836.0, 4836.0, 4832.0, 4832.0, 4832.0, 4832.0, 4834.0, 4834.0, 4832.0, 4834.0, 4830.0, 4834.0, 4830.0, 4836.0, 4832.0, 4836.0, 4832.0, 4832.0, 4832.0, 4836.0, 4834.0, 4836.0, 4834.0, 4834.0, 4832.0, 4834.0, 4830.0, 4836.0, 4832.0, 4838.0, 4832.0, 4836.0, 4832.0, 4836.0, 4834.0, 4834.0, 4834.0, 4834.0, 4836.0, 4834.0, 4834.0, 4838.0, 4832.0, 4834.0, 4830.0, 4836.0, 4834.0, 4838.0, 4832.0, 4834.0, 4836.0, 4832.0, 4830.0, 4834.0, 4834.0, 4836.0, 4834.0, 4832.0, 4838.0, 4832.0, 4832.0, 4834.0, 4834.0, 4836.0, 4832.0, 4838.0, 4832.0, 4836.0, 4838.0, 4836.0, 4834.0, 4836.0, 4832.0, 4832.0, 4832.0, 4836.0, 4830.0, 4834.0, 4836.0, 4836.0, 4832.0, 4836.0, 4834.0, 4836.0, 4832.0, 4834.0, 4830.0, 4832.0, 4832.0, 4834.0, 4832.0, 4832.0, 4832.0, 4836.0, 4838.0, 4836.0, 4836.0, 4836.0, 4832.0, 4834.0, 4834.0, 4834.0, 4836.0, 4832.0, 4830.0, 4834.0, 4836.0, 4836.0, 4834.0, 4834.0, 4832.0, 4832.0, 4838.0, 4832.0, 4832.0, 4830.0, 4832.0, 4834.0, 4834.0, 4832.0, 4830.0, 4832.0, 4834.0, 4836.0, 4832.0, 4836.0, 4834.0, 4834.0, 4834.0, 4834.0, 4832.0, 4832.0, 4832.0, 4832.0, 4832.0, 4836.0],
      "WindowWidth": [18576.0, 18576.0, 18574.0, 18578.0, 18582.0, 18582.0, 18578.0, 18576.0, 18578.0, 18576.0, 18574.0, 18580.0, 18578.0, 18578.0, 18572.0, 18576.0, 18578.0, 18582.0, 18576.0, 18574.0, 18584.0, 18582.0, 18580.0, 18576.0, 18580.0, 18578.0, 18570.0, 18574.0, 18582.0, 18572.0, 18576.0, 18574.0, 18584.0, 18578.0, 18572.0, 18570.0, 18578.0, 18576.0, 18582.0, 18578.0, 18582.0, 18578.0, 18576.0, 18582.0, 18580.0, 18578.0, 18576.0, 18580.0, 18578.0, 18580.0, 18576.0, 18574.0, 18570.0, 18580.0, 18578.0, 18576.0, 18584.0, 18584.0, 18580.0, 18578.0, 18580.0, 18576.0, 18578.0, 18576.0, 18572.0, 18578.0, 18572.0, 18576.0, 18580.0, 18580.0, 18576.0, 18578.0, 18578.0, 18580.0, 18578.0, 18574.0, 18580.0, 18580.0, 18582.0, 18580.0, 18574.0, 18574.0, 18572.0, 18584.0, 18582.0, 18580.0, 18576.0, 18578.0, 18574.0, 18578.0, 18578.0, 18576.0, 18580.0, 18582.0, 18578.0, 18580.0, 18580.0, 18580.0, 18576.0, 18576.0, 18578.0, 18584.0, 18580.0, 18580.0, 18582.0, 18580.0, 18576.0, 18576.0, 18576.0, 18580.0, 18576.0, 18576.0, 18578.0, 18570.0, 18578.0, 18578.0, 18576.0, 18584.0, 18578.0, 18576.0, 18578.0, 18578.0, 18580.0, 18576.0, 18578.0, 18578.0, 18576.0, 18578.0, 18578.0, 18578.0, 18578.0, 18582.0, 18578.0, 18582.0, 18576.0, 18580.0, 18580.0, 18580.0, 18582.0, 18578.0, 18576.0, 18576.0, 18580.0, 18584.0, 18576.0, 18580.0, 18580.0, 18576.0, 18582.0, 18582.0, 18580.0, 18580.0, 18576.0, 18576.0, 18580.0, 18576.0, 18578.0, 18574.0, 18574.0, 18578.0, 18584.0, 18578.0, 18576.0, 18582.0, 18578.0, 18580.0, 18584.0, 18576.0, 18578.0, 18582.0, 18572.0, 18576.0, 18578.0, 18578.0, 18576.0, 18578.0, 18580.0, 18580.0, 18576.0, 18576.0, 18576.0, 18576.0, 18580.0, 18574.0, 18578.0, 18576.0, 18578.0, 18576.0, 18574.0, 18582.0]
    },
    "slices": {}
  }
}