{
  "AcquisitionMatrixPE": 104,
  "AcquisitionNumber": 1,
  "AcquisitionTime": "13:34:55.957500",
  "BandwidthPerPixelPhaseEncode": 17.17,
  "BaseResolution": 104,
  "BodyPartExamined": "BRAIN",
  "CoilString": "HC1-7;NC1_2",
  "ConsistencyInfo": "N4_VE11C_LATEST_20160120",
  "ConversionSoftware": "dcm2niix",
  "ConversionSoftwareVersion": "v1.0.20190902",
  "DerivedVendorReportedEchoSpacing": 0.000560011,
  "DeviceSerialNumber": "167006",
  "DwellTime": 2.1e-06,
  "EchoTime": 0.037,
  "EchoTrainLength": 104,
  "EffectiveEchoSpacing": 0.000560011,
  "FlipAngle": 52,
  "HeudiconvVersion": "0.10.0",
  "ImageComments": "Unaliased_MB4_PE3_LB",
  "ImageOrientationPatientDICOM": [0.998965, 0.00902103, 0.0445723, 0.00278967, 0.966125, -0.258058],
  "ImageType": [
    "ORIGINAL",
    "PRIMARY",
    "M",
    "MB",
    "ND",
    "MOSAIC"
],
  "ImagingFrequency": 123.259,
  "InPlanePhaseEncodingDirectionDICOM": "COL",
  "InstitutionAddress": "Chemin_Queen-Mary_4565_Montreal_District_CA_H3W_1W5",
  "InstitutionName": "IUGM",
  "InstitutionalDepartmentName": "Department",
  "MRAcquisitionType": "2D",
  "MagneticFieldStrength": 3,
  "Manufacturer": "Siemens",
  "ManufacturersModelName": "Prisma_fit",
  "Modality": "MR",
  "MultibandAccelerationFactor": 4,
  "PartialFourier": 1,
  "PatientPosition": "HFS",
  "PercentPhaseFOV": 100,
  "PhaseEncodingDirection": "j",
  "PhaseEncodingSteps": 104,
  "PhaseResolution": 1,
  "PixelBandwidth": 2290,
  "ProcedureStepDescription": "memory_things",
  "ProtocolName": "func_task-things_run-3",
  "PulseSequenceDetails": "%CustomerSeq%_cmrr_mbep2d_bold",
  "ReceiveCoilActiveElements": "HC1-7;NC1,2",
  "ReceiveCoilName": "HeadNeck_64",
  "ReconMatrixPE": 104,
  "RepetitionTime": 1.49,
  "SAR": 0.0593549,
  "ScanOptions": "FS",
  "ScanningSequence": "EP",
  "SequenceName": "epfid2d1_104",
  "SequenceVariant": "SK_SS",
  "SeriesDescription": "func_task-things_run-3",
  "SeriesNumber": 16,
  "ShimSetting": [638, -7220, -8784, 756, 32, -15, 66, -10],
  "SliceThickness": 2,
  "SliceTiming": [0, 0.7825, 0.0975, 0.8825, 0.195, 0.98, 0.2925, 1.0775, 0.3925, 1.175, 0.49, 1.2725, 0.5875, 1.3725, 0.685, 0, 0.7825, 0.0975, 0.8825, 0.195, 0.98, 0.2925, 1.0775, 0.3925, 1.175, 0.49, 1.2725, 0.5875, 1.3725, 0.685, 0, 0.7825, 0.0975, 0.8825, 0.195, 0.98, 0.2925, 1.0775, 0.3925, 1.175, 0.49, 1.2725, 0.5875, 1.3725, 0.685, 0, 0.7825, 0.0975, 0.8825, 0.195, 0.98, 0.2925, 1.0775, 0.3925, 1.175, 0.49, 1.2725, 0.5875, 1.3725, 0.685],
  "SoftwareVersions": "syngo_MR_E11",
  "SpacingBetweenSlices": 2,
  "StationName": "MRC35049",
  "TaskName": "things",
  "TotalReadoutTime": 0.0576811,
  "TxRefAmp": 252.515,
  "WipMemBlock": "2c860b1e-63b7-4b94-9bd2-3a22b897f9de||Sequence: R016 ve11c/master r/e634e98; Dec 19 2017 11:00:25 by eja",
  "dcmmeta_affine": [
    [-1.997930884361267, 0.005579340271651745, 0.0907808318734169, 106.51033782958984],
    [-0.018042055889964104, 1.9322509765625, -0.515829861164093, -73.41678619384766],
    [0.08914467692375183, 0.516115128993988, 1.9302016496658325, -67.06166076660156],
    [0.0, 0.0, 0.0, 1.0]
],
  "dcmmeta_reorient_transform": [
    [0.0, -1.0, 0.0, 103.0],
    [1.0, 0.0, 0.0, 0.0],
    [0.0, 0.0, 1.0, 0.0],
    [0.0, 0.0, 0.0, 1.0]
],
  "dcmmeta_shape": [104, 104, 60, 190],
  "dcmmeta_slice_dim": 2,
  "dcmmeta_version": 0.6,
  "global": {
    "const": {
      "AcquisitionMatrix": [104, 0, 0, 104],
      "AngioFlag": "N",
      "BitsAllocated": 16,
      "BitsStored": 16,
      "BodyPartExamined": "BRAIN",
      "Columns": 832,
      "EchoNumbers": 1,
      "EchoTime": 37.0,
      "EchoTrainLength": 104,
      "FlipAngle": 52.0,
      "HighBit": 15,
      "ImageOrientationPatient": [0.99896542871499, 0.00902102800957, 0.0445723376762, 0.00278967007465, 0.96612551299097, -0.2580575728182],
      "ImagePositionPatient": [-836.36272136473, -835.51175289248, 141.51545233248],
      "ImageType": [
        "ORIGINAL",
        "PRIMARY",
        "M",
        "MB",
        "ND",
        "MOSAIC"
],
      "ImagedNucleus": "1H",
      "ImagingFrequency": 123.259107,
      "InPlanePhaseEncodingDirection": "COL",
      "MRAcquisitionType": "2D",
      "MagneticFieldStrength": 3.0,
      "Manufacturer": "SIEMENS",
      "ManufacturerModelName": "Prisma_fit",
      "Modality": "MR",
      "NumberOfAverages": 1.0,
      "NumberOfPhaseEncodingSteps": 104,
      "PercentPhaseFieldOfView": 100.0,
      "PercentSampling": 100.0,
      "PerformedProcedureStepStartTime": "120338.588000",
      "PhotometricInterpretation": "MONOCHROME2",
      "PixelBandwidth": 2290.0,
      "PixelRepresentation": 0,
      "PixelSpacing": [2.0, 2.0],
      "ProtocolName": "func_task-things_run-3",
      "RepetitionTime": 1490.0,
      "Rows": 832,
      "SAR": 0.0593548999034,
      "SamplesPerPixel": 1,
      "ScanOptions": "FS",
      "ScanningSequence": "EP",
      "SequenceName": "epfid2d1_104",
      "SequenceVariant": [
        "SK",
        "SS"
],
      "SeriesDescription": "func_task-things_run-3",
      "SeriesNumber": 16,
      "SeriesTime": "133612.091000",
      "SliceLocation": -40.951428095534,
      "SliceThickness": 2.0,
      "SmallestImagePixelValue": 0,
      "SoftwareVersions": "syngo MR E11",
      "SpacingBetweenSlices": 2.0000000009706,
      "SpecificCharacterSet": "ISO_IR 100",
      "StudyID": "1",
      "StudyTime": "120338.480000",
      "TransmitCoilName": "Body",
      "VariableFlipAngleFlag": "N",
      "WindowCenterWidthExplanation": "Algo1",
      "dBdt": 0.0},
    "slices": {}
  },
  "time": {
    "samples": {
      "AcquisitionNumber": [1, 2, 3, 4, 5, 6, 7, 8, 9, 10, 11, 12, 13, 14, 15, 16, 17, 18, 19, 20, 21, 22, 23, 24, 25, 26, 27, 28, 29, 30, 31, 32, 33, 34, 35, 36, 37, 38, 39, 40, 41, 42, 43, 44, 45, 46, 47, 48, 49, 50, 51, 52, 53, 54, 55, 56, 57, 58, 59, 60, 61, 62, 63, 64, 65, 66, 67, 68, 69, 70, 71, 72, 73, 74, 75, 76, 77, 78, 79, 80, 81, 82, 83, 84, 85, 86, 87, 88, 89, 90, 91, 92, 93, 94, 95, 96, 97, 98, 99, 100, 101, 102, 103, 104, 105, 106, 107, 108, 109, 110, 111, 112, 113, 114, 115, 116, 117, 118, 119, 120, 121, 122, 123, 124, 125, 126, 127, 128, 129, 130, 131, 132, 133, 134, 135, 136, 137, 138, 139, 140, 141, 142, 143, 144, 145, 146, 147, 148, 149, 150, 151, 152, 153, 154, 155, 156, 157, 158, 159, 160, 161, 162, 163, 164, 165, 166, 167, 168, 169, 170, 171, 172, 173, 174, 175, 176, 177, 178, 179, 180, 181, 182, 183, 184, 185, 186, 187, 188, 189, 190],
      "AcquisitionTime": ["133455.957500", "133457.447500", "133458.937500", "133500.427500", "133501.917500", "133503.407500", "133504.897500", "133506.387500", "133507.877500", "133509.367500", "133510.857500", "133512.347500", "133513.837500", "133515.327500", "133516.817500", "133518.307500", "133519.797500", "133521.287500", "133522.777500", "133524.267500", "133525.757500", "133527.247500", "133528.737500", "133530.227500", "133531.717500", "133533.207500", "133534.697500", "133536.187500", "133537.677500", "133539.167500", "133540.657500", "133542.147500", "133543.637500", "133545.127500", "133546.617500", "133548.107500", "133549.597500", "133551.087500", "133552.577500", "133554.067500", "133555.557500", "133557.047500", "133558.537500", "133600.027500", "133601.517500", "133603.007500", "133604.497500", "133605.987500", "133607.477500", "133608.967500", "133610.457500", "133611.947500", "133613.437500", "133614.927500", "133616.417500", "133617.907500", "133619.397500", "133620.887500", "133622.377500", "133623.867500", "133625.357500", "133626.847500", "133628.337500", "133629.827500", "133631.317500", "133632.807500", "133634.297500", "133635.787500", "133637.277500", "133638.767500", "133640.257500", "133641.747500", "133643.237500", "133644.727500", "133646.217500", "133647.707500", "133649.197500", "133650.687500", "133652.177500", "133653.667500", "133655.157500", "133656.647500", "133658.137500", "133659.627500", "133701.117500", "133702.607500", "133704.097500", "133705.587500", "133707.077500", "133708.567500", "133710.057500", "133711.547500", "133713.037500", "133714.527500", "133716.017500", "133717.507500", "133718.997500", "133720.487500", "133721.977500", "133723.467500", "133724.957500", "133726.447500", "133727.937500", "133729.427500", "133730.917500", "133732.407500", "133733.897500", "133735.387500", "133736.877500", "133738.367500", "133739.857500", "133741.347500", "133742.837500", "133744.327500", "133745.817500", "133747.307500", "133748.797500", "133750.287500", "133751.777500", "133753.267500", "133754.757500", "133756.247500", "133757.737500", "133759.227500", "133800.717500", "133802.207500", "133803.697500", "133805.187500", "133806.677500", "133808.167500", "133809.657500", "133811.147500", "133812.637500", "133814.127500", "133815.617500", "133817.107500", "133818.597500", "133820.087500", "133821.577500", "133823.067500", "133824.557500", "133826.047500", "133827.537500", "133829.027500", "133830.517500", "133832.007500", "133833.497500", "133834.987500", "133836.477500", "133837.967500", "133839.457500", "133840.947500", "133842.437500", "133843.927500", "133845.417500", "133846.907500", "133848.397500", "133849.887500", "133851.377500", "133852.867500", "133854.357500", "133855.847500", "133857.337500", "133858.827500", "133900.317500", "133901.807500", "133903.297500", "133904.787500", "133906.277500", "133907.767500", "133909.257500", "133910.747500", "133912.237500", "133913.727500", "133915.217500", "133916.707500", "133918.197500", "133919.687500", "133921.177500", "133922.667500", "133924.157500", "133925.647500", "133927.137500", "133928.627500", "133930.117500", "133931.607500", "133933.097500", "133934.587500", "133936.077500", "133937.567500"],
      "ContentTime": ["133612.094000", "133612.097000", "133612.101000", "133612.104000", "133612.117000", "133612.120000", "133612.123000", "133612.127000", "133612.130000", "133612.133000", "133612.136000", "133612.140000", "133612.143000", "133612.146000", "133612.150000", "133612.153000", "133612.156000", "133612.159000", "133612.163000", "133612.166000", "133612.169000", "133612.172000", "133612.182000", "133632.062000", "133632.066000", "133632.069000", "133632.072000", "133632.075000", "133632.079000", "133632.082000", "133632.085000", "133632.088000", "133632.092000", "133632.095000", "133632.098000", "133632.101000", "133632.105000", "133632.108000", "133632.111000", "133632.114000", "133632.117000", "133632.121000", "133632.124000", "133652.062000", "133652.066000", "133652.069000", "133652.072000", "133652.076000", "133652.079000", "133652.082000", "133652.092000", "133652.095000", "133652.098000", "133652.102000", "133652.105000", "133652.108000", "133652.111000", "133652.115000", "133652.118000", "133652.121000", "133652.124000", "133652.128000", "133652.131000", "133652.134000", "133712.062000", "133712.066000", "133712.069000", "133712.072000", "133712.076000", "133712.079000", "133712.082000", "133712.085000", "133712.089000", "133712.092000", "133712.095000", "133712.099000", "133712.102000", "133712.105000", "133712.108000", "133712.112000", "133712.115000", "133712.118000", "133712.121000", "133712.125000", "133732.062000", "133732.072000", "133732.076000", "133732.079000", "133732.082000", "133732.085000", "133732.089000", "133732.092000", "133732.095000", "133732.099000", "133732.102000", "133732.105000", "133732.108000", "133732.112000", "133732.115000", "133732.118000", "133732.121000", "133732.125000", "133732.129000", "133732.132000", "133812.063000", "133812.067000", "133812.070000", "133812.073000", "133812.077000", "133812.080000", "133812.083000", "133812.086000", "133812.090000", "133812.093000", "133812.096000", "133812.100000", "133812.103000", "133812.106000", "133812.109000", "133812.113000", "133812.116000", "133812.119000", "133812.123000", "133812.126000", "133812.129000", "133812.132000", "133812.136000", "133812.139000", "133812.142000", "133812.146000", "133812.149000", "133852.062000", "133852.066000", "133852.069000", "133852.072000", "133852.076000", "133852.079000", "133852.082000", "133852.085000", "133852.089000", "133852.092000", "133852.095000", "133852.099000", "133852.102000", "133852.105000", "133852.108000", "133852.112000", "133852.115000", "133852.118000", "133852.122000", "133852.125000", "133852.128000", "133852.132000", "133852.135000", "133852.138000", "133852.142000", "133852.145000", "133852.148000", "133932.062000", "133932.066000", "133932.069000", "133932.073000", "133932.076000", "133932.079000", "133932.083000", "133932.086000", "133932.089000", "133932.093000", "133932.096000", "133932.100000", "133932.103000", "133932.106000", "133932.110000", "133932.113000", "133932.116000", "133932.119000", "133932.123000", "133932.126000", "133932.129000", "133932.132000", "133932.136000", "133932.139000", "133932.154000", "133932.157000", "133932.160000", "133939.551000", "133939.555000", "133939.558000", "133939.562000", "133939.565000"],
      "InstanceCreationTime": ["133612.094000", "133612.097000", "133612.101000", "133612.104000", "133612.117000", "133612.120000", "133612.123000", "133612.127000", "133612.130000", "133612.133000", "133612.136000", "133612.140000", "133612.143000", "133612.146000", "133612.150000", "133612.153000", "133612.156000", "133612.159000", "133612.163000", "133612.166000", "133612.169000", "133612.172000", "133612.182000", "133632.062000", "133632.066000", "133632.069000", "133632.072000", "133632.075000", "133632.079000", "133632.082000", "133632.085000", "133632.088000", "133632.092000", "133632.095000", "133632.098000", "133632.101000", "133632.105000", "133632.108000", "133632.111000", "133632.114000", "133632.117000", "133632.121000", "133632.124000", "133652.062000", "133652.066000", "133652.069000", "133652.072000", "133652.076000", "133652.079000", "133652.082000", "133652.092000", "133652.095000", "133652.098000", "133652.102000", "133652.105000", "133652.108000", "133652.111000", "133652.115000", "133652.118000", "133652.121000", "133652.124000", "133652.128000", "133652.131000", "133652.134000", "133712.062000", "133712.066000", "133712.069000", "133712.072000", "133712.076000", "133712.079000", "133712.082000", "133712.085000", "133712.089000", "133712.092000", "133712.095000", "133712.099000", "133712.102000", "133712.105000", "133712.108000", "133712.112000", "133712.115000", "133712.118000", "133712.121000", "133712.125000", "133732.062000", "133732.072000", "133732.076000", "133732.079000", "133732.082000", "133732.085000", "133732.089000", "133732.092000", "133732.095000", "133732.099000", "133732.102000", "133732.105000", "133732.108000", "133732.112000", "133732.115000", "133732.118000", "133732.121000", "133732.125000", "133732.129000", "133732.132000", "133812.063000", "133812.067000", "133812.070000", "133812.073000", "133812.077000", "133812.080000", "133812.083000", "133812.086000", "133812.090000", "133812.093000", "133812.096000", "133812.100000", "133812.103000", "133812.106000", "133812.109000", "133812.113000", "133812.116000", "133812.119000", "133812.123000", "133812.126000", "133812.129000", "133812.132000", "133812.136000", "133812.139000", "133812.142000", "133812.146000", "133812.149000", "133852.062000", "133852.066000", "133852.069000", "133852.072000", "133852.076000", "133852.079000", "133852.082000", "133852.085000", "133852.089000", "133852.092000", "133852.095000", "133852.099000", "133852.102000", "133852.105000", "133852.108000", "133852.112000", "133852.115000", "133852.118000", "133852.122000", "133852.125000", "133852.128000", "133852.132000", "133852.135000", "133852.138000", "133852.142000", "133852.145000", "133852.148000", "133932.062000", "133932.066000", "133932.069000", "133932.073000", "133932.076000", "133932.079000", "133932.083000", "133932.086000", "133932.089000", "133932.093000", "133932.096000", "133932.100000", "133932.103000", "133932.106000", "133932.110000", "133932.113000", "133932.116000", "133932.119000", "133932.123000", "133932.126000", "133932.129000", "133932.132000", "133932.136000", "133932.139000", "133932.154000", "133932.157000", "133932.160000", "133939.551000", "133939.555000", "133939.558000", "133939.562000", "133939.565000"],
      "InstanceNumber": [1, 2, 3, 4, 5, 6, 7, 8, 9, 10, 11, 12, 13, 14, 15, 16, 17, 18, 19, 20, 21, 22, 23, 24, 25, 26, 27, 28, 29, 30, 31, 32, 33, 34, 35, 36, 37, 38, 39, 40, 41, 42, 43, 44, 45, 46, 47, 48, 49, 50, 51, 52, 53, 54, 55, 56, 57, 58, 59, 60, 61, 62, 63, 64, 65, 66, 67, 68, 69, 70, 71, 72, 73, 74, 75, 76, 77, 78, 79, 80, 81, 82, 83, 84, 85, 86, 87, 88, 89, 90, 91, 92, 93, 94, 95, 96, 97, 98, 99, 100, 101, 102, 103, 104, 105, 106, 107, 108, 109, 110, 111, 112, 113, 114, 115, 116, 117, 118, 119, 120, 121, 122, 123, 124, 125, 126, 127, 128, 129, 130, 131, 132, 133, 134, 135, 136, 137, 138, 139, 140, 141, 142, 143, 144, 145, 146, 147, 148, 149, 150, 151, 152, 153, 154, 155, 156, 157, 158, 159, 160, 161, 162, 163, 164, 165, 166, 167, 168, 169, 170, 171, 172, 173, 174, 175, 176, 177, 178, 179, 180, 181, 182, 183, 184, 185, 186, 187, 188, 189, 190],
      "LargestImagePixelValue": [39359, 38365, 37732, 37091, 37183, 37206, 37409, 37865, 37033, 37144, 37647, 37154, 37255, 36863, 36997, 37151, 37082, 36646, 37426, 37290, 36830, 36599, 37113, 37090, 36685, 36958, 37389, 37052, 36964, 37428, 37313, 37407, 37056, 37256, 37444, 37132, 36862, 37410, 37311, 37102, 37036, 36712, 37396, 36942, 36937, 37093, 37771, 37309, 37109, 36716, 37230, 37090, 37354, 37006, 37362, 36919, 37857, 37060, 36682, 36801, 37705, 37195, 37176, 37146, 36792, 37443, 37658, 37422, 36777, 37021, 37039, 37446, 37003, 37139, 37232, 37581, 37255, 37346, 37062, 37208, 37170, 37526, 36545, 37015, 37015, 36967, 37422, 37088, 36903, 37194, 36959, 37544, 36898, 36802, 37008, 36786, 37210, 37366, 37303, 36796, 37286, 37020, 36833, 37172, 37307, 37032, 37213, 36945, 37307, 37498, 37633, 36881, 37697, 37099, 37259, 36945, 37461, 37348, 37848, 36995, 37028, 37033, 37367, 36954, 37875, 37145, 37386, 37079, 37350, 37300, 36939, 36949, 36912, 37111, 37368, 36932, 37077, 37180, 37207, 37129, 37374, 37056, 37440, 37149, 37301, 37043, 37353, 37597, 36844, 37090, 37041, 37568, 37031, 37099, 36843, 37287, 37342, 37080, 36874, 37386, 37436, 37373, 37050, 37069, 37270, 37603, 37045, 37275, 37147, 37170, 37096, 37590, 36908, 37276, 37248, 37023, 37548, 37654, 36953, 37008, 36913, 37560, 37220, 37101, 37101, 36961, 37120, 37050, 37217, 37269],
      "WindowCenter": [10123.0, 10092.0, 10068.0, 10025.0, 10030.0, 10021.0, 10036.0, 10042.0, 10042.0, 10040.0, 10052.0, 10052.0, 10055.0, 10050.0, 10047.0, 10046.0, 10046.0, 10048.0, 10053.0, 10062.0, 10059.0, 10060.0, 10064.0, 10056.0, 10040.0, 10033.0, 10043.0, 10047.0, 10047.0, 10044.0, 10036.0, 10044.0, 10055.0, 10056.0, 10061.0, 10050.0, 10049.0, 10053.0, 10063.0, 10058.0, 10058.0, 10051.0, 10063.0, 10056.0, 10051.0, 10048.0, 10059.0, 10055.0, 10057.0, 10043.0, 10047.0, 10039.0, 10045.0, 10055.0, 10072.0, 10060.0, 10048.0, 10028.0, 10037.0, 10039.0, 10051.0, 10046.0, 10039.0, 10048.0, 10056.0, 10071.0, 10059.0, 10064.0, 10050.0, 10040.0, 10038.0, 10056.0, 10073.0, 10068.0, 10052.0, 10040.0, 10039.0, 10054.0, 10058.0, 10066.0, 10057.0, 10055.0, 10043.0, 10063.0, 10063.0, 10058.0, 10064.0, 10064.0, 10060.0, 10074.0, 10068.0, 10067.0, 10042.0, 10024.0, 10022.0, 10031.0, 10046.0, 10047.0, 10040.0, 10033.0, 10046.0, 10043.0, 10032.0, 10030.0, 10030.0, 10038.0, 10048.0, 10045.0, 10056.0, 10058.0, 10073.0, 10062.0, 10058.0, 10033.0, 10014.0, 10013.0, 10046.0, 10063.0, 10071.0, 10050.0, 10041.0, 10041.0, 10064.0, 10052.0, 10049.0, 10030.0, 10030.0, 10032.0, 10048.0, 10048.0, 10044.0, 10042.0, 10050.0, 10057.0, 10066.0, 10058.0, 10058.0, 10057.0, 10059.0, 10061.0, 10058.0, 10024.0, 10021.0, 10038.0, 10063.0, 10059.0, 10048.0, 10029.0, 10006.0, 10019.0, 10037.0, 10063.0, 10053.0, 10041.0, 10032.0, 10038.0, 10045.0, 10049.0, 10053.0, 10050.0, 10047.0, 10039.0, 10041.0, 10042.0, 10049.0, 10046.0, 10039.0, 10048.0, 10058.0, 10065.0, 10051.0, 10032.0, 10017.0, 10032.0, 10048.0, 10057.0, 10058.0, 10049.0, 10035.0, 10049.0, 10060.0, 10075.0, 10055.0, 10035.0, 10023.0, 10021.0, 10047.0, 10066.0, 10069.0, 10049.0],
      "WindowWidth": [21558.0, 21468.0, 21401.0, 21297.0, 21304.0, 21283.0, 21313.0, 21327.0, 21332.0, 21326.0, 21348.0, 21350.0, 21359.0, 21348.0, 21340.0, 21337.0, 21337.0, 21342.0, 21351.0, 21372.0, 21367.0, 21368.0, 21373.0, 21356.0, 21320.0, 21308.0, 21327.0, 21338.0, 21337.0, 21326.0, 21310.0, 21331.0, 21357.0, 21361.0, 21368.0, 21348.0, 21344.0, 21350.0, 21373.0, 21365.0, 21363.0, 21349.0, 21373.0, 21359.0, 21349.0, 21337.0, 21359.0, 21354.0, 21359.0, 21333.0, 21338.0, 21319.0, 21332.0, 21356.0, 21393.0, 21368.0, 21338.0, 21291.0, 21312.0, 21320.0, 21340.0, 21333.0, 21318.0, 21339.0, 21356.0, 21389.0, 21362.0, 21372.0, 21343.0, 21321.0, 21314.0, 21357.0, 21397.0, 21387.0, 21349.0, 21318.0, 21316.0, 21350.0, 21363.0, 21379.0, 21358.0, 21353.0, 21329.0, 21372.0, 21373.0, 21364.0, 21373.0, 21374.0, 21369.0, 21395.0, 21384.0, 21378.0, 21322.0, 21281.0, 21276.0, 21298.0, 21331.0, 21334.0, 21320.0, 21305.0, 21331.0, 21327.0, 21300.0, 21294.0, 21297.0, 21315.0, 21337.0, 21333.0, 21355.0, 21359.0, 21393.0, 21371.0, 21359.0, 21300.0, 21257.0, 21258.0, 21331.0, 21369.0, 21387.0, 21343.0, 21321.0, 21322.0, 21375.0, 21351.0, 21338.0, 21294.0, 21293.0, 21300.0, 21336.0, 21334.0, 21329.0, 21325.0, 21343.0, 21358.0, 21378.0, 21363.0, 21363.0, 21358.0, 21362.0, 21367.0, 21359.0, 21283.0, 21275.0, 21313.0, 21370.0, 21360.0, 21333.0, 21287.0, 21240.0, 21269.0, 21313.0, 21369.0, 21351.0, 21321.0, 21301.0, 21313.0, 21330.0, 21341.0, 21350.0, 21340.0, 21332.0, 21315.0, 21320.0, 21326.0, 21337.0, 21326.0, 21315.0, 21335.0, 21361.0, 21376.0, 21345.0, 21299.0, 21265.0, 21301.0, 21336.0, 21356.0, 21358.0, 21336.0, 21307.0, 21339.0, 21364.0, 21398.0, 21354.0, 21308.0, 21276.0, 21273.0, 21332.0, 21376.0, 21381.0, 21335.0]
    },
    "slices": {}
  }
}