{
  "AcquisitionMatrixPE": 104,
  "AcquisitionNumber": 1,
  "AcquisitionTime": "13:20:8.025000",
  "BandwidthPerPixelPhaseEncode": 17.17,
  "BaseResolution": 104,
  "BodyPartExamined": "BRAIN",
  "CoilString": "HC1-7;NC1_2",
  "ConsistencyInfo": "N4_VE11C_LATEST_20160120",
  "ConversionSoftware": "dcm2niix",
  "ConversionSoftwareVersion": "v1.0.20190902",
  "DerivedVendorReportedEchoSpacing": 0.000560011,
  "DeviceSerialNumber": "167006",
  "DwellTime": 2.1e-06,
  "EchoTime": 0.037,
  "EchoTrainLength": 104,
  "EffectiveEchoSpacing": 0.000560011,
  "FlipAngle": 52,
  "HeudiconvVersion": "0.10.0",
  "ImageComments": "Unaliased_MB4_PE3_LB",
  "ImageOrientationPatientDICOM": [0.998965, 0.00902103, 0.0445723, 0.00278967, 0.966125, -0.258058],
  "ImageType": [
    "ORIGINAL",
    "PRIMARY",
    "P",
    "MB",
    "ND",
    "MOSAIC"
],
  "ImagingFrequency": 123.259,
  "InPlanePhaseEncodingDirectionDICOM": "COL",
  "InstitutionAddress": "Chemin_Queen-Mary_4565_Montreal_District_CA_H3W_1W5",
  "InstitutionName": "IUGM",
  "InstitutionalDepartmentName": "Department",
  "MRAcquisitionType": "2D",
  "MagneticFieldStrength": 3,
  "Manufacturer": "Siemens",
  "ManufacturersModelName": "Prisma_fit",
  "Modality": "MR",
  "MultibandAccelerationFactor": 4,
  "PartialFourier": 1,
  "PatientPosition": "HFS",
  "PercentPhaseFOV": 100,
  "PhaseEncodingDirection": "j",
  "PhaseEncodingSteps": 104,
  "PhaseResolution": 1,
  "PixelBandwidth": 2290,
  "ProcedureStepDescription": "memory_things",
  "ProtocolName": "func_task-things_run-1",
  "PulseSequenceDetails": "%CustomerSeq%_cmrr_mbep2d_bold",
  "ReceiveCoilActiveElements": "HC1-7;NC1,2",
  "ReceiveCoilName": "HeadNeck_64",
  "ReconMatrixPE": 104,
  "RepetitionTime": 1.49,
  "SAR": 0.0593549,
  "ScanOptions": "FS",
  "ScanningSequence": "EP",
  "SequenceName": "epfid2d1_104",
  "SequenceVariant": "SK_SS",
  "SeriesDescription": "func_task-things_run-1",
  "SeriesNumber": 11,
  "ShimSetting": [638, -7220, -8784, 756, 32, -15, 66, -10],
  "SliceThickness": 2,
  "SliceTiming": [0, 0.785, 0.0975, 0.8825, 0.1975, 0.98, 0.295, 1.0775, 0.3925, 1.1775, 0.49, 1.275, 0.5875, 1.3725, 0.6875, 0, 0.785, 0.0975, 0.8825, 0.1975, 0.98, 0.295, 1.0775, 0.3925, 1.1775, 0.49, 1.275, 0.5875, 1.3725, 0.6875, 0, 0.785, 0.0975, 0.8825, 0.1975, 0.98, 0.295, 1.0775, 0.3925, 1.1775, 0.49, 1.275, 0.5875, 1.3725, 0.6875, 0, 0.785, 0.0975, 0.8825, 0.1975, 0.98, 0.295, 1.0775, 0.3925, 1.1775, 0.49, 1.275, 0.5875, 1.3725, 0.6875],
  "SoftwareVersions": "syngo_MR_E11",
  "SpacingBetweenSlices": 2,
  "StationName": "MRC35049",
  "TaskName": "things",
  "TotalReadoutTime": 0.0576811,
  "TxRefAmp": 252.515,
  "WipMemBlock": "f17665ac-4555-4a76-81bf-d32283feccd3||Sequence: R016 ve11c/master r/e634e98; Dec 19 2017 11:00:25 by eja",
  "dcmmeta_affine": [
    [-1.997930884361267, 0.005579340271651745, 0.0907808318734169, 106.51033782958984],
    [-0.018042055889964104, 1.9322509765625, -0.515829861164093, -73.41678619384766],
    [0.08914467692375183, 0.516115128993988, 1.9302016496658325, -67.06166076660156],
    [0.0, 0.0, 0.0, 1.0]
],
  "dcmmeta_reorient_transform": [
    [0.0, -1.0, 0.0, 103.0],
    [1.0, 0.0, 0.0, 0.0],
    [0.0, 0.0, 1.0, 0.0],
    [0.0, 0.0, 0.0, 1.0]
],
  "dcmmeta_shape": [104, 104, 60, 190],
  "dcmmeta_slice_dim": 2,
  "dcmmeta_version": 0.6,
  "global": {
    "const": {
      "AcquisitionMatrix": [104, 0, 0, 104],
      "AngioFlag": "N",
      "BitsAllocated": 16,
      "BitsStored": 16,
      "BodyPartExamined": "BRAIN",
      "Columns": 832,
      "EchoNumbers": 1,
      "EchoTime": 37.0,
      "EchoTrainLength": 104,
      "FlipAngle": 52.0,
      "HighBit": 15,
      "ImageOrientationPatient": [0.99896542871499, 0.00902102800957, 0.0445723376762, 0.00278967007465, 0.96612551299097, -0.2580575728182],
      "ImagePositionPatient": [-836.36272136473, -835.51175289248, 141.51545233248],
      "ImageType": [
        "ORIGINAL",
        "PRIMARY",
        "P",
        "MB",
        "ND",
        "MOSAIC"
],
      "ImagedNucleus": "1H",
      "ImagingFrequency": 123.259098,
      "InPlanePhaseEncodingDirection": "COL",
      "LargestImagePixelValue": 4095,
      "MRAcquisitionType": "2D",
      "MagneticFieldStrength": 3.0,
      "Manufacturer": "SIEMENS",
      "ManufacturerModelName": "Prisma_fit",
      "Modality": "MR",
      "NumberOfAverages": 1.0,
      "NumberOfPhaseEncodingSteps": 104,
      "PercentPhaseFieldOfView": 100.0,
      "PercentSampling": 100.0,
      "PerformedProcedureStepStartTime": "120338.588000",
      "PhotometricInterpretation": "MONOCHROME2",
      "PixelBandwidth": 2290.0,
      "PixelRepresentation": 0,
      "PixelSpacing": [2.0, 2.0],
      "ProtocolName": "func_task-things_run-1",
      "RepetitionTime": 1490.0,
      "RescaleIntercept": -4096.0,
      "RescaleSlope": 2.0,
      "RescaleType": "US",
      "Rows": 832,
      "SAR": 0.0593548999034,
      "SamplesPerPixel": 1,
      "ScanOptions": "FS",
      "ScanningSequence": "EP",
      "SequenceName": "epfid2d1_104",
      "SequenceVariant": [
        "SK",
        "SS"
],
      "SeriesDescription": "func_task-things_run-1",
      "SeriesNumber": 11,
      "SeriesTime": "132133.285000",
      "SliceLocation": -40.951428095534,
      "SliceThickness": 2.0,
      "SmallestImagePixelValue": 0,
      "SoftwareVersions": "syngo MR E11",
      "SpacingBetweenSlices": 2.0000000009706,
      "SpecificCharacterSet": "ISO_IR 100",
      "StudyID": "1",
      "StudyTime": "120338.480000",
      "TransmitCoilName": "Body",
      "VariableFlipAngleFlag": "N",
      "WindowCenterWidthExplanation": "Algo1",
      "dBdt": 0.0},
    "slices": {}
  },
  "time": {
    "samples": {
      "AcquisitionNumber": [1, 2, 3, 4, 5, 6, 7, 8, 9, 10, 11, 12, 13, 14, 15, 16, 17, 18, 19, 20, 21, 22, 23, 24, 25, 26, 27, 28, 29, 30, 31, 32, 33, 34, 35, 36, 37, 38, 39, 40, 41, 42, 43, 44, 45, 46, 47, 48, 49, 50, 51, 52, 53, 54, 55, 56, 57, 58, 59, 60, 61, 62, 63, 64, 65, 66, 67, 68, 69, 70, 71, 72, 73, 74, 75, 76, 77, 78, 79, 80, 81, 82, 83, 84, 85, 86, 87, 88, 89, 90, 91, 92, 93, 94, 95, 96, 97, 98, 99, 100, 101, 102, 103, 104, 105, 106, 107, 108, 109, 110, 111, 112, 113, 114, 115, 116, 117, 118, 119, 120, 121, 122, 123, 124, 125, 126, 127, 128, 129, 130, 131, 132, 133, 134, 135, 136, 137, 138, 139, 140, 141, 142, 143, 144, 145, 146, 147, 148, 149, 150, 151, 152, 153, 154, 155, 156, 157, 158, 159, 160, 161, 162, 163, 164, 165, 166, 167, 168, 169, 170, 171, 172, 173, 174, 175, 176, 177, 178, 179, 180, 181, 182, 183, 184, 185, 186, 187, 188, 189, 190],
      "AcquisitionTime": ["132008.025000", "132009.515000", "132011.005000", "132012.495000", "132013.985000", "132015.475000", "132016.965000", "132018.455000", "132019.945000", "132021.435000", "132022.925000", "132024.415000", "132025.905000", "132027.395000", "132028.885000", "132030.375000", "132031.865000", "132033.355000", "132034.845000", "132036.335000", "132037.825000", "132039.315000", "132040.805000", "132042.295000", "132043.785000", "132045.275000", "132046.765000", "132048.255000", "132049.745000", "132051.235000", "132052.725000", "132054.215000", "132055.705000", "132057.195000", "132058.685000", "132100.175000", "132101.665000", "132103.155000", "132104.645000", "132106.135000", "132107.625000", "132109.115000", "132110.605000", "132112.095000", "132113.585000", "132115.075000", "132116.565000", "132118.055000", "132119.545000", "132121.035000", "132122.525000", "132124.015000", "132125.505000", "132126.995000", "132128.485000", "132129.975000", "132131.465000", "132132.955000", "132134.445000", "132135.935000", "132137.425000", "132138.915000", "132140.405000", "132141.895000", "132143.385000", "132144.875000", "132146.365000", "132147.855000", "132149.345000", "132150.835000", "132152.325000", "132153.815000", "132155.305000", "132156.795000", "132158.285000", "132159.775000", "132201.265000", "132202.755000", "132204.245000", "132205.735000", "132207.225000", "132208.715000", "132210.205000", "132211.695000", "132213.185000", "132214.675000", "132216.165000", "132217.655000", "132219.145000", "132220.635000", "132222.125000", "132223.615000", "132225.105000", "132226.595000", "132228.085000", "132229.575000", "132231.065000", "132232.555000", "132234.045000", "132235.535000", "132237.025000", "132238.515000", "132240.005000", "132241.495000", "132242.985000", "132244.475000", "132245.965000", "132247.455000", "132248.945000", "132250.435000", "132251.925000", "132253.415000", "132254.905000", "132256.395000", "132257.885000", "132259.375000", "132300.865000", "132302.355000", "132303.845000", "132305.335000", "132306.825000", "132308.315000", "132309.805000", "132311.295000", "132312.785000", "132314.275000", "132315.765000", "132317.255000", "132318.745000", "132320.235000", "132321.725000", "132323.215000", "132324.705000", "132326.195000", "132327.685000", "132329.175000", "132330.665000", "132332.155000", "132333.645000", "132335.135000", "132336.625000", "132338.115000", "132339.605000", "132341.095000", "132342.585000", "132344.075000", "132345.565000", "132347.055000", "132348.545000", "132350.035000", "132351.525000", "132353.015000", "132354.505000", "132355.995000", "132357.485000", "132358.975000", "132400.465000", "132401.955000", "132403.445000", "132404.935000", "132406.425000", "132407.915000", "132409.405000", "132410.895000", "132412.385000", "132413.875000", "132415.365000", "132416.855000", "132418.345000", "132419.835000", "132421.325000", "132422.815000", "132424.305000", "132425.795000", "132427.285000", "132428.775000", "132430.265000", "132431.755000", "132433.245000", "132434.735000", "132436.225000", "132437.715000", "132439.205000", "132440.695000", "132442.185000", "132443.675000", "132445.165000", "132446.655000", "132448.145000", "132449.635000"],
      "ContentTime": ["132133.287000", "132133.290000", "132133.292000", "132133.294000", "132133.297000", "132133.300000", "132133.302000", "132133.305000", "132133.307000", "132133.309000", "132133.318000", "132133.320000", "132133.323000", "132133.325000", "132133.328000", "132133.330000", "132133.333000", "132133.335000", "132133.338000", "132133.340000", "132133.343000", "132133.345000", "132133.348000", "132133.350000", "132133.353000", "132133.355000", "132133.358000", "132133.360000", "132133.363000", "132153.198000", "132153.201000", "132153.203000", "132153.206000", "132153.209000", "132153.211000", "132153.214000", "132153.216000", "132153.218000", "132153.221000", "132153.223000", "132153.226000", "132153.228000", "132153.231000", "132153.233000", "132153.236000", "132153.238000", "132153.241000", "132153.243000", "132153.245000", "132153.248000", "132213.226000", "132213.229000", "132213.231000", "132213.234000", "132213.236000", "132213.239000", "132213.241000", "132213.244000", "132213.246000", "132213.248000", "132213.251000", "132213.253000", "132213.256000", "132213.258000", "132213.261000", "132213.263000", "132213.266000", "132213.268000", "132213.270000", "132213.273000", "132233.202000", "132233.204000", "132233.207000", "132233.209000", "132233.212000", "132233.214000", "132233.217000", "132233.219000", "132233.222000", "132233.224000", "132233.226000", "132233.236000", "132233.238000", "132233.241000", "132233.243000", "132233.246000", "132233.248000", "132233.251000", "132233.253000", "132233.256000", "132253.189000", "132253.192000", "132253.195000", "132253.197000", "132253.200000", "132253.209000", "132253.211000", "132253.214000", "132253.216000", "132253.219000", "132253.221000", "132253.223000", "132253.226000", "132253.228000", "132253.231000", "132253.233000", "132253.236000", "132253.238000", "132253.241000", "132253.243000", "132333.238000", "132333.240000", "132333.243000", "132333.245000", "132333.248000", "132333.250000", "132333.253000", "132333.255000", "132333.258000", "132333.260000", "132333.263000", "132333.265000", "132333.268000", "132333.270000", "132333.273000", "132333.275000", "132333.278000", "132333.280000", "132333.283000", "132333.285000", "132333.288000", "132333.290000", "132333.292000", "132333.295000", "132333.297000", "132333.300000", "132413.696000", "132413.699000", "132413.701000", "132413.704000", "132413.706000", "132413.709000", "132413.711000", "132413.714000", "132413.716000", "132413.719000", "132413.721000", "132413.723000", "132413.726000", "132413.728000", "132413.731000", "132413.733000", "132413.736000", "132413.738000", "132413.741000", "132413.743000", "132413.746000", "132413.748000", "132413.751000", "132413.753000", "132413.756000", "132413.758000", "132413.761000", "132452.289000", "132452.292000", "132452.295000", "132452.297000", "132452.300000", "132452.302000", "132452.305000", "132452.307000", "132452.310000", "132452.312000", "132452.315000", "132452.318000", "132452.320000", "132452.323000", "132452.325000", "132452.328000", "132452.333000", "132452.336000", "132452.338000", "132452.341000", "132452.343000", "132452.346000", "132452.348000", "132452.351000", "132452.353000", "132452.356000", "132452.358000"],
      "InstanceCreationTime": ["132133.287000", "132133.290000", "132133.292000", "132133.294000", "132133.297000", "132133.300000", "132133.302000", "132133.305000", "132133.307000", "132133.309000", "132133.318000", "132133.320000", "132133.323000", "132133.325000", "132133.328000", "132133.330000", "132133.333000", "132133.335000", "132133.338000", "132133.340000", "132133.343000", "132133.345000", "132133.348000", "132133.350000", "132133.353000", "132133.355000", "132133.358000", "132133.360000", "132133.363000", "132153.198000", "132153.201000", "132153.203000", "132153.206000", "132153.209000", "132153.211000", "132153.214000", "132153.216000", "132153.218000", "132153.221000", "132153.223000", "132153.226000", "132153.228000", "132153.231000", "132153.233000", "132153.236000", "132153.238000", "132153.241000", "132153.243000", "132153.245000", "132153.248000", "132213.226000", "132213.229000", "132213.231000", "132213.234000", "132213.236000", "132213.239000", "132213.241000", "132213.244000", "132213.246000", "132213.248000", "132213.251000", "132213.253000", "132213.256000", "132213.258000", "132213.261000", "132213.263000", "132213.266000", "132213.268000", "132213.270000", "132213.273000", "132233.202000", "132233.204000", "132233.207000", "132233.209000", "132233.212000", "132233.214000", "132233.217000", "132233.219000", "132233.222000", "132233.224000", "132233.226000", "132233.236000", "132233.238000", "132233.241000", "132233.243000", "132233.246000", "132233.248000", "132233.251000", "132233.253000", "132233.256000", "132253.189000", "132253.192000", "132253.195000", "132253.197000", "132253.200000", "132253.209000", "132253.211000", "132253.214000", "132253.216000", "132253.219000", "132253.221000", "132253.223000", "132253.226000", "132253.228000", "132253.231000", "132253.233000", "132253.236000", "132253.238000", "132253.241000", "132253.243000", "132333.238000", "132333.240000", "132333.243000", "132333.245000", "132333.248000", "132333.250000", "132333.253000", "132333.255000", "132333.258000", "132333.260000", "132333.263000", "132333.265000", "132333.268000", "132333.270000", "132333.273000", "132333.275000", "132333.278000", "132333.280000", "132333.283000", "132333.285000", "132333.288000", "132333.290000", "132333.292000", "132333.295000", "132333.297000", "132333.300000", "132413.696000", "132413.699000", "132413.701000", "132413.704000", "132413.706000", "132413.709000", "132413.711000", "132413.714000", "132413.716000", "132413.719000", "132413.721000", "132413.723000", "132413.726000", "132413.728000", "132413.731000", "132413.733000", "132413.736000", "132413.738000", "132413.741000", "132413.743000", "132413.746000", "132413.748000", "132413.751000", "132413.753000", "132413.756000", "132413.758000", "132413.761000", "132452.289000", "132452.292000", "132452.295000", "132452.297000", "132452.300000", "132452.302000", "132452.305000", "132452.307000", "132452.310000", "132452.312000", "132452.315000", "132452.318000", "132452.320000", "132452.323000", "132452.325000", "132452.328000", "132452.333000", "132452.336000", "132452.338000", "132452.341000", "132452.343000", "132452.346000", "132452.348000", "132452.351000", "132452.353000", "132452.356000", "132452.358000"],
      "InstanceNumber": [1, 2, 3, 4, 5, 6, 7, 8, 9, 10, 11, 12, 13, 14, 15, 16, 17, 18, 19, 20, 21, 22, 23, 24, 25, 26, 27, 28, 29, 30, 31, 32, 33, 34, 35, 36, 37, 38, 39, 40, 41, 42, 43, 44, 45, 46, 47, 48, 49, 50, 51, 52, 53, 54, 55, 56, 57, 58, 59, 60, 61, 62, 63, 64, 65, 66, 67, 68, 69, 70, 71, 72, 73, 74, 75, 76, 77, 78, 79, 80, 81, 82, 83, 84, 85, 86, 87, 88, 89, 90, 91, 92, 93, 94, 95, 96, 97, 98, 99, 100, 101, 102, 103, 104, 105, 106, 107, 108, 109, 110, 111, 112, 113, 114, 115, 116, 117, 118, 119, 120, 121, 122, 123, 124, 125, 126, 127, 128, 129, 130, 131, 132, 133, 134, 135, 136, 137, 138, 139, 140, 141, 142, 143, 144, 145, 146, 147, 148, 149, 150, 151, 152, 153, 154, 155, 156, 157, 158, 159, 160, 161, 162, 163, 164, 165, 166, 167, 168, 169, 170, 171, 172, 173, 174, 175, 176, 177, 178, 179, 180, 181, 182, 183, 184, 185, 186, 187, 188, 189, 190],
      "WindowCenter": [4864.0, 4866.0, 4862.0, 4866.0, 4866.0, 4868.0, 4864.0, 4864.0, 4890.0, 4864.0, 4864.0, 4862.0, 4866.0, 4866.0, 4866.0, 4862.0, 4862.0, 4862.0, 4866.0, 4868.0, 4864.0, 4864.0, 4862.0, 4866.0, 4864.0, 4866.0, 4864.0, 4864.0, 4864.0, 4862.0, 4868.0, 4864.0, 4866.0, 4864.0, 4866.0, 4864.0, 4864.0, 4866.0, 4862.0, 4862.0, 4860.0, 4864.0, 4866.0, 4864.0, 4864.0, 4866.0, 4864.0, 4866.0, 4864.0, 4866.0, 4864.0, 4862.0, 4866.0, 4866.0, 4864.0, 4864.0, 4864.0, 4864.0, 4866.0, 4866.0, 4866.0, 4866.0, 4868.0, 4864.0, 4868.0, 4866.0, 4868.0, 4866.0, 4866.0, 4862.0, 4864.0, 4868.0, 4864.0, 4866.0, 4864.0, 4860.0, 4864.0, 4866.0, 4862.0, 4868.0, 4866.0, 4866.0, 4866.0, 4864.0, 4864.0, 4864.0, 4864.0, 4864.0, 4866.0, 4866.0, 4862.0, 4866.0, 4862.0, 4864.0, 4862.0, 4866.0, 4864.0, 4866.0, 4862.0, 4862.0, 4866.0, 4864.0, 4864.0, 4862.0, 4864.0, 4862.0, 4864.0, 4866.0, 4864.0, 4866.0, 4864.0, 4866.0, 4860.0, 4866.0, 4866.0, 4860.0, 4864.0, 4864.0, 4862.0, 4864.0, 4868.0, 4864.0, 4864.0, 4864.0, 4864.0, 4866.0, 4862.0, 4864.0, 4864.0, 4864.0, 4866.0, 4864.0, 4862.0, 4868.0, 4864.0, 4866.0, 4868.0, 4866.0, 4868.0, 4862.0, 4864.0, 4860.0, 4864.0, 4866.0, 4866.0, 4864.0, 4866.0, 4864.0, 4868.0, 4866.0, 4864.0, 4862.0, 4868.0, 4864.0, 4866.0, 4866.0, 4868.0, 4864.0, 4864.0, 4868.0, 4864.0, 4862.0, 4864.0, 4864.0, 4866.0, 4866.0, 4864.0, 4864.0, 4864.0, 4862.0, 4866.0, 4864.0, 4866.0, 4866.0, 4864.0, 4864.0, 4864.0, 4866.0, 4866.0, 4866.0, 4864.0, 4868.0, 4864.0, 4864.0, 4862.0, 4864.0, 4864.0, 4862.0, 4864.0, 4864.0],
      "WindowWidth": [18612.0, 18610.0, 18610.0, 18608.0, 18612.0, 18610.0, 18612.0, 18608.0, 18638.0, 18608.0, 18608.0, 18608.0, 18610.0, 18612.0, 18610.0, 18610.0, 18608.0, 18608.0, 18610.0, 18608.0, 18610.0, 18610.0, 18612.0, 18610.0, 18612.0, 18614.0, 18606.0, 18608.0, 18610.0, 18606.0, 18612.0, 18608.0, 18606.0, 18606.0, 18610.0, 18610.0, 18604.0, 18608.0, 18606.0, 18606.0, 18604.0, 18608.0, 18608.0, 18606.0, 18610.0, 18608.0, 18612.0, 18614.0, 18608.0, 18608.0, 18604.0, 18610.0, 18608.0, 18610.0, 18612.0, 18604.0, 18612.0, 18612.0, 18608.0, 18612.0, 18604.0, 18608.0, 18612.0, 18608.0, 18610.0, 18610.0, 18606.0, 18606.0, 18610.0, 18606.0, 18608.0, 18612.0, 18608.0, 18610.0, 18606.0, 18604.0, 18606.0, 18608.0, 18606.0, 18608.0, 18608.0, 18612.0, 18610.0, 18604.0, 18606.0, 18604.0, 18612.0, 18612.0, 18610.0, 18610.0, 18608.0, 18608.0, 18602.0, 18606.0, 18612.0, 18612.0, 18608.0, 18608.0, 18610.0, 18608.0, 18608.0, 18604.0, 18604.0, 18604.0, 18608.0, 18606.0, 18604.0, 18608.0, 18608.0, 18608.0, 18606.0, 18604.0, 18604.0, 18608.0, 18608.0, 18606.0, 18610.0, 18610.0, 18608.0, 18604.0, 18612.0, 18610.0, 18604.0, 18610.0, 18612.0, 18610.0, 18608.0, 18604.0, 18612.0, 18608.0, 18610.0, 18606.0, 18608.0, 18606.0, 18608.0, 18608.0, 18614.0, 18606.0, 18616.0, 18606.0, 18604.0, 18606.0, 18606.0, 18610.0, 18610.0, 18606.0, 18612.0, 18614.0, 18612.0, 18612.0, 18612.0, 18606.0, 18608.0, 18612.0, 18608.0, 18610.0, 18604.0, 18610.0, 18608.0, 18608.0, 18612.0, 18608.0, 18610.0, 18606.0, 18610.0, 18606.0, 18604.0, 18608.0, 18602.0, 18606.0, 18610.0, 18606.0, 18606.0, 18602.0, 18608.0, 18606.0, 18608.0, 18606.0, 18612.0, 18604.0, 18606.0, 18608.0, 18604.0, 18606.0, 18602.0, 18604.0, 18600.0, 18606.0, 18606.0, 18610.0]
    },
    "slices": {}
  }
}