{
  "AcquisitionMatrixPE": 104,
  "AcquisitionNumber": 1,
  "AcquisitionTime": "13:41:9.650000",
  "BandwidthPerPixelPhaseEncode": 17.17,
  "BaseResolution": 104,
  "BodyPartExamined": "BRAIN",
  "CoilString": "HC1-7;NC1_2",
  "ConsistencyInfo": "N4_VE11C_LATEST_20160120",
  "ConversionSoftware": "dcm2niix",
  "ConversionSoftwareVersion": "v1.0.20190902",
  "DerivedVendorReportedEchoSpacing": 0.000560011,
  "DeviceSerialNumber": "167006",
  "DwellTime": 2.1e-06,
  "EchoTime": 0.037,
  "EchoTrainLength": 104,
  "EffectiveEchoSpacing": 0.000560011,
  "FlipAngle": 52,
  "HeudiconvVersion": "0.10.0",
  "ImageComments": "Unaliased_MB4_PE3_LB",
  "ImageOrientationPatientDICOM": [0.998965, 0.00902103, 0.0445723, 0.00278967, 0.966125, -0.258058],
  "ImageType": [
    "ORIGINAL",
    "PRIMARY",
    "P",
    "MB",
    "ND",
    "MOSAIC"
],
  "ImagingFrequency": 123.259,
  "InPlanePhaseEncodingDirectionDICOM": "COL",
  "InstitutionAddress": "Chemin_Queen-Mary_4565_Montreal_District_CA_H3W_1W5",
  "InstitutionName": "IUGM",
  "InstitutionalDepartmentName": "Department",
  "MRAcquisitionType": "2D",
  "MagneticFieldStrength": 3,
  "Manufacturer": "Siemens",
  "ManufacturersModelName": "Prisma_fit",
  "Modality": "MR",
  "MultibandAccelerationFactor": 4,
  "PartialFourier": 1,
  "PatientPosition": "HFS",
  "PercentPhaseFOV": 100,
  "PhaseEncodingDirection": "j",
  "PhaseEncodingSteps": 104,
  "PhaseResolution": 1,
  "PixelBandwidth": 2290,
  "ProcedureStepDescription": "memory_things",
  "ProtocolName": "func_task-things_run-4",
  "PulseSequenceDetails": "%CustomerSeq%_cmrr_mbep2d_bold",
  "ReceiveCoilActiveElements": "HC1-7;NC1,2",
  "ReceiveCoilName": "HeadNeck_64",
  "ReconMatrixPE": 104,
  "RepetitionTime": 1.49,
  "SAR": 0.0593549,
  "ScanOptions": "FS",
  "ScanningSequence": "EP",
  "SequenceName": "epfid2d1_104",
  "SequenceVariant": "SK_SS",
  "SeriesDescription": "func_task-things_run-4",
  "SeriesNumber": 20,
  "ShimSetting": [638, -7220, -8784, 756, 32, -15, 66, -10],
  "SliceThickness": 2,
  "SliceTiming": [0, 0.785, 0.0975, 0.8825, 0.1975, 0.98, 0.295, 1.0775, 0.3925, 1.1775, 0.49, 1.275, 0.5875, 1.3725, 0.6875, 0, 0.785, 0.0975, 0.8825, 0.1975, 0.98, 0.295, 1.0775, 0.3925, 1.1775, 0.49, 1.275, 0.5875, 1.3725, 0.6875, 0, 0.785, 0.0975, 0.8825, 0.1975, 0.98, 0.295, 1.0775, 0.3925, 1.1775, 0.49, 1.275, 0.5875, 1.3725, 0.6875, 0, 0.785, 0.0975, 0.8825, 0.1975, 0.98, 0.295, 1.0775, 0.3925, 1.1775, 0.49, 1.275, 0.5875, 1.3725, 0.6875],
  "SoftwareVersions": "syngo_MR_E11",
  "SpacingBetweenSlices": 2,
  "StationName": "MRC35049",
  "TaskName": "things",
  "TotalReadoutTime": 0.0576811,
  "TxRefAmp": 252.515,
  "WipMemBlock": "7a0d9518-38cd-4f95-bc24-05a166e39041||Sequence: R016 ve11c/master r/e634e98; Dec 19 2017 11:00:25 by eja",
  "dcmmeta_affine": [
    [-1.997930884361267, 0.005579340271651745, 0.0907808318734169, 106.51033782958984],
    [-0.018042055889964104, 1.9322509765625, -0.515829861164093, -73.41678619384766],
    [0.08914467692375183, 0.516115128993988, 1.9302016496658325, -67.06166076660156],
    [0.0, 0.0, 0.0, 1.0]
],
  "dcmmeta_reorient_transform": [
    [0.0, -1.0, 0.0, 103.0],
    [1.0, 0.0, 0.0, 0.0],
    [0.0, 0.0, 1.0, 0.0],
    [0.0, 0.0, 0.0, 1.0]
],
  "dcmmeta_shape": [104, 104, 60, 190],
  "dcmmeta_slice_dim": 2,
  "dcmmeta_version": 0.6,
  "global": {
    "const": {
      "AcquisitionMatrix": [104, 0, 0, 104],
      "AngioFlag": "N",
      "BitsAllocated": 16,
      "BitsStored": 16,
      "BodyPartExamined": "BRAIN",
      "Columns": 832,
      "EchoNumbers": 1,
      "EchoTime": 37.0,
      "EchoTrainLength": 104,
      "FlipAngle": 52.0,
      "HighBit": 15,
      "ImageOrientationPatient": [0.99896542871499, 0.00902102800957, 0.0445723376762, 0.00278967007465, 0.96612551299097, -0.2580575728182],
      "ImagePositionPatient": [-836.36272136473, -835.51175289248, 141.51545233248],
      "ImageType": [
        "ORIGINAL",
        "PRIMARY",
        "P",
        "MB",
        "ND",
        "MOSAIC"
],
      "ImagedNucleus": "1H",
      "ImagingFrequency": 123.25911,
      "InPlanePhaseEncodingDirection": "COL",
      "LargestImagePixelValue": 4095,
      "MRAcquisitionType": "2D",
      "MagneticFieldStrength": 3.0,
      "Manufacturer": "SIEMENS",
      "ManufacturerModelName": "Prisma_fit",
      "Modality": "MR",
      "NumberOfAverages": 1.0,
      "NumberOfPhaseEncodingSteps": 104,
      "PercentPhaseFieldOfView": 100.0,
      "PercentSampling": 100.0,
      "PerformedProcedureStepStartTime": "120338.588000",
      "PhotometricInterpretation": "MONOCHROME2",
      "PixelBandwidth": 2290.0,
      "PixelRepresentation": 0,
      "PixelSpacing": [2.0, 2.0],
      "ProtocolName": "func_task-things_run-4",
      "RepetitionTime": 1490.0,
      "RescaleIntercept": -4096.0,
      "RescaleSlope": 2.0,
      "RescaleType": "US",
      "Rows": 832,
      "SAR": 0.0593548999034,
      "SamplesPerPixel": 1,
      "ScanOptions": "FS",
      "ScanningSequence": "EP",
      "SequenceName": "epfid2d1_104",
      "SequenceVariant": [
        "SK",
        "SS"
],
      "SeriesDescription": "func_task-things_run-4",
      "SeriesNumber": 20,
      "SeriesTime": "134233.292000",
      "SliceLocation": -40.951428095534,
      "SliceThickness": 2.0,
      "SmallestImagePixelValue": 0,
      "SoftwareVersions": "syngo MR E11",
      "SpacingBetweenSlices": 2.0000000009706,
      "SpecificCharacterSet": "ISO_IR 100",
      "StudyID": "1",
      "StudyTime": "120338.480000",
      "TransmitCoilName": "Body",
      "VariableFlipAngleFlag": "N",
      "WindowCenterWidthExplanation": "Algo1",
      "dBdt": 0.0},
    "slices": {}
  },
  "time": {
    "samples": {
      "AcquisitionNumber": [1, 2, 3, 4, 5, 6, 7, 8, 9, 10, 11, 12, 13, 14, 15, 16, 17, 18, 19, 20, 21, 22, 23, 24, 25, 26, 27, 28, 29, 30, 31, 32, 33, 34, 35, 36, 37, 38, 39, 40, 41, 42, 43, 44, 45, 46, 47, 48, 49, 50, 51, 52, 53, 54, 55, 56, 57, 58, 59, 60, 61, 62, 63, 64, 65, 66, 67, 68, 69, 70, 71, 72, 73, 74, 75, 76, 77, 78, 79, 80, 81, 82, 83, 84, 85, 86, 87, 88, 89, 90, 91, 92, 93, 94, 95, 96, 97, 98, 99, 100, 101, 102, 103, 104, 105, 106, 107, 108, 109, 110, 111, 112, 113, 114, 115, 116, 117, 118, 119, 120, 121, 122, 123, 124, 125, 126, 127, 128, 129, 130, 131, 132, 133, 134, 135, 136, 137, 138, 139, 140, 141, 142, 143, 144, 145, 146, 147, 148, 149, 150, 151, 152, 153, 154, 155, 156, 157, 158, 159, 160, 161, 162, 163, 164, 165, 166, 167, 168, 169, 170, 171, 172, 173, 174, 175, 176, 177, 178, 179, 180, 181, 182, 183, 184, 185, 186, 187, 188, 189, 190],
      "AcquisitionTime": ["134109.650000", "134111.140000", "134112.630000", "134114.120000", "134115.610000", "134117.100000", "134118.590000", "134120.080000", "134121.570000", "134123.060000", "134124.550000", "134126.040000", "134127.530000", "134129.020000", "134130.510000", "134132.000000", "134133.490000", "134134.980000", "134136.470000", "134137.960000", "134139.450000", "134140.940000", "134142.430000", "134143.920000", "134145.410000", "134146.900000", "134148.390000", "134149.880000", "134151.370000", "134152.860000", "134154.350000", "134155.840000", "134157.330000", "134158.820000", "134200.310000", "134201.800000", "134203.290000", "134204.780000", "134206.270000", "134207.760000", "134209.250000", "134210.740000", "134212.230000", "134213.720000", "134215.210000", "134216.700000", "134218.190000", "134219.680000", "134221.170000", "134222.660000", "134224.150000", "134225.640000", "134227.130000", "134228.620000", "134230.110000", "134231.600000", "134233.090000", "134234.580000", "134236.070000", "134237.560000", "134239.050000", "134240.540000", "134242.030000", "134243.520000", "134245.010000", "134246.500000", "134247.990000", "134249.480000", "134250.970000", "134252.460000", "134253.950000", "134255.440000", "134256.930000", "134258.420000", "134259.910000", "134301.400000", "134302.890000", "134304.380000", "134305.870000", "134307.360000", "134308.850000", "134310.340000", "134311.830000", "134313.320000", "134314.810000", "134316.300000", "134317.790000", "134319.280000", "134320.770000", "134322.260000", "134323.750000", "134325.240000", "134326.730000", "134328.220000", "134329.710000", "134331.200000", "134332.690000", "134334.180000", "134335.670000", "134337.160000", "134338.650000", "134340.140000", "134341.630000", "134343.120000", "134344.610000", "134346.100000", "134347.590000", "134349.080000", "134350.570000", "134352.060000", "134353.550000", "134355.040000", "134356.530000", "134358.020000", "134359.510000", "134401.000000", "134402.490000", "134403.980000", "134405.470000", "134406.960000", "134408.450000", "134409.940000", "134411.430000", "134412.920000", "134414.410000", "134415.900000", "134417.390000", "134418.880000", "134420.370000", "134421.860000", "134423.350000", "134424.840000", "134426.330000", "134427.820000", "134429.310000", "134430.800000", "134432.290000", "134433.780000", "134435.270000", "134436.760000", "134438.250000", "134439.740000", "134441.230000", "134442.720000", "134444.210000", "134445.700000", "134447.190000", "134448.680000", "134450.170000", "134451.660000", "134453.150000", "134454.640000", "134456.130000", "134457.620000", "134459.110000", "134500.600000", "134502.090000", "134503.580000", "134505.070000", "134506.560000", "134508.050000", "134509.540000", "134511.030000", "134512.520000", "134514.010000", "134515.500000", "134516.990000", "134518.480000", "134519.970000", "134521.460000", "134522.950000", "134524.440000", "134525.930000", "134527.420000", "134528.910000", "134530.400000", "134531.890000", "134533.380000", "134534.870000", "134536.360000", "134537.850000", "134539.340000", "134540.830000", "134542.320000", "134543.810000", "134545.300000", "134546.790000", "134548.280000", "134549.770000", "134551.260000"],
      "ContentTime": ["134233.295000", "134233.297000", "134233.300000", "134233.302000", "134233.305000", "134233.307000", "134233.310000", "134233.313000", "134233.315000", "134233.317000", "134233.320000", "134233.323000", "134233.325000", "134233.328000", "134233.330000", "134233.333000", "134233.335000", "134233.337000", "134233.340000", "134233.343000", "134233.345000", "134233.347000", "134233.350000", "134233.352000", "134233.355000", "134233.357000", "134233.360000", "134233.362000", "134233.368000", "134253.486000", "134253.488000", "134253.491000", "134253.493000", "134253.496000", "134253.498000", "134253.501000", "134253.503000", "134253.506000", "134253.508000", "134253.511000", "134253.513000", "134253.516000", "134253.518000", "134253.521000", "134253.523000", "134253.525000", "134253.528000", "134253.530000", "134253.533000", "134313.210000", "134313.213000", "134313.216000", "134313.218000", "134313.221000", "134313.223000", "134313.225000", "134313.228000", "134313.230000", "134313.233000", "134313.235000", "134313.238000", "134313.240000", "134313.243000", "134313.245000", "134313.248000", "134313.250000", "134313.252000", "134313.255000", "134313.257000", "134333.215000", "134333.218000", "134333.221000", "134333.223000", "134333.226000", "134333.228000", "134333.231000", "134333.233000", "134333.235000", "134333.238000", "134333.240000", "134333.243000", "134333.245000", "134333.248000", "134333.250000", "134333.253000", "134333.255000", "134333.258000", "134333.260000", "134333.263000", "134413.258000", "134413.261000", "134413.263000", "134413.266000", "134413.268000", "134413.270000", "134413.273000", "134413.275000", "134413.278000", "134413.280000", "134413.283000", "134413.285000", "134413.288000", "134413.290000", "134413.293000", "134413.295000", "134413.298000", "134413.300000", "134413.303000", "134413.305000", "134413.308000", "134413.310000", "134413.312000", "134413.315000", "134413.317000", "134413.320000", "134413.322000", "134413.325000", "134413.327000", "134413.330000", "134413.332000", "134413.335000", "134413.337000", "134453.226000", "134453.229000", "134453.231000", "134453.234000", "134453.236000", "134453.239000", "134453.241000", "134453.244000", "134453.246000", "134453.249000", "134453.251000", "134453.254000", "134453.256000", "134453.259000", "134453.261000", "134453.264000", "134453.266000", "134453.269000", "134453.271000", "134453.274000", "134453.276000", "134453.279000", "134453.281000", "134453.284000", "134453.286000", "134453.289000", "134453.291000", "134533.226000", "134533.229000", "134533.232000", "134533.234000", "134533.237000", "134533.239000", "134533.242000", "134533.244000", "134533.247000", "134533.249000", "134533.252000", "134533.254000", "134533.257000", "134533.259000", "134533.262000", "134533.264000", "134533.267000", "134533.269000", "134533.271000", "134533.274000", "134533.276000", "134533.279000", "134533.281000", "134533.284000", "134533.286000", "134533.289000", "134533.291000", "134554.006000", "134554.009000", "134554.011000", "134554.014000", "134554.016000", "134554.019000", "134554.021000", "134554.024000", "134554.026000", "134554.029000", "134554.032000", "134554.034000", "134554.037000", "134554.039000"],
      "InstanceCreationTime": ["134233.295000", "134233.297000", "134233.300000", "134233.302000", "134233.305000", "134233.307000", "134233.310000", "134233.313000", "134233.315000", "134233.317000", "134233.320000", "134233.323000", "134233.325000", "134233.328000", "134233.330000", "134233.333000", "134233.335000", "134233.337000", "134233.340000", "134233.343000", "134233.345000", "134233.347000", "134233.350000", "134233.352000", "134233.355000", "134233.357000", "134233.360000", "134233.362000", "134233.368000", "134253.486000", "134253.488000", "134253.491000", "134253.493000", "134253.496000", "134253.498000", "134253.501000", "134253.503000", "134253.506000", "134253.508000", "134253.511000", "134253.513000", "134253.516000", "134253.518000", "134253.521000", "134253.523000", "134253.525000", "134253.528000", "134253.530000", "134253.533000", "134313.210000", "134313.213000", "134313.216000", "134313.218000", "134313.221000", "134313.223000", "134313.225000", "134313.228000", "134313.230000", "134313.233000", "134313.235000", "134313.238000", "134313.240000", "134313.243000", "134313.245000", "134313.248000", "134313.250000", "134313.252000", "134313.255000", "134313.257000", "134333.215000", "134333.218000", "134333.221000", "134333.223000", "134333.226000", "134333.228000", "134333.231000", "134333.233000", "134333.235000", "134333.238000", "134333.240000", "134333.243000", "134333.245000", "134333.248000", "134333.250000", "134333.253000", "134333.255000", "134333.258000", "134333.260000", "134333.263000", "134413.258000", "134413.261000", "134413.263000", "134413.266000", "134413.268000", "134413.270000", "134413.273000", "134413.275000", "134413.278000", "134413.280000", "134413.283000", "134413.285000", "134413.288000", "134413.290000", "134413.293000", "134413.295000", "134413.298000", "134413.300000", "134413.303000", "134413.305000", "134413.308000", "134413.310000", "134413.312000", "134413.315000", "134413.317000", "134413.320000", "134413.322000", "134413.325000", "134413.327000", "134413.330000", "134413.332000", "134413.335000", "134413.337000", "134453.226000", "134453.229000", "134453.231000", "134453.234000", "134453.236000", "134453.239000", "134453.241000", "134453.244000", "134453.246000", "134453.249000", "134453.251000", "134453.254000", "134453.256000", "134453.259000", "134453.261000", "134453.264000", "134453.266000", "134453.269000", "134453.271000", "134453.274000", "134453.276000", "134453.279000", "134453.281000", "134453.284000", "134453.286000", "134453.289000", "134453.291000", "134533.226000", "134533.229000", "134533.232000", "134533.234000", "134533.237000", "134533.239000", "134533.242000", "134533.244000", "134533.247000", "134533.249000", "134533.252000", "134533.254000", "134533.257000", "134533.259000", "134533.262000", "134533.264000", "134533.267000", "134533.269000", "134533.271000", "134533.274000", "134533.276000", "134533.279000", "134533.281000", "134533.284000", "134533.286000", "134533.289000", "134533.291000", "134554.006000", "134554.009000", "134554.011000", "134554.014000", "134554.016000", "134554.019000", "134554.021000", "134554.024000", "134554.026000", "134554.029000", "134554.032000", "134554.034000", "134554.037000", "134554.039000"],
      "InstanceNumber": [1, 2, 3, 4, 5, 6, 7, 8, 9, 10, 11, 12, 13, 14, 15, 16, 17, 18, 19, 20, 21, 22, 23, 24, 25, 26, 27, 28, 29, 30, 31, 32, 33, 34, 35, 36, 37, 38, 39, 40, 41, 42, 43, 44, 45, 46, 47, 48, 49, 50, 51, 52, 53, 54, 55, 56, 57, 58, 59, 60, 61, 62, 63, 64, 65, 66, 67, 68, 69, 70, 71, 72, 73, 74, 75, 76, 77, 78, 79, 80, 81, 82, 83, 84, 85, 86, 87, 88, 89, 90, 91, 92, 93, 94, 95, 96, 97, 98, 99, 100, 101, 102, 103, 104, 105, 106, 107, 108, 109, 110, 111, 112, 113, 114, 115, 116, 117, 118, 119, 120, 121, 122, 123, 124, 125, 126, 127, 128, 129, 130, 131, 132, 133, 134, 135, 136, 137, 138, 139, 140, 141, 142, 143, 144, 145, 146, 147, 148, 149, 150, 151, 152, 153, 154, 155, 156, 157, 158, 159, 160, 161, 162, 163, 164, 165, 166, 167, 168, 169, 170, 171, 172, 173, 174, 175, 176, 177, 178, 179, 180, 181, 182, 183, 184, 185, 186, 187, 188, 189, 190],
      "WindowCenter": [4832.0, 4834.0, 4834.0, 4830.0, 4832.0, 4834.0, 4830.0, 4836.0, 4828.0, 4830.0, 4830.0, 4834.0, 4832.0, 4836.0, 4836.0, 4832.0, 4834.0, 4832.0, 4830.0, 4830.0, 4838.0, 4828.0, 4832.0, 4830.0, 4832.0, 4834.0, 4836.0, 4832.0, 4832.0, 4834.0, 4830.0, 4832.0, 4830.0, 4834.0, 4832.0, 4834.0, 4830.0, 4834.0, 4836.0, 4832.0, 4832.0, 4830.0, 4836.0, 4834.0, 4836.0, 4832.0, 4828.0, 4832.0, 4832.0, 4834.0, 4830.0, 4836.0, 4834.0, 4834.0, 4832.0, 4836.0, 4830.0, 4836.0, 4832.0, 4834.0, 4834.0, 4834.0, 4830.0, 4834.0, 4832.0, 4830.0, 4834.0, 4832.0, 4834.0, 4832.0, 4830.0, 4836.0, 4832.0, 4834.0, 4838.0, 4834.0, 4836.0, 4832.0, 4832.0, 4828.0, 4834.0, 4826.0, 4834.0, 4840.0, 4834.0, 4834.0, 4836.0, 4834.0, 4832.0, 4832.0, 4834.0, 4836.0, 4830.0, 4834.0, 4834.0, 4834.0, 4836.0, 4836.0, 4832.0, 4834.0, 4834.0, 4836.0, 4832.0, 4834.0, 4832.0, 4838.0, 4834.0, 4832.0, 4830.0, 4838.0, 4838.0, 4836.0, 4834.0, 4832.0, 4832.0, 4832.0, 4832.0, 4830.0, 4834.0, 4836.0, 4836.0, 4836.0, 4836.0, 4832.0, 4832.0, 4834.0, 4834.0, 4830.0, 4834.0, 4832.0, 4834.0, 4836.0, 4834.0, 4832.0, 4834.0, 4830.0, 4834.0, 4834.0, 4832.0, 4830.0, 4834.0, 4832.0, 4834.0, 4830.0, 4836.0, 4836.0, 4836.0, 4832.0, 4832.0, 4834.0, 4836.0, 4832.0, 4836.0, 4834.0, 4834.0, 4834.0, 4836.0, 4832.0, 4832.0, 4832.0, 4832.0, 4834.0, 4838.0, 4834.0, 4834.0, 4830.0, 4832.0, 4834.0, 4834.0, 4834.0, 4832.0, 4834.0, 4832.0, 4836.0, 4832.0, 4838.0, 4832.0, 4836.0, 4836.0, 4834.0, 4834.0, 4832.0, 4832.0, 4834.0, 4832.0, 4838.0, 4834.0, 4836.0, 4836.0, 4834.0],
      "WindowWidth": [18578.0, 18576.0, 18580.0, 18572.0, 18580.0, 18572.0, 18572.0, 18580.0, 18576.0, 18578.0, 18576.0, 18582.0, 18578.0, 18580.0, 18582.0, 18578.0, 18578.0, 18578.0, 18576.0, 18580.0, 18586.0, 18576.0, 18578.0, 18584.0, 18576.0, 18576.0, 18584.0, 18576.0, 18576.0, 18580.0, 18576.0, 18574.0, 18576.0, 18586.0, 18576.0, 18580.0, 18574.0, 18578.0, 18582.0, 18572.0, 18572.0, 18578.0, 18574.0, 18582.0, 18582.0, 18580.0, 18576.0, 18576.0, 18578.0, 18580.0, 18572.0, 18578.0, 18576.0, 18580.0, 18580.0, 18582.0, 18576.0, 18580.0, 18580.0, 18574.0, 18584.0, 18576.0, 18580.0, 18576.0, 18572.0, 18570.0, 18576.0, 18584.0, 18580.0, 18574.0, 18572.0, 18576.0, 18576.0, 18580.0, 18582.0, 18578.0, 18582.0, 18580.0, 18578.0, 18574.0, 18578.0, 18574.0, 18582.0, 18582.0, 18580.0, 18576.0, 18572.0, 18576.0, 18576.0, 18572.0, 18586.0, 18578.0, 18574.0, 18580.0, 18582.0, 18580.0, 18580.0, 18578.0, 18580.0, 18576.0, 18576.0, 18584.0, 18578.0, 18576.0, 18584.0, 18580.0, 18578.0, 18580.0, 18580.0, 18578.0, 18578.0, 18582.0, 18580.0, 18576.0, 18576.0, 18580.0, 18580.0, 18576.0, 18578.0, 18578.0, 18578.0, 18582.0, 18578.0, 18576.0, 18578.0, 18580.0, 18578.0, 18574.0, 18584.0, 18580.0, 18578.0, 18584.0, 18576.0, 18580.0, 18580.0, 18582.0, 18576.0, 18578.0, 18576.0, 18582.0, 18580.0, 18578.0, 18576.0, 18574.0, 18580.0, 18582.0, 18584.0, 18576.0, 18574.0, 18578.0, 18578.0, 18578.0, 18576.0, 18578.0, 18578.0, 18584.0, 18578.0, 18578.0, 18578.0, 18578.0, 18576.0, 18578.0, 18580.0, 18580.0, 18578.0, 18578.0, 18572.0, 18574.0, 18582.0, 18578.0, 18578.0, 18582.0, 18580.0, 18574.0, 18574.0, 18582.0, 18578.0, 18582.0, 18578.0, 18576.0, 18580.0, 18574.0, 18576.0, 18574.0, 18574.0, 18580.0, 18580.0, 18576.0, 18576.0, 18576.0]
    },
    "slices": {}
  }
}