{
  "AcquisitionMatrixPE": 104,
  "AcquisitionNumber": 1,
  "AcquisitionTime": "13:50:21.917500",
  "BandwidthPerPixelPhaseEncode": 17.17,
  "BaseResolution": 104,
  "BodyPartExamined": "BRAIN",
  "CoilString": "HC1-7;NC1_2",
  "ConsistencyInfo": "N4_VE11C_LATEST_20160120",
  "ConversionSoftware": "dcm2niix",
  "ConversionSoftwareVersion": "v1.0.20190902",
  "DerivedVendorReportedEchoSpacing": 0.000560011,
  "DeviceSerialNumber": "167006",
  "DwellTime": 2.1e-06,
  "EchoTime": 0.037,
  "EchoTrainLength": 104,
  "EffectiveEchoSpacing": 0.000560011,
  "FlipAngle": 52,
  "ImageComments": "Unaliased_MB4_PE3_LB",
  "ImageOrientationPatientDICOM": [0.999149, 0.00948899, 0.040134, -0.00122072, 0.979548, -0.201207],
  "ImageType": [
    "ORIGINAL",
    "PRIMARY",
    "P",
    "MB",
    "ND",
    "MOSAIC"
],
  "ImagingFrequency": 123.259,
  "InPlanePhaseEncodingDirectionDICOM": "COL",
  "InstitutionAddress": "Chemin_Queen-Mary_4565_Montreal_District_CA_H3W_1W5",
  "InstitutionName": "IUGM",
  "InstitutionalDepartmentName": "Department",
  "MRAcquisitionType": "2D",
  "MagneticFieldStrength": 3,
  "Manufacturer": "Siemens",
  "ManufacturersModelName": "Prisma_fit",
  "Modality": "MR",
  "MultibandAccelerationFactor": 4,
  "PartialFourier": 1,
  "PatientPosition": "HFS",
  "PercentPhaseFOV": 100,
  "PhaseEncodingDirection": "j",
  "PhaseEncodingSteps": 104,
  "PhaseResolution": 1,
  "PixelBandwidth": 2290,
  "ProcedureStepDescription": "memory_things",
  "ProtocolName": "func_task-things_run-6",
  "PulseSequenceDetails": "%CustomerSeq%_cmrr_mbep2d_bold",
  "ReceiveCoilActiveElements": "HC1-7;NC1,2",
  "ReceiveCoilName": "HeadNeck_64",
  "ReconMatrixPE": 104,
  "RepetitionTime": 1.49,
  "SAR": 0.0397842,
  "ScanOptions": "FS",
  "ScanningSequence": "EP",
  "SequenceName": "epfid2d1_104",
  "SequenceVariant": "SK_SS",
  "SeriesDescription": "func_task-things_run-6",
  "SeriesNumber": 26,
  "ShimSetting": [641, -7225, -8780, 728, 27, -42, 128, -14],
  "SliceThickness": 2,
  "SliceTiming": [0, 0.7825, 0.0975, 0.88, 0.195, 0.98, 0.2925, 1.0775, 0.39, 1.175, 0.49, 1.2725, 0.5875, 1.37, 0.685, 0, 0.7825, 0.0975, 0.88, 0.195, 0.98, 0.2925, 1.0775, 0.39, 1.175, 0.49, 1.2725, 0.5875, 1.37, 0.685, 0, 0.7825, 0.0975, 0.88, 0.195, 0.98, 0.2925, 1.0775, 0.39, 1.175, 0.49, 1.2725, 0.5875, 1.37, 0.685, 0, 0.7825, 0.0975, 0.88, 0.195, 0.98, 0.2925, 1.0775, 0.39, 1.175, 0.49, 1.2725, 0.5875, 1.37, 0.685],
  "SoftwareVersions": "syngo_MR_E11",
  "SpacingBetweenSlices": 2,
  "StationName": "MRC35049",
  "TaskName": "things",
  "TotalReadoutTime": 0.0576811,
  "TxRefAmp": 229.044,
  "WipMemBlock": "79ec13d8-4061-4592-997a-c98b0f916ae4||Sequence: R016 ve11c/master r/e634e98; Dec 19 2017 11:00:25 by eja",
  "dcmmeta_affine": [
    [-1.9982985258102417, -0.002441443270072341, 0.08244495093822479, 106.78218078613281],
    [-0.01897798478603363, 1.959096074104309, -0.4019731283187866, -77.10684204101562],
    [0.08026809245347977, 0.4024134874343872, 1.9574525356292725, -58.37173080444336],
    [0.0, 0.0, 0.0, 1.0]
],
  "dcmmeta_reorient_transform": [
    [0.0, -1.0, 0.0, 103.0],
    [1.0, 0.0, 0.0, 0.0],
    [0.0, 0.0, 1.0, 0.0],
    [0.0, 0.0, 0.0, 1.0]
],
  "dcmmeta_shape": [104, 104, 60, 190],
  "dcmmeta_slice_dim": 2,
  "dcmmeta_version": 0.6,
  "global": {
    "const": {
      "AcquisitionMatrix": [104, 0, 0, 104],
      "AngioFlag": "N",
      "BitsAllocated": 16,
      "BitsStored": 16,
      "BodyPartExamined": "BRAIN",
      "Columns": 832,
      "EchoNumbers": 1,
      "EchoTime": 37.0,
      "EchoTrainLength": 104,
      "FlipAngle": 52.0,
      "HighBit": 15,
      "ImageOrientationPatient": [0.99914924672483, 0.00948899241315, 0.04013404779228, -0.0012207216537, 0.97954803812781, -0.2012067365637],
      "ImagePositionPatient": [-833.02267906128, -844.69901509856, 100.33777536713],
      "ImageType": [
        "ORIGINAL",
        "PRIMARY",
        "P",
        "MB",
        "ND",
        "MOSAIC"
],
      "ImagedNucleus": "1H",
      "ImagingFrequency": 123.258932,
      "InPlanePhaseEncodingDirection": "COL",
      "LargestImagePixelValue": 4095,
      "MRAcquisitionType": "2D",
      "MagneticFieldStrength": 3.0,
      "Manufacturer": "SIEMENS",
      "ManufacturerModelName": "Prisma_fit",
      "Modality": "MR",
      "NumberOfAverages": 1.0,
      "NumberOfPhaseEncodingSteps": 104,
      "PercentPhaseFieldOfView": 100.0,
      "PercentSampling": 100.0,
      "PerformedProcedureStepStartTime": "115232.984000",
      "PhotometricInterpretation": "MONOCHROME2",
      "PixelBandwidth": 2290.0,
      "PixelRepresentation": 0,
      "PixelSpacing": [2.0, 2.0],
      "ProtocolName": "func_task-things_run-6",
      "RepetitionTime": 1490.0,
      "RescaleIntercept": -4096.0,
      "RescaleSlope": 2.0,
      "RescaleType": "US",
      "Rows": 832,
      "SAR": 0.0397841528607,
      "SamplesPerPixel": 1,
      "ScanOptions": "FS",
      "ScanningSequence": "EP",
      "SequenceName": "epfid2d1_104",
      "SequenceVariant": [
        "SK",
        "SS"
],
      "SeriesDescription": "func_task-things_run-6",
      "SeriesNumber": 26,
      "SeriesTime": "135146.716000",
      "SliceLocation": -37.230680385508,
      "SliceThickness": 2.0,
      "SmallestImagePixelValue": 0,
      "SoftwareVersions": "syngo MR E11",
      "SpacingBetweenSlices": 1.999999955796,
      "SpecificCharacterSet": "ISO_IR 100",
      "StudyID": "1",
      "StudyTime": "115232.932000",
      "TransmitCoilName": "Body",
      "VariableFlipAngleFlag": "N",
      "WindowCenterWidthExplanation": "Algo1",
      "dBdt": 0.0},
    "slices": {}
  },
  "time": {
    "samples": {
      "AcquisitionNumber": [1, 2, 3, 4, 5, 6, 7, 8, 9, 10, 11, 12, 13, 14, 15, 16, 17, 18, 19, 20, 21, 22, 23, 24, 25, 26, 27, 28, 29, 30, 31, 32, 33, 34, 35, 36, 37, 38, 39, 40, 41, 42, 43, 44, 45, 46, 47, 48, 49, 50, 51, 52, 53, 54, 55, 56, 57, 58, 59, 60, 61, 62, 63, 64, 65, 66, 67, 68, 69, 70, 71, 72, 73, 74, 75, 76, 77, 78, 79, 80, 81, 82, 83, 84, 85, 86, 87, 88, 89, 90, 91, 92, 93, 94, 95, 96, 97, 98, 99, 100, 101, 102, 103, 104, 105, 106, 107, 108, 109, 110, 111, 112, 113, 114, 115, 116, 117, 118, 119, 120, 121, 122, 123, 124, 125, 126, 127, 128, 129, 130, 131, 132, 133, 134, 135, 136, 137, 138, 139, 140, 141, 142, 143, 144, 145, 146, 147, 148, 149, 150, 151, 152, 153, 154, 155, 156, 157, 158, 159, 160, 161, 162, 163, 164, 165, 166, 167, 168, 169, 170, 171, 172, 173, 174, 175, 176, 177, 178, 179, 180, 181, 182, 183, 184, 185, 186, 187, 188, 189, 190],
      "AcquisitionTime": ["135021.917500", "135023.407500", "135024.897500", "135026.387500", "135027.877500", "135029.367500", "135030.857500", "135032.347500", "135033.837500", "135035.327500", "135036.817500", "135038.307500", "135039.797500", "135041.287500", "135042.777500", "135044.267500", "135045.757500", "135047.247500", "135048.737500", "135050.227500", "135051.717500", "135053.207500", "135054.697500", "135056.187500", "135057.677500", "135059.167500", "135100.657500", "135102.147500", "135103.637500", "135105.127500", "135106.617500", "135108.107500", "135109.597500", "135111.087500", "135112.577500", "135114.067500", "135115.557500", "135117.047500", "135118.537500", "135120.027500", "135121.517500", "135123.007500", "135124.497500", "135125.987500", "135127.477500", "135128.967500", "135130.457500", "135131.947500", "135133.437500", "135134.927500", "135136.417500", "135137.907500", "135139.397500", "135140.887500", "135142.377500", "135143.867500", "135145.357500", "135146.847500", "135148.337500", "135149.827500", "135151.317500", "135152.807500", "135154.297500", "135155.787500", "135157.277500", "135158.767500", "135200.257500", "135201.747500", "135203.237500", "135204.727500", "135206.217500", "135207.707500", "135209.197500", "135210.687500", "135212.177500", "135213.667500", "135215.157500", "135216.647500", "135218.137500", "135219.627500", "135221.117500", "135222.607500", "135224.097500", "135225.587500", "135227.077500", "135228.567500", "135230.057500", "135231.547500", "135233.037500", "135234.527500", "135236.017500", "135237.507500", "135238.997500", "135240.487500", "135241.977500", "135243.467500", "135244.957500", "135246.447500", "135247.937500", "135249.427500", "135250.917500", "135252.407500", "135253.897500", "135255.387500", "135256.877500", "135258.367500", "135259.857500", "135301.347500", "135302.837500", "135304.327500", "135305.817500", "135307.307500", "135308.797500", "135310.287500", "135311.777500", "135313.267500", "135314.757500", "135316.247500", "135317.737500", "135319.227500", "135320.717500", "135322.207500", "135323.697500", "135325.187500", "135326.677500", "135328.167500", "135329.657500", "135331.147500", "135332.637500", "135334.127500", "135335.617500", "135337.107500", "135338.597500", "135340.087500", "135341.577500", "135343.067500", "135344.557500", "135346.047500", "135347.537500", "135349.027500", "135350.517500", "135352.007500", "135353.497500", "135354.987500", "135356.477500", "135357.967500", "135359.457500", "135400.947500", "135402.437500", "135403.927500", "135405.417500", "135406.907500", "135408.397500", "135409.887500", "135411.377500", "135412.867500", "135414.357500", "135415.847500", "135417.337500", "135418.827500", "135420.317500", "135421.807500", "135423.297500", "135424.787500", "135426.277500", "135427.767500", "135429.257500", "135430.747500", "135432.237500", "135433.727500", "135435.217500", "135436.707500", "135438.197500", "135439.687500", "135441.177500", "135442.667500", "135444.157500", "135445.647500", "135447.137500", "135448.627500", "135450.117500", "135451.607500", "135453.097500", "135454.587500", "135456.077500", "135457.567500", "135459.057500", "135500.547500", "135502.037500", "135503.527500"],
      "ContentTime": ["135146.718000", "135146.721000", "135146.724000", "135146.726000", "135146.729000", "135146.735000", "135146.738000", "135146.740000", "135146.743000", "135146.745000", "135146.748000", "135146.750000", "135146.753000", "135146.755000", "135146.758000", "135146.761000", "135146.763000", "135146.766000", "135146.768000", "135146.771000", "135146.773000", "135146.776000", "135146.778000", "135146.781000", "135146.783000", "135146.786000", "135146.788000", "135146.791000", "135146.793000", "135146.796000", "135207.081000", "135207.084000", "135207.087000", "135207.090000", "135207.092000", "135207.095000", "135207.098000", "135207.100000", "135207.103000", "135207.105000", "135207.124000", "135207.127000", "135207.129000", "135207.132000", "135207.134000", "135207.137000", "135207.139000", "135207.142000", "135207.144000", "135207.147000", "135226.647000", "135226.650000", "135226.653000", "135226.656000", "135226.659000", "135226.662000", "135226.665000", "135226.667000", "135226.670000", "135226.673000", "135226.675000", "135226.678000", "135226.680000", "135226.683000", "135226.685000", "135226.688000", "135226.690000", "135226.693000", "135226.695000", "135226.698000", "135246.662000", "135246.665000", "135246.668000", "135246.670000", "135246.673000", "135246.675000", "135246.678000", "135246.680000", "135246.683000", "135246.685000", "135246.688000", "135246.690000", "135246.693000", "135246.695000", "135246.698000", "135246.700000", "135246.703000", "135246.705000", "135246.708000", "135246.710000", "135246.713000", "135326.705000", "135326.717000", "135326.720000", "135326.722000", "135326.724000", "135326.727000", "135326.730000", "135326.732000", "135326.735000", "135326.737000", "135326.740000", "135326.742000", "135326.745000", "135326.747000", "135326.750000", "135326.753000", "135326.755000", "135326.758000", "135326.760000", "135326.763000", "135326.765000", "135326.768000", "135326.770000", "135326.773000", "135326.775000", "135326.778000", "135326.780000", "135326.783000", "135326.786000", "135326.788000", "135326.800000", "135326.802000", "135406.679000", "135406.682000", "135406.685000", "135406.687000", "135406.690000", "135406.692000", "135406.695000", "135406.697000", "135406.700000", "135406.703000", "135406.705000", "135406.708000", "135406.710000", "135406.713000", "135406.715000", "135406.718000", "135406.720000", "135406.723000", "135406.725000", "135406.728000", "135406.730000", "135406.733000", "135406.735000", "135406.738000", "135406.740000", "135406.743000", "135406.746000", "135446.686000", "135446.689000", "135446.692000", "135446.694000", "135446.697000", "135446.699000", "135446.702000", "135446.704000", "135446.707000", "135446.709000", "135446.712000", "135446.714000", "135446.717000", "135446.725000", "135446.727000", "135446.744000", "135446.747000", "135446.749000", "135446.752000", "135446.754000", "135446.757000", "135446.759000", "135446.762000", "135446.764000", "135446.767000", "135446.769000", "135506.068000", "135506.071000", "135506.074000", "135506.077000", "135506.079000", "135506.082000", "135506.085000", "135506.087000", "135506.090000", "135506.092000", "135506.095000", "135506.097000", "135506.100000", "135506.102000"],
      "InstanceCreationTime": ["135146.718000", "135146.721000", "135146.724000", "135146.726000", "135146.729000", "135146.735000", "135146.738000", "135146.740000", "135146.743000", "135146.745000", "135146.748000", "135146.750000", "135146.753000", "135146.755000", "135146.758000", "135146.761000", "135146.763000", "135146.766000", "135146.768000", "135146.771000", "135146.773000", "135146.776000", "135146.778000", "135146.781000", "135146.783000", "135146.786000", "135146.788000", "135146.791000", "135146.793000", "135146.796000", "135207.081000", "135207.084000", "135207.087000", "135207.090000", "135207.092000", "135207.095000", "135207.098000", "135207.100000", "135207.103000", "135207.105000", "135207.124000", "135207.127000", "135207.129000", "135207.132000", "135207.134000", "135207.137000", "135207.139000", "135207.142000", "135207.144000", "135207.147000", "135226.647000", "135226.650000", "135226.653000", "135226.656000", "135226.659000", "135226.662000", "135226.665000", "135226.667000", "135226.670000", "135226.673000", "135226.675000", "135226.678000", "135226.680000", "135226.683000", "135226.685000", "135226.688000", "135226.690000", "135226.693000", "135226.695000", "135226.698000", "135246.662000", "135246.665000", "135246.668000", "135246.670000", "135246.673000", "135246.675000", "135246.678000", "135246.680000", "135246.683000", "135246.685000", "135246.688000", "135246.690000", "135246.693000", "135246.695000", "135246.698000", "135246.700000", "135246.703000", "135246.705000", "135246.708000", "135246.710000", "135246.713000", "135326.705000", "135326.717000", "135326.720000", "135326.722000", "135326.724000", "135326.727000", "135326.730000", "135326.732000", "135326.735000", "135326.737000", "135326.740000", "135326.742000", "135326.745000", "135326.747000", "135326.750000", "135326.753000", "135326.755000", "135326.758000", "135326.760000", "135326.763000", "135326.765000", "135326.768000", "135326.770000", "135326.773000", "135326.775000", "135326.778000", "135326.780000", "135326.783000", "135326.786000", "135326.788000", "135326.800000", "135326.802000", "135406.679000", "135406.682000", "135406.685000", "135406.687000", "135406.690000", "135406.692000", "135406.695000", "135406.697000", "135406.700000", "135406.703000", "135406.705000", "135406.708000", "135406.710000", "135406.713000", "135406.715000", "135406.718000", "135406.720000", "135406.723000", "135406.725000", "135406.728000", "135406.730000", "135406.733000", "135406.735000", "135406.738000", "135406.740000", "135406.743000", "135406.746000", "135446.686000", "135446.689000", "135446.692000", "135446.694000", "135446.697000", "135446.699000", "135446.702000", "135446.704000", "135446.707000", "135446.709000", "135446.712000", "135446.714000", "135446.717000", "135446.725000", "135446.727000", "135446.744000", "135446.747000", "135446.749000", "135446.752000", "135446.754000", "135446.757000", "135446.759000", "135446.762000", "135446.764000", "135446.767000", "135446.769000", "135506.068000", "135506.071000", "135506.074000", "135506.077000", "135506.079000", "135506.082000", "135506.085000", "135506.087000", "135506.090000", "135506.092000", "135506.095000", "135506.097000", "135506.100000", "135506.102000"],
      "InstanceNumber": [1, 2, 3, 4, 5, 6, 7, 8, 9, 10, 11, 12, 13, 14, 15, 16, 17, 18, 19, 20, 21, 22, 23, 24, 25, 26, 27, 28, 29, 30, 31, 32, 33, 34, 35, 36, 37, 38, 39, 40, 41, 42, 43, 44, 45, 46, 47, 48, 49, 50, 51, 52, 53, 54, 55, 56, 57, 58, 59, 60, 61, 62, 63, 64, 65, 66, 67, 68, 69, 70, 71, 72, 73, 74, 75, 76, 77, 78, 79, 80, 81, 82, 83, 84, 85, 86, 87, 88, 89, 90, 91, 92, 93, 94, 95, 96, 97, 98, 99, 100, 101, 102, 103, 104, 105, 106, 107, 108, 109, 110, 111, 112, 113, 114, 115, 116, 117, 118, 119, 120, 121, 122, 123, 124, 125, 126, 127, 128, 129, 130, 131, 132, 133, 134, 135, 136, 137, 138, 139, 140, 141, 142, 143, 144, 145, 146, 147, 148, 149, 150, 151, 152, 153, 154, 155, 156, 157, 158, 159, 160, 161, 162, 163, 164, 165, 166, 167, 168, 169, 170, 171, 172, 173, 174, 175, 176, 177, 178, 179, 180, 181, 182, 183, 184, 185, 186, 187, 188, 189, 190],
      "WindowCenter": [4778.0, 4774.0, 4774.0, 4776.0, 4774.0, 4778.0, 4754.0, 4778.0, 4778.0, 4776.0, 4782.0, 4776.0, 4780.0, 4778.0, 4780.0, 4776.0, 4776.0, 4776.0, 4780.0, 4778.0, 4780.0, 4776.0, 4778.0, 4778.0, 4778.0, 4776.0, 4776.0, 4778.0, 4778.0, 4780.0, 4776.0, 4778.0, 4780.0, 4778.0, 4780.0, 4782.0, 4776.0, 4778.0, 4752.0, 4780.0, 4782.0, 4778.0, 4780.0, 4776.0, 4776.0, 4778.0, 4776.0, 4776.0, 4778.0, 4776.0, 4778.0, 4780.0, 4778.0, 4780.0, 4780.0, 4780.0, 4778.0, 4776.0, 4780.0, 4776.0, 4780.0, 4778.0, 4778.0, 4778.0, 4780.0, 4778.0, 4780.0, 4776.0, 4778.0, 4776.0, 4780.0, 4778.0, 4780.0, 4776.0, 4780.0, 4776.0, 4780.0, 4778.0, 4776.0, 4776.0, 4776.0, 4778.0, 4778.0, 4776.0, 4780.0, 4778.0, 4778.0, 4778.0, 4780.0, 4778.0, 4778.0, 4778.0, 4780.0, 4756.0, 4776.0, 4778.0, 4780.0, 4778.0, 4778.0, 4780.0, 4776.0, 4780.0, 4780.0, 4776.0, 4776.0, 4776.0, 4780.0, 4782.0, 4778.0, 4778.0, 4780.0, 4776.0, 4774.0, 4778.0, 4778.0, 4778.0, 4776.0, 4776.0, 4776.0, 4774.0, 4780.0, 4776.0, 4778.0, 4776.0, 4780.0, 4776.0, 4778.0, 4778.0, 4776.0, 4778.0, 4778.0, 4778.0, 4780.0, 4776.0, 4780.0, 4780.0, 4754.0, 4780.0, 4778.0, 4776.0, 4778.0, 4782.0, 4776.0, 4776.0, 4782.0, 4778.0, 4774.0, 4780.0, 4756.0, 4780.0, 4780.0, 4778.0, 4778.0, 4780.0, 4778.0, 4778.0, 4754.0, 4778.0, 4780.0, 4776.0, 4776.0, 4778.0, 4778.0, 4776.0, 4778.0, 4776.0, 4776.0, 4778.0, 4756.0, 4780.0, 4758.0, 4780.0, 4780.0, 4776.0, 4782.0, 4780.0, 4776.0, 4778.0, 4782.0, 4780.0, 4778.0, 4782.0, 4784.0, 4778.0, 4776.0, 4774.0, 4776.0, 4778.0, 4756.0, 4780.0],
      "WindowWidth": [18566.0, 18568.0, 18564.0, 18568.0, 18564.0, 18566.0, 18538.0, 18568.0, 18566.0, 18564.0, 18568.0, 18568.0, 18568.0, 18564.0, 18564.0, 18568.0, 18564.0, 18566.0, 18568.0, 18566.0, 18568.0, 18562.0, 18564.0, 18564.0, 18564.0, 18560.0, 18564.0, 18566.0, 18566.0, 18572.0, 18566.0, 18566.0, 18570.0, 18570.0, 18566.0, 18570.0, 18564.0, 18566.0, 18536.0, 18568.0, 18570.0, 18566.0, 18572.0, 18568.0, 18562.0, 18568.0, 18568.0, 18560.0, 18568.0, 18562.0, 18566.0, 18570.0, 18570.0, 18570.0, 18566.0, 18568.0, 18568.0, 18564.0, 18566.0, 18564.0, 18572.0, 18566.0, 18564.0, 18572.0, 18566.0, 18564.0, 18572.0, 18564.0, 18566.0, 18566.0, 18570.0, 18564.0, 18572.0, 18568.0, 18564.0, 18564.0, 18570.0, 18564.0, 18566.0, 18568.0, 18564.0, 18566.0, 18566.0, 18566.0, 18572.0, 18566.0, 18570.0, 18568.0, 18566.0, 18562.0, 18562.0, 18562.0, 18568.0, 18530.0, 18562.0, 18564.0, 18568.0, 18566.0, 18564.0, 18566.0, 18566.0, 18568.0, 18570.0, 18562.0, 18562.0, 18562.0, 18568.0, 18570.0, 18568.0, 18566.0, 18570.0, 18566.0, 18564.0, 18566.0, 18564.0, 18562.0, 18566.0, 18562.0, 18566.0, 18568.0, 18566.0, 18568.0, 18568.0, 18566.0, 18568.0, 18564.0, 18572.0, 18568.0, 18564.0, 18568.0, 18564.0, 18564.0, 18568.0, 18566.0, 18566.0, 18566.0, 18534.0, 18564.0, 18562.0, 18564.0, 18568.0, 18566.0, 18568.0, 18566.0, 18568.0, 18566.0, 18566.0, 18570.0, 18532.0, 18560.0, 18568.0, 18570.0, 18568.0, 18570.0, 18568.0, 18564.0, 18534.0, 18566.0, 18566.0, 18566.0, 18566.0, 18564.0, 18568.0, 18564.0, 18566.0, 18564.0, 18564.0, 18562.0, 18538.0, 18568.0, 18534.0, 18570.0, 18574.0, 18564.0, 18568.0, 18568.0, 18564.0, 18566.0, 18566.0, 18566.0, 18560.0, 18566.0, 18574.0, 18568.0, 18568.0, 18564.0, 18568.0, 18568.0, 18530.0, 18568.0]
    },
    "slices": {}
  }
}