{
  "AcquisitionMatrixPE": 104,
  "AcquisitionNumber": 1,
  "AcquisitionTime": "13:31:1.320000",
  "BandwidthPerPixelPhaseEncode": 17.17,
  "BaseResolution": 104,
  "BodyPartExamined": "BRAIN",
  "CoilString": "HC1-7;NC1_2",
  "ConsistencyInfo": "N4_VE11C_LATEST_20160120",
  "ConversionSoftware": "dcm2niix",
  "ConversionSoftwareVersion": "v1.0.20190902",
  "DerivedVendorReportedEchoSpacing": 0.000560011,
  "DeviceSerialNumber": "167006",
  "DwellTime": 2.1e-06,
  "EchoTime": 0.037,
  "EchoTrainLength": 104,
  "EffectiveEchoSpacing": 0.000560011,
  "FlipAngle": 52,
  "ImageComments": "Unaliased_MB4_PE3_LB",
  "ImageOrientationPatientDICOM": [0.999149, 0.00948899, 0.040134, -0.00122072, 0.979548, -0.201207],
  "ImageType": [
    "ORIGINAL",
    "PRIMARY",
    "M",
    "MB",
    "ND",
    "MOSAIC"
],
  "ImagingFrequency": 123.259,
  "InPlanePhaseEncodingDirectionDICOM": "COL",
  "InstitutionAddress": "Chemin_Queen-Mary_4565_Montreal_District_CA_H3W_1W5",
  "InstitutionName": "IUGM",
  "InstitutionalDepartmentName": "Department",
  "MRAcquisitionType": "2D",
  "MagneticFieldStrength": 3,
  "Manufacturer": "Siemens",
  "ManufacturersModelName": "Prisma_fit",
  "Modality": "MR",
  "MultibandAccelerationFactor": 4,
  "PartialFourier": 1,
  "PatientPosition": "HFS",
  "PercentPhaseFOV": 100,
  "PhaseEncodingDirection": "j",
  "PhaseEncodingSteps": 104,
  "PhaseResolution": 1,
  "PixelBandwidth": 2290,
  "ProcedureStepDescription": "memory_things",
  "ProtocolName": "func_task-things_run-3",
  "PulseSequenceDetails": "%CustomerSeq%_cmrr_mbep2d_bold",
  "ReceiveCoilActiveElements": "HC1-7;NC1,2",
  "ReceiveCoilName": "HeadNeck_64",
  "ReconMatrixPE": 104,
  "RepetitionTime": 1.49,
  "SAR": 0.0397842,
  "ScanOptions": "FS",
  "ScanningSequence": "EP",
  "SequenceName": "epfid2d1_104",
  "SequenceVariant": "SK_SS",
  "SeriesDescription": "func_task-things_run-3",
  "SeriesNumber": 16,
  "ShimSetting": [641, -7225, -8780, 728, 27, -42, 128, -14],
  "SliceThickness": 2,
  "SliceTiming": [0, 0.785, 0.1, 0.8825, 0.1975, 0.98, 0.295, 1.08, 0.3925, 1.1775, 0.49, 1.275, 0.59, 1.3725, 0.6875, 0, 0.785, 0.1, 0.8825, 0.1975, 0.98, 0.295, 1.08, 0.3925, 1.1775, 0.49, 1.275, 0.59, 1.3725, 0.6875, 0, 0.785, 0.1, 0.8825, 0.1975, 0.98, 0.295, 1.08, 0.3925, 1.1775, 0.49, 1.275, 0.59, 1.3725, 0.6875, 0, 0.785, 0.1, 0.8825, 0.1975, 0.98, 0.295, 1.08, 0.3925, 1.1775, 0.49, 1.275, 0.59, 1.3725, 0.6875],
  "SoftwareVersions": "syngo_MR_E11",
  "SpacingBetweenSlices": 2,
  "StationName": "MRC35049",
  "TaskName": "things",
  "TotalReadoutTime": 0.0576811,
  "TxRefAmp": 229.044,
  "WipMemBlock": "cea24fc7-96f7-4bdd-a23f-4932d66bd494||Sequence: R016 ve11c/master r/e634e98; Dec 19 2017 11:00:25 by eja",
  "dcmmeta_affine": [
    [-1.9982985258102417, -0.002441443270072341, 0.08244495093822479, 106.78218078613281],
    [-0.01897798478603363, 1.959096074104309, -0.4019731283187866, -77.10684204101562],
    [0.08026809245347977, 0.4024134874343872, 1.9574525356292725, -58.37173080444336],
    [0.0, 0.0, 0.0, 1.0]
],
  "dcmmeta_reorient_transform": [
    [0.0, -1.0, 0.0, 103.0],
    [1.0, 0.0, 0.0, 0.0],
    [0.0, 0.0, 1.0, 0.0],
    [0.0, 0.0, 0.0, 1.0]
],
  "dcmmeta_shape": [104, 104, 60, 190],
  "dcmmeta_slice_dim": 2,
  "dcmmeta_version": 0.6,
  "global": {
    "const": {
      "AcquisitionMatrix": [104, 0, 0, 104],
      "AngioFlag": "N",
      "BitsAllocated": 16,
      "BitsStored": 16,
      "BodyPartExamined": "BRAIN",
      "Columns": 832,
      "EchoNumbers": 1,
      "EchoTime": 37.0,
      "EchoTrainLength": 104,
      "FlipAngle": 52.0,
      "HighBit": 15,
      "ImageOrientationPatient": [0.99914924672483, 0.00948899241315, 0.04013404779228, -0.0012207216537, 0.97954803812781, -0.2012067365637],
      "ImagePositionPatient": [-833.02267906128, -844.69901509856, 100.33777536713],
      "ImageType": [
        "ORIGINAL",
        "PRIMARY",
        "M",
        "MB",
        "ND",
        "MOSAIC"
],
      "ImagedNucleus": "1H",
      "ImagingFrequency": 123.258924,
      "InPlanePhaseEncodingDirection": "COL",
      "MRAcquisitionType": "2D",
      "MagneticFieldStrength": 3.0,
      "Manufacturer": "SIEMENS",
      "ManufacturerModelName": "Prisma_fit",
      "Modality": "MR",
      "NumberOfAverages": 1.0,
      "NumberOfPhaseEncodingSteps": 104,
      "PercentPhaseFieldOfView": 100.0,
      "PercentSampling": 100.0,
      "PerformedProcedureStepStartTime": "115232.984000",
      "PhotometricInterpretation": "MONOCHROME2",
      "PixelBandwidth": 2290.0,
      "PixelRepresentation": 0,
      "PixelSpacing": [2.0, 2.0],
      "ProtocolName": "func_task-things_run-3",
      "RepetitionTime": 1490.0,
      "Rows": 832,
      "SAR": 0.0397841528607,
      "SamplesPerPixel": 1,
      "ScanOptions": "FS",
      "ScanningSequence": "EP",
      "SequenceName": "epfid2d1_104",
      "SequenceVariant": [
        "SK",
        "SS"
],
      "SeriesDescription": "func_task-things_run-3",
      "SeriesNumber": 16,
      "SeriesTime": "133226.563000",
      "SliceLocation": -37.230680385508,
      "SliceThickness": 2.0,
      "SmallestImagePixelValue": 0,
      "SoftwareVersions": "syngo MR E11",
      "SpacingBetweenSlices": 1.999999955796,
      "SpecificCharacterSet": "ISO_IR 100",
      "StudyID": "1",
      "StudyTime": "115232.932000",
      "TransmitCoilName": "Body",
      "VariableFlipAngleFlag": "N",
      "WindowCenterWidthExplanation": "Algo1",
      "dBdt": 0.0},
    "slices": {}
  },
  "time": {
    "samples": {
      "AcquisitionNumber": [1, 2, 3, 4, 5, 6, 7, 8, 9, 10, 11, 12, 13, 14, 15, 16, 17, 18, 19, 20, 21, 22, 23, 24, 25, 26, 27, 28, 29, 30, 31, 32, 33, 34, 35, 36, 37, 38, 39, 40, 41, 42, 43, 44, 45, 46, 47, 48, 49, 50, 51, 52, 53, 54, 55, 56, 57, 58, 59, 60, 61, 62, 63, 64, 65, 66, 67, 68, 69, 70, 71, 72, 73, 74, 75, 76, 77, 78, 79, 80, 81, 82, 83, 84, 85, 86, 87, 88, 89, 90, 91, 92, 93, 94, 95, 96, 97, 98, 99, 100, 101, 102, 103, 104, 105, 106, 107, 108, 109, 110, 111, 112, 113, 114, 115, 116, 117, 118, 119, 120, 121, 122, 123, 124, 125, 126, 127, 128, 129, 130, 131, 132, 133, 134, 135, 136, 137, 138, 139, 140, 141, 142, 143, 144, 145, 146, 147, 148, 149, 150, 151, 152, 153, 154, 155, 156, 157, 158, 159, 160, 161, 162, 163, 164, 165, 166, 167, 168, 169, 170, 171, 172, 173, 174, 175, 176, 177, 178, 179, 180, 181, 182, 183, 184, 185, 186, 187, 188, 189, 190],
      "AcquisitionTime": ["133101.320000", "133102.810000", "133104.300000", "133105.790000", "133107.280000", "133108.770000", "133110.260000", "133111.750000", "133113.240000", "133114.730000", "133116.220000", "133117.710000", "133119.200000", "133120.690000", "133122.180000", "133123.670000", "133125.160000", "133126.650000", "133128.140000", "133129.630000", "133131.120000", "133132.610000", "133134.100000", "133135.590000", "133137.080000", "133138.570000", "133140.060000", "133141.550000", "133143.040000", "133144.530000", "133146.020000", "133147.510000", "133149.000000", "133150.490000", "133151.980000", "133153.470000", "133154.960000", "133156.450000", "133157.940000", "133159.430000", "133200.920000", "133202.410000", "133203.900000", "133205.390000", "133206.880000", "133208.370000", "133209.860000", "133211.350000", "133212.840000", "133214.330000", "133215.820000", "133217.310000", "133218.800000", "133220.290000", "133221.780000", "133223.270000", "133224.760000", "133226.250000", "133227.740000", "133229.230000", "133230.720000", "133232.210000", "133233.700000", "133235.190000", "133236.680000", "133238.170000", "133239.660000", "133241.150000", "133242.640000", "133244.130000", "133245.620000", "133247.110000", "133248.600000", "133250.090000", "133251.580000", "133253.070000", "133254.560000", "133256.050000", "133257.540000", "133259.030000", "133300.520000", "133302.010000", "133303.500000", "133304.990000", "133306.480000", "133307.970000", "133309.460000", "133310.950000", "133312.440000", "133313.930000", "133315.420000", "133316.910000", "133318.400000", "133319.890000", "133321.380000", "133322.870000", "133324.360000", "133325.850000", "133327.340000", "133328.830000", "133330.320000", "133331.810000", "133333.300000", "133334.790000", "133336.280000", "133337.770000", "133339.260000", "133340.750000", "133342.240000", "133343.730000", "133345.220000", "133346.710000", "133348.200000", "133349.690000", "133351.180000", "133352.670000", "133354.160000", "133355.650000", "133357.140000", "133358.630000", "133400.120000", "133401.610000", "133403.100000", "133404.590000", "133406.080000", "133407.570000", "133409.060000", "133410.550000", "133412.040000", "133413.530000", "133415.020000", "133416.510000", "133418.000000", "133419.490000", "133420.980000", "133422.470000", "133423.960000", "133425.450000", "133426.940000", "133428.430000", "133429.920000", "133431.410000", "133432.900000", "133434.390000", "133435.880000", "133437.370000", "133438.860000", "133440.350000", "133441.840000", "133443.330000", "133444.820000", "133446.310000", "133447.800000", "133449.290000", "133450.780000", "133452.270000", "133453.760000", "133455.250000", "133456.740000", "133458.230000", "133459.720000", "133501.210000", "133502.700000", "133504.190000", "133505.680000", "133507.170000", "133508.660000", "133510.150000", "133511.640000", "133513.130000", "133514.620000", "133516.110000", "133517.600000", "133519.090000", "133520.580000", "133522.070000", "133523.560000", "133525.050000", "133526.540000", "133528.030000", "133529.520000", "133531.010000", "133532.500000", "133533.990000", "133535.480000", "133536.970000", "133538.460000", "133539.950000", "133541.440000", "133542.930000"],
      "ContentTime": ["133226.566000", "133226.570000", "133226.573000", "133226.577000", "133226.580000", "133226.600000", "133226.603000", "133226.606000", "133226.610000", "133226.613000", "133226.616000", "133226.620000", "133226.623000", "133226.626000", "133226.630000", "133226.633000", "133226.636000", "133226.640000", "133226.643000", "133226.646000", "133226.650000", "133226.653000", "133226.657000", "133226.660000", "133226.663000", "133226.667000", "133226.670000", "133226.673000", "133226.677000", "133226.680000", "133226.683000", "133246.528000", "133246.532000", "133246.535000", "133246.539000", "133246.542000", "133246.545000", "133246.548000", "133246.552000", "133246.555000", "133246.558000", "133246.562000", "133246.565000", "133246.568000", "133246.572000", "133246.575000", "133246.578000", "133246.582000", "133246.585000", "133246.589000", "133246.592000", "133306.529000", "133306.533000", "133306.536000", "133306.539000", "133306.543000", "133306.546000", "133306.560000", "133306.563000", "133306.566000", "133306.570000", "133306.573000", "133306.576000", "133306.579000", "133306.583000", "133306.586000", "133306.590000", "133306.593000", "133306.596000", "133306.600000", "133306.604000", "133326.529000", "133326.533000", "133326.536000", "133326.540000", "133326.543000", "133326.546000", "133326.550000", "133326.553000", "133326.556000", "133326.560000", "133326.563000", "133326.566000", "133326.570000", "133326.573000", "133326.599000", "133326.602000", "133326.605000", "133326.609000", "133326.612000", "133326.615000", "133326.619000", "133406.529000", "133406.533000", "133406.536000", "133406.540000", "133406.543000", "133406.546000", "133406.550000", "133406.553000", "133406.556000", "133406.560000", "133406.563000", "133406.567000", "133406.570000", "133406.573000", "133406.577000", "133406.580000", "133406.583000", "133406.587000", "133406.590000", "133406.593000", "133406.597000", "133406.600000", "133406.603000", "133406.607000", "133406.610000", "133406.613000", "133406.617000", "133406.620000", "133406.623000", "133406.627000", "133406.630000", "133446.529000", "133446.533000", "133446.536000", "133446.540000", "133446.543000", "133446.546000", "133446.550000", "133446.553000", "133446.556000", "133446.560000", "133446.563000", "133446.566000", "133446.570000", "133446.573000", "133446.576000", "133446.580000", "133446.583000", "133446.586000", "133446.590000", "133446.593000", "133446.596000", "133446.600000", "133446.603000", "133446.606000", "133446.610000", "133446.613000", "133446.616000", "133526.529000", "133526.533000", "133526.536000", "133526.540000", "133526.543000", "133526.546000", "133526.550000", "133526.553000", "133526.557000", "133526.560000", "133526.563000", "133526.567000", "133526.573000", "133526.577000", "133526.580000", "133526.583000", "133526.587000", "133526.590000", "133526.593000", "133526.597000", "133526.600000", "133526.604000", "133526.607000", "133526.610000", "133526.614000", "133526.617000", "133526.621000", "133545.468000", "133545.472000", "133545.475000", "133545.478000", "133545.493000", "133545.496000", "133545.500000", "133545.503000", "133545.507000", "133545.510000", "133545.513000", "133545.517000", "133545.520000"],
      "InstanceCreationTime": ["133226.566000", "133226.570000", "133226.573000", "133226.577000", "133226.580000", "133226.600000", "133226.603000", "133226.606000", "133226.610000", "133226.613000", "133226.616000", "133226.620000", "133226.623000", "133226.626000", "133226.630000", "133226.633000", "133226.636000", "133226.640000", "133226.643000", "133226.646000", "133226.650000", "133226.653000", "133226.657000", "133226.660000", "133226.663000", "133226.667000", "133226.670000", "133226.673000", "133226.677000", "133226.680000", "133226.683000", "133246.528000", "133246.532000", "133246.535000", "133246.539000", "133246.542000", "133246.545000", "133246.548000", "133246.552000", "133246.555000", "133246.558000", "133246.562000", "133246.565000", "133246.568000", "133246.572000", "133246.575000", "133246.578000", "133246.582000", "133246.585000", "133246.589000", "133246.592000", "133306.529000", "133306.533000", "133306.536000", "133306.539000", "133306.543000", "133306.546000", "133306.560000", "133306.563000", "133306.566000", "133306.570000", "133306.573000", "133306.576000", "133306.579000", "133306.583000", "133306.586000", "133306.590000", "133306.593000", "133306.596000", "133306.600000", "133306.604000", "133326.529000", "133326.533000", "133326.536000", "133326.540000", "133326.543000", "133326.546000", "133326.550000", "133326.553000", "133326.556000", "133326.560000", "133326.563000", "133326.566000", "133326.570000", "133326.573000", "133326.599000", "133326.602000", "133326.605000", "133326.609000", "133326.612000", "133326.615000", "133326.619000", "133406.529000", "133406.533000", "133406.536000", "133406.540000", "133406.543000", "133406.546000", "133406.550000", "133406.553000", "133406.556000", "133406.560000", "133406.563000", "133406.567000", "133406.570000", "133406.573000", "133406.577000", "133406.580000", "133406.583000", "133406.587000", "133406.590000", "133406.593000", "133406.597000", "133406.600000", "133406.603000", "133406.607000", "133406.610000", "133406.613000", "133406.617000", "133406.620000", "133406.623000", "133406.627000", "133406.630000", "133446.529000", "133446.533000", "133446.536000", "133446.540000", "133446.543000", "133446.546000", "133446.550000", "133446.553000", "133446.556000", "133446.560000", "133446.563000", "133446.566000", "133446.570000", "133446.573000", "133446.576000", "133446.580000", "133446.583000", "133446.586000", "133446.590000", "133446.593000", "133446.596000", "133446.600000", "133446.603000", "133446.606000", "133446.610000", "133446.613000", "133446.616000", "133526.529000", "133526.533000", "133526.536000", "133526.540000", "133526.543000", "133526.546000", "133526.550000", "133526.553000", "133526.557000", "133526.560000", "133526.563000", "133526.567000", "133526.573000", "133526.577000", "133526.580000", "133526.583000", "133526.587000", "133526.590000", "133526.593000", "133526.597000", "133526.600000", "133526.604000", "133526.607000", "133526.610000", "133526.614000", "133526.617000", "133526.621000", "133545.468000", "133545.472000", "133545.475000", "133545.478000", "133545.493000", "133545.496000", "133545.500000", "133545.503000", "133545.507000", "133545.510000", "133545.513000", "133545.517000", "133545.520000"],
      "InstanceNumber": [1, 2, 3, 4, 5, 6, 7, 8, 9, 10, 11, 12, 13, 14, 15, 16, 17, 18, 19, 20, 21, 22, 23, 24, 25, 26, 27, 28, 29, 30, 31, 32, 33, 34, 35, 36, 37, 38, 39, 40, 41, 42, 43, 44, 45, 46, 47, 48, 49, 50, 51, 52, 53, 54, 55, 56, 57, 58, 59, 60, 61, 62, 63, 64, 65, 66, 67, 68, 69, 70, 71, 72, 73, 74, 75, 76, 77, 78, 79, 80, 81, 82, 83, 84, 85, 86, 87, 88, 89, 90, 91, 92, 93, 94, 95, 96, 97, 98, 99, 100, 101, 102, 103, 104, 105, 106, 107, 108, 109, 110, 111, 112, 113, 114, 115, 116, 117, 118, 119, 120, 121, 122, 123, 124, 125, 126, 127, 128, 129, 130, 131, 132, 133, 134, 135, 136, 137, 138, 139, 140, 141, 142, 143, 144, 145, 146, 147, 148, 149, 150, 151, 152, 153, 154, 155, 156, 157, 158, 159, 160, 161, 162, 163, 164, 165, 166, 167, 168, 169, 170, 171, 172, 173, 174, 175, 176, 177, 178, 179, 180, 181, 182, 183, 184, 185, 186, 187, 188, 189, 190],
      "LargestImagePixelValue": [40856, 39948, 39757, 38644, 38880, 38031, 38303, 38118, 38153, 38670, 38359, 38155, 38489, 38063, 38470, 38210, 37905, 38620, 38201, 38123, 38084, 38417, 37889, 38319, 38342, 38058, 37970, 38333, 38176, 38183, 37979, 37811, 37696, 37880, 37421, 37841, 37659, 37887, 38143, 37619, 37898, 37881, 37570, 37879, 37717, 37909, 37938, 37887, 37756, 38009, 37804, 37967, 38207, 37802, 37677, 37785, 37868, 37886, 37865, 37797, 38192, 37750, 38110, 37728, 37541, 37734, 37930, 38031, 38082, 37694, 37699, 37790, 37217, 37600, 37742, 37877, 38076, 37767, 37633, 37736, 37543, 37707, 37278, 37410, 37472, 37935, 37597, 37732, 37312, 37847, 37731, 37713, 38065, 37289, 37405, 37877, 38053, 38081, 37478, 37593, 37200, 38070, 37827, 37890, 37506, 37463, 37400, 37486, 37955, 38099, 37618, 37781, 37521, 37615, 37886, 37469, 37645, 37634, 37827, 37802, 37585, 37919, 37459, 37087, 37252, 37365, 37601, 37442, 37511, 37332, 37308, 37313, 37371, 37277, 37348, 37620, 37220, 37232, 37480, 37418, 37720, 37508, 37366, 37312, 37028, 37317, 37507, 37470, 37297, 37686, 38002, 37594, 37528, 37583, 37382, 37545, 37481, 37544, 37588, 37633, 37280, 37138, 37351, 37116, 37468, 37185, 37241, 37280, 37529, 37446, 37728, 37823, 37336, 37626, 37576, 37637, 37618, 37674, 37801, 37550, 37609, 37644, 37929, 37696, 37708, 37733, 37595, 37506, 37759, 37851],
      "WindowCenter": [10195.0, 10160.0, 10147.0, 10123.0, 10121.0, 10109.0, 10114.0, 10099.0, 10097.0, 10111.0, 10121.0, 10116.0, 10113.0, 10113.0, 10118.0, 10121.0, 10116.0, 10128.0, 10116.0, 10115.0, 10108.0, 10107.0, 10110.0, 10130.0, 10130.0, 10125.0, 10132.0, 10140.0, 10140.0, 10148.0, 10150.0, 10151.0, 10144.0, 10134.0, 10119.0, 10124.0, 10130.0, 10140.0, 10141.0, 10134.0, 10136.0, 10149.0, 10139.0, 10128.0, 10108.0, 10098.0, 10115.0, 10124.0, 10117.0, 10114.0, 10116.0, 10121.0, 10117.0, 10110.0, 10109.0, 10116.0, 10124.0, 10119.0, 10118.0, 10118.0, 10138.0, 10143.0, 10143.0, 10119.0, 10102.0, 10098.0, 10107.0, 10124.0, 10132.0, 10119.0, 10125.0, 10119.0, 10113.0, 10110.0, 10116.0, 10116.0, 10125.0, 10127.0, 10134.0, 10128.0, 10121.0, 10117.0, 10113.0, 10120.0, 10121.0, 10126.0, 10114.0, 10110.0, 10110.0, 10109.0, 10104.0, 10101.0, 10104.0, 10086.0, 10093.0, 10099.0, 10113.0, 10124.0, 10127.0, 10118.0, 10103.0, 10115.0, 10123.0, 10118.0, 10103.0, 10093.0, 10092.0, 10101.0, 10106.0, 10098.0, 10084.0, 10082.0, 10097.0, 10123.0, 10127.0, 10118.0, 10100.0, 10084.0, 10098.0, 10123.0, 10127.0, 10126.0, 10118.0, 10105.0, 10110.0, 10118.0, 10116.0, 10102.0, 10098.0, 10099.0, 10108.0, 10120.0, 10128.0, 10122.0, 10120.0, 10127.0, 10130.0, 10121.0, 10112.0, 10109.0, 10110.0, 10107.0, 10118.0, 10135.0, 10129.0, 10121.0, 10119.0, 10111.0, 10110.0, 10107.0, 10114.0, 10126.0, 10151.0, 10145.0, 10129.0, 10103.0, 10092.0, 10098.0, 10107.0, 10108.0, 10117.0, 10120.0, 10126.0, 10129.0, 10136.0, 10131.0, 10135.0, 10127.0, 10119.0, 10127.0, 10133.0, 10119.0, 10110.0, 10106.0, 10101.0, 10100.0, 10099.0, 10101.0, 10122.0, 10127.0, 10128.0, 10117.0, 10114.0, 10124.0, 10133.0, 10149.0, 10160.0, 10138.0, 10124.0, 10092.0],
      "WindowWidth": [21717.0, 21619.0, 21574.0, 21514.0, 21504.0, 21481.0, 21485.0, 21451.0, 21448.0, 21477.0, 21500.0, 21490.0, 21481.0, 21482.0, 21494.0, 21501.0, 21494.0, 21516.0, 21490.0, 21488.0, 21473.0, 21473.0, 21481.0, 21522.0, 21523.0, 21513.0, 21528.0, 21547.0, 21547.0, 21565.0, 21572.0, 21575.0, 21559.0, 21532.0, 21502.0, 21511.0, 21524.0, 21546.0, 21549.0, 21535.0, 21539.0, 21566.0, 21546.0, 21519.0, 21472.0, 21448.0, 21490.0, 21511.0, 21493.0, 21485.0, 21490.0, 21501.0, 21496.0, 21478.0, 21476.0, 21491.0, 21511.0, 21501.0, 21498.0, 21499.0, 21541.0, 21557.0, 21554.0, 21501.0, 21460.0, 21447.0, 21470.0, 21509.0, 21526.0, 21500.0, 21512.0, 21500.0, 21487.0, 21477.0, 21489.0, 21492.0, 21511.0, 21519.0, 21534.0, 21523.0, 21507.0, 21496.0, 21489.0, 21504.0, 21508.0, 21515.0, 21490.0, 21476.0, 21475.0, 21473.0, 21465.0, 21456.0, 21460.0, 21424.0, 21438.0, 21452.0, 21482.0, 21510.0, 21520.0, 21498.0, 21464.0, 21488.0, 21506.0, 21496.0, 21462.0, 21436.0, 21433.0, 21455.0, 21465.0, 21447.0, 21418.0, 21413.0, 21447.0, 21508.0, 21518.0, 21497.0, 21451.0, 21418.0, 21451.0, 21508.0, 21519.0, 21516.0, 21496.0, 21469.0, 21479.0, 21497.0, 21492.0, 21459.0, 21447.0, 21452.0, 21474.0, 21505.0, 21522.0, 21512.0, 21505.0, 21520.0, 21526.0, 21504.0, 21483.0, 21475.0, 21478.0, 21472.0, 21497.0, 21538.0, 21525.0, 21504.0, 21498.0, 21480.0, 21477.0, 21468.0, 21483.0, 21516.0, 21570.0, 21559.0, 21521.0, 21460.0, 21437.0, 21450.0, 21471.0, 21476.0, 21498.0, 21505.0, 21516.0, 21524.0, 21540.0, 21527.0, 21535.0, 21515.0, 21499.0, 21517.0, 21529.0, 21497.0, 21475.0, 21464.0, 21455.0, 21455.0, 21452.0, 21458.0, 21504.0, 21518.0, 21521.0, 21491.0, 21484.0, 21509.0, 21531.0, 21566.0, 21592.0, 21540.0, 21505.0, 21432.0]
    },
    "slices": {}
  }
}