{
  "AcquisitionMatrixPE": 104,
  "AcquisitionNumber": 1,
  "AcquisitionTime": "13:44:5.447500",
  "BandwidthPerPixelPhaseEncode": 17.17,
  "BaseResolution": 104,
  "BodyPartExamined": "BRAIN",
  "CoilString": "HC1-7;NC1_2",
  "ConsistencyInfo": "N4_VE11C_LATEST_20160120",
  "ConversionSoftware": "dcm2niix",
  "ConversionSoftwareVersion": "v1.0.20190902",
  "DerivedVendorReportedEchoSpacing": 0.000560011,
  "DeviceSerialNumber": "167006",
  "DwellTime": 2.1e-06,
  "EchoTime": 0.037,
  "EchoTrainLength": 104,
  "EffectiveEchoSpacing": 0.000560011,
  "FlipAngle": 52,
  "ImageComments": "Unaliased_MB4_PE3_LB",
  "ImageOrientationPatientDICOM": [0.999149, 0.00948899, 0.040134, -0.00122072, 0.979548, -0.201207],
  "ImageType": [
    "ORIGINAL",
    "PRIMARY",
    "P",
    "MB",
    "ND",
    "MOSAIC"
],
  "ImagingFrequency": 123.259,
  "InPlanePhaseEncodingDirectionDICOM": "COL",
  "InstitutionAddress": "Chemin_Queen-Mary_4565_Montreal_District_CA_H3W_1W5",
  "InstitutionName": "IUGM",
  "InstitutionalDepartmentName": "Department",
  "MRAcquisitionType": "2D",
  "MagneticFieldStrength": 3,
  "Manufacturer": "Siemens",
  "ManufacturersModelName": "Prisma_fit",
  "Modality": "MR",
  "MultibandAccelerationFactor": 4,
  "PartialFourier": 1,
  "PatientPosition": "HFS",
  "PercentPhaseFOV": 100,
  "PhaseEncodingDirection": "j",
  "PhaseEncodingSteps": 104,
  "PhaseResolution": 1,
  "PixelBandwidth": 2290,
  "ProcedureStepDescription": "memory_things",
  "ProtocolName": "func_task-things_run-5",
  "PulseSequenceDetails": "%CustomerSeq%_cmrr_mbep2d_bold",
  "ReceiveCoilActiveElements": "HC1-7;NC1,2",
  "ReceiveCoilName": "HeadNeck_64",
  "ReconMatrixPE": 104,
  "RepetitionTime": 1.49,
  "SAR": 0.0397842,
  "ScanOptions": "FS",
  "ScanningSequence": "EP",
  "SequenceName": "epfid2d1_104",
  "SequenceVariant": "SK_SS",
  "SeriesDescription": "func_task-things_run-5",
  "SeriesNumber": 23,
  "ShimSetting": [641, -7225, -8780, 728, 27, -42, 128, -14],
  "SliceThickness": 2,
  "SliceTiming": [0, 0.7825, 0.0975, 0.8825, 0.195, 0.98, 0.2925, 1.0775, 0.3925, 1.175, 0.49, 1.2725, 0.5875, 1.3725, 0.685, 0, 0.7825, 0.0975, 0.8825, 0.195, 0.98, 0.2925, 1.0775, 0.3925, 1.175, 0.49, 1.2725, 0.5875, 1.3725, 0.685, 0, 0.7825, 0.0975, 0.8825, 0.195, 0.98, 0.2925, 1.0775, 0.3925, 1.175, 0.49, 1.2725, 0.5875, 1.3725, 0.685, 0, 0.7825, 0.0975, 0.8825, 0.195, 0.98, 0.2925, 1.0775, 0.3925, 1.175, 0.49, 1.2725, 0.5875, 1.3725, 0.685],
  "SoftwareVersions": "syngo_MR_E11",
  "SpacingBetweenSlices": 2,
  "StationName": "MRC35049",
  "TaskName": "things",
  "TotalReadoutTime": 0.0576811,
  "TxRefAmp": 229.044,
  "WipMemBlock": "a0da7b30-e62b-4d6d-b155-b31ca7259709||Sequence: R016 ve11c/master r/e634e98; Dec 19 2017 11:00:25 by eja",
  "dcmmeta_affine": [
    [-1.9982985258102417, -0.002441443270072341, 0.08244495093822479, 106.78218078613281],
    [-0.01897798478603363, 1.959096074104309, -0.4019731283187866, -77.10684204101562],
    [0.08026809245347977, 0.4024134874343872, 1.9574525356292725, -58.37173080444336],
    [0.0, 0.0, 0.0, 1.0]
],
  "dcmmeta_reorient_transform": [
    [0.0, -1.0, 0.0, 103.0],
    [1.0, 0.0, 0.0, 0.0],
    [0.0, 0.0, 1.0, 0.0],
    [0.0, 0.0, 0.0, 1.0]
],
  "dcmmeta_shape": [104, 104, 60, 190],
  "dcmmeta_slice_dim": 2,
  "dcmmeta_version": 0.6,
  "global": {
    "const": {
      "AcquisitionMatrix": [104, 0, 0, 104],
      "AngioFlag": "N",
      "BitsAllocated": 16,
      "BitsStored": 16,
      "BodyPartExamined": "BRAIN",
      "Columns": 832,
      "EchoNumbers": 1,
      "EchoTime": 37.0,
      "EchoTrainLength": 104,
      "FlipAngle": 52.0,
      "HighBit": 15,
      "ImageOrientationPatient": [0.99914924672483, 0.00948899241315, 0.04013404779228, -0.0012207216537, 0.97954803812781, -0.2012067365637],
      "ImagePositionPatient": [-833.02267906128, -844.69901509856, 100.33777536713],
      "ImageType": [
        "ORIGINAL",
        "PRIMARY",
        "P",
        "MB",
        "ND",
        "MOSAIC"
],
      "ImagedNucleus": "1H",
      "ImagingFrequency": 123.25893,
      "InPlanePhaseEncodingDirection": "COL",
      "LargestImagePixelValue": 4095,
      "MRAcquisitionType": "2D",
      "MagneticFieldStrength": 3.0,
      "Manufacturer": "SIEMENS",
      "ManufacturerModelName": "Prisma_fit",
      "Modality": "MR",
      "NumberOfAverages": 1.0,
      "NumberOfPhaseEncodingSteps": 104,
      "PercentPhaseFieldOfView": 100.0,
      "PercentSampling": 100.0,
      "PerformedProcedureStepStartTime": "115232.984000",
      "PhotometricInterpretation": "MONOCHROME2",
      "PixelBandwidth": 2290.0,
      "PixelRepresentation": 0,
      "PixelSpacing": [2.0, 2.0],
      "ProtocolName": "func_task-things_run-5",
      "RepetitionTime": 1490.0,
      "RescaleIntercept": -4096.0,
      "RescaleSlope": 2.0,
      "RescaleType": "US",
      "Rows": 832,
      "SAR": 0.0397841528607,
      "SamplesPerPixel": 1,
      "ScanOptions": "FS",
      "ScanningSequence": "EP",
      "SequenceName": "epfid2d1_104",
      "SequenceVariant": [
        "SK",
        "SS"
],
      "SeriesDescription": "func_task-things_run-5",
      "SeriesNumber": 23,
      "SeriesTime": "134535.718000",
      "SliceLocation": -37.230680385508,
      "SliceThickness": 2.0,
      "SmallestImagePixelValue": 0,
      "SoftwareVersions": "syngo MR E11",
      "SpacingBetweenSlices": 1.999999955796,
      "SpecificCharacterSet": "ISO_IR 100",
      "StudyID": "1",
      "StudyTime": "115232.932000",
      "TransmitCoilName": "Body",
      "VariableFlipAngleFlag": "N",
      "WindowCenterWidthExplanation": "Algo1",
      "dBdt": 0.0},
    "slices": {}
  },
  "time": {
    "samples": {
      "AcquisitionNumber": [1, 2, 3, 4, 5, 6, 7, 8, 9, 10, 11, 12, 13, 14, 15, 16, 17, 18, 19, 20, 21, 22, 23, 24, 25, 26, 27, 28, 29, 30, 31, 32, 33, 34, 35, 36, 37, 38, 39, 40, 41, 42, 43, 44, 45, 46, 47, 48, 49, 50, 51, 52, 53, 54, 55, 56, 57, 58, 59, 60, 61, 62, 63, 64, 65, 66, 67, 68, 69, 70, 71, 72, 73, 74, 75, 76, 77, 78, 79, 80, 81, 82, 83, 84, 85, 86, 87, 88, 89, 90, 91, 92, 93, 94, 95, 96, 97, 98, 99, 100, 101, 102, 103, 104, 105, 106, 107, 108, 109, 110, 111, 112, 113, 114, 115, 116, 117, 118, 119, 120, 121, 122, 123, 124, 125, 126, 127, 128, 129, 130, 131, 132, 133, 134, 135, 136, 137, 138, 139, 140, 141, 142, 143, 144, 145, 146, 147, 148, 149, 150, 151, 152, 153, 154, 155, 156, 157, 158, 159, 160, 161, 162, 163, 164, 165, 166, 167, 168, 169, 170, 171, 172, 173, 174, 175, 176, 177, 178, 179, 180, 181, 182, 183, 184, 185, 186, 187, 188, 189, 190],
      "AcquisitionTime": ["134405.447500", "134406.937500", "134408.427500", "134409.917500", "134411.407500", "134412.897500", "134414.387500", "134415.877500", "134417.367500", "134418.857500", "134420.347500", "134421.837500", "134423.327500", "134424.817500", "134426.307500", "134427.797500", "134429.287500", "134430.777500", "134432.267500", "134433.757500", "134435.247500", "134436.737500", "134438.227500", "134439.717500", "134441.207500", "134442.697500", "134444.187500", "134445.677500", "134447.167500", "134448.657500", "134450.147500", "134451.637500", "134453.127500", "134454.617500", "134456.107500", "134457.597500", "134459.087500", "134500.577500", "134502.067500", "134503.557500", "134505.047500", "134506.537500", "134508.027500", "134509.517500", "134511.007500", "134512.497500", "134513.987500", "134515.477500", "134516.967500", "134518.457500", "134519.947500", "134521.437500", "134522.927500", "134524.417500", "134525.907500", "134527.397500", "134528.887500", "134530.377500", "134531.867500", "134533.357500", "134534.847500", "134536.337500", "134537.827500", "134539.317500", "134540.807500", "134542.297500", "134543.787500", "134545.277500", "134546.767500", "134548.257500", "134549.747500", "134551.237500", "134552.727500", "134554.217500", "134555.707500", "134557.197500", "134558.687500", "134600.177500", "134601.667500", "134603.157500", "134604.647500", "134606.137500", "134607.627500", "134609.117500", "134610.607500", "134612.097500", "134613.587500", "134615.077500", "134616.567500", "134618.057500", "134619.547500", "134621.037500", "134622.527500", "134624.017500", "134625.507500", "134626.997500", "134628.487500", "134629.977500", "134631.467500", "134632.957500", "134634.447500", "134635.937500", "134637.427500", "134638.917500", "134640.407500", "134641.897500", "134643.387500", "134644.877500", "134646.367500", "134647.857500", "134649.347500", "134650.837500", "134652.327500", "134653.817500", "134655.307500", "134656.797500", "134658.287500", "134659.777500", "134701.267500", "134702.757500", "134704.247500", "134705.737500", "134707.227500", "134708.717500", "134710.207500", "134711.697500", "134713.187500", "134714.677500", "134716.167500", "134717.657500", "134719.147500", "134720.637500", "134722.127500", "134723.617500", "134725.107500", "134726.597500", "134728.087500", "134729.577500", "134731.067500", "134732.557500", "134734.047500", "134735.537500", "134737.027500", "134738.517500", "134740.007500", "134741.497500", "134742.987500", "134744.477500", "134745.967500", "134747.457500", "134748.947500", "134750.437500", "134751.927500", "134753.417500", "134754.907500", "134756.397500", "134757.887500", "134759.377500", "134800.867500", "134802.357500", "134803.847500", "134805.337500", "134806.827500", "134808.317500", "134809.807500", "134811.297500", "134812.787500", "134814.277500", "134815.767500", "134817.257500", "134818.747500", "134820.237500", "134821.727500", "134823.217500", "134824.707500", "134826.197500", "134827.687500", "134829.177500", "134830.667500", "134832.157500", "134833.647500", "134835.137500", "134836.627500", "134838.117500", "134839.607500", "134841.097500", "134842.587500", "134844.077500", "134845.567500", "134847.057500"],
      "ContentTime": ["134535.721000", "134535.723000", "134535.726000", "134535.728000", "134535.731000", "134535.733000", "134535.736000", "134535.738000", "134535.741000", "134535.743000", "134535.746000", "134535.748000", "134535.755000", "134535.758000", "134535.760000", "134535.763000", "134535.765000", "134535.768000", "134535.770000", "134535.773000", "134535.776000", "134535.778000", "134535.781000", "134535.783000", "134535.786000", "134535.788000", "134535.791000", "134535.793000", "134535.796000", "134535.798000", "134535.801000", "134535.803000", "134535.806000", "134535.808000", "134535.811000", "134535.813000", "134555.627000", "134555.630000", "134555.632000", "134555.635000", "134555.637000", "134555.640000", "134555.642000", "134555.645000", "134555.647000", "134555.650000", "134555.652000", "134555.655000", "134555.657000", "134555.660000", "134555.662000", "134555.665000", "134555.667000", "134555.670000", "134555.672000", "134555.675000", "134615.648000", "134615.651000", "134615.653000", "134615.656000", "134615.658000", "134615.661000", "134615.664000", "134615.666000", "134615.669000", "134615.671000", "134615.674000", "134615.676000", "134615.679000", "134615.681000", "134615.684000", "134615.687000", "134615.689000", "134615.692000", "134615.694000", "134615.697000", "134635.634000", "134635.637000", "134635.640000", "134635.651000", "134635.654000", "134635.656000", "134635.659000", "134635.661000", "134635.664000", "134635.666000", "134635.669000", "134635.671000", "134635.674000", "134635.676000", "134635.679000", "134635.681000", "134635.693000", "134635.695000", "134635.698000", "134635.700000", "134715.683000", "134715.686000", "134715.688000", "134715.691000", "134715.693000", "134715.696000", "134715.698000", "134715.701000", "134715.709000", "134715.711000", "134715.714000", "134715.716000", "134715.719000", "134715.721000", "134715.724000", "134715.726000", "134715.729000", "134715.731000", "134715.734000", "134715.736000", "134715.739000", "134715.741000", "134715.744000", "134715.746000", "134715.749000", "134715.751000", "134715.754000", "134715.756000", "134715.759000", "134715.761000", "134715.764000", "134755.679000", "134755.681000", "134755.684000", "134755.687000", "134755.689000", "134755.692000", "134755.698000", "134755.700000", "134755.703000", "134755.705000", "134755.708000", "134755.710000", "134755.713000", "134755.715000", "134755.718000", "134755.720000", "134755.723000", "134755.725000", "134755.728000", "134755.732000", "134755.734000", "134755.737000", "134755.739000", "134755.742000", "134755.745000", "134755.747000", "134755.750000", "134835.670000", "134835.673000", "134835.675000", "134835.686000", "134835.689000", "134835.691000", "134835.694000", "134835.697000", "134835.699000", "134835.702000", "134835.704000", "134835.707000", "134835.709000", "134835.712000", "134835.714000", "134835.717000", "134835.719000", "134835.722000", "134835.724000", "134835.727000", "134835.729000", "134835.732000", "134835.735000", "134835.737000", "134835.740000", "134835.742000", "134849.040000", "134849.043000", "134849.046000", "134849.049000", "134849.051000", "134849.054000", "134849.056000", "134849.059000", "134849.061000", "134849.064000"],
      "InstanceCreationTime": ["134535.721000", "134535.723000", "134535.726000", "134535.728000", "134535.731000", "134535.733000", "134535.736000", "134535.738000", "134535.741000", "134535.743000", "134535.746000", "134535.748000", "134535.755000", "134535.758000", "134535.760000", "134535.763000", "134535.765000", "134535.768000", "134535.770000", "134535.773000", "134535.776000", "134535.778000", "134535.781000", "134535.783000", "134535.786000", "134535.788000", "134535.791000", "134535.793000", "134535.796000", "134535.798000", "134535.801000", "134535.803000", "134535.806000", "134535.808000", "134535.811000", "134535.813000", "134555.627000", "134555.630000", "134555.632000", "134555.635000", "134555.637000", "134555.640000", "134555.642000", "134555.645000", "134555.647000", "134555.650000", "134555.652000", "134555.655000", "134555.657000", "134555.660000", "134555.662000", "134555.665000", "134555.667000", "134555.670000", "134555.672000", "134555.675000", "134615.648000", "134615.651000", "134615.653000", "134615.656000", "134615.658000", "134615.661000", "134615.664000", "134615.666000", "134615.669000", "134615.671000", "134615.674000", "134615.676000", "134615.679000", "134615.681000", "134615.684000", "134615.687000", "134615.689000", "134615.692000", "134615.694000", "134615.697000", "134635.634000", "134635.637000", "134635.640000", "134635.651000", "134635.654000", "134635.656000", "134635.659000", "134635.661000", "134635.664000", "134635.666000", "134635.669000", "134635.671000", "134635.674000", "134635.676000", "134635.679000", "134635.681000", "134635.693000", "134635.695000", "134635.698000", "134635.700000", "134715.683000", "134715.686000", "134715.688000", "134715.691000", "134715.693000", "134715.696000", "134715.698000", "134715.701000", "134715.709000", "134715.711000", "134715.714000", "134715.716000", "134715.719000", "134715.721000", "134715.724000", "134715.726000", "134715.729000", "134715.731000", "134715.734000", "134715.736000", "134715.739000", "134715.741000", "134715.744000", "134715.746000", "134715.749000", "134715.751000", "134715.754000", "134715.756000", "134715.759000", "134715.761000", "134715.764000", "134755.679000", "134755.681000", "134755.684000", "134755.687000", "134755.689000", "134755.692000", "134755.698000", "134755.700000", "134755.703000", "134755.705000", "134755.708000", "134755.710000", "134755.713000", "134755.715000", "134755.718000", "134755.720000", "134755.723000", "134755.725000", "134755.728000", "134755.732000", "134755.734000", "134755.737000", "134755.739000", "134755.742000", "134755.745000", "134755.747000", "134755.750000", "134835.670000", "134835.673000", "134835.675000", "134835.686000", "134835.689000", "134835.691000", "134835.694000", "134835.697000", "134835.699000", "134835.702000", "134835.704000", "134835.707000", "134835.709000", "134835.712000", "134835.714000", "134835.717000", "134835.719000", "134835.722000", "134835.724000", "134835.727000", "134835.729000", "134835.732000", "134835.735000", "134835.737000", "134835.740000", "134835.742000", "134849.040000", "134849.043000", "134849.046000", "134849.049000", "134849.051000", "134849.054000", "134849.056000", "134849.059000", "134849.061000", "134849.064000"],
      "InstanceNumber": [1, 2, 3, 4, 5, 6, 7, 8, 9, 10, 11, 12, 13, 14, 15, 16, 17, 18, 19, 20, 21, 22, 23, 24, 25, 26, 27, 28, 29, 30, 31, 32, 33, 34, 35, 36, 37, 38, 39, 40, 41, 42, 43, 44, 45, 46, 47, 48, 49, 50, 51, 52, 53, 54, 55, 56, 57, 58, 59, 60, 61, 62, 63, 64, 65, 66, 67, 68, 69, 70, 71, 72, 73, 74, 75, 76, 77, 78, 79, 80, 81, 82, 83, 84, 85, 86, 87, 88, 89, 90, 91, 92, 93, 94, 95, 96, 97, 98, 99, 100, 101, 102, 103, 104, 105, 106, 107, 108, 109, 110, 111, 112, 113, 114, 115, 116, 117, 118, 119, 120, 121, 122, 123, 124, 125, 126, 127, 128, 129, 130, 131, 132, 133, 134, 135, 136, 137, 138, 139, 140, 141, 142, 143, 144, 145, 146, 147, 148, 149, 150, 151, 152, 153, 154, 155, 156, 157, 158, 159, 160, 161, 162, 163, 164, 165, 166, 167, 168, 169, 170, 171, 172, 173, 174, 175, 176, 177, 178, 179, 180, 181, 182, 183, 184, 185, 186, 187, 188, 189, 190],
      "WindowCenter": [4776.0, 4778.0, 4780.0, 4780.0, 4780.0, 4776.0, 4778.0, 4776.0, 4778.0, 4782.0, 4778.0, 4782.0, 4780.0, 4780.0, 4778.0, 4778.0, 4776.0, 4772.0, 4778.0, 4778.0, 4776.0, 4780.0, 4778.0, 4780.0, 4780.0, 4778.0, 4778.0, 4778.0, 4780.0, 4782.0, 4780.0, 4776.0, 4782.0, 4776.0, 4776.0, 4776.0, 4780.0, 4778.0, 4778.0, 4776.0, 4778.0, 4778.0, 4776.0, 4774.0, 4776.0, 4780.0, 4780.0, 4780.0, 4780.0, 4780.0, 4778.0, 4780.0, 4776.0, 4778.0, 4778.0, 4780.0, 4776.0, 4778.0, 4776.0, 4776.0, 4776.0, 4782.0, 4782.0, 4780.0, 4778.0, 4776.0, 4780.0, 4778.0, 4778.0, 4782.0, 4776.0, 4778.0, 4780.0, 4778.0, 4782.0, 4780.0, 4778.0, 4780.0, 4780.0, 4778.0, 4778.0, 4782.0, 4776.0, 4778.0, 4780.0, 4778.0, 4754.0, 4778.0, 4776.0, 4778.0, 4776.0, 4778.0, 4780.0, 4778.0, 4780.0, 4778.0, 4776.0, 4778.0, 4780.0, 4778.0, 4782.0, 4776.0, 4780.0, 4778.0, 4778.0, 4778.0, 4778.0, 4780.0, 4782.0, 4782.0, 4782.0, 4782.0, 4778.0, 4782.0, 4778.0, 4778.0, 4784.0, 4776.0, 4776.0, 4780.0, 4778.0, 4778.0, 4776.0, 4778.0, 4754.0, 4778.0, 4780.0, 4780.0, 4778.0, 4780.0, 4778.0, 4780.0, 4776.0, 4780.0, 4778.0, 4778.0, 4780.0, 4778.0, 4778.0, 4780.0, 4782.0, 4780.0, 4776.0, 4780.0, 4778.0, 4776.0, 4778.0, 4780.0, 4780.0, 4778.0, 4780.0, 4780.0, 4778.0, 4778.0, 4782.0, 4778.0, 4778.0, 4778.0, 4776.0, 4782.0, 4778.0, 4780.0, 4778.0, 4778.0, 4778.0, 4776.0, 4778.0, 4780.0, 4782.0, 4780.0, 4782.0, 4780.0, 4778.0, 4780.0, 4782.0, 4778.0, 4780.0, 4780.0, 4780.0, 4782.0, 4780.0, 4780.0, 4780.0, 4780.0, 4778.0, 4780.0, 4780.0, 4780.0, 4780.0, 4780.0],
      "WindowWidth": [18568.0, 18566.0, 18568.0, 18566.0, 18568.0, 18570.0, 18570.0, 18564.0, 18568.0, 18568.0, 18568.0, 18570.0, 18570.0, 18568.0, 18564.0, 18566.0, 18570.0, 18560.0, 18564.0, 18566.0, 18564.0, 18568.0, 18568.0, 18568.0, 18566.0, 18566.0, 18560.0, 18568.0, 18568.0, 18568.0, 18570.0, 18564.0, 18574.0, 18566.0, 18566.0, 18564.0, 18568.0, 18568.0, 18564.0, 18562.0, 18564.0, 18568.0, 18564.0, 18562.0, 18564.0, 18568.0, 18566.0, 18568.0, 18566.0, 18566.0, 18570.0, 18568.0, 18562.0, 18568.0, 18566.0, 18566.0, 18570.0, 18564.0, 18570.0, 18564.0, 18566.0, 18568.0, 18570.0, 18568.0, 18566.0, 18566.0, 18566.0, 18566.0, 18566.0, 18572.0, 18566.0, 18566.0, 18566.0, 18566.0, 18570.0, 18566.0, 18566.0, 18568.0, 18570.0, 18570.0, 18568.0, 18570.0, 18564.0, 18568.0, 18570.0, 18568.0, 18532.0, 18562.0, 18566.0, 18570.0, 18562.0, 18562.0, 18566.0, 18564.0, 18568.0, 18560.0, 18562.0, 18568.0, 18570.0, 18568.0, 18568.0, 18564.0, 18566.0, 18568.0, 18566.0, 18566.0, 18562.0, 18572.0, 18566.0, 18566.0, 18566.0, 18570.0, 18566.0, 18572.0, 18566.0, 18568.0, 18570.0, 18564.0, 18560.0, 18566.0, 18568.0, 18570.0, 18562.0, 18566.0, 18532.0, 18566.0, 18566.0, 18564.0, 18570.0, 18566.0, 18562.0, 18570.0, 18562.0, 18570.0, 18564.0, 18566.0, 18568.0, 18562.0, 18566.0, 18568.0, 18570.0, 18574.0, 18568.0, 18566.0, 18566.0, 18568.0, 18564.0, 18562.0, 18568.0, 18568.0, 18564.0, 18560.0, 18562.0, 18566.0, 18570.0, 18566.0, 18570.0, 18564.0, 18568.0, 18566.0, 18566.0, 18568.0, 18568.0, 18568.0, 18568.0, 18566.0, 18566.0, 18572.0, 18574.0, 18568.0, 18568.0, 18566.0, 18566.0, 18568.0, 18566.0, 18566.0, 18564.0, 18566.0, 18566.0, 18570.0, 18560.0, 18570.0, 18568.0, 18564.0, 18566.0, 18572.0, 18564.0, 18564.0, 18568.0, 18566.0]
    },
    "slices": {}
  }
}