{
  "AcquisitionMatrixPE": 104,
  "AcquisitionNumber": 1,
  "AcquisitionTime": "13:18:42.105000",
  "BandwidthPerPixelPhaseEncode": 17.17,
  "BaseResolution": 104,
  "BodyPartExamined": "BRAIN",
  "CoilString": "HC1-7;NC1_2",
  "ConsistencyInfo": "N4_VE11C_LATEST_20160120",
  "ConversionSoftware": "dcm2niix",
  "ConversionSoftwareVersion": "v1.0.20190902",
  "DerivedVendorReportedEchoSpacing": 0.000560011,
  "DeviceSerialNumber": "167006",
  "DwellTime": 2.1e-06,
  "EchoTime": 0.037,
  "EchoTrainLength": 104,
  "EffectiveEchoSpacing": 0.000560011,
  "FlipAngle": 52,
  "ImageComments": "Unaliased_MB4_PE3_LB",
  "ImageOrientationPatientDICOM": [0.999149, 0.00948899, 0.040134, -0.00122072, 0.979548, -0.201207],
  "ImageType": [
    "ORIGINAL",
    "PRIMARY",
    "P",
    "MB",
    "ND",
    "MOSAIC"
],
  "ImagingFrequency": 123.259,
  "InPlanePhaseEncodingDirectionDICOM": "COL",
  "InstitutionAddress": "Chemin_Queen-Mary_4565_Montreal_District_CA_H3W_1W5",
  "InstitutionName": "IUGM",
  "InstitutionalDepartmentName": "Department",
  "MRAcquisitionType": "2D",
  "MagneticFieldStrength": 3,
  "Manufacturer": "Siemens",
  "ManufacturersModelName": "Prisma_fit",
  "Modality": "MR",
  "MultibandAccelerationFactor": 4,
  "PartialFourier": 1,
  "PatientPosition": "HFS",
  "PercentPhaseFOV": 100,
  "PhaseEncodingDirection": "j",
  "PhaseEncodingSteps": 104,
  "PhaseResolution": 1,
  "PixelBandwidth": 2290,
  "ProcedureStepDescription": "memory_things",
  "ProtocolName": "func_task-things_run-1",
  "PulseSequenceDetails": "%CustomerSeq%_cmrr_mbep2d_bold",
  "ReceiveCoilActiveElements": "HC1-7;NC1,2",
  "ReceiveCoilName": "HeadNeck_64",
  "ReconMatrixPE": 104,
  "RepetitionTime": 1.49,
  "SAR": 0.0397842,
  "ScanOptions": "FS",
  "ScanningSequence": "EP",
  "SequenceName": "epfid2d1_104",
  "SequenceVariant": "SK_SS",
  "SeriesDescription": "func_task-things_run-1",
  "SeriesNumber": 11,
  "ShimSetting": [641, -7225, -8780, 728, 27, -42, 128, -14],
  "SliceThickness": 2,
  "SliceTiming": [0, 0.785, 0.0975, 0.8825, 0.1975, 0.98, 0.295, 1.0775, 0.3925, 1.175, 0.49, 1.275, 0.5875, 1.3725, 0.685, 0, 0.785, 0.0975, 0.8825, 0.1975, 0.98, 0.295, 1.0775, 0.3925, 1.175, 0.49, 1.275, 0.5875, 1.3725, 0.685, 0, 0.785, 0.0975, 0.8825, 0.1975, 0.98, 0.295, 1.0775, 0.3925, 1.175, 0.49, 1.275, 0.5875, 1.3725, 0.685, 0, 0.785, 0.0975, 0.8825, 0.1975, 0.98, 0.295, 1.0775, 0.3925, 1.175, 0.49, 1.275, 0.5875, 1.3725, 0.685],
  "SoftwareVersions": "syngo_MR_E11",
  "SpacingBetweenSlices": 2,
  "StationName": "MRC35049",
  "TaskName": "things",
  "TotalReadoutTime": 0.0576811,
  "TxRefAmp": 229.044,
  "WipMemBlock": "801c1afb-42e9-413f-867e-f3ffc5f5ad8b||Sequence: R016 ve11c/master r/e634e98; Dec 19 2017 11:00:25 by eja",
  "dcmmeta_affine": [
    [-1.9982985258102417, -0.002441443270072341, 0.08244495093822479, 106.78218078613281],
    [-0.01897798478603363, 1.959096074104309, -0.4019731283187866, -77.10684204101562],
    [0.08026809245347977, 0.4024134874343872, 1.9574525356292725, -58.37173080444336],
    [0.0, 0.0, 0.0, 1.0]
],
  "dcmmeta_reorient_transform": [
    [0.0, -1.0, 0.0, 103.0],
    [1.0, 0.0, 0.0, 0.0],
    [0.0, 0.0, 1.0, 0.0],
    [0.0, 0.0, 0.0, 1.0]
],
  "dcmmeta_shape": [104, 104, 60, 190],
  "dcmmeta_slice_dim": 2,
  "dcmmeta_version": 0.6,
  "global": {
    "const": {
      "AcquisitionMatrix": [104, 0, 0, 104],
      "AngioFlag": "N",
      "BitsAllocated": 16,
      "BitsStored": 16,
      "BodyPartExamined": "BRAIN",
      "Columns": 832,
      "EchoNumbers": 1,
      "EchoTime": 37.0,
      "EchoTrainLength": 104,
      "FlipAngle": 52.0,
      "HighBit": 15,
      "ImageOrientationPatient": [0.99914924672483, 0.00948899241315, 0.04013404779228, -0.0012207216537, 0.97954803812781, -0.2012067365637],
      "ImagePositionPatient": [-833.02267906128, -844.69901509856, 100.33777536713],
      "ImageType": [
        "ORIGINAL",
        "PRIMARY",
        "P",
        "MB",
        "ND",
        "MOSAIC"
],
      "ImagedNucleus": "1H",
      "ImagingFrequency": 123.258914,
      "InPlanePhaseEncodingDirection": "COL",
      "LargestImagePixelValue": 4095,
      "MRAcquisitionType": "2D",
      "MagneticFieldStrength": 3.0,
      "Manufacturer": "SIEMENS",
      "ManufacturerModelName": "Prisma_fit",
      "Modality": "MR",
      "NumberOfAverages": 1.0,
      "NumberOfPhaseEncodingSteps": 104,
      "PercentPhaseFieldOfView": 100.0,
      "PercentSampling": 100.0,
      "PerformedProcedureStepStartTime": "115232.984000",
      "PhotometricInterpretation": "MONOCHROME2",
      "PixelBandwidth": 2290.0,
      "PixelRepresentation": 0,
      "PixelSpacing": [2.0, 2.0],
      "ProtocolName": "func_task-things_run-1",
      "RepetitionTime": 1490.0,
      "RescaleIntercept": -4096.0,
      "RescaleSlope": 2.0,
      "RescaleType": "US",
      "Rows": 832,
      "SAR": 0.0397841528607,
      "SamplesPerPixel": 1,
      "ScanOptions": "FS",
      "ScanningSequence": "EP",
      "SequenceName": "epfid2d1_104",
      "SequenceVariant": [
        "SK",
        "SS"
],
      "SeriesDescription": "func_task-things_run-1",
      "SeriesNumber": 11,
      "SeriesTime": "132008.298000",
      "SliceLocation": -37.230680385508,
      "SliceThickness": 2.0,
      "SmallestImagePixelValue": 0,
      "SoftwareVersions": "syngo MR E11",
      "SpacingBetweenSlices": 1.999999955796,
      "SpecificCharacterSet": "ISO_IR 100",
      "StudyID": "1",
      "StudyTime": "115232.932000",
      "TransmitCoilName": "Body",
      "VariableFlipAngleFlag": "N",
      "WindowCenterWidthExplanation": "Algo1",
      "dBdt": 0.0},
    "slices": {}
  },
  "time": {
    "samples": {
      "AcquisitionNumber": [1, 2, 3, 4, 5, 6, 7, 8, 9, 10, 11, 12, 13, 14, 15, 16, 17, 18, 19, 20, 21, 22, 23, 24, 25, 26, 27, 28, 29, 30, 31, 32, 33, 34, 35, 36, 37, 38, 39, 40, 41, 42, 43, 44, 45, 46, 47, 48, 49, 50, 51, 52, 53, 54, 55, 56, 57, 58, 59, 60, 61, 62, 63, 64, 65, 66, 67, 68, 69, 70, 71, 72, 73, 74, 75, 76, 77, 78, 79, 80, 81, 82, 83, 84, 85, 86, 87, 88, 89, 90, 91, 92, 93, 94, 95, 96, 97, 98, 99, 100, 101, 102, 103, 104, 105, 106, 107, 108, 109, 110, 111, 112, 113, 114, 115, 116, 117, 118, 119, 120, 121, 122, 123, 124, 125, 126, 127, 128, 129, 130, 131, 132, 133, 134, 135, 136, 137, 138, 139, 140, 141, 142, 143, 144, 145, 146, 147, 148, 149, 150, 151, 152, 153, 154, 155, 156, 157, 158, 159, 160, 161, 162, 163, 164, 165, 166, 167, 168, 169, 170, 171, 172, 173, 174, 175, 176, 177, 178, 179, 180, 181, 182, 183, 184, 185, 186, 187, 188, 189, 190],
      "AcquisitionTime": ["131842.105000", "131843.595000", "131845.085000", "131846.575000", "131848.065000", "131849.555000", "131851.045000", "131852.535000", "131854.025000", "131855.515000", "131857.005000", "131858.495000", "131859.985000", "131901.475000", "131902.965000", "131904.455000", "131905.945000", "131907.435000", "131908.925000", "131910.415000", "131911.905000", "131913.395000", "131914.885000", "131916.375000", "131917.865000", "131919.355000", "131920.845000", "131922.335000", "131923.825000", "131925.315000", "131926.805000", "131928.295000", "131929.785000", "131931.275000", "131932.765000", "131934.255000", "131935.745000", "131937.235000", "131938.725000", "131940.215000", "131941.705000", "131943.195000", "131944.685000", "131946.175000", "131947.665000", "131949.155000", "131950.645000", "131952.135000", "131953.625000", "131955.115000", "131956.605000", "131958.095000", "131959.585000", "132001.075000", "132002.565000", "132004.055000", "132005.545000", "132007.035000", "132008.525000", "132010.015000", "132011.505000", "132012.995000", "132014.485000", "132015.975000", "132017.465000", "132018.955000", "132020.445000", "132021.935000", "132023.425000", "132024.915000", "132026.405000", "132027.895000", "132029.385000", "132030.875000", "132032.365000", "132033.855000", "132035.345000", "132036.835000", "132038.325000", "132039.815000", "132041.305000", "132042.795000", "132044.285000", "132045.775000", "132047.265000", "132048.755000", "132050.245000", "132051.735000", "132053.225000", "132054.715000", "132056.205000", "132057.695000", "132059.185000", "132100.675000", "132102.165000", "132103.655000", "132105.145000", "132106.635000", "132108.125000", "132109.615000", "132111.105000", "132112.595000", "132114.085000", "132115.575000", "132117.065000", "132118.555000", "132120.045000", "132121.535000", "132123.025000", "132124.515000", "132126.005000", "132127.495000", "132128.985000", "132130.475000", "132131.965000", "132133.455000", "132134.945000", "132136.435000", "132137.925000", "132139.415000", "132140.905000", "132142.395000", "132143.885000", "132145.375000", "132146.865000", "132148.355000", "132149.845000", "132151.335000", "132152.825000", "132154.315000", "132155.805000", "132157.295000", "132158.785000", "132200.275000", "132201.765000", "132203.255000", "132204.745000", "132206.235000", "132207.725000", "132209.215000", "132210.705000", "132212.195000", "132213.685000", "132215.175000", "132216.665000", "132218.155000", "132219.645000", "132221.135000", "132222.625000", "132224.115000", "132225.605000", "132227.095000", "132228.585000", "132230.075000", "132231.565000", "132233.055000", "132234.545000", "132236.035000", "132237.525000", "132239.015000", "132240.505000", "132241.995000", "132243.485000", "132244.975000", "132246.465000", "132247.955000", "132249.445000", "132250.935000", "132252.425000", "132253.915000", "132255.405000", "132256.895000", "132258.385000", "132259.875000", "132301.365000", "132302.855000", "132304.345000", "132305.835000", "132307.325000", "132308.815000", "132310.305000", "132311.795000", "132313.285000", "132314.775000", "132316.265000", "132317.755000", "132319.245000", "132320.735000", "132322.225000", "132323.715000"],
      "ContentTime": ["132008.300000", "132008.303000", "132008.305000", "132008.308000", "132008.310000", "132008.313000", "132008.315000", "132008.318000", "132008.320000", "132008.323000", "132008.325000", "132008.328000", "132008.330000", "132008.333000", "132008.336000", "132008.338000", "132008.341000", "132008.343000", "132008.346000", "132008.348000", "132008.351000", "132008.353000", "132008.356000", "132008.358000", "132008.361000", "132008.363000", "132008.366000", "132008.368000", "132008.371000", "132008.373000", "132008.376000", "132008.378000", "132008.381000", "132008.383000", "132028.184000", "132028.187000", "132028.189000", "132028.192000", "132028.194000", "132028.197000", "132028.199000", "132028.202000", "132028.204000", "132028.207000", "132028.209000", "132028.212000", "132028.214000", "132028.217000", "132028.220000", "132028.222000", "132028.225000", "132028.227000", "132028.230000", "132028.232000", "132048.170000", "132048.173000", "132048.176000", "132048.178000", "132048.181000", "132048.183000", "132048.186000", "132048.189000", "132048.191000", "132048.194000", "132048.196000", "132048.199000", "132048.201000", "132048.204000", "132048.206000", "132048.209000", "132048.211000", "132048.214000", "132048.216000", "132048.219000", "132108.867000", "132108.869000", "132108.872000", "132108.874000", "132108.877000", "132108.880000", "132108.882000", "132108.885000", "132108.887000", "132108.890000", "132108.892000", "132108.895000", "132108.897000", "132108.900000", "132108.903000", "132108.905000", "132108.908000", "132108.910000", "132108.913000", "132108.915000", "132148.218000", "132148.221000", "132148.224000", "132148.226000", "132148.229000", "132148.231000", "132148.234000", "132148.236000", "132148.239000", "132148.242000", "132148.244000", "132148.247000", "132148.249000", "132148.252000", "132148.254000", "132148.257000", "132148.259000", "132148.262000", "132148.264000", "132148.267000", "132148.269000", "132148.272000", "132148.274000", "132148.277000", "132148.279000", "132148.282000", "132148.284000", "132148.287000", "132148.289000", "132148.292000", "132228.203000", "132228.206000", "132228.208000", "132228.211000", "132228.213000", "132228.216000", "132228.218000", "132228.221000", "132228.223000", "132228.226000", "132228.228000", "132228.231000", "132228.234000", "132228.236000", "132228.239000", "132228.241000", "132228.244000", "132228.246000", "132228.249000", "132228.251000", "132228.254000", "132228.256000", "132228.259000", "132228.261000", "132228.264000", "132228.266000", "132228.269000", "132308.195000", "132308.198000", "132308.201000", "132308.203000", "132308.206000", "132308.208000", "132308.211000", "132308.213000", "132308.216000", "132308.219000", "132308.221000", "132308.224000", "132308.226000", "132308.229000", "132308.231000", "132308.234000", "132308.236000", "132308.239000", "132308.241000", "132308.244000", "132308.246000", "132308.249000", "132308.251000", "132308.254000", "132308.256000", "132308.259000", "132326.241000", "132326.244000", "132326.247000", "132326.250000", "132326.253000", "132326.255000", "132326.258000", "132326.261000", "132326.264000", "132326.266000", "132326.269000", "132326.272000", "132326.275000"],
      "InstanceCreationTime": ["132008.300000", "132008.303000", "132008.305000", "132008.308000", "132008.310000", "132008.313000", "132008.315000", "132008.318000", "132008.320000", "132008.323000", "132008.325000", "132008.328000", "132008.330000", "132008.333000", "132008.336000", "132008.338000", "132008.341000", "132008.343000", "132008.346000", "132008.348000", "132008.351000", "132008.353000", "132008.356000", "132008.358000", "132008.361000", "132008.363000", "132008.366000", "132008.368000", "132008.371000", "132008.373000", "132008.376000", "132008.378000", "132008.381000", "132008.383000", "132028.184000", "132028.187000", "132028.189000", "132028.192000", "132028.194000", "132028.197000", "132028.199000", "132028.202000", "132028.204000", "132028.207000", "132028.209000", "132028.212000", "132028.214000", "132028.217000", "132028.220000", "132028.222000", "132028.225000", "132028.227000", "132028.230000", "132028.232000", "132048.170000", "132048.173000", "132048.176000", "132048.178000", "132048.181000", "132048.183000", "132048.186000", "132048.189000", "132048.191000", "132048.194000", "132048.196000", "132048.199000", "132048.201000", "132048.204000", "132048.206000", "132048.209000", "132048.211000", "132048.214000", "132048.216000", "132048.219000", "132108.867000", "132108.869000", "132108.872000", "132108.874000", "132108.877000", "132108.880000", "132108.882000", "132108.885000", "132108.887000", "132108.890000", "132108.892000", "132108.895000", "132108.897000", "132108.900000", "132108.903000", "132108.905000", "132108.908000", "132108.910000", "132108.913000", "132108.915000", "132148.218000", "132148.221000", "132148.224000", "132148.226000", "132148.229000", "132148.231000", "132148.234000", "132148.236000", "132148.239000", "132148.242000", "132148.244000", "132148.247000", "132148.249000", "132148.252000", "132148.254000", "132148.257000", "132148.259000", "132148.262000", "132148.264000", "132148.267000", "132148.269000", "132148.272000", "132148.274000", "132148.277000", "132148.279000", "132148.282000", "132148.284000", "132148.287000", "132148.289000", "132148.292000", "132228.203000", "132228.206000", "132228.208000", "132228.211000", "132228.213000", "132228.216000", "132228.218000", "132228.221000", "132228.223000", "132228.226000", "132228.228000", "132228.231000", "132228.234000", "132228.236000", "132228.239000", "132228.241000", "132228.244000", "132228.246000", "132228.249000", "132228.251000", "132228.254000", "132228.256000", "132228.259000", "132228.261000", "132228.264000", "132228.266000", "132228.269000", "132308.195000", "132308.198000", "132308.201000", "132308.203000", "132308.206000", "132308.208000", "132308.211000", "132308.213000", "132308.216000", "132308.219000", "132308.221000", "132308.224000", "132308.226000", "132308.229000", "132308.231000", "132308.234000", "132308.236000", "132308.239000", "132308.241000", "132308.244000", "132308.246000", "132308.249000", "132308.251000", "132308.254000", "132308.256000", "132308.259000", "132326.241000", "132326.244000", "132326.247000", "132326.250000", "132326.253000", "132326.255000", "132326.258000", "132326.261000", "132326.264000", "132326.266000", "132326.269000", "132326.272000", "132326.275000"],
      "InstanceNumber": [1, 2, 3, 4, 5, 6, 7, 8, 9, 10, 11, 12, 13, 14, 15, 16, 17, 18, 19, 20, 21, 22, 23, 24, 25, 26, 27, 28, 29, 30, 31, 32, 33, 34, 35, 36, 37, 38, 39, 40, 41, 42, 43, 44, 45, 46, 47, 48, 49, 50, 51, 52, 53, 54, 55, 56, 57, 58, 59, 60, 61, 62, 63, 64, 65, 66, 67, 68, 69, 70, 71, 72, 73, 74, 75, 76, 77, 78, 79, 80, 81, 82, 83, 84, 85, 86, 87, 88, 89, 90, 91, 92, 93, 94, 95, 96, 97, 98, 99, 100, 101, 102, 103, 104, 105, 106, 107, 108, 109, 110, 111, 112, 113, 114, 115, 116, 117, 118, 119, 120, 121, 122, 123, 124, 125, 126, 127, 128, 129, 130, 131, 132, 133, 134, 135, 136, 137, 138, 139, 140, 141, 142, 143, 144, 145, 146, 147, 148, 149, 150, 151, 152, 153, 154, 155, 156, 157, 158, 159, 160, 161, 162, 163, 164, 165, 166, 167, 168, 169, 170, 171, 172, 173, 174, 175, 176, 177, 178, 179, 180, 181, 182, 183, 184, 185, 186, 187, 188, 189, 190],
      "WindowCenter": [4790.0, 4762.0, 4790.0, 4784.0, 4786.0, 4788.0, 4764.0, 4762.0, 4784.0, 4764.0, 4764.0, 4764.0, 4762.0, 4792.0, 4762.0, 4788.0, 4762.0, 4788.0, 4786.0, 4786.0, 4762.0, 4784.0, 4764.0, 4786.0, 4762.0, 4788.0, 4764.0, 4788.0, 4786.0, 4786.0, 4786.0, 4788.0, 4766.0, 4790.0, 4788.0, 4790.0, 4790.0, 4786.0, 4790.0, 4766.0, 4786.0, 4788.0, 4790.0, 4788.0, 4786.0, 4788.0, 4786.0, 4788.0, 4788.0, 4788.0, 4790.0, 4764.0, 4792.0, 4788.0, 4790.0, 4790.0, 4788.0, 4792.0, 4788.0, 4790.0, 4788.0, 4762.0, 4788.0, 4764.0, 4788.0, 4788.0, 4786.0, 4790.0, 4792.0, 4788.0, 4790.0, 4788.0, 4790.0, 4762.0, 4786.0, 4790.0, 4790.0, 4788.0, 4790.0, 4790.0, 4790.0, 4788.0, 4790.0, 4786.0, 4792.0, 4790.0, 4786.0, 4790.0, 4786.0, 4792.0, 4788.0, 4790.0, 4786.0, 4786.0, 4788.0, 4786.0, 4764.0, 4792.0, 4788.0, 4794.0, 4790.0, 4788.0, 4788.0, 4788.0, 4766.0, 4768.0, 4788.0, 4790.0, 4788.0, 4790.0, 4792.0, 4792.0, 4768.0, 4790.0, 4790.0, 4788.0, 4788.0, 4790.0, 4786.0, 4792.0, 4788.0, 4790.0, 4792.0, 4790.0, 4792.0, 4790.0, 4794.0, 4786.0, 4788.0, 4788.0, 4760.0, 4790.0, 4788.0, 4792.0, 4790.0, 4790.0, 4792.0, 4790.0, 4788.0, 4790.0, 4788.0, 4788.0, 4786.0, 4792.0, 4790.0, 4788.0, 4790.0, 4794.0, 4788.0, 4792.0, 4794.0, 4792.0, 4790.0, 4792.0, 4790.0, 4786.0, 4792.0, 4790.0, 4792.0, 4792.0, 4792.0, 4788.0, 4766.0, 4790.0, 4790.0, 4786.0, 4790.0, 4768.0, 4764.0, 4792.0, 4790.0, 4790.0, 4790.0, 4766.0, 4786.0, 4792.0, 4790.0, 4788.0, 4792.0, 4788.0, 4788.0, 4768.0, 4790.0, 4790.0, 4786.0, 4790.0, 4788.0, 4792.0, 4788.0, 4788.0],
      "WindowWidth": [18566.0, 18532.0, 18566.0, 18556.0, 18560.0, 18564.0, 18532.0, 18530.0, 18558.0, 18534.0, 18532.0, 18530.0, 18530.0, 18564.0, 18532.0, 18560.0, 18528.0, 18562.0, 18562.0, 18560.0, 18534.0, 18560.0, 18530.0, 18564.0, 18530.0, 18560.0, 18528.0, 18560.0, 18558.0, 18562.0, 18564.0, 18568.0, 18534.0, 18564.0, 18560.0, 18560.0, 18562.0, 18558.0, 18558.0, 18530.0, 18558.0, 18558.0, 18562.0, 18562.0, 18560.0, 18562.0, 18560.0, 18562.0, 18560.0, 18560.0, 18556.0, 18532.0, 18564.0, 18560.0, 18560.0, 18558.0, 18558.0, 18570.0, 18558.0, 18564.0, 18560.0, 18534.0, 18558.0, 18530.0, 18560.0, 18560.0, 18560.0, 18556.0, 18560.0, 18560.0, 18562.0, 18562.0, 18564.0, 18528.0, 18558.0, 18562.0, 18556.0, 18564.0, 18564.0, 18562.0, 18560.0, 18562.0, 18558.0, 18558.0, 18562.0, 18558.0, 18558.0, 18558.0, 18560.0, 18566.0, 18560.0, 18564.0, 18558.0, 18558.0, 18564.0, 18564.0, 18528.0, 18564.0, 18558.0, 18564.0, 18560.0, 18558.0, 18558.0, 18560.0, 18528.0, 18530.0, 18564.0, 18564.0, 18560.0, 18564.0, 18564.0, 18566.0, 18530.0, 18562.0, 18560.0, 18562.0, 18560.0, 18566.0, 18562.0, 18560.0, 18562.0, 18560.0, 18562.0, 18560.0, 18562.0, 18556.0, 18566.0, 18562.0, 18562.0, 18558.0, 18530.0, 18566.0, 18558.0, 18562.0, 18562.0, 18560.0, 18562.0, 18560.0, 18560.0, 18564.0, 18560.0, 18560.0, 18556.0, 18566.0, 18560.0, 18558.0, 18558.0, 18568.0, 18556.0, 18562.0, 18562.0, 18566.0, 18562.0, 18566.0, 18562.0, 18556.0, 18570.0, 18562.0, 18562.0, 18556.0, 18564.0, 18558.0, 18530.0, 18560.0, 18564.0, 18558.0, 18562.0, 18530.0, 18526.0, 18562.0, 18562.0, 18564.0, 18558.0, 18528.0, 18560.0, 18560.0, 18562.0, 18562.0, 18558.0, 18558.0, 18562.0, 18530.0, 18558.0, 18562.0, 18558.0, 18566.0, 18562.0, 18566.0, 18562.0, 18560.0]
    },
    "slices": {}
  }
}