{
  "AcquisitionMatrixPE": 104,
  "AcquisitionNumber": 1,
  "AcquisitionTime": "13:25:6.707500",
  "BandwidthPerPixelPhaseEncode": 17.17,
  "BaseResolution": 104,
  "BodyPartExamined": "BRAIN",
  "CoilString": "HC1-7;NC1_2",
  "ConsistencyInfo": "N4_VE11C_LATEST_20160120",
  "ConversionSoftware": "dcm2niix",
  "ConversionSoftwareVersion": "v1.0.20190902",
  "DerivedVendorReportedEchoSpacing": 0.000560011,
  "DeviceSerialNumber": "167006",
  "DwellTime": 2.1e-06,
  "EchoTime": 0.037,
  "EchoTrainLength": 104,
  "EffectiveEchoSpacing": 0.000560011,
  "FlipAngle": 52,
  "ImageComments": "Unaliased_MB4_PE3_LB",
  "ImageOrientationPatientDICOM": [0.999149, 0.00948899, 0.040134, -0.00122072, 0.979548, -0.201207],
  "ImageType": [
    "ORIGINAL",
    "PRIMARY",
    "M",
    "MB",
    "ND",
    "MOSAIC"
],
  "ImagingFrequency": 123.259,
  "InPlanePhaseEncodingDirectionDICOM": "COL",
  "InstitutionAddress": "Chemin_Queen-Mary_4565_Montreal_District_CA_H3W_1W5",
  "InstitutionName": "IUGM",
  "InstitutionalDepartmentName": "Department",
  "MRAcquisitionType": "2D",
  "MagneticFieldStrength": 3,
  "Manufacturer": "Siemens",
  "ManufacturersModelName": "Prisma_fit",
  "Modality": "MR",
  "MultibandAccelerationFactor": 4,
  "PartialFourier": 1,
  "PatientPosition": "HFS",
  "PercentPhaseFOV": 100,
  "PhaseEncodingDirection": "j",
  "PhaseEncodingSteps": 104,
  "PhaseResolution": 1,
  "PixelBandwidth": 2290,
  "ProcedureStepDescription": "memory_things",
  "ProtocolName": "func_task-things_run-2",
  "PulseSequenceDetails": "%CustomerSeq%_cmrr_mbep2d_bold",
  "ReceiveCoilActiveElements": "HC1-7;NC1,2",
  "ReceiveCoilName": "HeadNeck_64",
  "ReconMatrixPE": 104,
  "RepetitionTime": 1.49,
  "SAR": 0.0397842,
  "ScanOptions": "FS",
  "ScanningSequence": "EP",
  "SequenceName": "epfid2d1_104",
  "SequenceVariant": "SK_SS",
  "SeriesDescription": "func_task-things_run-2",
  "SeriesNumber": 13,
  "ShimSetting": [641, -7225, -8780, 728, 27, -42, 128, -14],
  "SliceThickness": 2,
  "SliceTiming": [0, 0.785, 0.0975, 0.8825, 0.1975, 0.98, 0.295, 1.0775, 0.3925, 1.1775, 0.49, 1.275, 0.5875, 1.3725, 0.6875, 0, 0.785, 0.0975, 0.8825, 0.1975, 0.98, 0.295, 1.0775, 0.3925, 1.1775, 0.49, 1.275, 0.5875, 1.3725, 0.6875, 0, 0.785, 0.0975, 0.8825, 0.1975, 0.98, 0.295, 1.0775, 0.3925, 1.1775, 0.49, 1.275, 0.5875, 1.3725, 0.6875, 0, 0.785, 0.0975, 0.8825, 0.1975, 0.98, 0.295, 1.0775, 0.3925, 1.1775, 0.49, 1.275, 0.5875, 1.3725, 0.6875],
  "SoftwareVersions": "syngo_MR_E11",
  "SpacingBetweenSlices": 2,
  "StationName": "MRC35049",
  "TaskName": "things",
  "TotalReadoutTime": 0.0576811,
  "TxRefAmp": 229.044,
  "WipMemBlock": "a1b22419-fff1-4125-8195-81b4b90a3c8b||Sequence: R016 ve11c/master r/e634e98; Dec 19 2017 11:00:25 by eja",
  "dcmmeta_affine": [
    [-1.9982985258102417, -0.002441443270072341, 0.08244495093822479, 106.78218078613281],
    [-0.01897798478603363, 1.959096074104309, -0.4019731283187866, -77.10684204101562],
    [0.08026809245347977, 0.4024134874343872, 1.9574525356292725, -58.37173080444336],
    [0.0, 0.0, 0.0, 1.0]
],
  "dcmmeta_reorient_transform": [
    [0.0, -1.0, 0.0, 103.0],
    [1.0, 0.0, 0.0, 0.0],
    [0.0, 0.0, 1.0, 0.0],
    [0.0, 0.0, 0.0, 1.0]
],
  "dcmmeta_shape": [104, 104, 60, 190],
  "dcmmeta_slice_dim": 2,
  "dcmmeta_version": 0.6,
  "global": {
    "const": {
      "AcquisitionMatrix": [104, 0, 0, 104],
      "AngioFlag": "N",
      "BitsAllocated": 16,
      "BitsStored": 16,
      "BodyPartExamined": "BRAIN",
      "Columns": 832,
      "EchoNumbers": 1,
      "EchoTime": 37.0,
      "EchoTrainLength": 104,
      "FlipAngle": 52.0,
      "HighBit": 15,
      "ImageOrientationPatient": [0.99914924672483, 0.00948899241315, 0.04013404779228, -0.0012207216537, 0.97954803812781, -0.2012067365637],
      "ImagePositionPatient": [-833.02267906128, -844.69901509856, 100.33777536713],
      "ImageType": [
        "ORIGINAL",
        "PRIMARY",
        "M",
        "MB",
        "ND",
        "MOSAIC"
],
      "ImagedNucleus": "1H",
      "ImagingFrequency": 123.25892,
      "InPlanePhaseEncodingDirection": "COL",
      "MRAcquisitionType": "2D",
      "MagneticFieldStrength": 3.0,
      "Manufacturer": "SIEMENS",
      "ManufacturerModelName": "Prisma_fit",
      "Modality": "MR",
      "NumberOfAverages": 1.0,
      "NumberOfPhaseEncodingSteps": 104,
      "PercentPhaseFieldOfView": 100.0,
      "PercentSampling": 100.0,
      "PerformedProcedureStepStartTime": "115232.984000",
      "PhotometricInterpretation": "MONOCHROME2",
      "PixelBandwidth": 2290.0,
      "PixelRepresentation": 0,
      "PixelSpacing": [2.0, 2.0],
      "ProtocolName": "func_task-things_run-2",
      "RepetitionTime": 1490.0,
      "Rows": 832,
      "SAR": 0.0397841528607,
      "SamplesPerPixel": 1,
      "ScanOptions": "FS",
      "ScanningSequence": "EP",
      "SequenceName": "epfid2d1_104",
      "SequenceVariant": [
        "SK",
        "SS"
],
      "SeriesDescription": "func_task-things_run-2",
      "SeriesNumber": 13,
      "SeriesTime": "132615.552000",
      "SliceLocation": -37.230680385508,
      "SliceThickness": 2.0,
      "SmallestImagePixelValue": 0,
      "SoftwareVersions": "syngo MR E11",
      "SpacingBetweenSlices": 1.999999955796,
      "SpecificCharacterSet": "ISO_IR 100",
      "StudyID": "1",
      "StudyTime": "115232.932000",
      "TransmitCoilName": "Body",
      "VariableFlipAngleFlag": "N",
      "WindowCenterWidthExplanation": "Algo1",
      "dBdt": 0.0},
    "slices": {}
  },
  "time": {
    "samples": {
      "AcquisitionNumber": [1, 2, 3, 4, 5, 6, 7, 8, 9, 10, 11, 12, 13, 14, 15, 16, 17, 18, 19, 20, 21, 22, 23, 24, 25, 26, 27, 28, 29, 30, 31, 32, 33, 34, 35, 36, 37, 38, 39, 40, 41, 42, 43, 44, 45, 46, 47, 48, 49, 50, 51, 52, 53, 54, 55, 56, 57, 58, 59, 60, 61, 62, 63, 64, 65, 66, 67, 68, 69, 70, 71, 72, 73, 74, 75, 76, 77, 78, 79, 80, 81, 82, 83, 84, 85, 86, 87, 88, 89, 90, 91, 92, 93, 94, 95, 96, 97, 98, 99, 100, 101, 102, 103, 104, 105, 106, 107, 108, 109, 110, 111, 112, 113, 114, 115, 116, 117, 118, 119, 120, 121, 122, 123, 124, 125, 126, 127, 128, 129, 130, 131, 132, 133, 134, 135, 136, 137, 138, 139, 140, 141, 142, 143, 144, 145, 146, 147, 148, 149, 150, 151, 152, 153, 154, 155, 156, 157, 158, 159, 160, 161, 162, 163, 164, 165, 166, 167, 168, 169, 170, 171, 172, 173, 174, 175, 176, 177, 178, 179, 180, 181, 182, 183, 184, 185, 186, 187, 188, 189, 190],
      "AcquisitionTime": ["132506.707500", "132508.197500", "132509.687500", "132511.177500", "132512.667500", "132514.157500", "132515.647500", "132517.137500", "132518.627500", "132520.117500", "132521.607500", "132523.097500", "132524.587500", "132526.077500", "132527.567500", "132529.057500", "132530.547500", "132532.037500", "132533.527500", "132535.017500", "132536.507500", "132537.997500", "132539.487500", "132540.977500", "132542.467500", "132543.957500", "132545.447500", "132546.937500", "132548.427500", "132549.917500", "132551.407500", "132552.897500", "132554.387500", "132555.877500", "132557.367500", "132558.857500", "132600.347500", "132601.837500", "132603.327500", "132604.817500", "132606.307500", "132607.797500", "132609.287500", "132610.777500", "132612.267500", "132613.757500", "132615.247500", "132616.737500", "132618.227500", "132619.717500", "132621.207500", "132622.697500", "132624.187500", "132625.677500", "132627.167500", "132628.657500", "132630.147500", "132631.637500", "132633.127500", "132634.617500", "132636.107500", "132637.597500", "132639.087500", "132640.577500", "132642.067500", "132643.557500", "132645.047500", "132646.537500", "132648.027500", "132649.517500", "132651.007500", "132652.497500", "132653.987500", "132655.477500", "132656.967500", "132658.457500", "132659.947500", "132701.437500", "132702.927500", "132704.417500", "132705.907500", "132707.397500", "132708.887500", "132710.377500", "132711.867500", "132713.357500", "132714.847500", "132716.337500", "132717.827500", "132719.317500", "132720.807500", "132722.297500", "132723.787500", "132725.277500", "132726.767500", "132728.257500", "132729.747500", "132731.237500", "132732.727500", "132734.217500", "132735.707500", "132737.197500", "132738.687500", "132740.177500", "132741.667500", "132743.157500", "132744.647500", "132746.137500", "132747.627500", "132749.117500", "132750.607500", "132752.097500", "132753.587500", "132755.077500", "132756.567500", "132758.057500", "132759.547500", "132801.037500", "132802.527500", "132804.017500", "132805.507500", "132806.997500", "132808.487500", "132809.977500", "132811.467500", "132812.957500", "132814.447500", "132815.937500", "132817.427500", "132818.917500", "132820.407500", "132821.897500", "132823.387500", "132824.877500", "132826.367500", "132827.857500", "132829.347500", "132830.837500", "132832.327500", "132833.817500", "132835.307500", "132836.797500", "132838.287500", "132839.777500", "132841.267500", "132842.757500", "132844.247500", "132845.737500", "132847.227500", "132848.717500", "132850.207500", "132851.697500", "132853.187500", "132854.677500", "132856.167500", "132857.657500", "132859.147500", "132900.637500", "132902.127500", "132903.617500", "132905.107500", "132906.597500", "132908.087500", "132909.577500", "132911.067500", "132912.557500", "132914.047500", "132915.537500", "132917.027500", "132918.517500", "132920.007500", "132921.497500", "132922.987500", "132924.477500", "132925.967500", "132927.457500", "132928.947500", "132930.437500", "132931.927500", "132933.417500", "132934.907500", "132936.397500", "132937.887500", "132939.377500", "132940.867500", "132942.357500", "132943.847500", "132945.337500", "132946.827500", "132948.317500"],
      "ContentTime": ["132615.555000", "132615.559000", "132615.562000", "132615.566000", "132615.569000", "132615.572000", "132615.576000", "132615.579000", "132615.582000", "132615.586000", "132615.589000", "132615.593000", "132615.596000", "132615.599000", "132615.603000", "132635.520000", "132635.530000", "132635.533000", "132635.537000", "132635.540000", "132635.543000", "132635.547000", "132635.550000", "132635.553000", "132635.556000", "132635.560000", "132635.563000", "132635.567000", "132635.570000", "132635.573000", "132635.577000", "132635.580000", "132635.583000", "132635.587000", "132635.591000", "132655.519000", "132655.523000", "132655.526000", "132655.529000", "132655.533000", "132655.536000", "132655.539000", "132655.542000", "132655.546000", "132655.549000", "132655.560000", "132655.563000", "132655.567000", "132655.570000", "132655.573000", "132655.576000", "132655.580000", "132655.583000", "132655.586000", "132655.590000", "132715.520000", "132715.524000", "132715.527000", "132715.530000", "132715.534000", "132715.537000", "132715.540000", "132715.544000", "132715.547000", "132715.550000", "132715.554000", "132715.557000", "132715.560000", "132715.564000", "132715.567000", "132715.570000", "132715.574000", "132715.577000", "132715.580000", "132715.584000", "132715.587000", "132735.520000", "132735.524000", "132735.527000", "132735.530000", "132735.534000", "132735.537000", "132735.540000", "132735.544000", "132735.562000", "132735.566000", "132735.569000", "132735.572000", "132735.576000", "132735.579000", "132735.582000", "132735.586000", "132735.589000", "132735.592000", "132735.596000", "132735.599000", "132815.520000", "132815.524000", "132815.527000", "132815.531000", "132815.534000", "132815.537000", "132815.541000", "132815.544000", "132815.548000", "132815.551000", "132815.554000", "132815.558000", "132815.562000", "132815.565000", "132815.569000", "132815.572000", "132815.575000", "132815.579000", "132815.582000", "132815.585000", "132815.589000", "132815.599000", "132815.603000", "132815.606000", "132815.609000", "132815.613000", "132815.616000", "132815.619000", "132815.623000", "132855.520000", "132855.524000", "132855.527000", "132855.530000", "132855.534000", "132855.537000", "132855.541000", "132855.544000", "132855.547000", "132855.551000", "132855.554000", "132855.557000", "132855.561000", "132855.564000", "132855.567000", "132855.571000", "132855.574000", "132855.577000", "132855.581000", "132855.584000", "132855.587000", "132855.591000", "132855.594000", "132855.605000", "132855.608000", "132855.612000", "132855.615000", "132935.520000", "132935.524000", "132935.527000", "132935.531000", "132935.534000", "132935.545000", "132935.548000", "132935.551000", "132935.555000", "132935.558000", "132935.562000", "132935.565000", "132935.568000", "132935.572000", "132935.575000", "132935.578000", "132935.582000", "132935.585000", "132935.588000", "132935.592000", "132935.595000", "132935.598000", "132935.602000", "132935.605000", "132935.608000", "132935.612000", "132935.615000", "132950.968000", "132950.971000", "132950.982000", "132950.985000", "132950.989000", "132950.992000", "132950.996000", "132951.000000", "132951.004000", "132951.007000", "132951.011000"],
      "InstanceCreationTime": ["132615.555000", "132615.559000", "132615.562000", "132615.566000", "132615.569000", "132615.572000", "132615.576000", "132615.579000", "132615.582000", "132615.586000", "132615.589000", "132615.593000", "132615.596000", "132615.599000", "132615.603000", "132635.520000", "132635.530000", "132635.533000", "132635.537000", "132635.540000", "132635.543000", "132635.547000", "132635.550000", "132635.553000", "132635.556000", "132635.560000", "132635.563000", "132635.567000", "132635.570000", "132635.573000", "132635.577000", "132635.580000", "132635.583000", "132635.587000", "132635.591000", "132655.519000", "132655.523000", "132655.526000", "132655.529000", "132655.533000", "132655.536000", "132655.539000", "132655.542000", "132655.546000", "132655.549000", "132655.560000", "132655.563000", "132655.567000", "132655.570000", "132655.573000", "132655.576000", "132655.580000", "132655.583000", "132655.586000", "132655.590000", "132715.520000", "132715.524000", "132715.527000", "132715.530000", "132715.534000", "132715.537000", "132715.540000", "132715.544000", "132715.547000", "132715.550000", "132715.554000", "132715.557000", "132715.560000", "132715.564000", "132715.567000", "132715.570000", "132715.574000", "132715.577000", "132715.580000", "132715.584000", "132715.587000", "132735.520000", "132735.524000", "132735.527000", "132735.530000", "132735.534000", "132735.537000", "132735.540000", "132735.544000", "132735.562000", "132735.566000", "132735.569000", "132735.572000", "132735.576000", "132735.579000", "132735.582000", "132735.586000", "132735.589000", "132735.592000", "132735.596000", "132735.599000", "132815.520000", "132815.524000", "132815.527000", "132815.531000", "132815.534000", "132815.537000", "132815.541000", "132815.544000", "132815.548000", "132815.551000", "132815.554000", "132815.558000", "132815.562000", "132815.565000", "132815.569000", "132815.572000", "132815.575000", "132815.579000", "132815.582000", "132815.585000", "132815.589000", "132815.599000", "132815.603000", "132815.606000", "132815.609000", "132815.613000", "132815.616000", "132815.619000", "132815.623000", "132855.520000", "132855.524000", "132855.527000", "132855.530000", "132855.534000", "132855.537000", "132855.541000", "132855.544000", "132855.547000", "132855.551000", "132855.554000", "132855.557000", "132855.561000", "132855.564000", "132855.567000", "132855.571000", "132855.574000", "132855.577000", "132855.581000", "132855.584000", "132855.587000", "132855.591000", "132855.594000", "132855.605000", "132855.608000", "132855.612000", "132855.615000", "132935.520000", "132935.524000", "132935.527000", "132935.531000", "132935.534000", "132935.545000", "132935.548000", "132935.551000", "132935.555000", "132935.558000", "132935.562000", "132935.565000", "132935.568000", "132935.572000", "132935.575000", "132935.578000", "132935.582000", "132935.585000", "132935.588000", "132935.592000", "132935.595000", "132935.598000", "132935.602000", "132935.605000", "132935.608000", "132935.612000", "132935.615000", "132950.968000", "132950.971000", "132950.982000", "132950.985000", "132950.989000", "132950.992000", "132950.996000", "132951.000000", "132951.004000", "132951.007000", "132951.011000"],
      "InstanceNumber": [1, 2, 3, 4, 5, 6, 7, 8, 9, 10, 11, 12, 13, 14, 15, 16, 17, 18, 19, 20, 21, 22, 23, 24, 25, 26, 27, 28, 29, 30, 31, 32, 33, 34, 35, 36, 37, 38, 39, 40, 41, 42, 43, 44, 45, 46, 47, 48, 49, 50, 51, 52, 53, 54, 55, 56, 57, 58, 59, 60, 61, 62, 63, 64, 65, 66, 67, 68, 69, 70, 71, 72, 73, 74, 75, 76, 77, 78, 79, 80, 81, 82, 83, 84, 85, 86, 87, 88, 89, 90, 91, 92, 93, 94, 95, 96, 97, 98, 99, 100, 101, 102, 103, 104, 105, 106, 107, 108, 109, 110, 111, 112, 113, 114, 115, 116, 117, 118, 119, 120, 121, 122, 123, 124, 125, 126, 127, 128, 129, 130, 131, 132, 133, 134, 135, 136, 137, 138, 139, 140, 141, 142, 143, 144, 145, 146, 147, 148, 149, 150, 151, 152, 153, 154, 155, 156, 157, 158, 159, 160, 161, 162, 163, 164, 165, 166, 167, 168, 169, 170, 171, 172, 173, 174, 175, 176, 177, 178, 179, 180, 181, 182, 183, 184, 185, 186, 187, 188, 189, 190],
      "LargestImagePixelValue": [41604, 40785, 39872, 39517, 39557, 38825, 38894, 39323, 38848, 39394, 39039, 38864, 39307, 39208, 39113, 39004, 38841, 39156, 39250, 39092, 38926, 38746, 39674, 38945, 39385, 39036, 39127, 38852, 39131, 39006, 39010, 39109, 39082, 38818, 39507, 39239, 39302, 38872, 38641, 39426, 38716, 38665, 38911, 38860, 38946, 38885, 38891, 38879, 38750, 38887, 39126, 39082, 38740, 39119, 39058, 39284, 39288, 39223, 39010, 39244, 39365, 39349, 38625, 39351, 39043, 38747, 38852, 38792, 39085, 39549, 39348, 38776, 39050, 38837, 39135, 39054, 38895, 38665, 39040, 39067, 39002, 38936, 38797, 39093, 38792, 39118, 39211, 39146, 38975, 39118, 39159, 38744, 38853, 39026, 38797, 38657, 38863, 39215, 39054, 38607, 38873, 38787, 38778, 38445, 38658, 38566, 38961, 38684, 38739, 38785, 38945, 38530, 38379, 38666, 38839, 38529, 38515, 38781, 38430, 38549, 38848, 38541, 38710, 38822, 38238, 38792, 38639, 38318, 38656, 38672, 38590, 38534, 38702, 38669, 38618, 38037, 38236, 38822, 38451, 38588, 38638, 38835, 38836, 38428, 38740, 38780, 38348, 38263, 38144, 38187, 38500, 38208, 38365, 38202, 38440, 38543, 38437, 38346, 38299, 37983, 38688, 38261, 38741, 38201, 38029, 38306, 37845, 38168, 37917, 38966, 38603, 38061, 38231, 38540, 38323, 38366, 38602, 38601, 38624, 38349, 38213, 38028, 38471, 37996, 38107, 38169, 38651, 38464, 38247, 38412],
      "WindowCenter": [10210.0, 10165.0, 10153.0, 10147.0, 10157.0, 10153.0, 10148.0, 10152.0, 10146.0, 10152.0, 10161.0, 10171.0, 10180.0, 10173.0, 10165.0, 10161.0, 10163.0, 10170.0, 10171.0, 10171.0, 10171.0, 10166.0, 10169.0, 10162.0, 10161.0, 10169.0, 10164.0, 10165.0, 10163.0, 10162.0, 10146.0, 10144.0, 10138.0, 10138.0, 10138.0, 10136.0, 10133.0, 10138.0, 10140.0, 10137.0, 10119.0, 10114.0, 10117.0, 10119.0, 10128.0, 10143.0, 10145.0, 10145.0, 10132.0, 10127.0, 10117.0, 10111.0, 10118.0, 10119.0, 10112.0, 10108.0, 10108.0, 10106.0, 10109.0, 10131.0, 10136.0, 10128.0, 10119.0, 10117.0, 10127.0, 10144.0, 10155.0, 10156.0, 10154.0, 10150.0, 10150.0, 10155.0, 10162.0, 10155.0, 10146.0, 10144.0, 10144.0, 10131.0, 10129.0, 10135.0, 10139.0, 10147.0, 10140.0, 10130.0, 10114.0, 10120.0, 10119.0, 10116.0, 10109.0, 10111.0, 10118.0, 10122.0, 10129.0, 10138.0, 10140.0, 10139.0, 10130.0, 10134.0, 10143.0, 10154.0, 10163.0, 10158.0, 10148.0, 10139.0, 10138.0, 10145.0, 10154.0, 10155.0, 10134.0, 10122.0, 10112.0, 10112.0, 10122.0, 10138.0, 10140.0, 10142.0, 10147.0, 10141.0, 10140.0, 10141.0, 10137.0, 10138.0, 10139.0, 10130.0, 10110.0, 10113.0, 10125.0, 10131.0, 10164.0, 10173.0, 10149.0, 10115.0, 10102.0, 10109.0, 10105.0, 10089.0, 10072.0, 10068.0, 10069.0, 10086.0, 10109.0, 10111.0, 10120.0, 10130.0, 10138.0, 10143.0, 10154.0, 10156.0, 10159.0, 10167.0, 10160.0, 10151.0, 10141.0, 10139.0, 10155.0, 10167.0, 10160.0, 10151.0, 10133.0, 10124.0, 10137.0, 10141.0, 10147.0, 10143.0, 10141.0, 10138.0, 10125.0, 10117.0, 10108.0, 10127.0, 10143.0, 10141.0, 10142.0, 10141.0, 10118.0, 10101.0, 10098.0, 10120.0, 10130.0, 10126.0, 10118.0, 10115.0, 10114.0, 10115.0, 10114.0, 10123.0, 10147.0, 10159.0, 10133.0, 10114.0],
      "WindowWidth": [21752.0, 21628.0, 21588.0, 21571.0, 21586.0, 21577.0, 21567.0, 21571.0, 21561.0, 21572.0, 21595.0, 21620.0, 21638.0, 21622.0, 21604.0, 21592.0, 21598.0, 21615.0, 21617.0, 21617.0, 21617.0, 21606.0, 21607.0, 21595.0, 21591.0, 21608.0, 21602.0, 21604.0, 21596.0, 21594.0, 21557.0, 21551.0, 21540.0, 21541.0, 21538.0, 21533.0, 21523.0, 21540.0, 21546.0, 21535.0, 21494.0, 21485.0, 21491.0, 21495.0, 21515.0, 21549.0, 21553.0, 21553.0, 21528.0, 21511.0, 21489.0, 21476.0, 21495.0, 21496.0, 21478.0, 21467.0, 21467.0, 21461.0, 21471.0, 21522.0, 21537.0, 21518.0, 21496.0, 21488.0, 21511.0, 21553.0, 21578.0, 21582.0, 21575.0, 21563.0, 21564.0, 21578.0, 21593.0, 21579.0, 21558.0, 21553.0, 21550.0, 21524.0, 21519.0, 21532.0, 21546.0, 21561.0, 21546.0, 21521.0, 21486.0, 21497.0, 21495.0, 21484.0, 21469.0, 21478.0, 21491.0, 21503.0, 21518.0, 21537.0, 21546.0, 21542.0, 21518.0, 21526.0, 21548.0, 21576.0, 21596.0, 21586.0, 21559.0, 21542.0, 21539.0, 21555.0, 21574.0, 21577.0, 21530.0, 21501.0, 21476.0, 21481.0, 21504.0, 21539.0, 21546.0, 21552.0, 21561.0, 21548.0, 21545.0, 21546.0, 21537.0, 21539.0, 21542.0, 21518.0, 21478.0, 21482.0, 21506.0, 21526.0, 21599.0, 21619.0, 21562.0, 21482.0, 21452.0, 21468.0, 21465.0, 21427.0, 21390.0, 21377.0, 21381.0, 21420.0, 21472.0, 21478.0, 21496.0, 21521.0, 21539.0, 21553.0, 21574.0, 21580.0, 21589.0, 21606.0, 21591.0, 21570.0, 21547.0, 21544.0, 21580.0, 21608.0, 21594.0, 21569.0, 21526.0, 21507.0, 21533.0, 21546.0, 21559.0, 21553.0, 21546.0, 21537.0, 21509.0, 21492.0, 21473.0, 21514.0, 21549.0, 21549.0, 21550.0, 21545.0, 21492.0, 21454.0, 21447.0, 21495.0, 21518.0, 21512.0, 21494.0, 21487.0, 21483.0, 21488.0, 21485.0, 21504.0, 21559.0, 21586.0, 21526.0, 21478.0]
    },
    "slices": {}
  }
}