{
  "AcquisitionMatrixPE": 104,
  "AcquisitionNumber": 1,
  "AcquisitionTime": "10:45:12.205000",
  "BandwidthPerPixelPhaseEncode": 17.17,
  "BaseResolution": 104,
  "BodyPartExamined": "BRAIN",
  "CoilString": "HC1-7;NC1_2",
  "ConsistencyInfo": "N4_VE11C_LATEST_20160120",
  "ConversionSoftware": "dcm2niix",
  "ConversionSoftwareVersion": "v1.0.20190902",
  "DerivedVendorReportedEchoSpacing": 0.000560011,
  "DeviceSerialNumber": "167006",
  "DwellTime": 2.1e-06,
  "EchoTime": 0.037,
  "EchoTrainLength": 104,
  "EffectiveEchoSpacing": 0.000560011,
  "FlipAngle": 52,
  "HeudiconvVersion": "0.10.0",
  "ImageComments": "Unaliased_MB4_PE3_LB",
  "ImageOrientationPatientDICOM": [0.999768, 0.00557359, 0.0208105, 0.00523482, 0.87416, -0.48561],
  "ImageType": [
    "ORIGINAL",
    "PRIMARY",
    "P",
    "MB",
    "ND",
    "MOSAIC"
],
  "ImagingFrequency": 123.259,
  "InPlanePhaseEncodingDirectionDICOM": "COL",
  "InstitutionAddress": "Chemin_Queen-Mary_4565_Montreal_District_CA_H3W_1W5",
  "InstitutionName": "IUGM",
  "InstitutionalDepartmentName": "Department",
  "MRAcquisitionType": "2D",
  "MagneticFieldStrength": 3,
  "Manufacturer": "Siemens",
  "ManufacturersModelName": "Prisma_fit",
  "Modality": "MR",
  "MultibandAccelerationFactor": 4,
  "PartialFourier": 1,
  "PatientPosition": "HFS",
  "PercentPhaseFOV": 100,
  "PhaseEncodingDirection": "j",
  "PhaseEncodingSteps": 104,
  "PhaseResolution": 1,
  "PixelBandwidth": 2290,
  "ProcedureStepDescription": "memory_things",
  "ProtocolName": "func_task-things_run-1",
  "PulseSequenceDetails": "%CustomerSeq%_cmrr_mbep2d_bold",
  "ReceiveCoilActiveElements": "HC1-7;NC1,2",
  "ReceiveCoilName": "HeadNeck_64",
  "ReconMatrixPE": 104,
  "RepetitionTime": 1.49,
  "SAR": 0.0373733,
  "ScanOptions": "FS",
  "ScanningSequence": "EP",
  "SequenceName": "epfid2d1_104",
  "SequenceVariant": "SK_SS",
  "SeriesDescription": "func_task-things_run-1",
  "SeriesNumber": 11,
  "ShimSetting": [621, -7197, -8861, 287, 19, -142, -1, -16],
  "SliceThickness": 2,
  "SliceTiming": [0, 0.785, 0.0975, 0.8825, 0.1975, 0.98, 0.295, 1.0775, 0.3925, 1.1775, 0.49, 1.275, 0.5875, 1.3725, 0.6875, 0, 0.785, 0.0975, 0.8825, 0.1975, 0.98, 0.295, 1.0775, 0.3925, 1.1775, 0.49, 1.275, 0.5875, 1.3725, 0.6875, 0, 0.785, 0.0975, 0.8825, 0.1975, 0.98, 0.295, 1.0775, 0.3925, 1.1775, 0.49, 1.275, 0.5875, 1.3725, 0.6875, 0, 0.785, 0.0975, 0.8825, 0.1975, 0.98, 0.295, 1.0775, 0.3925, 1.1775, 0.49, 1.275, 0.5875, 1.3725, 0.6875],
  "SoftwareVersions": "syngo_MR_E11",
  "SpacingBetweenSlices": 2,
  "StationName": "MRC35049",
  "TaskName": "things",
  "TotalReadoutTime": 0.0576811,
  "TxRefAmp": 245.081,
  "WipMemBlock": "fd39babd-d5cf-4288-9ff9-e56377cedf64||Sequence: R016 ve11c/master r/e634e98; Dec 19 2017 11:00:25 by eja",
  "dcmmeta_affine": [
    [-1.9995357990264893, 0.010469632223248482, 0.041796643286943436, 105.138916015625],
    [-0.011147186160087585, 1.7483192682266235, -0.9712134003639221, -52.986488342285156],
    [0.04162106290459633, 0.9712209105491638, 1.7478550672531128, -91.65254974365234],
    [0.0, 0.0, 0.0, 1.0]
],
  "dcmmeta_reorient_transform": [
    [0.0, -1.0, 0.0, 103.0],
    [1.0, 0.0, 0.0, 0.0],
    [0.0, 0.0, 1.0, 0.0],
    [0.0, 0.0, 0.0, 1.0]
],
  "dcmmeta_shape": [104, 104, 60, 190],
  "dcmmeta_slice_dim": 2,
  "dcmmeta_version": 0.6,
  "global": {
    "const": {
      "AcquisitionMatrix": [104, 0, 0, 104],
      "AngioFlag": "N",
      "BitsAllocated": 16,
      "BitsStored": 16,
      "BodyPartExamined": "BRAIN",
      "Columns": 832,
      "EchoNumbers": 1,
      "EchoTime": 37.0,
      "EchoTrainLength": 104,
      "FlipAngle": 52.0,
      "HighBit": 15,
      "ImageOrientationPatient": [0.99976790149946, 0.00557359327584, 0.02081053073243, 0.00523481632798, 0.87415963559204, -0.4856104696149],
      "ImagePositionPatient": [-837.8592672196, -767.53618713463, 346.75755931257],
      "ImageType": [
        "ORIGINAL",
        "PRIMARY",
        "P",
        "MB",
        "ND",
        "MOSAIC"
],
      "ImagedNucleus": "1H",
      "ImagingFrequency": 123.259073,
      "InPlanePhaseEncodingDirection": "COL",
      "LargestImagePixelValue": 4095,
      "MRAcquisitionType": "2D",
      "MagneticFieldStrength": 3.0,
      "Manufacturer": "SIEMENS",
      "ManufacturerModelName": "Prisma_fit",
      "Modality": "MR",
      "NumberOfAverages": 1.0,
      "NumberOfPhaseEncodingSteps": 104,
      "PercentPhaseFieldOfView": 100.0,
      "PercentSampling": 100.0,
      "PerformedProcedureStepStartTime": "101148.406000",
      "PhotometricInterpretation": "MONOCHROME2",
      "PixelBandwidth": 2290.0,
      "PixelRepresentation": 0,
      "PixelSpacing": [2.0, 2.0],
      "ProtocolName": "func_task-things_run-1",
      "RepetitionTime": 1490.0,
      "RescaleIntercept": -4096.0,
      "RescaleSlope": 2.0,
      "RescaleType": "US",
      "Rows": 832,
      "SAR": 0.0373732527659,
      "SamplesPerPixel": 1,
      "ScanOptions": "FS",
      "ScanningSequence": "EP",
      "SequenceName": "epfid2d1_104",
      "SequenceVariant": [
        "SK",
        "SS"
],
      "SeriesDescription": "func_task-things_run-1",
      "SeriesNumber": 11,
      "SeriesTime": "104632.219000",
      "SliceLocation": -52.169872058464,
      "SliceThickness": 2.0,
      "SmallestImagePixelValue": 0,
      "SoftwareVersions": "syngo MR E11",
      "SpacingBetweenSlices": 1.9999999854257,
      "SpecificCharacterSet": "ISO_IR 100",
      "StudyID": "1",
      "StudyTime": "101148.328000",
      "TransmitCoilName": "Body",
      "VariableFlipAngleFlag": "N",
      "WindowCenterWidthExplanation": "Algo1",
      "dBdt": 0.0},
    "slices": {}
  },
  "time": {
    "samples": {
      "AcquisitionNumber": [1, 2, 3, 4, 5, 6, 7, 8, 9, 10, 11, 12, 13, 14, 15, 16, 17, 18, 19, 20, 21, 22, 23, 24, 25, 26, 27, 28, 29, 30, 31, 32, 33, 34, 35, 36, 37, 38, 39, 40, 41, 42, 43, 44, 45, 46, 47, 48, 49, 50, 51, 52, 53, 54, 55, 56, 57, 58, 59, 60, 61, 62, 63, 64, 65, 66, 67, 68, 69, 70, 71, 72, 73, 74, 75, 76, 77, 78, 79, 80, 81, 82, 83, 84, 85, 86, 87, 88, 89, 90, 91, 92, 93, 94, 95, 96, 97, 98, 99, 100, 101, 102, 103, 104, 105, 106, 107, 108, 109, 110, 111, 112, 113, 114, 115, 116, 117, 118, 119, 120, 121, 122, 123, 124, 125, 126, 127, 128, 129, 130, 131, 132, 133, 134, 135, 136, 137, 138, 139, 140, 141, 142, 143, 144, 145, 146, 147, 148, 149, 150, 151, 152, 153, 154, 155, 156, 157, 158, 159, 160, 161, 162, 163, 164, 165, 166, 167, 168, 169, 170, 171, 172, 173, 174, 175, 176, 177, 178, 179, 180, 181, 182, 183, 184, 185, 186, 187, 188, 189, 190],
      "AcquisitionTime": ["104512.205000", "104513.695000", "104515.185000", "104516.675000", "104518.165000", "104519.655000", "104521.145000", "104522.635000", "104524.125000", "104525.615000", "104527.105000", "104528.595000", "104530.085000", "104531.575000", "104533.065000", "104534.555000", "104536.045000", "104537.535000", "104539.025000", "104540.515000", "104542.005000", "104543.495000", "104544.985000", "104546.475000", "104547.965000", "104549.455000", "104550.945000", "104552.435000", "104553.925000", "104555.415000", "104556.905000", "104558.395000", "104559.885000", "104601.375000", "104602.865000", "104604.355000", "104605.845000", "104607.335000", "104608.825000", "104610.315000", "104611.805000", "104613.295000", "104614.785000", "104616.275000", "104617.765000", "104619.255000", "104620.745000", "104622.235000", "104623.725000", "104625.215000", "104626.705000", "104628.195000", "104629.685000", "104631.175000", "104632.665000", "104634.155000", "104635.645000", "104637.135000", "104638.625000", "104640.115000", "104641.605000", "104643.095000", "104644.585000", "104646.075000", "104647.565000", "104649.055000", "104650.545000", "104652.035000", "104653.525000", "104655.015000", "104656.505000", "104657.995000", "104659.485000", "104700.975000", "104702.465000", "104703.955000", "104705.445000", "104706.935000", "104708.425000", "104709.915000", "104711.405000", "104712.895000", "104714.385000", "104715.875000", "104717.365000", "104718.855000", "104720.345000", "104721.835000", "104723.325000", "104724.815000", "104726.305000", "104727.795000", "104729.285000", "104730.775000", "104732.265000", "104733.755000", "104735.245000", "104736.735000", "104738.225000", "104739.715000", "104741.205000", "104742.695000", "104744.185000", "104745.675000", "104747.165000", "104748.655000", "104750.145000", "104751.635000", "104753.125000", "104754.615000", "104756.105000", "104757.595000", "104759.085000", "104800.575000", "104802.065000", "104803.555000", "104805.045000", "104806.535000", "104808.025000", "104809.515000", "104811.005000", "104812.495000", "104813.985000", "104815.475000", "104816.965000", "104818.455000", "104819.945000", "104821.435000", "104822.925000", "104824.415000", "104825.905000", "104827.395000", "104828.885000", "104830.375000", "104831.865000", "104833.355000", "104834.845000", "104836.335000", "104837.825000", "104839.315000", "104840.805000", "104842.295000", "104843.785000", "104845.275000", "104846.765000", "104848.255000", "104849.745000", "104851.235000", "104852.725000", "104854.215000", "104855.705000", "104857.195000", "104858.685000", "104900.175000", "104901.665000", "104903.155000", "104904.645000", "104906.135000", "104907.625000", "104909.115000", "104910.605000", "104912.095000", "104913.585000", "104915.075000", "104916.565000", "104918.055000", "104919.545000", "104921.035000", "104922.525000", "104924.015000", "104925.505000", "104926.995000", "104928.485000", "104929.975000", "104931.465000", "104932.955000", "104934.445000", "104935.935000", "104937.425000", "104938.915000", "104940.405000", "104941.895000", "104943.385000", "104944.875000", "104946.365000", "104947.855000", "104949.345000", "104950.835000", "104952.325000", "104953.815000"],
      "ContentTime": ["104632.221000", "104632.223000", "104632.226000", "104632.228000", "104632.231000", "104632.233000", "104632.236000", "104632.238000", "104632.241000", "104632.243000", "104632.246000", "104632.248000", "104632.251000", "104632.253000", "104632.255000", "104632.258000", "104632.261000", "104632.263000", "104632.266000", "104632.268000", "104632.271000", "104632.273000", "104632.276000", "104632.278000", "104632.281000", "104632.283000", "104652.172000", "104652.175000", "104652.177000", "104652.180000", "104652.182000", "104652.185000", "104652.187000", "104652.190000", "104652.192000", "104652.195000", "104652.197000", "104652.200000", "104652.202000", "104652.205000", "104652.207000", "104652.210000", "104652.212000", "104652.215000", "104652.217000", "104652.220000", "104712.177000", "104712.179000", "104712.182000", "104712.184000", "104712.187000", "104712.189000", "104712.192000", "104712.194000", "104712.197000", "104712.199000", "104712.202000", "104712.204000", "104712.206000", "104712.209000", "104712.211000", "104712.214000", "104712.216000", "104712.219000", "104712.221000", "104712.224000", "104732.176000", "104732.179000", "104732.181000", "104732.184000", "104732.186000", "104732.189000", "104732.191000", "104732.194000", "104732.197000", "104732.199000", "104732.202000", "104732.204000", "104732.207000", "104732.209000", "104732.212000", "104732.214000", "104732.217000", "104732.219000", "104732.222000", "104732.224000", "104732.227000", "104812.225000", "104812.227000", "104812.230000", "104812.232000", "104812.235000", "104812.237000", "104812.240000", "104812.242000", "104812.245000", "104812.247000", "104812.250000", "104812.252000", "104812.255000", "104812.257000", "104812.260000", "104812.262000", "104812.265000", "104812.267000", "104812.270000", "104812.272000", "104812.275000", "104812.277000", "104812.280000", "104812.282000", "104812.285000", "104812.287000", "104812.289000", "104812.292000", "104812.294000", "104812.297000", "104812.299000", "104812.302000", "104812.304000", "104852.209000", "104852.212000", "104852.214000", "104852.217000", "104852.219000", "104852.222000", "104852.224000", "104852.227000", "104852.229000", "104852.232000", "104852.234000", "104852.237000", "104852.239000", "104852.242000", "104852.244000", "104852.247000", "104852.249000", "104852.252000", "104852.254000", "104852.257000", "104852.259000", "104852.262000", "104852.264000", "104852.267000", "104852.269000", "104852.272000", "104852.274000", "104932.205000", "104932.208000", "104932.210000", "104932.213000", "104932.215000", "104932.218000", "104932.220000", "104932.223000", "104932.225000", "104932.228000", "104932.230000", "104932.233000", "104932.235000", "104932.238000", "104932.240000", "104932.243000", "104932.245000", "104932.248000", "104932.250000", "104932.255000", "104932.258000", "104932.260000", "104932.263000", "104932.265000", "104932.268000", "104932.270000", "104932.273000", "104955.972000", "104955.975000", "104955.977000", "104955.980000", "104955.982000", "104955.985000", "104955.988000", "104955.990000", "104955.993000", "104955.995000", "104955.998000", "104956.002000", "104956.004000", "104956.008000", "104956.010000", "104956.013000"],
      "InstanceCreationTime": ["104632.221000", "104632.223000", "104632.226000", "104632.228000", "104632.231000", "104632.233000", "104632.236000", "104632.238000", "104632.241000", "104632.243000", "104632.246000", "104632.248000", "104632.251000", "104632.253000", "104632.255000", "104632.258000", "104632.261000", "104632.263000", "104632.266000", "104632.268000", "104632.271000", "104632.273000", "104632.276000", "104632.278000", "104632.281000", "104632.283000", "104652.172000", "104652.175000", "104652.177000", "104652.180000", "104652.182000", "104652.185000", "104652.187000", "104652.190000", "104652.192000", "104652.195000", "104652.197000", "104652.200000", "104652.202000", "104652.205000", "104652.207000", "104652.210000", "104652.212000", "104652.215000", "104652.217000", "104652.220000", "104712.177000", "104712.179000", "104712.182000", "104712.184000", "104712.187000", "104712.189000", "104712.192000", "104712.194000", "104712.197000", "104712.199000", "104712.202000", "104712.204000", "104712.206000", "104712.209000", "104712.211000", "104712.214000", "104712.216000", "104712.219000", "104712.221000", "104712.224000", "104732.176000", "104732.179000", "104732.181000", "104732.184000", "104732.186000", "104732.189000", "104732.191000", "104732.194000", "104732.197000", "104732.199000", "104732.202000", "104732.204000", "104732.207000", "104732.209000", "104732.212000", "104732.214000", "104732.217000", "104732.219000", "104732.222000", "104732.224000", "104732.227000", "104812.225000", "104812.227000", "104812.230000", "104812.232000", "104812.235000", "104812.237000", "104812.240000", "104812.242000", "104812.245000", "104812.247000", "104812.250000", "104812.252000", "104812.255000", "104812.257000", "104812.260000", "104812.262000", "104812.265000", "104812.267000", "104812.270000", "104812.272000", "104812.275000", "104812.277000", "104812.280000", "104812.282000", "104812.285000", "104812.287000", "104812.289000", "104812.292000", "104812.294000", "104812.297000", "104812.299000", "104812.302000", "104812.304000", "104852.209000", "104852.212000", "104852.214000", "104852.217000", "104852.219000", "104852.222000", "104852.224000", "104852.227000", "104852.229000", "104852.232000", "104852.234000", "104852.237000", "104852.239000", "104852.242000", "104852.244000", "104852.247000", "104852.249000", "104852.252000", "104852.254000", "104852.257000", "104852.259000", "104852.262000", "104852.264000", "104852.267000", "104852.269000", "104852.272000", "104852.274000", "104932.205000", "104932.208000", "104932.210000", "104932.213000", "104932.215000", "104932.218000", "104932.220000", "104932.223000", "104932.225000", "104932.228000", "104932.230000", "104932.233000", "104932.235000", "104932.238000", "104932.240000", "104932.243000", "104932.245000", "104932.248000", "104932.250000", "104932.255000", "104932.258000", "104932.260000", "104932.263000", "104932.265000", "104932.268000", "104932.270000", "104932.273000", "104955.972000", "104955.975000", "104955.977000", "104955.980000", "104955.982000", "104955.985000", "104955.988000", "104955.990000", "104955.993000", "104955.995000", "104955.998000", "104956.002000", "104956.004000", "104956.008000", "104956.010000", "104956.013000"],
      "InstanceNumber": [1, 2, 3, 4, 5, 6, 7, 8, 9, 10, 11, 12, 13, 14, 15, 16, 17, 18, 19, 20, 21, 22, 23, 24, 25, 26, 27, 28, 29, 30, 31, 32, 33, 34, 35, 36, 37, 38, 39, 40, 41, 42, 43, 44, 45, 46, 47, 48, 49, 50, 51, 52, 53, 54, 55, 56, 57, 58, 59, 60, 61, 62, 63, 64, 65, 66, 67, 68, 69, 70, 71, 72, 73, 74, 75, 76, 77, 78, 79, 80, 81, 82, 83, 84, 85, 86, 87, 88, 89, 90, 91, 92, 93, 94, 95, 96, 97, 98, 99, 100, 101, 102, 103, 104, 105, 106, 107, 108, 109, 110, 111, 112, 113, 114, 115, 116, 117, 118, 119, 120, 121, 122, 123, 124, 125, 126, 127, 128, 129, 130, 131, 132, 133, 134, 135, 136, 137, 138, 139, 140, 141, 142, 143, 144, 145, 146, 147, 148, 149, 150, 151, 152, 153, 154, 155, 156, 157, 158, 159, 160, 161, 162, 163, 164, 165, 166, 167, 168, 169, 170, 171, 172, 173, 174, 175, 176, 177, 178, 179, 180, 181, 182, 183, 184, 185, 186, 187, 188, 189, 190],
      "WindowCenter": [4848.0, 4822.0, 4824.0, 4820.0, 4826.0, 4848.0, 4846.0, 4824.0, 4824.0, 4822.0, 4824.0, 4824.0, 4824.0, 4848.0, 4826.0, 4822.0, 4824.0, 4824.0, 4826.0, 4846.0, 4824.0, 4822.0, 4822.0, 4826.0, 4822.0, 4846.0, 4852.0, 4822.0, 4822.0, 4824.0, 4824.0, 4824.0, 4824.0, 4822.0, 4846.0, 4850.0, 4848.0, 4822.0, 4820.0, 4820.0, 4822.0, 4824.0, 4822.0, 4822.0, 4822.0, 4820.0, 4826.0, 4822.0, 4822.0, 4822.0, 4820.0, 4820.0, 4846.0, 4820.0, 4820.0, 4820.0, 4822.0, 4822.0, 4820.0, 4820.0, 4822.0, 4850.0, 4848.0, 4822.0, 4822.0, 4820.0, 4818.0, 4822.0, 4826.0, 4822.0, 4820.0, 4822.0, 4820.0, 4826.0, 4820.0, 4820.0, 4820.0, 4820.0, 4820.0, 4822.0, 4820.0, 4822.0, 4822.0, 4820.0, 4820.0, 4820.0, 4820.0, 4824.0, 4820.0, 4820.0, 4818.0, 4816.0, 4822.0, 4820.0, 4824.0, 4820.0, 4818.0, 4818.0, 4820.0, 4820.0, 4816.0, 4820.0, 4818.0, 4850.0, 4820.0, 4818.0, 4818.0, 4818.0, 4820.0, 4820.0, 4818.0, 4816.0, 4814.0, 4824.0, 4816.0, 4822.0, 4820.0, 4822.0, 4818.0, 4822.0, 4818.0, 4820.0, 4818.0, 4822.0, 4824.0, 4820.0, 4820.0, 4846.0, 4824.0, 4816.0, 4822.0, 4820.0, 4820.0, 4822.0, 4822.0, 4820.0, 4846.0, 4818.0, 4818.0, 4822.0, 4824.0, 4822.0, 4824.0, 4820.0, 4822.0, 4824.0, 4816.0, 4814.0, 4824.0, 4820.0, 4820.0, 4824.0, 4848.0, 4822.0, 4818.0, 4818.0, 4820.0, 4818.0, 4816.0, 4824.0, 4850.0, 4820.0, 4816.0, 4820.0, 4822.0, 4816.0, 4822.0, 4820.0, 4818.0, 4820.0, 4818.0, 4816.0, 4818.0, 4820.0, 4818.0, 4846.0, 4822.0, 4822.0, 4822.0, 4820.0, 4822.0, 4822.0, 4818.0, 4820.0, 4820.0, 4818.0, 4822.0, 4872.0, 4876.0, 4820.0],
      "WindowWidth": [18616.0, 18592.0, 18588.0, 18586.0, 18588.0, 18614.0, 18614.0, 18586.0, 18582.0, 18592.0, 18586.0, 18592.0, 18592.0, 18610.0, 18588.0, 18590.0, 18582.0, 18592.0, 18590.0, 18612.0, 18592.0, 18590.0, 18592.0, 18590.0, 18580.0, 18618.0, 18620.0, 18578.0, 18592.0, 18590.0, 18598.0, 18588.0, 18582.0, 18586.0, 18616.0, 18622.0, 18608.0, 18590.0, 18592.0, 18596.0, 18578.0, 18584.0, 18586.0, 18586.0, 18580.0, 18590.0, 18582.0, 18592.0, 18588.0, 18588.0, 18588.0, 18586.0, 18618.0, 18586.0, 18582.0, 18588.0, 18596.0, 18590.0, 18590.0, 18582.0, 18594.0, 18618.0, 18620.0, 18584.0, 18580.0, 18586.0, 18586.0, 18582.0, 18586.0, 18590.0, 18588.0, 18588.0, 18586.0, 18588.0, 18582.0, 18586.0, 18584.0, 18594.0, 18582.0, 18580.0, 18588.0, 18582.0, 18584.0, 18582.0, 18584.0, 18580.0, 18588.0, 18586.0, 18580.0, 18590.0, 18580.0, 18582.0, 18580.0, 18586.0, 18584.0, 18576.0, 18586.0, 18584.0, 18584.0, 18590.0, 18572.0, 18584.0, 18582.0, 18618.0, 18582.0, 18586.0, 18580.0, 18586.0, 18588.0, 18582.0, 18586.0, 18578.0, 18580.0, 18588.0, 18574.0, 18584.0, 18586.0, 18592.0, 18576.0, 18594.0, 18582.0, 18582.0, 18588.0, 18584.0, 18580.0, 18580.0, 18584.0, 18608.0, 18580.0, 18592.0, 18592.0, 18592.0, 18588.0, 18582.0, 18588.0, 18584.0, 18620.0, 18580.0, 18584.0, 18578.0, 18590.0, 18588.0, 18584.0, 18582.0, 18590.0, 18584.0, 18578.0, 18582.0, 18582.0, 18578.0, 18588.0, 18584.0, 18614.0, 18582.0, 18590.0, 18584.0, 18590.0, 18582.0, 18580.0, 18582.0, 18624.0, 18582.0, 18582.0, 18582.0, 18584.0, 18582.0, 18578.0, 18592.0, 18580.0, 18586.0, 18584.0, 18580.0, 18576.0, 18584.0, 18586.0, 18618.0, 18584.0, 18590.0, 18578.0, 18594.0, 18582.0, 18574.0, 18582.0, 18584.0, 18578.0, 18582.0, 18584.0, 18668.0, 18662.0, 18576.0]
    },
    "slices": {}
  }
}