{
  "AcquisitionMatrixPE": 104,
  "AcquisitionNumber": 1,
  "AcquisitionTime": "10:57:18.775000",
  "BandwidthPerPixelPhaseEncode": 17.17,
  "BaseResolution": 104,
  "BodyPartExamined": "BRAIN",
  "CoilString": "HC1-7;NC1_2",
  "ConsistencyInfo": "N4_VE11C_LATEST_20160120",
  "ConversionSoftware": "dcm2niix",
  "ConversionSoftwareVersion": "v1.0.20190902",
  "DerivedVendorReportedEchoSpacing": 0.000560011,
  "DeviceSerialNumber": "167006",
  "DwellTime": 2.1e-06,
  "EchoTime": 0.037,
  "EchoTrainLength": 104,
  "EffectiveEchoSpacing": 0.000560011,
  "FlipAngle": 52,
  "HeudiconvVersion": "0.10.0",
  "ImageComments": "Unaliased_MB4_PE3_LB",
  "ImageOrientationPatientDICOM": [0.999768, 0.00557359, 0.0208105, 0.00523482, 0.87416, -0.48561],
  "ImageType": [
    "ORIGINAL",
    "PRIMARY",
    "M",
    "MB",
    "ND",
    "MOSAIC"
],
  "ImagingFrequency": 123.259,
  "InPlanePhaseEncodingDirectionDICOM": "COL",
  "InstitutionAddress": "Chemin_Queen-Mary_4565_Montreal_District_CA_H3W_1W5",
  "InstitutionName": "IUGM",
  "InstitutionalDepartmentName": "Department",
  "MRAcquisitionType": "2D",
  "MagneticFieldStrength": 3,
  "Manufacturer": "Siemens",
  "ManufacturersModelName": "Prisma_fit",
  "Modality": "MR",
  "MultibandAccelerationFactor": 4,
  "PartialFourier": 1,
  "PatientPosition": "HFS",
  "PercentPhaseFOV": 100,
  "PhaseEncodingDirection": "j",
  "PhaseEncodingSteps": 104,
  "PhaseResolution": 1,
  "PixelBandwidth": 2290,
  "ProcedureStepDescription": "memory_things",
  "ProtocolName": "func_task-things_run-3",
  "PulseSequenceDetails": "%CustomerSeq%_cmrr_mbep2d_bold",
  "ReceiveCoilActiveElements": "HC1-7;NC1,2",
  "ReceiveCoilName": "HeadNeck_64",
  "ReconMatrixPE": 104,
  "RepetitionTime": 1.49,
  "SAR": 0.0373733,
  "ScanOptions": "FS",
  "ScanningSequence": "EP",
  "SequenceName": "epfid2d1_104",
  "SequenceVariant": "SK_SS",
  "SeriesDescription": "func_task-things_run-3",
  "SeriesNumber": 16,
  "ShimSetting": [621, -7197, -8861, 287, 19, -142, -1, -16],
  "SliceThickness": 2,
  "SliceTiming": [0, 0.7825, 0.0975, 0.88, 0.195, 0.98, 0.2925, 1.0775, 0.39, 1.175, 0.49, 1.2725, 0.5875, 1.37, 0.685, 0, 0.7825, 0.0975, 0.88, 0.195, 0.98, 0.2925, 1.0775, 0.39, 1.175, 0.49, 1.2725, 0.5875, 1.37, 0.685, 0, 0.7825, 0.0975, 0.88, 0.195, 0.98, 0.2925, 1.0775, 0.39, 1.175, 0.49, 1.2725, 0.5875, 1.37, 0.685, 0, 0.7825, 0.0975, 0.88, 0.195, 0.98, 0.2925, 1.0775, 0.39, 1.175, 0.49, 1.2725, 0.5875, 1.37, 0.685],
  "SoftwareVersions": "syngo_MR_E11",
  "SpacingBetweenSlices": 2,
  "StationName": "MRC35049",
  "TaskName": "things",
  "TotalReadoutTime": 0.0576811,
  "TxRefAmp": 245.081,
  "WipMemBlock": "0892559c-915c-45cc-af37-607de2c1eb66||Sequence: R016 ve11c/master r/e634e98; Dec 19 2017 11:00:25 by eja",
  "dcmmeta_affine": [
    [-1.9995357990264893, 0.010469632223248482, 0.041796643286943436, 105.138916015625],
    [-0.011147186160087585, 1.7483192682266235, -0.9712134003639221, -52.986488342285156],
    [0.04162106290459633, 0.9712209105491638, 1.7478550672531128, -91.65254974365234],
    [0.0, 0.0, 0.0, 1.0]
],
  "dcmmeta_reorient_transform": [
    [0.0, -1.0, 0.0, 103.0],
    [1.0, 0.0, 0.0, 0.0],
    [0.0, 0.0, 1.0, 0.0],
    [0.0, 0.0, 0.0, 1.0]
],
  "dcmmeta_shape": [104, 104, 60, 190],
  "dcmmeta_slice_dim": 2,
  "dcmmeta_version": 0.6,
  "global": {
    "const": {
      "AcquisitionMatrix": [104, 0, 0, 104],
      "AngioFlag": "N",
      "BitsAllocated": 16,
      "BitsStored": 16,
      "BodyPartExamined": "BRAIN",
      "Columns": 832,
      "EchoNumbers": 1,
      "EchoTime": 37.0,
      "EchoTrainLength": 104,
      "FlipAngle": 52.0,
      "HighBit": 15,
      "ImageOrientationPatient": [0.99976790149946, 0.00557359327584, 0.02081053073243, 0.00523481632798, 0.87415963559204, -0.4856104696149],
      "ImagePositionPatient": [-837.8592672196, -767.53618713463, 346.75755931257],
      "ImageType": [
        "ORIGINAL",
        "PRIMARY",
        "M",
        "MB",
        "ND",
        "MOSAIC"
],
      "ImagedNucleus": "1H",
      "ImagingFrequency": 123.259081,
      "InPlanePhaseEncodingDirection": "COL",
      "MRAcquisitionType": "2D",
      "MagneticFieldStrength": 3.0,
      "Manufacturer": "SIEMENS",
      "ManufacturerModelName": "Prisma_fit",
      "Modality": "MR",
      "NumberOfAverages": 1.0,
      "NumberOfPhaseEncodingSteps": 104,
      "PercentPhaseFieldOfView": 100.0,
      "PercentSampling": 100.0,
      "PerformedProcedureStepStartTime": "101148.406000",
      "PhotometricInterpretation": "MONOCHROME2",
      "PixelBandwidth": 2290.0,
      "PixelRepresentation": 0,
      "PixelSpacing": [2.0, 2.0],
      "ProtocolName": "func_task-things_run-3",
      "RepetitionTime": 1490.0,
      "Rows": 832,
      "SAR": 0.0373732527659,
      "SamplesPerPixel": 1,
      "ScanOptions": "FS",
      "ScanningSequence": "EP",
      "SequenceName": "epfid2d1_104",
      "SequenceVariant": [
        "SK",
        "SS"
],
      "SeriesDescription": "func_task-things_run-3",
      "SeriesNumber": 16,
      "SeriesTime": "105820.980000",
      "SliceLocation": -52.169872058464,
      "SliceThickness": 2.0,
      "SmallestImagePixelValue": 0,
      "SoftwareVersions": "syngo MR E11",
      "SpacingBetweenSlices": 1.9999999854257,
      "SpecificCharacterSet": "ISO_IR 100",
      "StudyID": "1",
      "StudyTime": "101148.328000",
      "TransmitCoilName": "Body",
      "VariableFlipAngleFlag": "N",
      "WindowCenterWidthExplanation": "Algo1",
      "dBdt": 0.0},
    "slices": {}
  },
  "time": {
    "samples": {
      "AcquisitionNumber": [1, 2, 3, 4, 5, 6, 7, 8, 9, 10, 11, 12, 13, 14, 15, 16, 17, 18, 19, 20, 21, 22, 23, 24, 25, 26, 27, 28, 29, 30, 31, 32, 33, 34, 35, 36, 37, 38, 39, 40, 41, 42, 43, 44, 45, 46, 47, 48, 49, 50, 51, 52, 53, 54, 55, 56, 57, 58, 59, 60, 61, 62, 63, 64, 65, 66, 67, 68, 69, 70, 71, 72, 73, 74, 75, 76, 77, 78, 79, 80, 81, 82, 83, 84, 85, 86, 87, 88, 89, 90, 91, 92, 93, 94, 95, 96, 97, 98, 99, 100, 101, 102, 103, 104, 105, 106, 107, 108, 109, 110, 111, 112, 113, 114, 115, 116, 117, 118, 119, 120, 121, 122, 123, 124, 125, 126, 127, 128, 129, 130, 131, 132, 133, 134, 135, 136, 137, 138, 139, 140, 141, 142, 143, 144, 145, 146, 147, 148, 149, 150, 151, 152, 153, 154, 155, 156, 157, 158, 159, 160, 161, 162, 163, 164, 165, 166, 167, 168, 169, 170, 171, 172, 173, 174, 175, 176, 177, 178, 179, 180, 181, 182, 183, 184, 185, 186, 187, 188, 189, 190],
      "AcquisitionTime": ["105718.775000", "105720.265000", "105721.755000", "105723.245000", "105724.735000", "105726.225000", "105727.715000", "105729.205000", "105730.695000", "105732.185000", "105733.675000", "105735.165000", "105736.655000", "105738.145000", "105739.635000", "105741.125000", "105742.615000", "105744.105000", "105745.595000", "105747.085000", "105748.575000", "105750.065000", "105751.555000", "105753.045000", "105754.535000", "105756.025000", "105757.515000", "105759.005000", "105800.495000", "105801.985000", "105803.475000", "105804.965000", "105806.455000", "105807.945000", "105809.435000", "105810.925000", "105812.415000", "105813.905000", "105815.395000", "105816.885000", "105818.375000", "105819.865000", "105821.355000", "105822.845000", "105824.335000", "105825.825000", "105827.315000", "105828.805000", "105830.295000", "105831.785000", "105833.275000", "105834.765000", "105836.255000", "105837.745000", "105839.235000", "105840.725000", "105842.215000", "105843.705000", "105845.195000", "105846.685000", "105848.175000", "105849.665000", "105851.155000", "105852.645000", "105854.135000", "105855.625000", "105857.115000", "105858.605000", "105900.095000", "105901.585000", "105903.075000", "105904.565000", "105906.055000", "105907.545000", "105909.035000", "105910.525000", "105912.015000", "105913.505000", "105914.995000", "105916.485000", "105917.975000", "105919.465000", "105920.955000", "105922.445000", "105923.935000", "105925.425000", "105926.915000", "105928.405000", "105929.895000", "105931.385000", "105932.875000", "105934.365000", "105935.855000", "105937.345000", "105938.835000", "105940.325000", "105941.815000", "105943.305000", "105944.795000", "105946.285000", "105947.775000", "105949.265000", "105950.755000", "105952.245000", "105953.735000", "105955.225000", "105956.715000", "105958.205000", "105959.695000", "110001.185000", "110002.675000", "110004.165000", "110005.655000", "110007.145000", "110008.635000", "110010.125000", "110011.615000", "110013.105000", "110014.595000", "110016.085000", "110017.575000", "110019.065000", "110020.555000", "110022.045000", "110023.535000", "110025.025000", "110026.515000", "110028.005000", "110029.495000", "110030.985000", "110032.475000", "110033.965000", "110035.455000", "110036.945000", "110038.435000", "110039.925000", "110041.415000", "110042.905000", "110044.395000", "110045.885000", "110047.375000", "110048.865000", "110050.355000", "110051.845000", "110053.335000", "110054.825000", "110056.315000", "110057.805000", "110059.295000", "110100.785000", "110102.275000", "110103.765000", "110105.255000", "110106.745000", "110108.235000", "110109.725000", "110111.215000", "110112.705000", "110114.195000", "110115.685000", "110117.175000", "110118.665000", "110120.155000", "110121.645000", "110123.135000", "110124.625000", "110126.115000", "110127.605000", "110129.095000", "110130.585000", "110132.075000", "110133.565000", "110135.055000", "110136.545000", "110138.035000", "110139.525000", "110141.015000", "110142.505000", "110143.995000", "110145.485000", "110146.975000", "110148.465000", "110149.955000", "110151.445000", "110152.935000", "110154.425000", "110155.915000", "110157.405000", "110158.895000", "110200.385000"],
      "ContentTime": ["105820.983000", "105820.990000", "105820.993000", "105820.996000", "105821.000000", "105821.003000", "105821.006000", "105821.010000", "105840.931000", "105840.935000", "105840.938000", "105840.941000", "105840.949000", "105840.952000", "105840.956000", "105840.959000", "105840.962000", "105840.966000", "105840.969000", "105840.972000", "105840.976000", "105840.979000", "105840.982000", "105840.985000", "105840.989000", "105840.992000", "105840.995000", "105841.000000", "105841.003000", "105900.931000", "105900.935000", "105900.938000", "105900.941000", "105900.945000", "105900.948000", "105900.951000", "105900.954000", "105900.958000", "105900.961000", "105900.964000", "105900.968000", "105900.971000", "105900.974000", "105900.977000", "105900.981000", "105900.984000", "105901.002000", "105901.005000", "105901.009000", "105920.931000", "105920.935000", "105920.944000", "105920.947000", "105920.950000", "105920.954000", "105920.957000", "105920.960000", "105920.964000", "105920.967000", "105920.970000", "105920.974000", "105920.977000", "105920.980000", "105920.984000", "105920.987000", "105920.998000", "105921.002000", "105921.005000", "105921.009000", "105940.931000", "105940.935000", "105940.938000", "105940.941000", "105940.944000", "105940.948000", "105940.951000", "105940.954000", "105940.957000", "105940.961000", "105940.964000", "105940.967000", "105940.971000", "105940.980000", "105940.984000", "105940.987000", "105940.990000", "105940.993000", "105940.997000", "105941.000000", "105941.003000", "110020.931000", "110020.935000", "110020.938000", "110020.941000", "110020.945000", "110020.948000", "110020.951000", "110020.954000", "110020.958000", "110020.961000", "110020.964000", "110020.968000", "110020.971000", "110020.975000", "110020.978000", "110020.981000", "110020.985000", "110020.989000", "110020.993000", "110021.030000", "110021.034000", "110021.037000", "110021.040000", "110021.044000", "110021.047000", "110021.050000", "110021.054000", "110021.057000", "110021.060000", "110021.064000", "110021.067000", "110100.931000", "110100.935000", "110100.938000", "110100.941000", "110100.945000", "110100.948000", "110100.951000", "110100.954000", "110100.958000", "110100.961000", "110100.964000", "110100.968000", "110100.971000", "110100.974000", "110100.977000", "110100.981000", "110100.984000", "110100.987000", "110100.991000", "110100.994000", "110100.997000", "110101.001000", "110101.005000", "110101.008000", "110101.022000", "110101.025000", "110101.028000", "110140.931000", "110140.935000", "110140.938000", "110140.941000", "110140.945000", "110140.948000", "110140.951000", "110140.955000", "110140.958000", "110140.961000", "110140.965000", "110140.968000", "110140.971000", "110140.981000", "110140.984000", "110140.987000", "110140.991000", "110140.994000", "110140.997000", "110141.002000", "110141.005000", "110141.008000", "110141.011000", "110141.015000", "110141.018000", "110141.021000", "110141.024000", "110202.379000", "110202.383000", "110202.386000", "110202.389000", "110202.393000", "110202.396000", "110202.400000", "110202.403000", "110202.406000", "110202.410000", "110202.413000", "110202.417000", "110202.420000", "110202.423000", "110202.427000"],
      "InstanceCreationTime": ["105820.983000", "105820.990000", "105820.993000", "105820.996000", "105821.000000", "105821.003000", "105821.006000", "105821.010000", "105840.931000", "105840.935000", "105840.938000", "105840.941000", "105840.949000", "105840.952000", "105840.956000", "105840.959000", "105840.962000", "105840.966000", "105840.969000", "105840.972000", "105840.976000", "105840.979000", "105840.982000", "105840.985000", "105840.989000", "105840.992000", "105840.995000", "105841.000000", "105841.003000", "105900.931000", "105900.935000", "105900.938000", "105900.941000", "105900.945000", "105900.948000", "105900.951000", "105900.954000", "105900.958000", "105900.961000", "105900.964000", "105900.968000", "105900.971000", "105900.974000", "105900.977000", "105900.981000", "105900.984000", "105901.002000", "105901.005000", "105901.009000", "105920.931000", "105920.935000", "105920.944000", "105920.947000", "105920.950000", "105920.954000", "105920.957000", "105920.960000", "105920.964000", "105920.967000", "105920.970000", "105920.974000", "105920.977000", "105920.980000", "105920.984000", "105920.987000", "105920.998000", "105921.002000", "105921.005000", "105921.009000", "105940.931000", "105940.935000", "105940.938000", "105940.941000", "105940.944000", "105940.948000", "105940.951000", "105940.954000", "105940.957000", "105940.961000", "105940.964000", "105940.967000", "105940.971000", "105940.980000", "105940.984000", "105940.987000", "105940.990000", "105940.993000", "105940.997000", "105941.000000", "105941.003000", "110020.931000", "110020.935000", "110020.938000", "110020.941000", "110020.945000", "110020.948000", "110020.951000", "110020.954000", "110020.958000", "110020.961000", "110020.964000", "110020.968000", "110020.971000", "110020.975000", "110020.978000", "110020.981000", "110020.985000", "110020.989000", "110020.993000", "110021.030000", "110021.034000", "110021.037000", "110021.040000", "110021.044000", "110021.047000", "110021.050000", "110021.054000", "110021.057000", "110021.060000", "110021.064000", "110021.067000", "110100.931000", "110100.935000", "110100.938000", "110100.941000", "110100.945000", "110100.948000", "110100.951000", "110100.954000", "110100.958000", "110100.961000", "110100.964000", "110100.968000", "110100.971000", "110100.974000", "110100.977000", "110100.981000", "110100.984000", "110100.987000", "110100.991000", "110100.994000", "110100.997000", "110101.001000", "110101.005000", "110101.008000", "110101.022000", "110101.025000", "110101.028000", "110140.931000", "110140.935000", "110140.938000", "110140.941000", "110140.945000", "110140.948000", "110140.951000", "110140.955000", "110140.958000", "110140.961000", "110140.965000", "110140.968000", "110140.971000", "110140.981000", "110140.984000", "110140.987000", "110140.991000", "110140.994000", "110140.997000", "110141.002000", "110141.005000", "110141.008000", "110141.011000", "110141.015000", "110141.018000", "110141.021000", "110141.024000", "110202.379000", "110202.383000", "110202.386000", "110202.389000", "110202.393000", "110202.396000", "110202.400000", "110202.403000", "110202.406000", "110202.410000", "110202.413000", "110202.417000", "110202.420000", "110202.423000", "110202.427000"],
      "InstanceNumber": [1, 2, 3, 4, 5, 6, 7, 8, 9, 10, 11, 12, 13, 14, 15, 16, 17, 18, 19, 20, 21, 22, 23, 24, 25, 26, 27, 28, 29, 30, 31, 32, 33, 34, 35, 36, 37, 38, 39, 40, 41, 42, 43, 44, 45, 46, 47, 48, 49, 50, 51, 52, 53, 54, 55, 56, 57, 58, 59, 60, 61, 62, 63, 64, 65, 66, 67, 68, 69, 70, 71, 72, 73, 74, 75, 76, 77, 78, 79, 80, 81, 82, 83, 84, 85, 86, 87, 88, 89, 90, 91, 92, 93, 94, 95, 96, 97, 98, 99, 100, 101, 102, 103, 104, 105, 106, 107, 108, 109, 110, 111, 112, 113, 114, 115, 116, 117, 118, 119, 120, 121, 122, 123, 124, 125, 126, 127, 128, 129, 130, 131, 132, 133, 134, 135, 136, 137, 138, 139, 140, 141, 142, 143, 144, 145, 146, 147, 148, 149, 150, 151, 152, 153, 154, 155, 156, 157, 158, 159, 160, 161, 162, 163, 164, 165, 166, 167, 168, 169, 170, 171, 172, 173, 174, 175, 176, 177, 178, 179, 180, 181, 182, 183, 184, 185, 186, 187, 188, 189, 190],
      "LargestImagePixelValue": [44861, 43699, 43622, 43651, 42500, 42425, 45817, 45974, 45576, 44241, 42813, 43359, 43630, 42620, 42147, 43660, 43925, 43478, 45552, 45597, 44238, 44595, 44286, 42833, 44749, 44188, 42913, 44274, 43429, 45131, 45653, 43820, 44219, 45357, 45100, 43429, 44265, 44429, 42966, 44938, 43864, 44068, 44816, 43911, 44878, 45450, 43567, 43703, 44653, 43964, 43925, 44356, 44028, 43950, 44673, 43501, 44424, 44400, 42626, 44657, 44856, 43885, 44892, 44675, 42732, 44463, 43627, 42337, 44101, 44216, 43026, 44072, 43642, 41997, 43300, 44007, 42854, 43212, 43018, 42607, 43187, 43860, 42132, 42815, 44049, 42454, 42995, 43237, 42401, 42517, 43579, 42280, 42911, 44483, 45110, 43999, 42875, 41767, 44230, 44799, 43500, 43334, 43651, 43616, 42920, 43887, 43745, 42735, 43792, 44634, 43313, 41971, 42421, 45096, 45410, 43551, 43520, 43769, 42478, 42416, 43199, 41890, 42386, 42642, 41911, 43241, 42741, 42668, 42879, 43115, 42655, 42240, 43027, 42426, 41497, 42573, 42552, 42485, 43563, 42542, 42533, 43240, 42359, 41312, 42820, 43243, 42400, 42698, 42318, 42136, 42800, 41880, 42151, 43045, 42529, 42582, 43252, 43170, 42119, 42799, 42200, 42378, 42203, 42167, 42723, 42610, 42172, 42917, 42122, 42354, 42368, 42317, 41623, 42276, 42401, 42032, 42604, 42640, 42514, 41850, 42467, 41625, 42462, 42299, 42335, 41505, 41761, 41443, 41727, 41400],
      "WindowCenter": [10913.0, 10862.0, 10846.0, 10837.0, 10821.0, 10795.0, 10845.0, 10848.0, 10820.0, 10800.0, 10805.0, 10824.0, 10823.0, 10787.0, 10772.0, 10786.0, 10795.0, 10800.0, 10817.0, 10793.0, 10764.0, 10815.0, 10835.0, 10852.0, 10877.0, 10835.0, 10807.0, 10840.0, 10845.0, 10863.0, 10857.0, 10817.0, 10822.0, 10838.0, 10841.0, 10823.0, 10828.0, 10838.0, 10801.0, 10793.0, 10778.0, 10810.0, 10837.0, 10835.0, 10837.0, 10825.0, 10791.0, 10771.0, 10775.0, 10800.0, 10814.0, 10819.0, 10824.0, 10820.0, 10811.0, 10807.0, 10821.0, 10804.0, 10804.0, 10843.0, 10844.0, 10809.0, 10801.0, 10791.0, 10768.0, 10761.0, 10775.0, 10798.0, 10813.0, 10821.0, 10812.0, 10807.0, 10781.0, 10774.0, 10802.0, 10803.0, 10766.0, 10769.0, 10773.0, 10788.0, 10798.0, 10794.0, 10772.0, 10802.0, 10838.0, 10811.0, 10777.0, 10774.0, 10793.0, 10816.0, 10810.0, 10773.0, 10779.0, 10791.0, 10817.0, 10800.0, 10810.0, 10809.0, 10826.0, 10814.0, 10766.0, 10747.0, 10775.0, 10788.0, 10793.0, 10819.0, 10828.0, 10808.0, 10808.0, 10803.0, 10785.0, 10787.0, 10816.0, 10854.0, 10842.0, 10783.0, 10780.0, 10813.0, 10797.0, 10798.0, 10820.0, 10797.0, 10787.0, 10785.0, 10764.0, 10746.0, 10747.0, 10786.0, 10779.0, 10783.0, 10800.0, 10817.0, 10814.0, 10766.0, 10736.0, 10805.0, 10821.0, 10805.0, 10791.0, 10792.0, 10779.0, 10758.0, 10737.0, 10759.0, 10780.0, 10784.0, 10783.0, 10808.0, 10804.0, 10804.0, 10797.0, 10761.0, 10752.0, 10782.0, 10805.0, 10808.0, 10799.0, 10810.0, 10812.0, 10816.0, 10804.0, 10793.0, 10784.0, 10774.0, 10748.0, 10775.0, 10791.0, 10785.0, 10783.0, 10796.0, 10796.0, 10776.0, 10760.0, 10749.0, 10731.0, 10708.0, 10749.0, 10765.0, 10781.0, 10770.0, 10743.0, 10742.0, 10753.0, 10754.0, 10758.0, 10755.0, 10754.0, 10756.0, 10743.0, 10727.0],
      "WindowWidth": [23514.0, 23361.0, 23304.0, 23272.0, 23233.0, 23172.0, 23269.0, 23275.0, 23210.0, 23167.0, 23186.0, 23229.0, 23226.0, 23146.0, 23110.0, 23134.0, 23160.0, 23170.0, 23205.0, 23150.0, 23089.0, 23203.0, 23249.0, 23294.0, 23349.0, 23252.0, 23192.0, 23258.0, 23276.0, 23311.0, 23296.0, 23213.0, 23219.0, 23253.0, 23259.0, 23228.0, 23236.0, 23254.0, 23182.0, 23156.0, 23121.0, 23189.0, 23252.0, 23250.0, 23252.0, 23224.0, 23155.0, 23110.0, 23108.0, 23169.0, 23204.0, 23214.0, 23227.0, 23220.0, 23192.0, 23184.0, 23215.0, 23179.0, 23183.0, 23264.0, 23270.0, 23190.0, 23169.0, 23144.0, 23101.0, 23079.0, 23116.0, 23173.0, 23198.0, 23214.0, 23199.0, 23187.0, 23127.0, 23116.0, 23177.0, 23175.0, 23095.0, 23100.0, 23109.0, 23150.0, 23165.0, 23152.0, 23114.0, 23174.0, 23251.0, 23206.0, 23121.0, 23113.0, 23156.0, 23210.0, 23194.0, 23115.0, 23125.0, 23145.0, 23201.0, 23173.0, 23196.0, 23197.0, 23226.0, 23196.0, 23092.0, 23048.0, 23107.0, 23140.0, 23155.0, 23210.0, 23232.0, 23188.0, 23183.0, 23170.0, 23135.0, 23144.0, 23208.0, 23285.0, 23257.0, 23133.0, 23121.0, 23196.0, 23167.0, 23169.0, 23216.0, 23171.0, 23142.0, 23136.0, 23095.0, 23045.0, 23046.0, 23139.0, 23125.0, 23130.0, 23173.0, 23215.0, 23208.0, 23095.0, 23029.0, 23176.0, 23216.0, 23187.0, 23146.0, 23152.0, 23129.0, 23074.0, 23030.0, 23083.0, 23126.0, 23132.0, 23133.0, 23191.0, 23183.0, 23183.0, 23163.0, 23088.0, 23060.0, 23126.0, 23183.0, 23193.0, 23170.0, 23193.0, 23202.0, 23209.0, 23185.0, 23160.0, 23140.0, 23115.0, 23055.0, 23114.0, 23154.0, 23139.0, 23140.0, 23165.0, 23165.0, 23120.0, 23088.0, 23060.0, 23019.0, 22968.0, 23056.0, 23089.0, 23128.0, 23108.0, 23041.0, 23045.0, 23064.0, 23068.0, 23082.0, 23072.0, 23070.0, 23074.0, 23048.0, 23013.0]
    },
    "slices": {}
  }
}