{
  "AcquisitionMatrixPE": 104,
  "AcquisitionNumber": 1,
  "AcquisitionTime": "11:15:19.945000",
  "BandwidthPerPixelPhaseEncode": 17.17,
  "BaseResolution": 104,
  "BodyPartExamined": "BRAIN",
  "CoilString": "HC1-7;NC1_2",
  "ConsistencyInfo": "N4_VE11C_LATEST_20160120",
  "ConversionSoftware": "dcm2niix",
  "ConversionSoftwareVersion": "v1.0.20190902",
  "DerivedVendorReportedEchoSpacing": 0.000560011,
  "DeviceSerialNumber": "167006",
  "DwellTime": 2.1e-06,
  "EchoTime": 0.037,
  "EchoTrainLength": 104,
  "EffectiveEchoSpacing": 0.000560011,
  "FlipAngle": 52,
  "HeudiconvVersion": "0.10.0",
  "ImageComments": "Unaliased_MB4_PE3_LB",
  "ImageOrientationPatientDICOM": [0.999768, 0.00557359, 0.0208105, 0.00523482, 0.87416, -0.48561],
  "ImageType": [
    "ORIGINAL",
    "PRIMARY",
    "M",
    "MB",
    "ND",
    "MOSAIC"
],
  "ImagingFrequency": 123.259,
  "InPlanePhaseEncodingDirectionDICOM": "COL",
  "InstitutionAddress": "Chemin_Queen-Mary_4565_Montreal_District_CA_H3W_1W5",
  "InstitutionName": "IUGM",
  "InstitutionalDepartmentName": "Department",
  "MRAcquisitionType": "2D",
  "MagneticFieldStrength": 3,
  "Manufacturer": "Siemens",
  "ManufacturersModelName": "Prisma_fit",
  "Modality": "MR",
  "MultibandAccelerationFactor": 4,
  "PartialFourier": 1,
  "PatientPosition": "HFS",
  "PercentPhaseFOV": 100,
  "PhaseEncodingDirection": "j",
  "PhaseEncodingSteps": 104,
  "PhaseResolution": 1,
  "PixelBandwidth": 2290,
  "ProcedureStepDescription": "memory_things",
  "ProtocolName": "func_task-things_run-6",
  "PulseSequenceDetails": "%CustomerSeq%_cmrr_mbep2d_bold",
  "ReceiveCoilActiveElements": "HC1-7;NC1,2",
  "ReceiveCoilName": "HeadNeck_64",
  "ReconMatrixPE": 104,
  "RepetitionTime": 1.49,
  "SAR": 0.0373733,
  "ScanOptions": "FS",
  "ScanningSequence": "EP",
  "SequenceName": "epfid2d1_104",
  "SequenceVariant": "SK_SS",
  "SeriesDescription": "func_task-things_run-6",
  "SeriesNumber": 25,
  "ShimSetting": [621, -7197, -8861, 287, 19, -142, -1, -16],
  "SliceThickness": 2,
  "SliceTiming": [0, 0.7825, 0.0975, 0.88, 0.195, 0.98, 0.2925, 1.0775, 0.39, 1.175, 0.49, 1.2725, 0.5875, 1.37, 0.685, 0, 0.7825, 0.0975, 0.88, 0.195, 0.98, 0.2925, 1.0775, 0.39, 1.175, 0.49, 1.2725, 0.5875, 1.37, 0.685, 0, 0.7825, 0.0975, 0.88, 0.195, 0.98, 0.2925, 1.0775, 0.39, 1.175, 0.49, 1.2725, 0.5875, 1.37, 0.685, 0, 0.7825, 0.0975, 0.88, 0.195, 0.98, 0.2925, 1.0775, 0.39, 1.175, 0.49, 1.2725, 0.5875, 1.37, 0.685],
  "SoftwareVersions": "syngo_MR_E11",
  "SpacingBetweenSlices": 2,
  "StationName": "MRC35049",
  "TaskName": "things",
  "TotalReadoutTime": 0.0576811,
  "TxRefAmp": 245.081,
  "WipMemBlock": "f21fa3d5-8a72-42c6-a727-95130d76cc2d||Sequence: R016 ve11c/master r/e634e98; Dec 19 2017 11:00:25 by eja",
  "dcmmeta_affine": [
    [-1.9995357990264893, 0.010469632223248482, 0.041796643286943436, 105.138916015625],
    [-0.011147186160087585, 1.7483192682266235, -0.9712134003639221, -52.986488342285156],
    [0.04162106290459633, 0.9712209105491638, 1.7478550672531128, -91.65254974365234],
    [0.0, 0.0, 0.0, 1.0]
],
  "dcmmeta_reorient_transform": [
    [0.0, -1.0, 0.0, 103.0],
    [1.0, 0.0, 0.0, 0.0],
    [0.0, 0.0, 1.0, 0.0],
    [0.0, 0.0, 0.0, 1.0]
],
  "dcmmeta_shape": [104, 104, 60, 190],
  "dcmmeta_slice_dim": 2,
  "dcmmeta_version": 0.6,
  "global": {
    "const": {
      "AcquisitionMatrix": [104, 0, 0, 104],
      "AngioFlag": "N",
      "BitsAllocated": 16,
      "BitsStored": 16,
      "BodyPartExamined": "BRAIN",
      "Columns": 832,
      "EchoNumbers": 1,
      "EchoTime": 37.0,
      "EchoTrainLength": 104,
      "FlipAngle": 52.0,
      "HighBit": 15,
      "ImageOrientationPatient": [0.99976790149946, 0.00557359327584, 0.02081053073243, 0.00523481632798, 0.87415963559204, -0.4856104696149],
      "ImagePositionPatient": [-837.8592672196, -767.53618713463, 346.75755931257],
      "ImageType": [
        "ORIGINAL",
        "PRIMARY",
        "M",
        "MB",
        "ND",
        "MOSAIC"
],
      "ImagedNucleus": "1H",
      "ImagingFrequency": 123.259092,
      "InPlanePhaseEncodingDirection": "COL",
      "MRAcquisitionType": "2D",
      "MagneticFieldStrength": 3.0,
      "Manufacturer": "SIEMENS",
      "ManufacturerModelName": "Prisma_fit",
      "Modality": "MR",
      "NumberOfAverages": 1.0,
      "NumberOfPhaseEncodingSteps": 104,
      "PercentPhaseFieldOfView": 100.0,
      "PercentSampling": 100.0,
      "PerformedProcedureStepStartTime": "101148.406000",
      "PhotometricInterpretation": "MONOCHROME2",
      "PixelBandwidth": 2290.0,
      "PixelRepresentation": 0,
      "PixelSpacing": [2.0, 2.0],
      "ProtocolName": "func_task-things_run-6",
      "RepetitionTime": 1490.0,
      "Rows": 832,
      "SAR": 0.0373732527659,
      "SamplesPerPixel": 1,
      "ScanOptions": "FS",
      "ScanningSequence": "EP",
      "SequenceName": "epfid2d1_104",
      "SequenceVariant": [
        "SK",
        "SS"
],
      "SeriesDescription": "func_task-things_run-6",
      "SeriesNumber": 25,
      "SeriesTime": "111640.959000",
      "SliceLocation": -52.169872058464,
      "SliceThickness": 2.0,
      "SmallestImagePixelValue": 0,
      "SoftwareVersions": "syngo MR E11",
      "SpacingBetweenSlices": 1.9999999854257,
      "SpecificCharacterSet": "ISO_IR 100",
      "StudyID": "1",
      "StudyTime": "101148.328000",
      "TransmitCoilName": "Body",
      "VariableFlipAngleFlag": "N",
      "WindowCenterWidthExplanation": "Algo1",
      "dBdt": 0.0},
    "slices": {}
  },
  "time": {
    "samples": {
      "AcquisitionNumber": [1, 2, 3, 4, 5, 6, 7, 8, 9, 10, 11, 12, 13, 14, 15, 16, 17, 18, 19, 20, 21, 22, 23, 24, 25, 26, 27, 28, 29, 30, 31, 32, 33, 34, 35, 36, 37, 38, 39, 40, 41, 42, 43, 44, 45, 46, 47, 48, 49, 50, 51, 52, 53, 54, 55, 56, 57, 58, 59, 60, 61, 62, 63, 64, 65, 66, 67, 68, 69, 70, 71, 72, 73, 74, 75, 76, 77, 78, 79, 80, 81, 82, 83, 84, 85, 86, 87, 88, 89, 90, 91, 92, 93, 94, 95, 96, 97, 98, 99, 100, 101, 102, 103, 104, 105, 106, 107, 108, 109, 110, 111, 112, 113, 114, 115, 116, 117, 118, 119, 120, 121, 122, 123, 124, 125, 126, 127, 128, 129, 130, 131, 132, 133, 134, 135, 136, 137, 138, 139, 140, 141, 142, 143, 144, 145, 146, 147, 148, 149, 150, 151, 152, 153, 154, 155, 156, 157, 158, 159, 160, 161, 162, 163, 164, 165, 166, 167, 168, 169, 170, 171, 172, 173, 174, 175, 176, 177, 178, 179, 180, 181, 182, 183, 184, 185, 186, 187, 188, 189, 190],
      "AcquisitionTime": ["111519.945000", "111521.435000", "111522.925000", "111524.415000", "111525.905000", "111527.395000", "111528.885000", "111530.375000", "111531.865000", "111533.355000", "111534.845000", "111536.335000", "111537.825000", "111539.315000", "111540.805000", "111542.295000", "111543.785000", "111545.275000", "111546.765000", "111548.255000", "111549.745000", "111551.235000", "111552.725000", "111554.215000", "111555.705000", "111557.195000", "111558.685000", "111600.175000", "111601.665000", "111603.155000", "111604.645000", "111606.135000", "111607.625000", "111609.115000", "111610.605000", "111612.095000", "111613.585000", "111615.075000", "111616.565000", "111618.055000", "111619.545000", "111621.035000", "111622.525000", "111624.015000", "111625.505000", "111626.995000", "111628.485000", "111629.975000", "111631.465000", "111632.955000", "111634.445000", "111635.935000", "111637.425000", "111638.915000", "111640.405000", "111641.895000", "111643.385000", "111644.875000", "111646.365000", "111647.855000", "111649.345000", "111650.835000", "111652.325000", "111653.815000", "111655.305000", "111656.795000", "111658.285000", "111659.775000", "111701.265000", "111702.755000", "111704.245000", "111705.735000", "111707.225000", "111708.715000", "111710.205000", "111711.695000", "111713.185000", "111714.675000", "111716.165000", "111717.655000", "111719.145000", "111720.635000", "111722.125000", "111723.615000", "111725.105000", "111726.595000", "111728.085000", "111729.575000", "111731.065000", "111732.555000", "111734.045000", "111735.535000", "111737.025000", "111738.515000", "111740.005000", "111741.495000", "111742.985000", "111744.475000", "111745.965000", "111747.455000", "111748.945000", "111750.435000", "111751.925000", "111753.415000", "111754.905000", "111756.395000", "111757.885000", "111759.375000", "111800.865000", "111802.355000", "111803.845000", "111805.335000", "111806.825000", "111808.315000", "111809.805000", "111811.295000", "111812.785000", "111814.275000", "111815.765000", "111817.255000", "111818.745000", "111820.235000", "111821.725000", "111823.215000", "111824.705000", "111826.195000", "111827.685000", "111829.175000", "111830.665000", "111832.155000", "111833.645000", "111835.135000", "111836.625000", "111838.115000", "111839.605000", "111841.095000", "111842.585000", "111844.075000", "111845.565000", "111847.055000", "111848.545000", "111850.035000", "111851.525000", "111853.015000", "111854.505000", "111855.995000", "111857.485000", "111858.975000", "111900.465000", "111901.955000", "111903.445000", "111904.935000", "111906.425000", "111907.915000", "111909.405000", "111910.895000", "111912.385000", "111913.875000", "111915.365000", "111916.855000", "111918.345000", "111919.835000", "111921.325000", "111922.815000", "111924.305000", "111925.795000", "111927.285000", "111928.775000", "111930.265000", "111931.755000", "111933.245000", "111934.735000", "111936.225000", "111937.715000", "111939.205000", "111940.695000", "111942.185000", "111943.675000", "111945.165000", "111946.655000", "111948.145000", "111949.635000", "111951.125000", "111952.615000", "111954.105000", "111955.595000", "111957.085000", "111958.575000", "112000.065000", "112001.555000"],
      "ContentTime": ["111640.962000", "111640.966000", "111640.969000", "111640.973000", "111640.976000", "111640.979000", "111640.983000", "111640.986000", "111640.989000", "111640.992000", "111640.996000", "111641.000000", "111641.003000", "111641.006000", "111641.010000", "111641.013000", "111641.016000", "111641.026000", "111641.029000", "111641.050000", "111641.053000", "111641.056000", "111641.060000", "111641.063000", "111641.066000", "111641.069000", "111641.073000", "111641.076000", "111700.931000", "111700.935000", "111700.942000", "111700.945000", "111700.949000", "111700.952000", "111700.955000", "111700.959000", "111700.962000", "111700.965000", "111700.968000", "111700.985000", "111700.988000", "111700.992000", "111700.995000", "111700.998000", "111701.002000", "111701.006000", "111701.009000", "111701.012000", "111701.016000", "111720.931000", "111720.935000", "111720.938000", "111720.942000", "111720.945000", "111720.948000", "111720.951000", "111720.955000", "111720.958000", "111720.961000", "111720.964000", "111720.968000", "111720.971000", "111720.974000", "111720.978000", "111720.981000", "111720.984000", "111720.988000", "111720.991000", "111720.994000", "111740.931000", "111740.935000", "111740.938000", "111740.941000", "111740.945000", "111740.948000", "111740.951000", "111740.955000", "111740.958000", "111740.961000", "111740.964000", "111740.968000", "111740.971000", "111740.974000", "111740.978000", "111740.981000", "111740.984000", "111740.987000", "111740.991000", "111740.994000", "111820.931000", "111820.935000", "111820.938000", "111820.941000", "111820.945000", "111820.948000", "111820.952000", "111820.955000", "111820.958000", "111820.962000", "111820.966000", "111820.969000", "111820.973000", "111820.976000", "111820.979000", "111820.982000", "111820.986000", "111820.989000", "111820.992000", "111820.996000", "111820.999000", "111821.002000", "111821.005000", "111821.009000", "111821.012000", "111821.015000", "111821.019000", "111821.022000", "111821.025000", "111821.029000", "111821.032000", "111900.931000", "111900.935000", "111900.938000", "111900.942000", "111900.945000", "111900.948000", "111900.952000", "111900.955000", "111900.958000", "111900.962000", "111900.965000", "111900.968000", "111900.972000", "111900.975000", "111900.978000", "111900.982000", "111900.985000", "111900.988000", "111900.991000", "111900.995000", "111900.998000", "111901.001000", "111901.004000", "111901.008000", "111901.011000", "111901.026000", "111901.029000", "111940.931000", "111940.935000", "111940.938000", "111940.941000", "111940.945000", "111940.948000", "111940.951000", "111940.955000", "111940.958000", "111940.967000", "111940.971000", "111940.974000", "111940.977000", "111940.980000", "111940.984000", "111940.987000", "111940.991000", "111940.994000", "111940.997000", "111941.002000", "111941.005000", "111941.008000", "111941.011000", "111941.015000", "111941.018000", "111941.021000", "111941.025000", "112003.975000", "112003.978000", "112003.981000", "112003.985000", "112003.988000", "112003.991000", "112003.995000", "112003.998000", "112004.001000", "112004.005000", "112004.008000", "112004.011000", "112004.014000", "112004.018000", "112004.021000", "112004.024000"],
      "InstanceCreationTime": ["111640.962000", "111640.966000", "111640.969000", "111640.973000", "111640.976000", "111640.979000", "111640.983000", "111640.986000", "111640.989000", "111640.992000", "111640.996000", "111641.000000", "111641.003000", "111641.006000", "111641.010000", "111641.013000", "111641.016000", "111641.026000", "111641.029000", "111641.050000", "111641.053000", "111641.056000", "111641.060000", "111641.063000", "111641.066000", "111641.069000", "111641.073000", "111641.076000", "111700.931000", "111700.935000", "111700.942000", "111700.945000", "111700.949000", "111700.952000", "111700.955000", "111700.959000", "111700.962000", "111700.965000", "111700.968000", "111700.985000", "111700.988000", "111700.992000", "111700.995000", "111700.998000", "111701.002000", "111701.006000", "111701.009000", "111701.012000", "111701.016000", "111720.931000", "111720.935000", "111720.938000", "111720.942000", "111720.945000", "111720.948000", "111720.951000", "111720.955000", "111720.958000", "111720.961000", "111720.964000", "111720.968000", "111720.971000", "111720.974000", "111720.978000", "111720.981000", "111720.984000", "111720.988000", "111720.991000", "111720.994000", "111740.931000", "111740.935000", "111740.938000", "111740.941000", "111740.945000", "111740.948000", "111740.951000", "111740.955000", "111740.958000", "111740.961000", "111740.964000", "111740.968000", "111740.971000", "111740.974000", "111740.978000", "111740.981000", "111740.984000", "111740.987000", "111740.991000", "111740.994000", "111820.931000", "111820.935000", "111820.938000", "111820.941000", "111820.945000", "111820.948000", "111820.952000", "111820.955000", "111820.958000", "111820.962000", "111820.966000", "111820.969000", "111820.973000", "111820.976000", "111820.979000", "111820.982000", "111820.986000", "111820.989000", "111820.992000", "111820.996000", "111820.999000", "111821.002000", "111821.005000", "111821.009000", "111821.012000", "111821.015000", "111821.019000", "111821.022000", "111821.025000", "111821.029000", "111821.032000", "111900.931000", "111900.935000", "111900.938000", "111900.942000", "111900.945000", "111900.948000", "111900.952000", "111900.955000", "111900.958000", "111900.962000", "111900.965000", "111900.968000", "111900.972000", "111900.975000", "111900.978000", "111900.982000", "111900.985000", "111900.988000", "111900.991000", "111900.995000", "111900.998000", "111901.001000", "111901.004000", "111901.008000", "111901.011000", "111901.026000", "111901.029000", "111940.931000", "111940.935000", "111940.938000", "111940.941000", "111940.945000", "111940.948000", "111940.951000", "111940.955000", "111940.958000", "111940.967000", "111940.971000", "111940.974000", "111940.977000", "111940.980000", "111940.984000", "111940.987000", "111940.991000", "111940.994000", "111940.997000", "111941.002000", "111941.005000", "111941.008000", "111941.011000", "111941.015000", "111941.018000", "111941.021000", "111941.025000", "112003.975000", "112003.978000", "112003.981000", "112003.985000", "112003.988000", "112003.991000", "112003.995000", "112003.998000", "112004.001000", "112004.005000", "112004.008000", "112004.011000", "112004.014000", "112004.018000", "112004.021000", "112004.024000"],
      "InstanceNumber": [1, 2, 3, 4, 5, 6, 7, 8, 9, 10, 11, 12, 13, 14, 15, 16, 17, 18, 19, 20, 21, 22, 23, 24, 25, 26, 27, 28, 29, 30, 31, 32, 33, 34, 35, 36, 37, 38, 39, 40, 41, 42, 43, 44, 45, 46, 47, 48, 49, 50, 51, 52, 53, 54, 55, 56, 57, 58, 59, 60, 61, 62, 63, 64, 65, 66, 67, 68, 69, 70, 71, 72, 73, 74, 75, 76, 77, 78, 79, 80, 81, 82, 83, 84, 85, 86, 87, 88, 89, 90, 91, 92, 93, 94, 95, 96, 97, 98, 99, 100, 101, 102, 103, 104, 105, 106, 107, 108, 109, 110, 111, 112, 113, 114, 115, 116, 117, 118, 119, 120, 121, 122, 123, 124, 125, 126, 127, 128, 129, 130, 131, 132, 133, 134, 135, 136, 137, 138, 139, 140, 141, 142, 143, 144, 145, 146, 147, 148, 149, 150, 151, 152, 153, 154, 155, 156, 157, 158, 159, 160, 161, 162, 163, 164, 165, 166, 167, 168, 169, 170, 171, 172, 173, 174, 175, 176, 177, 178, 179, 180, 181, 182, 183, 184, 185, 186, 187, 188, 189, 190],
      "LargestImagePixelValue": [43413, 42196, 41786, 41635, 41111, 40892, 41096, 41039, 40877, 41164, 41080, 41023, 41078, 40943, 41084, 40398, 40345, 40898, 40472, 42036, 40158, 40211, 41161, 40617, 40771, 41187, 41407, 40840, 40252, 42473, 40653, 41733, 41406, 40973, 40488, 40055, 40924, 41347, 40587, 41027, 40775, 40401, 41153, 40770, 40365, 40629, 42697, 40067, 40926, 41832, 41132, 40270, 41025, 42139, 40817, 41340, 41443, 41185, 40820, 41404, 40485, 41011, 41337, 41024, 42085, 41069, 40895, 40498, 41124, 41030, 40911, 40523, 41053, 40476, 40592, 40906, 42173, 40805, 40641, 40474, 40403, 40649, 40585, 41591, 40825, 41254, 40711, 40466, 40197, 41123, 40474, 40267, 41354, 40440, 40317, 41171, 40186, 40410, 42199, 40285, 40697, 41198, 40344, 41661, 41105, 43100, 41060, 42478, 41783, 40712, 40828, 40495, 41618, 41543, 40768, 41675, 41214, 41280, 40530, 41436, 40971, 40694, 40401, 40752, 40893, 41196, 41084, 41318, 41192, 40694, 41092, 40683, 40810, 41274, 41299, 41439, 41471, 41725, 41131, 40977, 40841, 41394, 40384, 41298, 41051, 41016, 40786, 40800, 40977, 41841, 41173, 41003, 41163, 41349, 41455, 41171, 41286, 41603, 41443, 41790, 41066, 41225, 42318, 40956, 41244, 42264, 40996, 41285, 42092, 41912, 41627, 40978, 40405, 41110, 41984, 41411, 41032, 41557, 40406, 40990, 41710, 41201, 41077, 41419, 40939, 41104, 41279, 41155, 41361, 41452],
      "WindowCenter": [10761.0, 10719.0, 10711.0, 10747.0, 10725.0, 10729.0, 10711.0, 10681.0, 10651.0, 10655.0, 10668.0, 10688.0, 10669.0, 10657.0, 10675.0, 10662.0, 10664.0, 10706.0, 10742.0, 10765.0, 10700.0, 10680.0, 10686.0, 10669.0, 10639.0, 10665.0, 10698.0, 10723.0, 10706.0, 10714.0, 10665.0, 10643.0, 10620.0, 10649.0, 10693.0, 10723.0, 10735.0, 10714.0, 10663.0, 10629.0, 10635.0, 10682.0, 10728.0, 10696.0, 10708.0, 10725.0, 10748.0, 10695.0, 10704.0, 10689.0, 10656.0, 10656.0, 10681.0, 10705.0, 10695.0, 10679.0, 10675.0, 10673.0, 10671.0, 10670.0, 10675.0, 10682.0, 10686.0, 10700.0, 10722.0, 10723.0, 10716.0, 10676.0, 10654.0, 10653.0, 10695.0, 10708.0, 10731.0, 10712.0, 10684.0, 10675.0, 10702.0, 10670.0, 10657.0, 10687.0, 10721.0, 10729.0, 10713.0, 10704.0, 10680.0, 10633.0, 10620.0, 10637.0, 10679.0, 10720.0, 10711.0, 10692.0, 10710.0, 10695.0, 10710.0, 10714.0, 10687.0, 10666.0, 10675.0, 10655.0, 10648.0, 10642.0, 10638.0, 10674.0, 10676.0, 10709.0, 10705.0, 10720.0, 10672.0, 10619.0, 10629.0, 10673.0, 10699.0, 10691.0, 10653.0, 10673.0, 10685.0, 10695.0, 10677.0, 10675.0, 10670.0, 10677.0, 10675.0, 10680.0, 10670.0, 10673.0, 10685.0, 10675.0, 10689.0, 10707.0, 10727.0, 10713.0, 10690.0, 10648.0, 10643.0, 10655.0, 10672.0, 10698.0, 10684.0, 10688.0, 10704.0, 10684.0, 10664.0, 10681.0, 10712.0, 10721.0, 10710.0, 10701.0, 10670.0, 10642.0, 10631.0, 10659.0, 10700.0, 10708.0, 10708.0, 10693.0, 10684.0, 10676.0, 10668.0, 10694.0, 10694.0, 10701.0, 10723.0, 10704.0, 10701.0, 10707.0, 10675.0, 10655.0, 10643.0, 10635.0, 10671.0, 10708.0, 10733.0, 10741.0, 10710.0, 10681.0, 10667.0, 10650.0, 10667.0, 10684.0, 10668.0, 10678.0, 10703.0, 10714.0, 10688.0, 10676.0, 10640.0, 10624.0, 10668.0, 10698.0],
      "WindowWidth": [23144.0, 23018.0, 22983.0, 23056.0, 22999.0, 23004.0, 22959.0, 22887.0, 22819.0, 22825.0, 22860.0, 22907.0, 22868.0, 22839.0, 22876.0, 22855.0, 22854.0, 22941.0, 23035.0, 23073.0, 22938.0, 22891.0, 22901.0, 22863.0, 22798.0, 22850.0, 22922.0, 22983.0, 22951.0, 22956.0, 22858.0, 22803.0, 22748.0, 22817.0, 22916.0, 22989.0, 23014.0, 22959.0, 22848.0, 22770.0, 22783.0, 22893.0, 22996.0, 22926.0, 22949.0, 22988.0, 23029.0, 22924.0, 22939.0, 22908.0, 22834.0, 22834.0, 22886.0, 22934.0, 22914.0, 22879.0, 22868.0, 22865.0, 22864.0, 22859.0, 22874.0, 22890.0, 22895.0, 22930.0, 22971.0, 22979.0, 22967.0, 22883.0, 22825.0, 22821.0, 22914.0, 22949.0, 22999.0, 22958.0, 22896.0, 22869.0, 22923.0, 22862.0, 22832.0, 22902.0, 22980.0, 22997.0, 22962.0, 22936.0, 22885.0, 22784.0, 22751.0, 22789.0, 22892.0, 22973.0, 22960.0, 22918.0, 22951.0, 22926.0, 22953.0, 22957.0, 22906.0, 22855.0, 22864.0, 22833.0, 22813.0, 22797.0, 22791.0, 22867.0, 22873.0, 22941.0, 22936.0, 22964.0, 22862.0, 22749.0, 22761.0, 22863.0, 22924.0, 22904.0, 22822.0, 22858.0, 22888.0, 22913.0, 22877.0, 22870.0, 22861.0, 22873.0, 22872.0, 22883.0, 22864.0, 22864.0, 22892.0, 22873.0, 22902.0, 22949.0, 22991.0, 22961.0, 22907.0, 22809.0, 22795.0, 22824.0, 22860.0, 22918.0, 22889.0, 22907.0, 22933.0, 22887.0, 22851.0, 22882.0, 22952.0, 22971.0, 22953.0, 22935.0, 22859.0, 22789.0, 22766.0, 22829.0, 22923.0, 22941.0, 22941.0, 22905.0, 22886.0, 22867.0, 22847.0, 22906.0, 22912.0, 22928.0, 22980.0, 22934.0, 22926.0, 22936.0, 22870.0, 22825.0, 22795.0, 22773.0, 22855.0, 22942.0, 22999.0, 23014.0, 22942.0, 22874.0, 22848.0, 22812.0, 22853.0, 22889.0, 22850.0, 22871.0, 22927.0, 22953.0, 22898.0, 22868.0, 22791.0, 22751.0, 22852.0, 22923.0]
    },
    "slices": {}
  }
}