{
  "AcquisitionMatrixPE": 104,
  "AcquisitionNumber": 1,
  "AcquisitionTime": "11:09:18.430000",
  "BandwidthPerPixelPhaseEncode": 17.17,
  "BaseResolution": 104,
  "BodyPartExamined": "BRAIN",
  "CoilString": "HC1-7;NC1_2",
  "ConsistencyInfo": "N4_VE11C_LATEST_20160120",
  "ConversionSoftware": "dcm2niix",
  "ConversionSoftwareVersion": "v1.0.20190902",
  "DerivedVendorReportedEchoSpacing": 0.000560011,
  "DeviceSerialNumber": "167006",
  "DwellTime": 2.1e-06,
  "EchoTime": 0.037,
  "EchoTrainLength": 104,
  "EffectiveEchoSpacing": 0.000560011,
  "FlipAngle": 52,
  "HeudiconvVersion": "0.10.0",
  "ImageComments": "Unaliased_MB4_PE3_LB",
  "ImageOrientationPatientDICOM": [0.999768, 0.00557359, 0.0208105, 0.00523482, 0.87416, -0.48561],
  "ImageType": [
    "ORIGINAL",
    "PRIMARY",
    "P",
    "MB",
    "ND",
    "MOSAIC"
],
  "ImagingFrequency": 123.259,
  "InPlanePhaseEncodingDirectionDICOM": "COL",
  "InstitutionAddress": "Chemin_Queen-Mary_4565_Montreal_District_CA_H3W_1W5",
  "InstitutionName": "IUGM",
  "InstitutionalDepartmentName": "Department",
  "MRAcquisitionType": "2D",
  "MagneticFieldStrength": 3,
  "Manufacturer": "Siemens",
  "ManufacturersModelName": "Prisma_fit",
  "Modality": "MR",
  "MultibandAccelerationFactor": 4,
  "PartialFourier": 1,
  "PatientPosition": "HFS",
  "PercentPhaseFOV": 100,
  "PhaseEncodingDirection": "j",
  "PhaseEncodingSteps": 104,
  "PhaseResolution": 1,
  "PixelBandwidth": 2290,
  "ProcedureStepDescription": "memory_things",
  "ProtocolName": "func_task-things_run-5",
  "PulseSequenceDetails": "%CustomerSeq%_cmrr_mbep2d_bold",
  "ReceiveCoilActiveElements": "HC1-7;NC1,2",
  "ReceiveCoilName": "HeadNeck_64",
  "ReconMatrixPE": 104,
  "RepetitionTime": 1.49,
  "SAR": 0.0373733,
  "ScanOptions": "FS",
  "ScanningSequence": "EP",
  "SequenceName": "epfid2d1_104",
  "SequenceVariant": "SK_SS",
  "SeriesDescription": "func_task-things_run-5",
  "SeriesNumber": 23,
  "ShimSetting": [621, -7197, -8861, 287, 19, -142, -1, -16],
  "SliceThickness": 2,
  "SliceTiming": [0, 0.785, 0.0975, 0.8825, 0.1975, 0.98, 0.295, 1.0775, 0.3925, 1.1775, 0.49, 1.275, 0.5875, 1.3725, 0.6875, 0, 0.785, 0.0975, 0.8825, 0.1975, 0.98, 0.295, 1.0775, 0.3925, 1.1775, 0.49, 1.275, 0.5875, 1.3725, 0.6875, 0, 0.785, 0.0975, 0.8825, 0.1975, 0.98, 0.295, 1.0775, 0.3925, 1.1775, 0.49, 1.275, 0.5875, 1.3725, 0.6875, 0, 0.785, 0.0975, 0.8825, 0.1975, 0.98, 0.295, 1.0775, 0.3925, 1.1775, 0.49, 1.275, 0.5875, 1.3725, 0.6875],
  "SoftwareVersions": "syngo_MR_E11",
  "SpacingBetweenSlices": 2,
  "StationName": "MRC35049",
  "TaskName": "things",
  "TotalReadoutTime": 0.0576811,
  "TxRefAmp": 245.081,
  "WipMemBlock": "9e22a42f-3705-4ba9-baf7-a4098f06df3f||Sequence: R016 ve11c/master r/e634e98; Dec 19 2017 11:00:25 by eja",
  "dcmmeta_affine": [
    [-1.9995357990264893, 0.010469632223248482, 0.041796643286943436, 105.138916015625],
    [-0.011147186160087585, 1.7483192682266235, -0.9712134003639221, -52.986488342285156],
    [0.04162106290459633, 0.9712209105491638, 1.7478550672531128, -91.65254974365234],
    [0.0, 0.0, 0.0, 1.0]
],
  "dcmmeta_reorient_transform": [
    [0.0, -1.0, 0.0, 103.0],
    [1.0, 0.0, 0.0, 0.0],
    [0.0, 0.0, 1.0, 0.0],
    [0.0, 0.0, 0.0, 1.0]
],
  "dcmmeta_shape": [104, 104, 60, 190],
  "dcmmeta_slice_dim": 2,
  "dcmmeta_version": 0.6,
  "global": {
    "const": {
      "AcquisitionMatrix": [104, 0, 0, 104],
      "AngioFlag": "N",
      "BitsAllocated": 16,
      "BitsStored": 16,
      "BodyPartExamined": "BRAIN",
      "Columns": 832,
      "EchoNumbers": 1,
      "EchoTime": 37.0,
      "EchoTrainLength": 104,
      "FlipAngle": 52.0,
      "HighBit": 15,
      "ImageOrientationPatient": [0.99976790149946, 0.00557359327584, 0.02081053073243, 0.00523481632798, 0.87415963559204, -0.4856104696149],
      "ImagePositionPatient": [-837.8592672196, -767.53618713463, 346.75755931257],
      "ImageType": [
        "ORIGINAL",
        "PRIMARY",
        "P",
        "MB",
        "ND",
        "MOSAIC"
],
      "ImagedNucleus": "1H",
      "ImagingFrequency": 123.259085,
      "InPlanePhaseEncodingDirection": "COL",
      "LargestImagePixelValue": 4095,
      "MRAcquisitionType": "2D",
      "MagneticFieldStrength": 3.0,
      "Manufacturer": "SIEMENS",
      "ManufacturerModelName": "Prisma_fit",
      "Modality": "MR",
      "NumberOfAverages": 1.0,
      "NumberOfPhaseEncodingSteps": 104,
      "PercentPhaseFieldOfView": 100.0,
      "PercentSampling": 100.0,
      "PerformedProcedureStepStartTime": "101148.406000",
      "PhotometricInterpretation": "MONOCHROME2",
      "PixelBandwidth": 2290.0,
      "PixelRepresentation": 0,
      "PixelSpacing": [2.0, 2.0],
      "ProtocolName": "func_task-things_run-5",
      "RepetitionTime": 1490.0,
      "RescaleIntercept": -4096.0,
      "RescaleSlope": 2.0,
      "RescaleType": "US",
      "Rows": 832,
      "SAR": 0.0373732527659,
      "SamplesPerPixel": 1,
      "ScanOptions": "FS",
      "ScanningSequence": "EP",
      "SequenceName": "epfid2d1_104",
      "SequenceVariant": [
        "SK",
        "SS"
],
      "SeriesDescription": "func_task-things_run-5",
      "SeriesNumber": 23,
      "SeriesTime": "111041.188000",
      "SliceLocation": -52.169872058464,
      "SliceThickness": 2.0,
      "SmallestImagePixelValue": 0,
      "SoftwareVersions": "syngo MR E11",
      "SpacingBetweenSlices": 1.9999999854257,
      "SpecificCharacterSet": "ISO_IR 100",
      "StudyID": "1",
      "StudyTime": "101148.328000",
      "TransmitCoilName": "Body",
      "VariableFlipAngleFlag": "N",
      "WindowCenterWidthExplanation": "Algo1",
      "dBdt": 0.0},
    "slices": {}
  },
  "time": {
    "samples": {
      "AcquisitionNumber": [1, 2, 3, 4, 5, 6, 7, 8, 9, 10, 11, 12, 13, 14, 15, 16, 17, 18, 19, 20, 21, 22, 23, 24, 25, 26, 27, 28, 29, 30, 31, 32, 33, 34, 35, 36, 37, 38, 39, 40, 41, 42, 43, 44, 45, 46, 47, 48, 49, 50, 51, 52, 53, 54, 55, 56, 57, 58, 59, 60, 61, 62, 63, 64, 65, 66, 67, 68, 69, 70, 71, 72, 73, 74, 75, 76, 77, 78, 79, 80, 81, 82, 83, 84, 85, 86, 87, 88, 89, 90, 91, 92, 93, 94, 95, 96, 97, 98, 99, 100, 101, 102, 103, 104, 105, 106, 107, 108, 109, 110, 111, 112, 113, 114, 115, 116, 117, 118, 119, 120, 121, 122, 123, 124, 125, 126, 127, 128, 129, 130, 131, 132, 133, 134, 135, 136, 137, 138, 139, 140, 141, 142, 143, 144, 145, 146, 147, 148, 149, 150, 151, 152, 153, 154, 155, 156, 157, 158, 159, 160, 161, 162, 163, 164, 165, 166, 167, 168, 169, 170, 171, 172, 173, 174, 175, 176, 177, 178, 179, 180, 181, 182, 183, 184, 185, 186, 187, 188, 189, 190],
      "AcquisitionTime": ["110918.430000", "110919.920000", "110921.410000", "110922.900000", "110924.390000", "110925.880000", "110927.370000", "110928.860000", "110930.350000", "110931.840000", "110933.330000", "110934.820000", "110936.310000", "110937.800000", "110939.290000", "110940.780000", "110942.270000", "110943.760000", "110945.250000", "110946.740000", "110948.230000", "110949.720000", "110951.210000", "110952.700000", "110954.190000", "110955.680000", "110957.170000", "110958.660000", "111000.150000", "111001.640000", "111003.130000", "111004.620000", "111006.110000", "111007.600000", "111009.090000", "111010.580000", "111012.070000", "111013.560000", "111015.050000", "111016.540000", "111018.030000", "111019.520000", "111021.010000", "111022.500000", "111023.990000", "111025.480000", "111026.970000", "111028.460000", "111029.950000", "111031.440000", "111032.930000", "111034.420000", "111035.910000", "111037.400000", "111038.890000", "111040.380000", "111041.870000", "111043.360000", "111044.850000", "111046.340000", "111047.830000", "111049.320000", "111050.810000", "111052.300000", "111053.790000", "111055.280000", "111056.770000", "111058.260000", "111059.750000", "111101.240000", "111102.730000", "111104.220000", "111105.710000", "111107.200000", "111108.690000", "111110.180000", "111111.670000", "111113.160000", "111114.650000", "111116.140000", "111117.630000", "111119.120000", "111120.610000", "111122.100000", "111123.590000", "111125.080000", "111126.570000", "111128.060000", "111129.550000", "111131.040000", "111132.530000", "111134.020000", "111135.510000", "111137.000000", "111138.490000", "111139.980000", "111141.470000", "111142.960000", "111144.450000", "111145.940000", "111147.430000", "111148.920000", "111150.410000", "111151.900000", "111153.390000", "111154.880000", "111156.370000", "111157.860000", "111159.350000", "111200.840000", "111202.330000", "111203.820000", "111205.310000", "111206.800000", "111208.290000", "111209.780000", "111211.270000", "111212.760000", "111214.250000", "111215.740000", "111217.230000", "111218.720000", "111220.210000", "111221.700000", "111223.190000", "111224.680000", "111226.170000", "111227.660000", "111229.150000", "111230.640000", "111232.130000", "111233.620000", "111235.110000", "111236.600000", "111238.090000", "111239.580000", "111241.070000", "111242.560000", "111244.050000", "111245.540000", "111247.030000", "111248.520000", "111250.010000", "111251.500000", "111252.990000", "111254.480000", "111255.970000", "111257.460000", "111258.950000", "111300.440000", "111301.930000", "111303.420000", "111304.910000", "111306.400000", "111307.890000", "111309.380000", "111310.870000", "111312.360000", "111313.850000", "111315.340000", "111316.830000", "111318.320000", "111319.810000", "111321.300000", "111322.790000", "111324.280000", "111325.770000", "111327.260000", "111328.750000", "111330.240000", "111331.730000", "111333.220000", "111334.710000", "111336.200000", "111337.690000", "111339.180000", "111340.670000", "111342.160000", "111343.650000", "111345.140000", "111346.630000", "111348.120000", "111349.610000", "111351.100000", "111352.590000", "111354.080000", "111355.570000", "111357.060000", "111358.550000", "111400.040000"],
      "ContentTime": ["111041.190000", "111041.193000", "111041.195000", "111041.198000", "111041.200000", "111041.203000", "111041.205000", "111041.208000", "111041.210000", "111041.216000", "111041.219000", "111041.221000", "111041.224000", "111041.226000", "111041.229000", "111041.231000", "111041.234000", "111041.236000", "111041.239000", "111041.241000", "111041.244000", "111041.246000", "111041.249000", "111041.251000", "111041.253000", "111041.256000", "111041.258000", "111041.261000", "111041.263000", "111041.266000", "111101.153000", "111101.156000", "111101.159000", "111101.161000", "111101.163000", "111101.166000", "111101.168000", "111101.171000", "111101.173000", "111101.176000", "111101.178000", "111101.181000", "111101.183000", "111101.186000", "111101.188000", "111101.191000", "111101.193000", "111101.196000", "111101.199000", "111101.201000", "111121.118000", "111121.120000", "111121.123000", "111121.126000", "111121.128000", "111121.131000", "111121.133000", "111121.137000", "111121.139000", "111121.142000", "111121.144000", "111121.147000", "111121.150000", "111121.153000", "111121.155000", "111121.158000", "111121.160000", "111121.163000", "111121.165000", "111121.168000", "111141.123000", "111141.125000", "111141.128000", "111141.130000", "111141.133000", "111141.135000", "111141.138000", "111141.140000", "111141.143000", "111141.145000", "111141.148000", "111141.155000", "111141.158000", "111141.160000", "111141.163000", "111141.165000", "111141.168000", "111141.170000", "111141.173000", "111141.176000", "111141.178000", "111221.160000", "111221.162000", "111221.165000", "111221.167000", "111221.170000", "111221.172000", "111221.175000", "111221.177000", "111221.180000", "111221.182000", "111221.185000", "111221.187000", "111221.190000", "111221.192000", "111221.195000", "111221.197000", "111221.200000", "111221.202000", "111221.205000", "111221.208000", "111221.210000", "111221.213000", "111221.215000", "111221.218000", "111221.220000", "111221.223000", "111221.225000", "111221.228000", "111221.230000", "111221.233000", "111221.235000", "111301.145000", "111301.148000", "111301.150000", "111301.153000", "111301.155000", "111301.158000", "111301.160000", "111301.163000", "111301.165000", "111301.168000", "111301.170000", "111301.173000", "111301.175000", "111301.178000", "111301.180000", "111301.183000", "111301.185000", "111301.188000", "111301.190000", "111301.193000", "111301.195000", "111301.198000", "111301.200000", "111301.203000", "111301.206000", "111301.209000", "111301.211000", "111341.158000", "111341.161000", "111341.163000", "111341.166000", "111341.168000", "111341.171000", "111341.173000", "111341.176000", "111341.178000", "111341.181000", "111341.183000", "111341.186000", "111341.188000", "111341.191000", "111341.193000", "111341.196000", "111341.198000", "111341.201000", "111341.203000", "111341.206000", "111341.208000", "111341.211000", "111341.213000", "111341.216000", "111341.218000", "111341.221000", "111341.223000", "111402.001000", "111402.004000", "111402.007000", "111402.009000", "111402.012000", "111402.014000", "111402.017000", "111402.019000", "111402.022000", "111402.024000", "111402.027000", "111402.030000", "111402.032000", "111402.035000"],
      "InstanceCreationTime": ["111041.190000", "111041.193000", "111041.195000", "111041.198000", "111041.200000", "111041.203000", "111041.205000", "111041.208000", "111041.210000", "111041.216000", "111041.219000", "111041.221000", "111041.224000", "111041.226000", "111041.229000", "111041.231000", "111041.234000", "111041.236000", "111041.239000", "111041.241000", "111041.244000", "111041.246000", "111041.249000", "111041.251000", "111041.253000", "111041.256000", "111041.258000", "111041.261000", "111041.263000", "111041.266000", "111101.153000", "111101.156000", "111101.159000", "111101.161000", "111101.163000", "111101.166000", "111101.168000", "111101.171000", "111101.173000", "111101.176000", "111101.178000", "111101.181000", "111101.183000", "111101.186000", "111101.188000", "111101.191000", "111101.193000", "111101.196000", "111101.199000", "111101.201000", "111121.118000", "111121.120000", "111121.123000", "111121.126000", "111121.128000", "111121.131000", "111121.133000", "111121.137000", "111121.139000", "111121.142000", "111121.144000", "111121.147000", "111121.150000", "111121.153000", "111121.155000", "111121.158000", "111121.160000", "111121.163000", "111121.165000", "111121.168000", "111141.123000", "111141.125000", "111141.128000", "111141.130000", "111141.133000", "111141.135000", "111141.138000", "111141.140000", "111141.143000", "111141.145000", "111141.148000", "111141.155000", "111141.158000", "111141.160000", "111141.163000", "111141.165000", "111141.168000", "111141.170000", "111141.173000", "111141.176000", "111141.178000", "111221.160000", "111221.162000", "111221.165000", "111221.167000", "111221.170000", "111221.172000", "111221.175000", "111221.177000", "111221.180000", "111221.182000", "111221.185000", "111221.187000", "111221.190000", "111221.192000", "111221.195000", "111221.197000", "111221.200000", "111221.202000", "111221.205000", "111221.208000", "111221.210000", "111221.213000", "111221.215000", "111221.218000", "111221.220000", "111221.223000", "111221.225000", "111221.228000", "111221.230000", "111221.233000", "111221.235000", "111301.145000", "111301.148000", "111301.150000", "111301.153000", "111301.155000", "111301.158000", "111301.160000", "111301.163000", "111301.165000", "111301.168000", "111301.170000", "111301.173000", "111301.175000", "111301.178000", "111301.180000", "111301.183000", "111301.185000", "111301.188000", "111301.190000", "111301.193000", "111301.195000", "111301.198000", "111301.200000", "111301.203000", "111301.206000", "111301.209000", "111301.211000", "111341.158000", "111341.161000", "111341.163000", "111341.166000", "111341.168000", "111341.171000", "111341.173000", "111341.176000", "111341.178000", "111341.181000", "111341.183000", "111341.186000", "111341.188000", "111341.191000", "111341.193000", "111341.196000", "111341.198000", "111341.201000", "111341.203000", "111341.206000", "111341.208000", "111341.211000", "111341.213000", "111341.216000", "111341.218000", "111341.221000", "111341.223000", "111402.001000", "111402.004000", "111402.007000", "111402.009000", "111402.012000", "111402.014000", "111402.017000", "111402.019000", "111402.022000", "111402.024000", "111402.027000", "111402.030000", "111402.032000", "111402.035000"],
      "InstanceNumber": [1, 2, 3, 4, 5, 6, 7, 8, 9, 10, 11, 12, 13, 14, 15, 16, 17, 18, 19, 20, 21, 22, 23, 24, 25, 26, 27, 28, 29, 30, 31, 32, 33, 34, 35, 36, 37, 38, 39, 40, 41, 42, 43, 44, 45, 46, 47, 48, 49, 50, 51, 52, 53, 54, 55, 56, 57, 58, 59, 60, 61, 62, 63, 64, 65, 66, 67, 68, 69, 70, 71, 72, 73, 74, 75, 76, 77, 78, 79, 80, 81, 82, 83, 84, 85, 86, 87, 88, 89, 90, 91, 92, 93, 94, 95, 96, 97, 98, 99, 100, 101, 102, 103, 104, 105, 106, 107, 108, 109, 110, 111, 112, 113, 114, 115, 116, 117, 118, 119, 120, 121, 122, 123, 124, 125, 126, 127, 128, 129, 130, 131, 132, 133, 134, 135, 136, 137, 138, 139, 140, 141, 142, 143, 144, 145, 146, 147, 148, 149, 150, 151, 152, 153, 154, 155, 156, 157, 158, 159, 160, 161, 162, 163, 164, 165, 166, 167, 168, 169, 170, 171, 172, 173, 174, 175, 176, 177, 178, 179, 180, 181, 182, 183, 184, 185, 186, 187, 188, 189, 190],
      "WindowCenter": [4876.0, 4854.0, 4850.0, 4856.0, 4848.0, 4874.0, 4870.0, 4868.0, 4868.0, 4868.0, 4866.0, 4824.0, 4868.0, 4852.0, 4854.0, 4858.0, 4856.0, 4850.0, 4848.0, 4866.0, 4862.0, 4860.0, 4868.0, 4872.0, 4872.0, 4852.0, 4856.0, 4876.0, 4856.0, 4862.0, 4858.0, 4852.0, 4874.0, 4870.0, 4864.0, 4862.0, 4864.0, 4872.0, 4850.0, 4852.0, 4852.0, 4852.0, 4848.0, 4892.0, 4858.0, 4866.0, 4874.0, 4874.0, 4876.0, 4872.0, 4876.0, 4876.0, 4872.0, 4872.0, 4874.0, 4872.0, 4868.0, 4870.0, 4874.0, 4872.0, 4870.0, 4872.0, 4876.0, 4874.0, 4872.0, 4874.0, 4872.0, 4876.0, 4874.0, 4872.0, 4868.0, 4872.0, 4874.0, 4896.0, 4874.0, 4848.0, 4874.0, 4874.0, 4850.0, 4874.0, 4870.0, 4870.0, 4870.0, 4870.0, 4872.0, 4872.0, 4874.0, 4848.0, 4876.0, 4874.0, 4850.0, 4874.0, 4874.0, 4848.0, 4874.0, 4868.0, 4850.0, 4878.0, 4890.0, 4876.0, 4846.0, 4874.0, 4850.0, 4850.0, 4872.0, 4872.0, 4850.0, 4874.0, 4870.0, 4872.0, 4874.0, 4876.0, 4892.0, 4890.0, 4852.0, 4852.0, 4876.0, 4900.0, 4876.0, 4852.0, 4852.0, 4850.0, 4874.0, 4874.0, 4874.0, 4866.0, 4872.0, 4874.0, 4872.0, 4872.0, 4874.0, 4852.0, 4874.0, 4850.0, 4894.0, 4872.0, 4876.0, 4886.0, 4888.0, 4876.0, 4876.0, 4848.0, 4850.0, 4852.0, 4872.0, 4870.0, 4862.0, 4866.0, 4864.0, 4866.0, 4874.0, 4876.0, 4876.0, 4854.0, 4876.0, 4876.0, 4874.0, 4866.0, 4862.0, 4870.0, 4872.0, 4894.0, 4892.0, 4876.0, 4856.0, 4854.0, 4854.0, 4874.0, 4874.0, 4868.0, 4860.0, 4866.0, 4872.0, 4874.0, 4874.0, 4876.0, 4876.0, 4874.0, 4876.0, 4872.0, 4870.0, 4868.0, 4868.0, 4872.0, 4876.0, 4850.0, 4878.0, 4876.0, 4870.0, 4874.0],
      "WindowWidth": [18664.0, 18614.0, 18602.0, 18612.0, 18614.0, 18664.0, 18674.0, 18680.0, 18680.0, 18678.0, 18688.0, 18670.0, 18684.0, 18612.0, 18616.0, 18624.0, 18616.0, 18614.0, 18638.0, 18678.0, 18682.0, 18680.0, 18682.0, 18672.0, 18666.0, 18694.0, 18704.0, 18668.0, 18612.0, 18616.0, 18620.0, 18610.0, 18666.0, 18682.0, 18680.0, 18682.0, 18676.0, 18672.0, 18628.0, 18618.0, 18616.0, 18618.0, 18626.0, 18724.0, 18702.0, 18692.0, 18666.0, 18658.0, 18644.0, 18640.0, 18652.0, 18650.0, 18660.0, 18674.0, 18674.0, 18670.0, 18682.0, 18676.0, 18666.0, 18660.0, 18656.0, 18652.0, 18668.0, 18660.0, 18662.0, 18676.0, 18664.0, 18668.0, 18662.0, 18668.0, 18686.0, 18674.0, 18668.0, 18712.0, 18656.0, 18620.0, 18652.0, 18650.0, 18620.0, 18668.0, 18676.0, 18672.0, 18682.0, 18674.0, 18656.0, 18668.0, 18656.0, 18620.0, 18668.0, 18656.0, 18622.0, 18672.0, 18668.0, 18630.0, 18676.0, 18664.0, 18628.0, 18682.0, 18710.0, 18668.0, 18614.0, 18648.0, 18612.0, 18614.0, 18662.0, 18664.0, 18636.0, 18678.0, 18680.0, 18668.0, 18662.0, 18666.0, 18722.0, 18716.0, 18628.0, 18618.0, 18674.0, 18702.0, 18652.0, 18610.0, 18616.0, 18620.0, 18670.0, 18674.0, 18676.0, 18684.0, 18674.0, 18666.0, 18676.0, 18666.0, 18650.0, 18618.0, 18652.0, 18622.0, 18708.0, 18672.0, 18674.0, 18722.0, 18714.0, 18658.0, 18650.0, 18606.0, 18612.0, 18618.0, 18658.0, 18688.0, 18700.0, 18684.0, 18688.0, 18676.0, 18654.0, 18648.0, 18644.0, 18612.0, 18662.0, 18670.0, 18666.0, 18682.0, 18698.0, 18680.0, 18660.0, 18718.0, 18722.0, 18666.0, 18610.0, 18606.0, 18612.0, 18648.0, 18654.0, 18690.0, 18696.0, 18688.0, 18676.0, 18668.0, 18654.0, 18652.0, 18650.0, 18652.0, 18664.0, 18670.0, 18670.0, 18686.0, 18680.0, 18660.0, 18660.0, 18620.0, 18648.0, 18662.0, 18654.0, 18670.0]
    },
    "slices": {}
  }
}