{
  "AcquisitionMatrixPE": 104,
  "AcquisitionNumber": 1,
  "AcquisitionTime": "11:09:18.430000",
  "BandwidthPerPixelPhaseEncode": 17.17,
  "BaseResolution": 104,
  "BodyPartExamined": "BRAIN",
  "CoilString": "HC1-7;NC1_2",
  "ConsistencyInfo": "N4_VE11C_LATEST_20160120",
  "ConversionSoftware": "dcm2niix",
  "ConversionSoftwareVersion": "v1.0.20190902",
  "DerivedVendorReportedEchoSpacing": 0.000560011,
  "DeviceSerialNumber": "167006",
  "DwellTime": 2.1e-06,
  "EchoTime": 0.037,
  "EchoTrainLength": 104,
  "EffectiveEchoSpacing": 0.000560011,
  "FlipAngle": 52,
  "HeudiconvVersion": "0.10.0",
  "ImageComments": "Unaliased_MB4_PE3_LB",
  "ImageOrientationPatientDICOM": [0.999768, 0.00557359, 0.0208105, 0.00523482, 0.87416, -0.48561],
  "ImageType": [
    "ORIGINAL",
    "PRIMARY",
    "M",
    "MB",
    "ND",
    "MOSAIC"
],
  "ImagingFrequency": 123.259,
  "InPlanePhaseEncodingDirectionDICOM": "COL",
  "InstitutionAddress": "Chemin_Queen-Mary_4565_Montreal_District_CA_H3W_1W5",
  "InstitutionName": "IUGM",
  "InstitutionalDepartmentName": "Department",
  "MRAcquisitionType": "2D",
  "MagneticFieldStrength": 3,
  "Manufacturer": "Siemens",
  "ManufacturersModelName": "Prisma_fit",
  "Modality": "MR",
  "MultibandAccelerationFactor": 4,
  "PartialFourier": 1,
  "PatientPosition": "HFS",
  "PercentPhaseFOV": 100,
  "PhaseEncodingDirection": "j",
  "PhaseEncodingSteps": 104,
  "PhaseResolution": 1,
  "PixelBandwidth": 2290,
  "ProcedureStepDescription": "memory_things",
  "ProtocolName": "func_task-things_run-5",
  "PulseSequenceDetails": "%CustomerSeq%_cmrr_mbep2d_bold",
  "ReceiveCoilActiveElements": "HC1-7;NC1,2",
  "ReceiveCoilName": "HeadNeck_64",
  "ReconMatrixPE": 104,
  "RepetitionTime": 1.49,
  "SAR": 0.0373733,
  "ScanOptions": "FS",
  "ScanningSequence": "EP",
  "SequenceName": "epfid2d1_104",
  "SequenceVariant": "SK_SS",
  "SeriesDescription": "func_task-things_run-5",
  "SeriesNumber": 22,
  "ShimSetting": [621, -7197, -8861, 287, 19, -142, -1, -16],
  "SliceThickness": 2,
  "SliceTiming": [0, 0.785, 0.0975, 0.8825, 0.1975, 0.98, 0.295, 1.0775, 0.3925, 1.1775, 0.49, 1.275, 0.5875, 1.3725, 0.6875, 0, 0.785, 0.0975, 0.8825, 0.1975, 0.98, 0.295, 1.0775, 0.3925, 1.1775, 0.49, 1.275, 0.5875, 1.3725, 0.6875, 0, 0.785, 0.0975, 0.8825, 0.1975, 0.98, 0.295, 1.0775, 0.3925, 1.1775, 0.49, 1.275, 0.5875, 1.3725, 0.6875, 0, 0.785, 0.0975, 0.8825, 0.1975, 0.98, 0.295, 1.0775, 0.3925, 1.1775, 0.49, 1.275, 0.5875, 1.3725, 0.6875],
  "SoftwareVersions": "syngo_MR_E11",
  "SpacingBetweenSlices": 2,
  "StationName": "MRC35049",
  "TaskName": "things",
  "TotalReadoutTime": 0.0576811,
  "TxRefAmp": 245.081,
  "WipMemBlock": "9e22a42f-3705-4ba9-baf7-a4098f06df3f||Sequence: R016 ve11c/master r/e634e98; Dec 19 2017 11:00:25 by eja",
  "dcmmeta_affine": [
    [-1.9995357990264893, 0.010469632223248482, 0.041796643286943436, 105.138916015625],
    [-0.011147186160087585, 1.7483192682266235, -0.9712134003639221, -52.986488342285156],
    [0.04162106290459633, 0.9712209105491638, 1.7478550672531128, -91.65254974365234],
    [0.0, 0.0, 0.0, 1.0]
],
  "dcmmeta_reorient_transform": [
    [0.0, -1.0, 0.0, 103.0],
    [1.0, 0.0, 0.0, 0.0],
    [0.0, 0.0, 1.0, 0.0],
    [0.0, 0.0, 0.0, 1.0]
],
  "dcmmeta_shape": [104, 104, 60, 190],
  "dcmmeta_slice_dim": 2,
  "dcmmeta_version": 0.6,
  "global": {
    "const": {
      "AcquisitionMatrix": [104, 0, 0, 104],
      "AngioFlag": "N",
      "BitsAllocated": 16,
      "BitsStored": 16,
      "BodyPartExamined": "BRAIN",
      "Columns": 832,
      "EchoNumbers": 1,
      "EchoTime": 37.0,
      "EchoTrainLength": 104,
      "FlipAngle": 52.0,
      "HighBit": 15,
      "ImageOrientationPatient": [0.99976790149946, 0.00557359327584, 0.02081053073243, 0.00523481632798, 0.87415963559204, -0.4856104696149],
      "ImagePositionPatient": [-837.8592672196, -767.53618713463, 346.75755931257],
      "ImageType": [
        "ORIGINAL",
        "PRIMARY",
        "M",
        "MB",
        "ND",
        "MOSAIC"
],
      "ImagedNucleus": "1H",
      "ImagingFrequency": 123.259085,
      "InPlanePhaseEncodingDirection": "COL",
      "MRAcquisitionType": "2D",
      "MagneticFieldStrength": 3.0,
      "Manufacturer": "SIEMENS",
      "ManufacturerModelName": "Prisma_fit",
      "Modality": "MR",
      "NumberOfAverages": 1.0,
      "NumberOfPhaseEncodingSteps": 104,
      "PercentPhaseFieldOfView": 100.0,
      "PercentSampling": 100.0,
      "PerformedProcedureStepStartTime": "101148.406000",
      "PhotometricInterpretation": "MONOCHROME2",
      "PixelBandwidth": 2290.0,
      "PixelRepresentation": 0,
      "PixelSpacing": [2.0, 2.0],
      "ProtocolName": "func_task-things_run-5",
      "RepetitionTime": 1490.0,
      "Rows": 832,
      "SAR": 0.0373732527659,
      "SamplesPerPixel": 1,
      "ScanOptions": "FS",
      "ScanningSequence": "EP",
      "SequenceName": "epfid2d1_104",
      "SequenceVariant": [
        "SK",
        "SS"
],
      "SeriesDescription": "func_task-things_run-5",
      "SeriesNumber": 22,
      "SeriesTime": "111041.047000",
      "SliceLocation": -52.169872058464,
      "SliceThickness": 2.0,
      "SmallestImagePixelValue": 0,
      "SoftwareVersions": "syngo MR E11",
      "SpacingBetweenSlices": 1.9999999854257,
      "SpecificCharacterSet": "ISO_IR 100",
      "StudyID": "1",
      "StudyTime": "101148.328000",
      "TransmitCoilName": "Body",
      "VariableFlipAngleFlag": "N",
      "WindowCenterWidthExplanation": "Algo1",
      "dBdt": 0.0},
    "slices": {}
  },
  "time": {
    "samples": {
      "AcquisitionNumber": [1, 2, 3, 4, 5, 6, 7, 8, 9, 10, 11, 12, 13, 14, 15, 16, 17, 18, 19, 20, 21, 22, 23, 24, 25, 26, 27, 28, 29, 30, 31, 32, 33, 34, 35, 36, 37, 38, 39, 40, 41, 42, 43, 44, 45, 46, 47, 48, 49, 50, 51, 52, 53, 54, 55, 56, 57, 58, 59, 60, 61, 62, 63, 64, 65, 66, 67, 68, 69, 70, 71, 72, 73, 74, 75, 76, 77, 78, 79, 80, 81, 82, 83, 84, 85, 86, 87, 88, 89, 90, 91, 92, 93, 94, 95, 96, 97, 98, 99, 100, 101, 102, 103, 104, 105, 106, 107, 108, 109, 110, 111, 112, 113, 114, 115, 116, 117, 118, 119, 120, 121, 122, 123, 124, 125, 126, 127, 128, 129, 130, 131, 132, 133, 134, 135, 136, 137, 138, 139, 140, 141, 142, 143, 144, 145, 146, 147, 148, 149, 150, 151, 152, 153, 154, 155, 156, 157, 158, 159, 160, 161, 162, 163, 164, 165, 166, 167, 168, 169, 170, 171, 172, 173, 174, 175, 176, 177, 178, 179, 180, 181, 182, 183, 184, 185, 186, 187, 188, 189, 190],
      "AcquisitionTime": ["110918.430000", "110919.920000", "110921.410000", "110922.900000", "110924.390000", "110925.880000", "110927.370000", "110928.860000", "110930.350000", "110931.840000", "110933.330000", "110934.820000", "110936.310000", "110937.800000", "110939.290000", "110940.780000", "110942.270000", "110943.760000", "110945.250000", "110946.740000", "110948.230000", "110949.720000", "110951.210000", "110952.700000", "110954.190000", "110955.680000", "110957.170000", "110958.660000", "111000.150000", "111001.640000", "111003.130000", "111004.620000", "111006.110000", "111007.600000", "111009.090000", "111010.580000", "111012.070000", "111013.560000", "111015.050000", "111016.540000", "111018.030000", "111019.520000", "111021.010000", "111022.500000", "111023.990000", "111025.480000", "111026.970000", "111028.460000", "111029.950000", "111031.440000", "111032.930000", "111034.420000", "111035.910000", "111037.400000", "111038.890000", "111040.380000", "111041.870000", "111043.360000", "111044.850000", "111046.340000", "111047.830000", "111049.320000", "111050.810000", "111052.300000", "111053.790000", "111055.280000", "111056.770000", "111058.260000", "111059.750000", "111101.240000", "111102.730000", "111104.220000", "111105.710000", "111107.200000", "111108.690000", "111110.180000", "111111.670000", "111113.160000", "111114.650000", "111116.140000", "111117.630000", "111119.120000", "111120.610000", "111122.100000", "111123.590000", "111125.080000", "111126.570000", "111128.060000", "111129.550000", "111131.040000", "111132.530000", "111134.020000", "111135.510000", "111137.000000", "111138.490000", "111139.980000", "111141.470000", "111142.960000", "111144.450000", "111145.940000", "111147.430000", "111148.920000", "111150.410000", "111151.900000", "111153.390000", "111154.880000", "111156.370000", "111157.860000", "111159.350000", "111200.840000", "111202.330000", "111203.820000", "111205.310000", "111206.800000", "111208.290000", "111209.780000", "111211.270000", "111212.760000", "111214.250000", "111215.740000", "111217.230000", "111218.720000", "111220.210000", "111221.700000", "111223.190000", "111224.680000", "111226.170000", "111227.660000", "111229.150000", "111230.640000", "111232.130000", "111233.620000", "111235.110000", "111236.600000", "111238.090000", "111239.580000", "111241.070000", "111242.560000", "111244.050000", "111245.540000", "111247.030000", "111248.520000", "111250.010000", "111251.500000", "111252.990000", "111254.480000", "111255.970000", "111257.460000", "111258.950000", "111300.440000", "111301.930000", "111303.420000", "111304.910000", "111306.400000", "111307.890000", "111309.380000", "111310.870000", "111312.360000", "111313.850000", "111315.340000", "111316.830000", "111318.320000", "111319.810000", "111321.300000", "111322.790000", "111324.280000", "111325.770000", "111327.260000", "111328.750000", "111330.240000", "111331.730000", "111333.220000", "111334.710000", "111336.200000", "111337.690000", "111339.180000", "111340.670000", "111342.160000", "111343.650000", "111345.140000", "111346.630000", "111348.120000", "111349.610000", "111351.100000", "111352.590000", "111354.080000", "111355.570000", "111357.060000", "111358.550000", "111400.040000"],
      "ContentTime": ["111041.050000", "111041.053000", "111041.057000", "111041.060000", "111041.063000", "111041.066000", "111041.070000", "111041.073000", "111041.076000", "111041.079000", "111041.083000", "111041.086000", "111041.089000", "111041.092000", "111041.096000", "111041.099000", "111041.106000", "111041.109000", "111041.113000", "111041.116000", "111041.119000", "111041.122000", "111041.126000", "111041.129000", "111041.132000", "111041.135000", "111041.139000", "111041.142000", "111041.146000", "111041.149000", "111101.012000", "111101.016000", "111101.019000", "111101.022000", "111101.026000", "111101.029000", "111101.032000", "111101.035000", "111101.039000", "111101.058000", "111101.066000", "111101.070000", "111101.073000", "111101.076000", "111101.080000", "111101.083000", "111101.086000", "111101.090000", "111101.093000", "111101.096000", "111121.012000", "111121.016000", "111121.019000", "111121.022000", "111121.026000", "111121.029000", "111121.032000", "111121.035000", "111121.039000", "111121.042000", "111121.045000", "111121.049000", "111121.052000", "111121.055000", "111121.058000", "111121.062000", "111121.065000", "111121.068000", "111121.071000", "111121.075000", "111141.012000", "111141.016000", "111141.019000", "111141.022000", "111141.026000", "111141.029000", "111141.032000", "111141.035000", "111141.039000", "111141.042000", "111141.045000", "111141.048000", "111141.052000", "111141.055000", "111141.058000", "111141.062000", "111141.065000", "111141.068000", "111141.072000", "111141.075000", "111141.078000", "111221.012000", "111221.016000", "111221.019000", "111221.022000", "111221.026000", "111221.029000", "111221.032000", "111221.036000", "111221.039000", "111221.042000", "111221.046000", "111221.049000", "111221.052000", "111221.055000", "111221.059000", "111221.062000", "111221.065000", "111221.069000", "111221.072000", "111221.075000", "111221.079000", "111221.082000", "111221.085000", "111221.089000", "111221.092000", "111221.095000", "111221.098000", "111221.102000", "111221.105000", "111221.108000", "111221.112000", "111301.012000", "111301.016000", "111301.019000", "111301.023000", "111301.026000", "111301.029000", "111301.033000", "111301.036000", "111301.039000", "111301.043000", "111301.046000", "111301.049000", "111301.053000", "111301.056000", "111301.059000", "111301.069000", "111301.073000", "111301.076000", "111301.079000", "111301.082000", "111301.086000", "111301.089000", "111301.092000", "111301.096000", "111301.099000", "111301.102000", "111301.106000", "111341.012000", "111341.016000", "111341.019000", "111341.023000", "111341.026000", "111341.029000", "111341.033000", "111341.036000", "111341.039000", "111341.043000", "111341.046000", "111341.049000", "111341.052000", "111341.056000", "111341.059000", "111341.062000", "111341.066000", "111341.069000", "111341.072000", "111341.075000", "111341.079000", "111341.082000", "111341.085000", "111341.089000", "111341.092000", "111341.095000", "111341.099000", "111401.913000", "111401.916000", "111401.920000", "111401.923000", "111401.926000", "111401.930000", "111401.933000", "111401.937000", "111401.940000", "111401.944000", "111401.947000", "111401.951000", "111401.954000", "111401.957000"],
      "InstanceCreationTime": ["111041.050000", "111041.053000", "111041.057000", "111041.060000", "111041.063000", "111041.066000", "111041.070000", "111041.073000", "111041.076000", "111041.079000", "111041.083000", "111041.086000", "111041.089000", "111041.092000", "111041.096000", "111041.099000", "111041.106000", "111041.109000", "111041.113000", "111041.116000", "111041.119000", "111041.122000", "111041.126000", "111041.129000", "111041.132000", "111041.135000", "111041.139000", "111041.142000", "111041.146000", "111041.149000", "111101.012000", "111101.016000", "111101.019000", "111101.022000", "111101.026000", "111101.029000", "111101.032000", "111101.035000", "111101.039000", "111101.058000", "111101.066000", "111101.070000", "111101.073000", "111101.076000", "111101.080000", "111101.083000", "111101.086000", "111101.090000", "111101.093000", "111101.096000", "111121.012000", "111121.016000", "111121.019000", "111121.022000", "111121.026000", "111121.029000", "111121.032000", "111121.035000", "111121.039000", "111121.042000", "111121.045000", "111121.049000", "111121.052000", "111121.055000", "111121.058000", "111121.062000", "111121.065000", "111121.068000", "111121.071000", "111121.075000", "111141.012000", "111141.016000", "111141.019000", "111141.022000", "111141.026000", "111141.029000", "111141.032000", "111141.035000", "111141.039000", "111141.042000", "111141.045000", "111141.048000", "111141.052000", "111141.055000", "111141.058000", "111141.062000", "111141.065000", "111141.068000", "111141.072000", "111141.075000", "111141.078000", "111221.012000", "111221.016000", "111221.019000", "111221.022000", "111221.026000", "111221.029000", "111221.032000", "111221.036000", "111221.039000", "111221.042000", "111221.046000", "111221.049000", "111221.052000", "111221.055000", "111221.059000", "111221.062000", "111221.065000", "111221.069000", "111221.072000", "111221.075000", "111221.079000", "111221.082000", "111221.085000", "111221.089000", "111221.092000", "111221.095000", "111221.098000", "111221.102000", "111221.105000", "111221.108000", "111221.112000", "111301.012000", "111301.016000", "111301.019000", "111301.023000", "111301.026000", "111301.029000", "111301.033000", "111301.036000", "111301.039000", "111301.043000", "111301.046000", "111301.049000", "111301.053000", "111301.056000", "111301.059000", "111301.069000", "111301.073000", "111301.076000", "111301.079000", "111301.082000", "111301.086000", "111301.089000", "111301.092000", "111301.096000", "111301.099000", "111301.102000", "111301.106000", "111341.012000", "111341.016000", "111341.019000", "111341.023000", "111341.026000", "111341.029000", "111341.033000", "111341.036000", "111341.039000", "111341.043000", "111341.046000", "111341.049000", "111341.052000", "111341.056000", "111341.059000", "111341.062000", "111341.066000", "111341.069000", "111341.072000", "111341.075000", "111341.079000", "111341.082000", "111341.085000", "111341.089000", "111341.092000", "111341.095000", "111341.099000", "111401.913000", "111401.916000", "111401.920000", "111401.923000", "111401.926000", "111401.930000", "111401.933000", "111401.937000", "111401.940000", "111401.944000", "111401.947000", "111401.951000", "111401.954000", "111401.957000"],
      "InstanceNumber": [1, 2, 3, 4, 5, 6, 7, 8, 9, 10, 11, 12, 13, 14, 15, 16, 17, 18, 19, 20, 21, 22, 23, 24, 25, 26, 27, 28, 29, 30, 31, 32, 33, 34, 35, 36, 37, 38, 39, 40, 41, 42, 43, 44, 45, 46, 47, 48, 49, 50, 51, 52, 53, 54, 55, 56, 57, 58, 59, 60, 61, 62, 63, 64, 65, 66, 67, 68, 69, 70, 71, 72, 73, 74, 75, 76, 77, 78, 79, 80, 81, 82, 83, 84, 85, 86, 87, 88, 89, 90, 91, 92, 93, 94, 95, 96, 97, 98, 99, 100, 101, 102, 103, 104, 105, 106, 107, 108, 109, 110, 111, 112, 113, 114, 115, 116, 117, 118, 119, 120, 121, 122, 123, 124, 125, 126, 127, 128, 129, 130, 131, 132, 133, 134, 135, 136, 137, 138, 139, 140, 141, 142, 143, 144, 145, 146, 147, 148, 149, 150, 151, 152, 153, 154, 155, 156, 157, 158, 159, 160, 161, 162, 163, 164, 165, 166, 167, 168, 169, 170, 171, 172, 173, 174, 175, 176, 177, 178, 179, 180, 181, 182, 183, 184, 185, 186, 187, 188, 189, 190],
      "LargestImagePixelValue": [45152, 43166, 43795, 43474, 44014, 44741, 43983, 43447, 43387, 42625, 43990, 44571, 41314, 41187, 41575, 42993, 43271, 44603, 44136, 43335, 43339, 43587, 43344, 42539, 43283, 43884, 42280, 41105, 40697, 42524, 43435, 43978, 44289, 42720, 43495, 43131, 42679, 43176, 43513, 43449, 43468, 43255, 44278, 43599, 43769, 42929, 42794, 43109, 42959, 42922, 42983, 43486, 43420, 43776, 43534, 43629, 44139, 43929, 42818, 43140, 43613, 43722, 43804, 43118, 43206, 43712, 43474, 43331, 43506, 43286, 43852, 43300, 42891, 43470, 42706, 43356, 43246, 42728, 43231, 42881, 44098, 43565, 43580, 43522, 42982, 43268, 43323, 43486, 43256, 43186, 43233, 43555, 43519, 43090, 44022, 43723, 42998, 43572, 43629, 43511, 42306, 43526, 42710, 42875, 43606, 43483, 43730, 43824, 43945, 42858, 43115, 43467, 43802, 43124, 42572, 42253, 43576, 43356, 42589, 42250, 43375, 43331, 43358, 43385, 43169, 43965, 43510, 43003, 43405, 42788, 42730, 44047, 43769, 43716, 42788, 43019, 43493, 44046, 43404, 41887, 43270, 43554, 44244, 44063, 43857, 44434, 43884, 42967, 43929, 42996, 42681, 43820, 43591, 44213, 45184, 44104, 44690, 44867, 43950, 42946, 43012, 44130, 43567, 42059, 42012, 43565, 44165, 44690, 43697, 43304, 43723, 42243, 43157, 43681, 43797, 43421, 44466, 44174, 44398, 44220, 43435, 44323, 42939, 42788, 43078, 43131, 42783, 44144, 43299, 44403],
      "WindowCenter": [10863.0, 10781.0, 10728.0, 10713.0, 10731.0, 10769.0, 10774.0, 10757.0, 10736.0, 10706.0, 10710.0, 10749.0, 10754.0, 10746.0, 10713.0, 10716.0, 10733.0, 10764.0, 10760.0, 10727.0, 10713.0, 10728.0, 10735.0, 10738.0, 10759.0, 10773.0, 10781.0, 10765.0, 10686.0, 10668.0, 10694.0, 10744.0, 10778.0, 10729.0, 10693.0, 10690.0, 10708.0, 10717.0, 10727.0, 10723.0, 10709.0, 10723.0, 10762.0, 10772.0, 10755.0, 10741.0, 10729.0, 10725.0, 10731.0, 10744.0, 10741.0, 10723.0, 10722.0, 10738.0, 10748.0, 10742.0, 10744.0, 10739.0, 10729.0, 10725.0, 10728.0, 10743.0, 10741.0, 10740.0, 10726.0, 10730.0, 10733.0, 10731.0, 10737.0, 10745.0, 10759.0, 10747.0, 10723.0, 10713.0, 10684.0, 10684.0, 10710.0, 10735.0, 10752.0, 10741.0, 10742.0, 10726.0, 10716.0, 10714.0, 10709.0, 10706.0, 10711.0, 10711.0, 10706.0, 10707.0, 10713.0, 10711.0, 10694.0, 10685.0, 10718.0, 10747.0, 10739.0, 10729.0, 10712.0, 10686.0, 10635.0, 10660.0, 10685.0, 10728.0, 10770.0, 10764.0, 10732.0, 10710.0, 10708.0, 10713.0, 10749.0, 10776.0, 10763.0, 10725.0, 10676.0, 10656.0, 10699.0, 10746.0, 10752.0, 10716.0, 10720.0, 10717.0, 10726.0, 10733.0, 10711.0, 10705.0, 10702.0, 10698.0, 10706.0, 10718.0, 10727.0, 10726.0, 10723.0, 10736.0, 10744.0, 10756.0, 10754.0, 10741.0, 10737.0, 10725.0, 10715.0, 10703.0, 10730.0, 10733.0, 10743.0, 10742.0, 10731.0, 10716.0, 10710.0, 10697.0, 10707.0, 10725.0, 10725.0, 10735.0, 10755.0, 10735.0, 10737.0, 10721.0, 10707.0, 10712.0, 10721.0, 10738.0, 10753.0, 10748.0, 10688.0, 10662.0, 10662.0, 10738.0, 10782.0, 10768.0, 10737.0, 10687.0, 10701.0, 10714.0, 10722.0, 10709.0, 10719.0, 10715.0, 10722.0, 10725.0, 10739.0, 10733.0, 10726.0, 10734.0, 10730.0, 10719.0, 10703.0, 10723.0, 10719.0, 10738.0],
      "WindowWidth": [23388.0, 23170.0, 23022.0, 22975.0, 23003.0, 23082.0, 23099.0, 23058.0, 23007.0, 22944.0, 22947.0, 23041.0, 23065.0, 23052.0, 22975.0, 22969.0, 23001.0, 23068.0, 23064.0, 22992.0, 22955.0, 22988.0, 23005.0, 23018.0, 23074.0, 23099.0, 23123.0, 23095.0, 22922.0, 22863.0, 22911.0, 23023.0, 23102.0, 23003.0, 22910.0, 22899.0, 22946.0, 22965.0, 22983.0, 22978.0, 22944.0, 22978.0, 23063.0, 23092.0, 23055.0, 23025.0, 22998.0, 22986.0, 22998.0, 23028.0, 23026.0, 22979.0, 22972.0, 23008.0, 23032.0, 23020.0, 23020.0, 23009.0, 22995.0, 22982.0, 22986.0, 23019.0, 23016.0, 23014.0, 22985.0, 22989.0, 22998.0, 22997.0, 23009.0, 23035.0, 23060.0, 23037.0, 22986.0, 22956.0, 22899.0, 22891.0, 22947.0, 23008.0, 23044.0, 23023.0, 23016.0, 22984.0, 22961.0, 22957.0, 22950.0, 22938.0, 22947.0, 22946.0, 22937.0, 22939.0, 22952.0, 22946.0, 22908.0, 22890.0, 22964.0, 23025.0, 23017.0, 22984.0, 22948.0, 22897.0, 22784.0, 22829.0, 22891.0, 22986.0, 23081.0, 23068.0, 22991.0, 22939.0, 22935.0, 22951.0, 23032.0, 23096.0, 23067.0, 22981.0, 22877.0, 22833.0, 22919.0, 23030.0, 23043.0, 22968.0, 22965.0, 22955.0, 22982.0, 22994.0, 22948.0, 22927.0, 22921.0, 22918.0, 22934.0, 22963.0, 22986.0, 22976.0, 22972.0, 22996.0, 23020.0, 23051.0, 23045.0, 23013.0, 23005.0, 22987.0, 22959.0, 22930.0, 22990.0, 22991.0, 23016.0, 23009.0, 22988.0, 22956.0, 22940.0, 22916.0, 22940.0, 22975.0, 22976.0, 22999.0, 23038.0, 22994.0, 22991.0, 22961.0, 22930.0, 22946.0, 22967.0, 23007.0, 23038.0, 23039.0, 22905.0, 22839.0, 22828.0, 22992.0, 23103.0, 23076.0, 23004.0, 22896.0, 22919.0, 22949.0, 22968.0, 22941.0, 22955.0, 22948.0, 22964.0, 22972.0, 23012.0, 22991.0, 22980.0, 23000.0, 22989.0, 22963.0, 22929.0, 22968.0, 22963.0, 23000.0]
    },
    "slices": {}
  }
}