{
  "AcquisitionMatrixPE": 104,
  "AcquisitionNumber": 1,
  "AcquisitionTime": "11:15:19.945000",
  "BandwidthPerPixelPhaseEncode": 17.17,
  "BaseResolution": 104,
  "BodyPartExamined": "BRAIN",
  "CoilString": "HC1-7;NC1_2",
  "ConsistencyInfo": "N4_VE11C_LATEST_20160120",
  "ConversionSoftware": "dcm2niix",
  "ConversionSoftwareVersion": "v1.0.20190902",
  "DerivedVendorReportedEchoSpacing": 0.000560011,
  "DeviceSerialNumber": "167006",
  "DwellTime": 2.1e-06,
  "EchoTime": 0.037,
  "EchoTrainLength": 104,
  "EffectiveEchoSpacing": 0.000560011,
  "FlipAngle": 52,
  "HeudiconvVersion": "0.10.0",
  "ImageComments": "Unaliased_MB4_PE3_LB",
  "ImageOrientationPatientDICOM": [0.999768, 0.00557359, 0.0208105, 0.00523482, 0.87416, -0.48561],
  "ImageType": [
    "ORIGINAL",
    "PRIMARY",
    "P",
    "MB",
    "ND",
    "MOSAIC"
],
  "ImagingFrequency": 123.259,
  "InPlanePhaseEncodingDirectionDICOM": "COL",
  "InstitutionAddress": "Chemin_Queen-Mary_4565_Montreal_District_CA_H3W_1W5",
  "InstitutionName": "IUGM",
  "InstitutionalDepartmentName": "Department",
  "MRAcquisitionType": "2D",
  "MagneticFieldStrength": 3,
  "Manufacturer": "Siemens",
  "ManufacturersModelName": "Prisma_fit",
  "Modality": "MR",
  "MultibandAccelerationFactor": 4,
  "PartialFourier": 1,
  "PatientPosition": "HFS",
  "PercentPhaseFOV": 100,
  "PhaseEncodingDirection": "j",
  "PhaseEncodingSteps": 104,
  "PhaseResolution": 1,
  "PixelBandwidth": 2290,
  "ProcedureStepDescription": "memory_things",
  "ProtocolName": "func_task-things_run-6",
  "PulseSequenceDetails": "%CustomerSeq%_cmrr_mbep2d_bold",
  "ReceiveCoilActiveElements": "HC1-7;NC1,2",
  "ReceiveCoilName": "HeadNeck_64",
  "ReconMatrixPE": 104,
  "RepetitionTime": 1.49,
  "SAR": 0.0373733,
  "ScanOptions": "FS",
  "ScanningSequence": "EP",
  "SequenceName": "epfid2d1_104",
  "SequenceVariant": "SK_SS",
  "SeriesDescription": "func_task-things_run-6",
  "SeriesNumber": 26,
  "ShimSetting": [621, -7197, -8861, 287, 19, -142, -1, -16],
  "SliceThickness": 2,
  "SliceTiming": [0, 0.7825, 0.0975, 0.88, 0.195, 0.98, 0.2925, 1.0775, 0.39, 1.175, 0.49, 1.2725, 0.5875, 1.37, 0.685, 0, 0.7825, 0.0975, 0.88, 0.195, 0.98, 0.2925, 1.0775, 0.39, 1.175, 0.49, 1.2725, 0.5875, 1.37, 0.685, 0, 0.7825, 0.0975, 0.88, 0.195, 0.98, 0.2925, 1.0775, 0.39, 1.175, 0.49, 1.2725, 0.5875, 1.37, 0.685, 0, 0.7825, 0.0975, 0.88, 0.195, 0.98, 0.2925, 1.0775, 0.39, 1.175, 0.49, 1.2725, 0.5875, 1.37, 0.685],
  "SoftwareVersions": "syngo_MR_E11",
  "SpacingBetweenSlices": 2,
  "StationName": "MRC35049",
  "TaskName": "things",
  "TotalReadoutTime": 0.0576811,
  "TxRefAmp": 245.081,
  "WipMemBlock": "f21fa3d5-8a72-42c6-a727-95130d76cc2d||Sequence: R016 ve11c/master r/e634e98; Dec 19 2017 11:00:25 by eja",
  "dcmmeta_affine": [
    [-1.9995357990264893, 0.010469632223248482, 0.041796643286943436, 105.138916015625],
    [-0.011147186160087585, 1.7483192682266235, -0.9712134003639221, -52.986488342285156],
    [0.04162106290459633, 0.9712209105491638, 1.7478550672531128, -91.65254974365234],
    [0.0, 0.0, 0.0, 1.0]
],
  "dcmmeta_reorient_transform": [
    [0.0, -1.0, 0.0, 103.0],
    [1.0, 0.0, 0.0, 0.0],
    [0.0, 0.0, 1.0, 0.0],
    [0.0, 0.0, 0.0, 1.0]
],
  "dcmmeta_shape": [104, 104, 60, 190],
  "dcmmeta_slice_dim": 2,
  "dcmmeta_version": 0.6,
  "global": {
    "const": {
      "AcquisitionMatrix": [104, 0, 0, 104],
      "AngioFlag": "N",
      "BitsAllocated": 16,
      "BitsStored": 16,
      "BodyPartExamined": "BRAIN",
      "Columns": 832,
      "EchoNumbers": 1,
      "EchoTime": 37.0,
      "EchoTrainLength": 104,
      "FlipAngle": 52.0,
      "HighBit": 15,
      "ImageOrientationPatient": [0.99976790149946, 0.00557359327584, 0.02081053073243, 0.00523481632798, 0.87415963559204, -0.4856104696149],
      "ImagePositionPatient": [-837.8592672196, -767.53618713463, 346.75755931257],
      "ImageType": [
        "ORIGINAL",
        "PRIMARY",
        "P",
        "MB",
        "ND",
        "MOSAIC"
],
      "ImagedNucleus": "1H",
      "ImagingFrequency": 123.259092,
      "InPlanePhaseEncodingDirection": "COL",
      "LargestImagePixelValue": 4095,
      "MRAcquisitionType": "2D",
      "MagneticFieldStrength": 3.0,
      "Manufacturer": "SIEMENS",
      "ManufacturerModelName": "Prisma_fit",
      "Modality": "MR",
      "NumberOfAverages": 1.0,
      "NumberOfPhaseEncodingSteps": 104,
      "PercentPhaseFieldOfView": 100.0,
      "PercentSampling": 100.0,
      "PerformedProcedureStepStartTime": "101148.406000",
      "PhotometricInterpretation": "MONOCHROME2",
      "PixelBandwidth": 2290.0,
      "PixelRepresentation": 0,
      "PixelSpacing": [2.0, 2.0],
      "ProtocolName": "func_task-things_run-6",
      "RepetitionTime": 1490.0,
      "RescaleIntercept": -4096.0,
      "RescaleSlope": 2.0,
      "RescaleType": "US",
      "Rows": 832,
      "SAR": 0.0373732527659,
      "SamplesPerPixel": 1,
      "ScanOptions": "FS",
      "ScanningSequence": "EP",
      "SequenceName": "epfid2d1_104",
      "SequenceVariant": [
        "SK",
        "SS"
],
      "SeriesDescription": "func_task-things_run-6",
      "SeriesNumber": 26,
      "SeriesTime": "111641.111000",
      "SliceLocation": -52.169872058464,
      "SliceThickness": 2.0,
      "SmallestImagePixelValue": 0,
      "SoftwareVersions": "syngo MR E11",
      "SpacingBetweenSlices": 1.9999999854257,
      "SpecificCharacterSet": "ISO_IR 100",
      "StudyID": "1",
      "StudyTime": "101148.328000",
      "TransmitCoilName": "Body",
      "VariableFlipAngleFlag": "N",
      "WindowCenterWidthExplanation": "Algo1",
      "dBdt": 0.0},
    "slices": {}
  },
  "time": {
    "samples": {
      "AcquisitionNumber": [1, 2, 3, 4, 5, 6, 7, 8, 9, 10, 11, 12, 13, 14, 15, 16, 17, 18, 19, 20, 21, 22, 23, 24, 25, 26, 27, 28, 29, 30, 31, 32, 33, 34, 35, 36, 37, 38, 39, 40, 41, 42, 43, 44, 45, 46, 47, 48, 49, 50, 51, 52, 53, 54, 55, 56, 57, 58, 59, 60, 61, 62, 63, 64, 65, 66, 67, 68, 69, 70, 71, 72, 73, 74, 75, 76, 77, 78, 79, 80, 81, 82, 83, 84, 85, 86, 87, 88, 89, 90, 91, 92, 93, 94, 95, 96, 97, 98, 99, 100, 101, 102, 103, 104, 105, 106, 107, 108, 109, 110, 111, 112, 113, 114, 115, 116, 117, 118, 119, 120, 121, 122, 123, 124, 125, 126, 127, 128, 129, 130, 131, 132, 133, 134, 135, 136, 137, 138, 139, 140, 141, 142, 143, 144, 145, 146, 147, 148, 149, 150, 151, 152, 153, 154, 155, 156, 157, 158, 159, 160, 161, 162, 163, 164, 165, 166, 167, 168, 169, 170, 171, 172, 173, 174, 175, 176, 177, 178, 179, 180, 181, 182, 183, 184, 185, 186, 187, 188, 189, 190],
      "AcquisitionTime": ["111519.945000", "111521.435000", "111522.925000", "111524.415000", "111525.905000", "111527.395000", "111528.885000", "111530.375000", "111531.865000", "111533.355000", "111534.845000", "111536.335000", "111537.825000", "111539.315000", "111540.805000", "111542.295000", "111543.785000", "111545.275000", "111546.765000", "111548.255000", "111549.745000", "111551.235000", "111552.725000", "111554.215000", "111555.705000", "111557.195000", "111558.685000", "111600.175000", "111601.665000", "111603.155000", "111604.645000", "111606.135000", "111607.625000", "111609.115000", "111610.605000", "111612.095000", "111613.585000", "111615.075000", "111616.565000", "111618.055000", "111619.545000", "111621.035000", "111622.525000", "111624.015000", "111625.505000", "111626.995000", "111628.485000", "111629.975000", "111631.465000", "111632.955000", "111634.445000", "111635.935000", "111637.425000", "111638.915000", "111640.405000", "111641.895000", "111643.385000", "111644.875000", "111646.365000", "111647.855000", "111649.345000", "111650.835000", "111652.325000", "111653.815000", "111655.305000", "111656.795000", "111658.285000", "111659.775000", "111701.265000", "111702.755000", "111704.245000", "111705.735000", "111707.225000", "111708.715000", "111710.205000", "111711.695000", "111713.185000", "111714.675000", "111716.165000", "111717.655000", "111719.145000", "111720.635000", "111722.125000", "111723.615000", "111725.105000", "111726.595000", "111728.085000", "111729.575000", "111731.065000", "111732.555000", "111734.045000", "111735.535000", "111737.025000", "111738.515000", "111740.005000", "111741.495000", "111742.985000", "111744.475000", "111745.965000", "111747.455000", "111748.945000", "111750.435000", "111751.925000", "111753.415000", "111754.905000", "111756.395000", "111757.885000", "111759.375000", "111800.865000", "111802.355000", "111803.845000", "111805.335000", "111806.825000", "111808.315000", "111809.805000", "111811.295000", "111812.785000", "111814.275000", "111815.765000", "111817.255000", "111818.745000", "111820.235000", "111821.725000", "111823.215000", "111824.705000", "111826.195000", "111827.685000", "111829.175000", "111830.665000", "111832.155000", "111833.645000", "111835.135000", "111836.625000", "111838.115000", "111839.605000", "111841.095000", "111842.585000", "111844.075000", "111845.565000", "111847.055000", "111848.545000", "111850.035000", "111851.525000", "111853.015000", "111854.505000", "111855.995000", "111857.485000", "111858.975000", "111900.465000", "111901.955000", "111903.445000", "111904.935000", "111906.425000", "111907.915000", "111909.405000", "111910.895000", "111912.385000", "111913.875000", "111915.365000", "111916.855000", "111918.345000", "111919.835000", "111921.325000", "111922.815000", "111924.305000", "111925.795000", "111927.285000", "111928.775000", "111930.265000", "111931.755000", "111933.245000", "111934.735000", "111936.225000", "111937.715000", "111939.205000", "111940.695000", "111942.185000", "111943.675000", "111945.165000", "111946.655000", "111948.145000", "111949.635000", "111951.125000", "111952.615000", "111954.105000", "111955.595000", "111957.085000", "111958.575000", "112000.065000", "112001.555000"],
      "ContentTime": ["111641.114000", "111641.116000", "111641.119000", "111641.121000", "111641.124000", "111641.126000", "111641.129000", "111641.131000", "111641.134000", "111641.137000", "111641.148000", "111641.150000", "111641.153000", "111641.155000", "111641.158000", "111641.160000", "111641.163000", "111641.165000", "111641.168000", "111641.170000", "111641.173000", "111641.175000", "111641.177000", "111641.180000", "111641.182000", "111641.185000", "111641.188000", "111641.190000", "111701.054000", "111701.057000", "111701.059000", "111701.062000", "111701.064000", "111701.067000", "111701.069000", "111701.072000", "111701.074000", "111701.080000", "111701.082000", "111701.085000", "111701.087000", "111701.090000", "111701.092000", "111701.095000", "111701.097000", "111701.100000", "111701.103000", "111701.105000", "111701.108000", "111721.047000", "111721.050000", "111721.054000", "111721.056000", "111721.059000", "111721.061000", "111721.064000", "111721.066000", "111721.069000", "111721.071000", "111721.074000", "111721.076000", "111721.079000", "111721.081000", "111721.084000", "111721.086000", "111721.089000", "111721.091000", "111721.094000", "111721.096000", "111741.333000", "111741.335000", "111741.338000", "111741.340000", "111741.343000", "111741.345000", "111741.348000", "111741.350000", "111741.353000", "111741.355000", "111741.358000", "111741.360000", "111741.363000", "111741.365000", "111741.368000", "111741.370000", "111741.373000", "111741.375000", "111741.378000", "111741.380000", "111821.084000", "111821.087000", "111821.090000", "111821.092000", "111821.095000", "111821.098000", "111821.101000", "111821.104000", "111821.106000", "111821.109000", "111821.112000", "111821.114000", "111821.117000", "111821.120000", "111821.122000", "111821.125000", "111821.127000", "111821.130000", "111821.132000", "111821.135000", "111821.137000", "111821.140000", "111821.143000", "111821.145000", "111821.148000", "111821.150000", "111821.153000", "111821.155000", "111821.158000", "111821.160000", "111821.163000", "111901.073000", "111901.076000", "111901.078000", "111901.081000", "111901.083000", "111901.086000", "111901.088000", "111901.091000", "111901.093000", "111901.096000", "111901.098000", "111901.101000", "111901.104000", "111901.106000", "111901.109000", "111901.111000", "111901.114000", "111901.116000", "111901.119000", "111901.121000", "111901.124000", "111901.126000", "111901.129000", "111901.131000", "111901.134000", "111901.136000", "111901.139000", "111941.074000", "111941.077000", "111941.080000", "111941.082000", "111941.085000", "111941.087000", "111941.090000", "111941.092000", "111941.095000", "111941.097000", "111941.100000", "111941.102000", "111941.105000", "111941.107000", "111941.110000", "111941.112000", "111941.115000", "111941.117000", "111941.119000", "111941.122000", "111941.124000", "111941.127000", "111941.129000", "111941.132000", "111941.134000", "111941.137000", "111941.139000", "112004.066000", "112004.069000", "112004.071000", "112004.074000", "112004.076000", "112004.079000", "112004.081000", "112004.084000", "112004.086000", "112004.089000", "112004.091000", "112004.094000", "112004.096000", "112004.099000", "112004.101000", "112004.104000"],
      "InstanceCreationTime": ["111641.114000", "111641.116000", "111641.119000", "111641.121000", "111641.124000", "111641.126000", "111641.129000", "111641.131000", "111641.134000", "111641.137000", "111641.148000", "111641.150000", "111641.153000", "111641.155000", "111641.158000", "111641.160000", "111641.163000", "111641.165000", "111641.168000", "111641.170000", "111641.173000", "111641.175000", "111641.177000", "111641.180000", "111641.182000", "111641.185000", "111641.188000", "111641.190000", "111701.054000", "111701.057000", "111701.059000", "111701.062000", "111701.064000", "111701.067000", "111701.069000", "111701.072000", "111701.074000", "111701.080000", "111701.082000", "111701.085000", "111701.087000", "111701.090000", "111701.092000", "111701.095000", "111701.097000", "111701.100000", "111701.103000", "111701.105000", "111701.108000", "111721.047000", "111721.050000", "111721.054000", "111721.056000", "111721.059000", "111721.061000", "111721.064000", "111721.066000", "111721.069000", "111721.071000", "111721.074000", "111721.076000", "111721.079000", "111721.081000", "111721.084000", "111721.086000", "111721.089000", "111721.091000", "111721.094000", "111721.096000", "111741.333000", "111741.335000", "111741.338000", "111741.340000", "111741.343000", "111741.345000", "111741.348000", "111741.350000", "111741.353000", "111741.355000", "111741.358000", "111741.360000", "111741.363000", "111741.365000", "111741.368000", "111741.370000", "111741.373000", "111741.375000", "111741.378000", "111741.380000", "111821.084000", "111821.087000", "111821.090000", "111821.092000", "111821.095000", "111821.098000", "111821.101000", "111821.104000", "111821.106000", "111821.109000", "111821.112000", "111821.114000", "111821.117000", "111821.120000", "111821.122000", "111821.125000", "111821.127000", "111821.130000", "111821.132000", "111821.135000", "111821.137000", "111821.140000", "111821.143000", "111821.145000", "111821.148000", "111821.150000", "111821.153000", "111821.155000", "111821.158000", "111821.160000", "111821.163000", "111901.073000", "111901.076000", "111901.078000", "111901.081000", "111901.083000", "111901.086000", "111901.088000", "111901.091000", "111901.093000", "111901.096000", "111901.098000", "111901.101000", "111901.104000", "111901.106000", "111901.109000", "111901.111000", "111901.114000", "111901.116000", "111901.119000", "111901.121000", "111901.124000", "111901.126000", "111901.129000", "111901.131000", "111901.134000", "111901.136000", "111901.139000", "111941.074000", "111941.077000", "111941.080000", "111941.082000", "111941.085000", "111941.087000", "111941.090000", "111941.092000", "111941.095000", "111941.097000", "111941.100000", "111941.102000", "111941.105000", "111941.107000", "111941.110000", "111941.112000", "111941.115000", "111941.117000", "111941.119000", "111941.122000", "111941.124000", "111941.127000", "111941.129000", "111941.132000", "111941.134000", "111941.137000", "111941.139000", "112004.066000", "112004.069000", "112004.071000", "112004.074000", "112004.076000", "112004.079000", "112004.081000", "112004.084000", "112004.086000", "112004.089000", "112004.091000", "112004.094000", "112004.096000", "112004.099000", "112004.101000", "112004.104000"],
      "InstanceNumber": [1, 2, 3, 4, 5, 6, 7, 8, 9, 10, 11, 12, 13, 14, 15, 16, 17, 18, 19, 20, 21, 22, 23, 24, 25, 26, 27, 28, 29, 30, 31, 32, 33, 34, 35, 36, 37, 38, 39, 40, 41, 42, 43, 44, 45, 46, 47, 48, 49, 50, 51, 52, 53, 54, 55, 56, 57, 58, 59, 60, 61, 62, 63, 64, 65, 66, 67, 68, 69, 70, 71, 72, 73, 74, 75, 76, 77, 78, 79, 80, 81, 82, 83, 84, 85, 86, 87, 88, 89, 90, 91, 92, 93, 94, 95, 96, 97, 98, 99, 100, 101, 102, 103, 104, 105, 106, 107, 108, 109, 110, 111, 112, 113, 114, 115, 116, 117, 118, 119, 120, 121, 122, 123, 124, 125, 126, 127, 128, 129, 130, 131, 132, 133, 134, 135, 136, 137, 138, 139, 140, 141, 142, 143, 144, 145, 146, 147, 148, 149, 150, 151, 152, 153, 154, 155, 156, 157, 158, 159, 160, 161, 162, 163, 164, 165, 166, 167, 168, 169, 170, 171, 172, 173, 174, 175, 176, 177, 178, 179, 180, 181, 182, 183, 184, 185, 186, 187, 188, 189, 190],
      "WindowCenter": [4874.0, 4866.0, 4864.0, 4858.0, 4860.0, 4866.0, 4866.0, 4864.0, 4862.0, 4864.0, 4886.0, 4884.0, 4866.0, 4862.0, 4866.0, 4862.0, 4838.0, 4860.0, 4864.0, 4888.0, 4880.0, 4882.0, 4868.0, 4866.0, 4860.0, 4864.0, 4870.0, 4866.0, 4868.0, 4890.0, 4888.0, 4888.0, 4840.0, 4838.0, 4836.0, 4834.0, 4866.0, 4888.0, 4862.0, 4864.0, 4888.0, 4866.0, 4864.0, 4864.0, 4862.0, 4866.0, 4888.0, 4886.0, 4886.0, 4868.0, 4836.0, 4830.0, 4836.0, 4866.0, 4866.0, 4888.0, 4880.0, 4858.0, 4862.0, 4866.0, 4866.0, 4834.0, 4836.0, 4834.0, 4894.0, 4890.0, 4862.0, 4866.0, 4888.0, 4868.0, 4866.0, 4868.0, 4838.0, 4870.0, 4868.0, 4866.0, 4864.0, 4864.0, 4868.0, 4868.0, 4864.0, 4866.0, 4862.0, 4864.0, 4862.0, 4864.0, 4866.0, 4866.0, 4864.0, 4872.0, 4868.0, 4862.0, 4868.0, 4868.0, 4868.0, 4864.0, 4864.0, 4864.0, 4864.0, 4868.0, 4866.0, 4862.0, 4840.0, 4864.0, 4864.0, 4888.0, 4910.0, 4888.0, 4866.0, 4834.0, 4832.0, 4824.0, 4860.0, 4866.0, 4862.0, 4860.0, 4858.0, 4860.0, 4868.0, 4866.0, 4860.0, 4868.0, 4872.0, 4866.0, 4866.0, 4890.0, 4892.0, 4868.0, 4868.0, 4868.0, 4866.0, 4868.0, 4868.0, 4866.0, 4890.0, 4870.0, 4866.0, 4890.0, 4868.0, 4864.0, 4894.0, 4872.0, 4864.0, 4842.0, 4840.0, 4870.0, 4890.0, 4892.0, 4890.0, 4870.0, 4868.0, 4870.0, 4866.0, 4872.0, 4872.0, 4868.0, 4868.0, 4866.0, 4868.0, 4870.0, 4866.0, 4894.0, 4868.0, 4868.0, 4870.0, 4870.0, 4890.0, 4894.0, 4892.0, 4864.0, 4836.0, 4836.0, 4864.0, 4890.0, 4888.0, 4886.0, 4888.0, 4868.0, 4868.0, 4870.0, 4864.0, 4866.0, 4872.0, 4866.0, 4866.0, 4886.0, 4892.0, 4894.0, 4866.0, 4834.0],
      "WindowWidth": [18616.0, 18610.0, 18616.0, 18616.0, 18624.0, 18616.0, 18620.0, 18620.0, 18620.0, 18626.0, 18646.0, 18636.0, 18622.0, 18622.0, 18620.0, 18618.0, 18584.0, 18610.0, 18622.0, 18636.0, 18636.0, 18634.0, 18624.0, 18618.0, 18618.0, 18618.0, 18618.0, 18624.0, 18616.0, 18640.0, 18636.0, 18638.0, 18590.0, 18590.0, 18584.0, 18588.0, 18624.0, 18634.0, 18610.0, 18620.0, 18644.0, 18614.0, 18622.0, 18620.0, 18618.0, 18628.0, 18636.0, 18634.0, 18634.0, 18624.0, 18586.0, 18586.0, 18588.0, 18622.0, 18624.0, 18646.0, 18638.0, 18608.0, 18610.0, 18610.0, 18620.0, 18584.0, 18588.0, 18584.0, 18638.0, 18640.0, 18612.0, 18614.0, 18632.0, 18616.0, 18622.0, 18616.0, 18594.0, 18622.0, 18624.0, 18628.0, 18606.0, 18614.0, 18620.0, 18622.0, 18624.0, 18620.0, 18620.0, 18612.0, 18606.0, 18618.0, 18616.0, 18614.0, 18624.0, 18620.0, 18624.0, 18624.0, 18614.0, 18614.0, 18622.0, 18618.0, 18620.0, 18620.0, 18606.0, 18614.0, 18618.0, 18616.0, 18590.0, 18622.0, 18620.0, 18638.0, 18682.0, 18634.0, 18622.0, 18590.0, 18586.0, 18582.0, 18612.0, 18618.0, 18614.0, 18614.0, 18604.0, 18606.0, 18616.0, 18622.0, 18622.0, 18612.0, 18616.0, 18620.0, 18618.0, 18636.0, 18638.0, 18624.0, 18616.0, 18618.0, 18626.0, 18620.0, 18622.0, 18620.0, 18648.0, 18620.0, 18618.0, 18642.0, 18622.0, 18608.0, 18640.0, 18622.0, 18620.0, 18582.0, 18582.0, 18610.0, 18632.0, 18636.0, 18638.0, 18624.0, 18620.0, 18620.0, 18616.0, 18616.0, 18618.0, 18608.0, 18614.0, 18620.0, 18612.0, 18620.0, 18616.0, 18646.0, 18618.0, 18616.0, 18612.0, 18616.0, 18642.0, 18636.0, 18646.0, 18616.0, 18580.0, 18582.0, 18614.0, 18642.0, 18642.0, 18644.0, 18640.0, 18622.0, 18618.0, 18612.0, 18620.0, 18618.0, 18618.0, 18622.0, 18616.0, 18634.0, 18638.0, 18642.0, 18614.0, 18580.0]
    },
    "slices": {}
  }
}