{
  "AcquisitionMatrixPE": 104,
  "AcquisitionNumber": 1,
  "AcquisitionTime": "18:07:30.735000",
  "BandwidthPerPixelPhaseEncode": 17.17,
  "BaseResolution": 104,
  "BodyPartExamined": "BRAIN",
  "CoilString": "HC1-7;NC1_2",
  "ConsistencyInfo": "N4_VE11C_LATEST_20160120",
  "ConversionSoftware": "dcm2niix",
  "ConversionSoftwareVersion": "v1.0.20190902",
  "DerivedVendorReportedEchoSpacing": 0.000560011,
  "DeviceSerialNumber": "167006",
  "DwellTime": 2.1e-06,
  "EchoTime": 0.037,
  "EchoTrainLength": 104,
  "EffectiveEchoSpacing": 0.000560011,
  "FlipAngle": 52,
  "ImageComments": "Unaliased_MB4_PE3_LB",
  "ImageOrientationPatientDICOM": [0.998542, 0.0135872, 0.0522491, 0.00592556, 0.934381, -0.356227],
  "ImageType": [
    "ORIGINAL",
    "PRIMARY",
    "M",
    "MB",
    "ND",
    "MOSAIC"
],
  "ImagingFrequency": 123.259,
  "InPlanePhaseEncodingDirectionDICOM": "COL",
  "InstitutionAddress": "Chemin_Queen-Mary_4565_Montreal_District_CA_H3W_1W5",
  "InstitutionName": "IUGM",
  "InstitutionalDepartmentName": "Department",
  "MRAcquisitionType": "2D",
  "MagneticFieldStrength": 3,
  "Manufacturer": "Siemens",
  "ManufacturersModelName": "Prisma_fit",
  "Modality": "MR",
  "MultibandAccelerationFactor": 4,
  "PartialFourier": 1,
  "PatientPosition": "HFS",
  "PercentPhaseFOV": 100,
  "PhaseEncodingDirection": "j",
  "PhaseEncodingSteps": 104,
  "PhaseResolution": 1,
  "PixelBandwidth": 2290,
  "ProcedureStepDescription": "memory_things",
  "ProtocolName": "func_task-things_run-5",
  "PulseSequenceDetails": "%CustomerSeq%_cmrr_mbep2d_bold",
  "ReceiveCoilActiveElements": "HC1-7;NC1,2",
  "ReceiveCoilName": "HeadNeck_64",
  "ReconMatrixPE": 104,
  "RepetitionTime": 1.49,
  "SAR": 0.0530546,
  "ScanOptions": "FS",
  "ScanningSequence": "EP",
  "SequenceName": "epfid2d1_104",
  "SequenceVariant": "SK_SS",
  "SeriesDescription": "func_task-things_run-5",
  "SeriesNumber": 22,
  "ShimSetting": [637, -7173, -8809, 652, 79, 77, -59, 4],
  "SliceThickness": 2,
  "SliceTiming": [0, 0.785, 0.0975, 0.8825, 0.1975, 0.98, 0.295, 1.0775, 0.3925, 1.1775, 0.49, 1.275, 0.5875, 1.3725, 0.6875, 0, 0.785, 0.0975, 0.8825, 0.1975, 0.98, 0.295, 1.0775, 0.3925, 1.1775, 0.49, 1.275, 0.5875, 1.3725, 0.6875, 0, 0.785, 0.0975, 0.8825, 0.1975, 0.98, 0.295, 1.0775, 0.3925, 1.1775, 0.49, 1.275, 0.5875, 1.3725, 0.6875, 0, 0.785, 0.0975, 0.8825, 0.1975, 0.98, 0.295, 1.0775, 0.3925, 1.1775, 0.49, 1.275, 0.5875, 1.3725, 0.6875],
  "SoftwareVersions": "syngo_MR_E11",
  "SpacingBetweenSlices": 2,
  "StationName": "MRC35049",
  "TaskName": "things",
  "TotalReadoutTime": 0.0576811,
  "TxRefAmp": 280.021,
  "WipMemBlock": "f622f835-4de9-40cf-bb3b-c2c124cd0168||Sequence: R016 ve11c/master r/e634e98; Dec 19 2017 11:00:25 by eja",
  "dcmmeta_affine": [
    [-1.997083306312561, 0.011851117946207523, 0.10732140392065048, 104.64358520507812],
    [-0.0271744504570961, 1.8687611818313599, -0.7120345234870911, -59.062286376953125],
    [0.1044982373714447, 0.7124543786048889, 1.8658747673034668, -64.32611846923828],
    [0.0, 0.0, 0.0, 1.0]
],
  "dcmmeta_reorient_transform": [
    [0.0, -1.0, 0.0, 103.0],
    [1.0, 0.0, 0.0, 0.0],
    [0.0, 0.0, 1.0, 0.0],
    [0.0, 0.0, 0.0, 1.0]
],
  "dcmmeta_shape": [104, 104, 60, 190],
  "dcmmeta_slice_dim": 2,
  "dcmmeta_version": 0.6,
  "global": {
    "const": {
      "AcquisitionMatrix": [104, 0, 0, 104],
      "AngioFlag": "N",
      "BitsAllocated": 16,
      "BitsStored": 16,
      "BodyPartExamined": "BRAIN",
      "Columns": 832,
      "EchoNumbers": 1,
      "EchoTime": 37.0,
      "EchoTrainLength": 104,
      "FlipAngle": 52.0,
      "HighBit": 15,
      "ImageOrientationPatient": [0.99854164497679, 0.01358722532853, 0.0522491201354, 0.00592555886727, 0.93438058725541, -0.356227183006],
      "ImagePositionPatient": [-837.11637525845, -823.54068292994, 230.35271476948],
      "ImageType": [
        "ORIGINAL",
        "PRIMARY",
        "M",
        "MB",
        "ND",
        "MOSAIC"
],
      "ImagedNucleus": "1H",
      "ImagingFrequency": 123.25892,
      "InPlanePhaseEncodingDirection": "COL",
      "MRAcquisitionType": "2D",
      "MagneticFieldStrength": 3.0,
      "Manufacturer": "SIEMENS",
      "ManufacturerModelName": "Prisma_fit",
      "Modality": "MR",
      "NumberOfAverages": 1.0,
      "NumberOfPhaseEncodingSteps": 104,
      "PercentPhaseFieldOfView": 100.0,
      "PercentSampling": 100.0,
      "PerformedProcedureStepStartTime": "170800.812000",
      "PhotometricInterpretation": "MONOCHROME2",
      "PixelBandwidth": 2290.0,
      "PixelRepresentation": 0,
      "PixelSpacing": [2.0, 2.0],
      "ProtocolName": "func_task-things_run-5",
      "RepetitionTime": 1490.0,
      "Rows": 832,
      "SAR": 0.05305463525642,
      "SamplesPerPixel": 1,
      "ScanOptions": "FS",
      "ScanningSequence": "EP",
      "SequenceName": "epfid2d1_104",
      "SequenceVariant": [
        "SK",
        "SS"
],
      "SeriesDescription": "func_task-things_run-5",
      "SeriesNumber": 22,
      "SeriesTime": "180835.016000",
      "SliceLocation": -33.369796525135,
      "SliceThickness": 2.0,
      "SmallestImagePixelValue": 0,
      "SoftwareVersions": "syngo MR E11",
      "SpacingBetweenSlices": 1.9999999650555,
      "SpecificCharacterSet": "ISO_IR 100",
      "StudyID": "1",
      "StudyTime": "170800.727000",
      "TransmitCoilName": "Body",
      "VariableFlipAngleFlag": "N",
      "WindowCenterWidthExplanation": "Algo1",
      "dBdt": 0.0},
    "slices": {}
  },
  "time": {
    "samples": {
      "AcquisitionNumber": [1, 2, 3, 4, 5, 6, 7, 8, 9, 10, 11, 12, 13, 14, 15, 16, 17, 18, 19, 20, 21, 22, 23, 24, 25, 26, 27, 28, 29, 30, 31, 32, 33, 34, 35, 36, 37, 38, 39, 40, 41, 42, 43, 44, 45, 46, 47, 48, 49, 50, 51, 52, 53, 54, 55, 56, 57, 58, 59, 60, 61, 62, 63, 64, 65, 66, 67, 68, 69, 70, 71, 72, 73, 74, 75, 76, 77, 78, 79, 80, 81, 82, 83, 84, 85, 86, 87, 88, 89, 90, 91, 92, 93, 94, 95, 96, 97, 98, 99, 100, 101, 102, 103, 104, 105, 106, 107, 108, 109, 110, 111, 112, 113, 114, 115, 116, 117, 118, 119, 120, 121, 122, 123, 124, 125, 126, 127, 128, 129, 130, 131, 132, 133, 134, 135, 136, 137, 138, 139, 140, 141, 142, 143, 144, 145, 146, 147, 148, 149, 150, 151, 152, 153, 154, 155, 156, 157, 158, 159, 160, 161, 162, 163, 164, 165, 166, 167, 168, 169, 170, 171, 172, 173, 174, 175, 176, 177, 178, 179, 180, 181, 182, 183, 184, 185, 186, 187, 188, 189, 190],
      "AcquisitionTime": ["180730.735000", "180732.225000", "180733.715000", "180735.205000", "180736.695000", "180738.185000", "180739.675000", "180741.165000", "180742.655000", "180744.145000", "180745.635000", "180747.125000", "180748.615000", "180750.105000", "180751.595000", "180753.085000", "180754.575000", "180756.065000", "180757.555000", "180759.045000", "180800.535000", "180802.025000", "180803.515000", "180805.005000", "180806.495000", "180807.985000", "180809.475000", "180810.965000", "180812.455000", "180813.945000", "180815.435000", "180816.925000", "180818.415000", "180819.905000", "180821.395000", "180822.885000", "180824.375000", "180825.865000", "180827.355000", "180828.845000", "180830.335000", "180831.825000", "180833.315000", "180834.805000", "180836.295000", "180837.785000", "180839.275000", "180840.765000", "180842.255000", "180843.745000", "180845.235000", "180846.725000", "180848.215000", "180849.705000", "180851.195000", "180852.685000", "180854.175000", "180855.665000", "180857.155000", "180858.645000", "180900.135000", "180901.625000", "180903.115000", "180904.605000", "180906.095000", "180907.585000", "180909.075000", "180910.565000", "180912.055000", "180913.545000", "180915.035000", "180916.525000", "180918.015000", "180919.505000", "180920.995000", "180922.485000", "180923.975000", "180925.465000", "180926.955000", "180928.445000", "180929.935000", "180931.425000", "180932.915000", "180934.405000", "180935.895000", "180937.385000", "180938.875000", "180940.365000", "180941.855000", "180943.345000", "180944.835000", "180946.325000", "180947.815000", "180949.305000", "180950.795000", "180952.285000", "180953.775000", "180955.265000", "180956.755000", "180958.245000", "180959.735000", "181001.225000", "181002.715000", "181004.205000", "181005.695000", "181007.185000", "181008.675000", "181010.165000", "181011.655000", "181013.145000", "181014.635000", "181016.125000", "181017.615000", "181019.105000", "181020.595000", "181022.085000", "181023.575000", "181025.065000", "181026.555000", "181028.045000", "181029.535000", "181031.025000", "181032.515000", "181034.005000", "181035.495000", "181036.985000", "181038.475000", "181039.965000", "181041.455000", "181042.945000", "181044.435000", "181045.925000", "181047.415000", "181048.905000", "181050.395000", "181051.885000", "181053.375000", "181054.865000", "181056.355000", "181057.845000", "181059.335000", "181100.825000", "181102.315000", "181103.805000", "181105.295000", "181106.785000", "181108.275000", "181109.765000", "181111.255000", "181112.745000", "181114.235000", "181115.725000", "181117.215000", "181118.705000", "181120.195000", "181121.685000", "181123.175000", "181124.665000", "181126.155000", "181127.645000", "181129.135000", "181130.625000", "181132.115000", "181133.605000", "181135.095000", "181136.585000", "181138.075000", "181139.565000", "181141.055000", "181142.545000", "181144.035000", "181145.525000", "181147.015000", "181148.505000", "181149.995000", "181151.485000", "181152.975000", "181154.465000", "181155.955000", "181157.445000", "181158.935000", "181200.425000", "181201.915000", "181203.405000", "181204.895000", "181206.385000", "181207.875000", "181209.365000", "181210.855000", "181212.345000"],
      "ContentTime": ["180835.019000", "180835.023000", "180835.026000", "180835.030000", "180835.033000", "180835.036000", "180835.040000", "180835.044000", "180835.048000", "180835.051000", "180835.054000", "180854.983000", "180854.987000", "180854.990000", "180854.993000", "180854.997000", "180855.001000", "180855.004000", "180855.007000", "180855.011000", "180855.014000", "180855.017000", "180855.021000", "180855.029000", "180855.032000", "180855.036000", "180855.039000", "180855.056000", "180855.059000", "180855.062000", "180855.066000", "180855.069000", "180914.983000", "180914.987000", "180914.990000", "180914.993000", "180914.997000", "180915.001000", "180915.004000", "180915.007000", "180915.011000", "180915.014000", "180915.017000", "180915.021000", "180915.024000", "180915.027000", "180915.030000", "180915.034000", "180915.037000", "180915.040000", "180915.044000", "180915.047000", "180934.983000", "180934.987000", "180934.990000", "180934.993000", "180934.997000", "180935.000000", "180935.004000", "180935.007000", "180935.010000", "180935.014000", "180935.017000", "180935.020000", "180935.024000", "180935.027000", "180935.030000", "180935.034000", "180935.037000", "180935.041000", "180935.044000", "180935.047000", "180954.983000", "180954.987000", "180954.990000", "180954.993000", "180954.997000", "180955.000000", "180955.003000", "180955.017000", "180955.020000", "180955.023000", "180955.027000", "180955.030000", "180955.033000", "180955.036000", "180955.040000", "180955.043000", "180955.046000", "180955.050000", "180955.053000", "180955.056000", "180955.059000", "181034.983000", "181034.987000", "181034.990000", "181034.994000", "181034.997000", "181035.001000", "181035.005000", "181035.008000", "181035.011000", "181035.015000", "181035.018000", "181035.021000", "181035.024000", "181035.028000", "181035.031000", "181035.034000", "181035.038000", "181035.041000", "181035.045000", "181035.048000", "181035.051000", "181035.055000", "181035.058000", "181035.061000", "181035.064000", "181035.068000", "181035.071000", "181035.074000", "181035.078000", "181035.081000", "181114.983000", "181114.987000", "181114.990000", "181115.007000", "181115.010000", "181115.013000", "181115.017000", "181115.020000", "181115.023000", "181115.027000", "181115.030000", "181115.033000", "181115.037000", "181115.040000", "181115.043000", "181115.047000", "181115.050000", "181115.053000", "181115.057000", "181115.060000", "181115.063000", "181115.066000", "181115.070000", "181115.073000", "181115.076000", "181115.080000", "181115.083000", "181154.983000", "181154.987000", "181154.990000", "181154.993000", "181154.997000", "181155.000000", "181155.003000", "181155.007000", "181155.010000", "181155.013000", "181155.017000", "181155.020000", "181155.023000", "181155.027000", "181155.030000", "181155.033000", "181155.037000", "181155.040000", "181155.043000", "181155.047000", "181155.050000", "181155.053000", "181155.056000", "181155.060000", "181155.063000", "181155.066000", "181155.070000", "181214.252000", "181214.255000", "181214.259000", "181214.262000", "181214.266000", "181214.269000", "181214.272000", "181214.276000", "181214.279000", "181214.282000", "181214.286000", "181214.289000", "181214.292000"],
      "InstanceCreationTime": ["180835.019000", "180835.023000", "180835.026000", "180835.030000", "180835.033000", "180835.036000", "180835.040000", "180835.044000", "180835.048000", "180835.051000", "180835.054000", "180854.983000", "180854.987000", "180854.990000", "180854.993000", "180854.997000", "180855.001000", "180855.004000", "180855.007000", "180855.011000", "180855.014000", "180855.017000", "180855.021000", "180855.029000", "180855.032000", "180855.036000", "180855.039000", "180855.056000", "180855.059000", "180855.062000", "180855.066000", "180855.069000", "180914.983000", "180914.987000", "180914.990000", "180914.993000", "180914.997000", "180915.001000", "180915.004000", "180915.007000", "180915.011000", "180915.014000", "180915.017000", "180915.021000", "180915.024000", "180915.027000", "180915.030000", "180915.034000", "180915.037000", "180915.040000", "180915.044000", "180915.047000", "180934.983000", "180934.987000", "180934.990000", "180934.993000", "180934.997000", "180935.000000", "180935.004000", "180935.007000", "180935.010000", "180935.014000", "180935.017000", "180935.020000", "180935.024000", "180935.027000", "180935.030000", "180935.034000", "180935.037000", "180935.041000", "180935.044000", "180935.047000", "180954.983000", "180954.987000", "180954.990000", "180954.993000", "180954.997000", "180955.000000", "180955.003000", "180955.017000", "180955.020000", "180955.023000", "180955.027000", "180955.030000", "180955.033000", "180955.036000", "180955.040000", "180955.043000", "180955.046000", "180955.050000", "180955.053000", "180955.056000", "180955.059000", "181034.983000", "181034.987000", "181034.990000", "181034.994000", "181034.997000", "181035.001000", "181035.005000", "181035.008000", "181035.011000", "181035.015000", "181035.018000", "181035.021000", "181035.024000", "181035.028000", "181035.031000", "181035.034000", "181035.038000", "181035.041000", "181035.045000", "181035.048000", "181035.051000", "181035.055000", "181035.058000", "181035.061000", "181035.064000", "181035.068000", "181035.071000", "181035.074000", "181035.078000", "181035.081000", "181114.983000", "181114.987000", "181114.990000", "181115.007000", "181115.010000", "181115.013000", "181115.017000", "181115.020000", "181115.023000", "181115.027000", "181115.030000", "181115.033000", "181115.037000", "181115.040000", "181115.043000", "181115.047000", "181115.050000", "181115.053000", "181115.057000", "181115.060000", "181115.063000", "181115.066000", "181115.070000", "181115.073000", "181115.076000", "181115.080000", "181115.083000", "181154.983000", "181154.987000", "181154.990000", "181154.993000", "181154.997000", "181155.000000", "181155.003000", "181155.007000", "181155.010000", "181155.013000", "181155.017000", "181155.020000", "181155.023000", "181155.027000", "181155.030000", "181155.033000", "181155.037000", "181155.040000", "181155.043000", "181155.047000", "181155.050000", "181155.053000", "181155.056000", "181155.060000", "181155.063000", "181155.066000", "181155.070000", "181214.252000", "181214.255000", "181214.259000", "181214.262000", "181214.266000", "181214.269000", "181214.272000", "181214.276000", "181214.279000", "181214.282000", "181214.286000", "181214.289000", "181214.292000"],
      "InstanceNumber": [1, 2, 3, 4, 5, 6, 7, 8, 9, 10, 11, 12, 13, 14, 15, 16, 17, 18, 19, 20, 21, 22, 23, 24, 25, 26, 27, 28, 29, 30, 31, 32, 33, 34, 35, 36, 37, 38, 39, 40, 41, 42, 43, 44, 45, 46, 47, 48, 49, 50, 51, 52, 53, 54, 55, 56, 57, 58, 59, 60, 61, 62, 63, 64, 65, 66, 67, 68, 69, 70, 71, 72, 73, 74, 75, 76, 77, 78, 79, 80, 81, 82, 83, 84, 85, 86, 87, 88, 89, 90, 91, 92, 93, 94, 95, 96, 97, 98, 99, 100, 101, 102, 103, 104, 105, 106, 107, 108, 109, 110, 111, 112, 113, 114, 115, 116, 117, 118, 119, 120, 121, 122, 123, 124, 125, 126, 127, 128, 129, 130, 131, 132, 133, 134, 135, 136, 137, 138, 139, 140, 141, 142, 143, 144, 145, 146, 147, 148, 149, 150, 151, 152, 153, 154, 155, 156, 157, 158, 159, 160, 161, 162, 163, 164, 165, 166, 167, 168, 169, 170, 171, 172, 173, 174, 175, 176, 177, 178, 179, 180, 181, 182, 183, 184, 185, 186, 187, 188, 189, 190],
      "LargestImagePixelValue": [43858, 42545, 42082, 41331, 41339, 40822, 40995, 40303, 41360, 42571, 41852, 42030, 42166, 41389, 41727, 42358, 42517, 41964, 42380, 41865, 41573, 42309, 42445, 42724, 42592, 42379, 42103, 41340, 41486, 41711, 42198, 42083, 42092, 41830, 41811, 42878, 42276, 42350, 42471, 41364, 40943, 41161, 42363, 42135, 42022, 42440, 41689, 41416, 42216, 41811, 41204, 41733, 41913, 41864, 41660, 41743, 40865, 47561, 42433, 41685, 41951, 41495, 41240, 41254, 41700, 42106, 41676, 41413, 41100, 41553, 41929, 45345, 41154, 41221, 42030, 41288, 41700, 41596, 41652, 41602, 41790, 41558, 42063, 40997, 41393, 40542, 41281, 41265, 41316, 41660, 40646, 41286, 41389, 43357, 40603, 40631, 41221, 41356, 40792, 40905, 40763, 41230, 40881, 40884, 40622, 41103, 41477, 41101, 40852, 41290, 41406, 40378, 40570, 40826, 41180, 40612, 41079, 40795, 40919, 40174, 40865, 40852, 40746, 40945, 40834, 40997, 40693, 41027, 40697, 40665, 41263, 40325, 40690, 40690, 40413, 40625, 40722, 40592, 39798, 40521, 40468, 40096, 39609, 40501, 40919, 40662, 40430, 40431, 40620, 40548, 40870, 40470, 40820, 40909, 40751, 40340, 40100, 40599, 40337, 40249, 40311, 40139, 40312, 44563, 40337, 40395, 40650, 40517, 40556, 40201, 40481, 45377, 40423, 40724, 46108, 40465, 40157, 40832, 40954, 40475, 40300, 40512, 49490, 40373, 40941, 40379, 40912, 43509, 40613, 40600],
      "WindowCenter": [10503.0, 10468.0, 10447.0, 10415.0, 10404.0, 10405.0, 10422.0, 10437.0, 10475.0, 10484.0, 10439.0, 10425.0, 10429.0, 10427.0, 10444.0, 10469.0, 10466.0, 10427.0, 10415.0, 10404.0, 10407.0, 10438.0, 10471.0, 10455.0, 10414.0, 10393.0, 10391.0, 10398.0, 10415.0, 10442.0, 10449.0, 10426.0, 10412.0, 10405.0, 10405.0, 10440.0, 10429.0, 10411.0, 10407.0, 10405.0, 10408.0, 10424.0, 10444.0, 10431.0, 10412.0, 10408.0, 10403.0, 10407.0, 10427.0, 10423.0, 10416.0, 10423.0, 10431.0, 10424.0, 10407.0, 10412.0, 10426.0, 10511.0, 10473.0, 10447.0, 10421.0, 10410.0, 10408.0, 10420.0, 10445.0, 10458.0, 10437.0, 10428.0, 10422.0, 10435.0, 10439.0, 10472.0, 10419.0, 10427.0, 10449.0, 10457.0, 10456.0, 10452.0, 10453.0, 10449.0, 10452.0, 10447.0, 10453.0, 10450.0, 10458.0, 10455.0, 10459.0, 10451.0, 10423.0, 10417.0, 10423.0, 10453.0, 10474.0, 10486.0, 10436.0, 10420.0, 10430.0, 10421.0, 10407.0, 10420.0, 10438.0, 10443.0, 10419.0, 10406.0, 10402.0, 10420.0, 10425.0, 10421.0, 10411.0, 10409.0, 10416.0, 10413.0, 10412.0, 10428.0, 10436.0, 10425.0, 10430.0, 10423.0, 10419.0, 10407.0, 10419.0, 10430.0, 10430.0, 10429.0, 10430.0, 10429.0, 10429.0, 10429.0, 10423.0, 10424.0, 10428.0, 10417.0, 10429.0, 10431.0, 10426.0, 10431.0, 10429.0, 10424.0, 10413.0, 10416.0, 10423.0, 10413.0, 10405.0, 10422.0, 10437.0, 10432.0, 10425.0, 10424.0, 10424.0, 10423.0, 10437.0, 10435.0, 10450.0, 10455.0, 10444.0, 10433.0, 10412.0, 10421.0, 10424.0, 10417.0, 10417.0, 10426.0, 10419.0, 10464.0, 10417.0, 10416.0, 10429.0, 10432.0, 10447.0, 10444.0, 10442.0, 10492.0, 10444.0, 10443.0, 10497.0, 10435.0, 10427.0, 10429.0, 10432.0, 10424.0, 10423.0, 10441.0, 10520.0, 10428.0, 10424.0, 10400.0, 10406.0, 10431.0, 10427.0, 10448.0],
      "WindowWidth": [22332.0, 22237.0, 22176.0, 22098.0, 22071.0, 22073.0, 22111.0, 22149.0, 22232.0, 22248.0, 22146.0, 22113.0, 22129.0, 22122.0, 22160.0, 22220.0, 22207.0, 22114.0, 22088.0, 22065.0, 22071.0, 22142.0, 22221.0, 22180.0, 22087.0, 22037.0, 22034.0, 22055.0, 22093.0, 22156.0, 22168.0, 22115.0, 22082.0, 22068.0, 22069.0, 22148.0, 22127.0, 22083.0, 22071.0, 22070.0, 22081.0, 22113.0, 22157.0, 22130.0, 22082.0, 22073.0, 22067.0, 22079.0, 22124.0, 22116.0, 22096.0, 22116.0, 22132.0, 22116.0, 22078.0, 22087.0, 22123.0, 22307.0, 22230.0, 22173.0, 22108.0, 22090.0, 22081.0, 22111.0, 22170.0, 22195.0, 22148.0, 22124.0, 22113.0, 22144.0, 22149.0, 22221.0, 22105.0, 22121.0, 22175.0, 22199.0, 22192.0, 22179.0, 22187.0, 22179.0, 22181.0, 22174.0, 22188.0, 22183.0, 22201.0, 22194.0, 22202.0, 22185.0, 22116.0, 22103.0, 22121.0, 22190.0, 22238.0, 22267.0, 22149.0, 22111.0, 22134.0, 22114.0, 22080.0, 22105.0, 22150.0, 22160.0, 22103.0, 22070.0, 22064.0, 22112.0, 22123.0, 22119.0, 22086.0, 22082.0, 22101.0, 22098.0, 22095.0, 22136.0, 22150.0, 22126.0, 22135.0, 22121.0, 22105.0, 22084.0, 22112.0, 22139.0, 22136.0, 22136.0, 22138.0, 22133.0, 22134.0, 22135.0, 22120.0, 22125.0, 22132.0, 22105.0, 22129.0, 22136.0, 22128.0, 22135.0, 22132.0, 22122.0, 22102.0, 22108.0, 22121.0, 22100.0, 22084.0, 22116.0, 22151.0, 22140.0, 22124.0, 22126.0, 22129.0, 22123.0, 22157.0, 22151.0, 22184.0, 22189.0, 22168.0, 22140.0, 22095.0, 22114.0, 22122.0, 22107.0, 22106.0, 22133.0, 22113.0, 22212.0, 22110.0, 22112.0, 22137.0, 22144.0, 22180.0, 22175.0, 22163.0, 22275.0, 22174.0, 22168.0, 22286.0, 22153.0, 22130.0, 22133.0, 22148.0, 22126.0, 22121.0, 22169.0, 22323.0, 22132.0, 22120.0, 22068.0, 22084.0, 22136.0, 22130.0, 22181.0]
    },
    "slices": {}
  }
}