{
  "AcquisitionMatrixPE": 104,
  "AcquisitionNumber": 1,
  "AcquisitionTime": "17:50:13.222500",
  "BandwidthPerPixelPhaseEncode": 17.17,
  "BaseResolution": 104,
  "BodyPartExamined": "BRAIN",
  "CoilString": "HC1-7;NC1_2",
  "ConsistencyInfo": "N4_VE11C_LATEST_20160120",
  "ConversionSoftware": "dcm2niix",
  "ConversionSoftwareVersion": "v1.0.20190902",
  "DerivedVendorReportedEchoSpacing": 0.000560011,
  "DeviceSerialNumber": "167006",
  "DwellTime": 2.1e-06,
  "EchoTime": 0.037,
  "EchoTrainLength": 104,
  "EffectiveEchoSpacing": 0.000560011,
  "FlipAngle": 52,
  "ImageComments": "Unaliased_MB4_PE3_LB",
  "ImageOrientationPatientDICOM": [0.998542, 0.0135872, 0.0522491, 0.00592556, 0.934381, -0.356227],
  "ImageType": [
    "ORIGINAL",
    "PRIMARY",
    "M",
    "MB",
    "ND",
    "MOSAIC"
],
  "ImagingFrequency": 123.259,
  "InPlanePhaseEncodingDirectionDICOM": "COL",
  "InstitutionAddress": "Chemin_Queen-Mary_4565_Montreal_District_CA_H3W_1W5",
  "InstitutionName": "IUGM",
  "InstitutionalDepartmentName": "Department",
  "MRAcquisitionType": "2D",
  "MagneticFieldStrength": 3,
  "Manufacturer": "Siemens",
  "ManufacturersModelName": "Prisma_fit",
  "Modality": "MR",
  "MultibandAccelerationFactor": 4,
  "PartialFourier": 1,
  "PatientPosition": "HFS",
  "PercentPhaseFOV": 100,
  "PhaseEncodingDirection": "j",
  "PhaseEncodingSteps": 104,
  "PhaseResolution": 1,
  "PixelBandwidth": 2290,
  "ProcedureStepDescription": "memory_things",
  "ProtocolName": "func_task-things_run-3",
  "PulseSequenceDetails": "%CustomerSeq%_cmrr_mbep2d_bold",
  "ReceiveCoilActiveElements": "HC1-7;NC1,2",
  "ReceiveCoilName": "HeadNeck_64",
  "ReconMatrixPE": 104,
  "RepetitionTime": 1.49,
  "SAR": 0.0530546,
  "ScanOptions": "FS",
  "ScanningSequence": "EP",
  "SequenceName": "epfid2d1_104",
  "SequenceVariant": "SK_SS",
  "SeriesDescription": "func_task-things_run-3",
  "SeriesNumber": 16,
  "ShimSetting": [637, -7173, -8809, 652, 79, 77, -59, 4],
  "SliceThickness": 2,
  "SliceTiming": [0, 0.7825, 0.0975, 0.88, 0.195, 0.98, 0.2925, 1.0775, 0.39, 1.175, 0.49, 1.2725, 0.5875, 1.37, 0.685, 0, 0.7825, 0.0975, 0.88, 0.195, 0.98, 0.2925, 1.0775, 0.39, 1.175, 0.49, 1.2725, 0.5875, 1.37, 0.685, 0, 0.7825, 0.0975, 0.88, 0.195, 0.98, 0.2925, 1.0775, 0.39, 1.175, 0.49, 1.2725, 0.5875, 1.37, 0.685, 0, 0.7825, 0.0975, 0.88, 0.195, 0.98, 0.2925, 1.0775, 0.39, 1.175, 0.49, 1.2725, 0.5875, 1.37, 0.685],
  "SoftwareVersions": "syngo_MR_E11",
  "SpacingBetweenSlices": 2,
  "StationName": "MRC35049",
  "TaskName": "things",
  "TotalReadoutTime": 0.0576811,
  "TxRefAmp": 280.021,
  "WipMemBlock": "96c5d755-2bdb-4329-b711-4afa9764bd26||Sequence: R016 ve11c/master r/e634e98; Dec 19 2017 11:00:25 by eja",
  "dcmmeta_affine": [
    [-1.997083306312561, 0.011851117946207523, 0.10732140392065048, 104.64358520507812],
    [-0.0271744504570961, 1.8687611818313599, -0.7120345234870911, -59.062286376953125],
    [0.1044982373714447, 0.7124543786048889, 1.8658747673034668, -64.32611846923828],
    [0.0, 0.0, 0.0, 1.0]
],
  "dcmmeta_reorient_transform": [
    [0.0, -1.0, 0.0, 103.0],
    [1.0, 0.0, 0.0, 0.0],
    [0.0, 0.0, 1.0, 0.0],
    [0.0, 0.0, 0.0, 1.0]
],
  "dcmmeta_shape": [104, 104, 60, 190],
  "dcmmeta_slice_dim": 2,
  "dcmmeta_version": 0.6,
  "global": {
    "const": {
      "AcquisitionMatrix": [104, 0, 0, 104],
      "AngioFlag": "N",
      "BitsAllocated": 16,
      "BitsStored": 16,
      "BodyPartExamined": "BRAIN",
      "Columns": 832,
      "EchoNumbers": 1,
      "EchoTime": 37.0,
      "EchoTrainLength": 104,
      "FlipAngle": 52.0,
      "HighBit": 15,
      "ImageOrientationPatient": [0.99854164497679, 0.01358722532853, 0.0522491201354, 0.00592555886727, 0.93438058725541, -0.356227183006],
      "ImagePositionPatient": [-837.11637525845, -823.54068292994, 230.35271476948],
      "ImageType": [
        "ORIGINAL",
        "PRIMARY",
        "M",
        "MB",
        "ND",
        "MOSAIC"
],
      "ImagedNucleus": "1H",
      "ImagingFrequency": 123.258917,
      "InPlanePhaseEncodingDirection": "COL",
      "MRAcquisitionType": "2D",
      "MagneticFieldStrength": 3.0,
      "Manufacturer": "SIEMENS",
      "ManufacturerModelName": "Prisma_fit",
      "Modality": "MR",
      "NumberOfAverages": 1.0,
      "NumberOfPhaseEncodingSteps": 104,
      "PercentPhaseFieldOfView": 100.0,
      "PercentSampling": 100.0,
      "PerformedProcedureStepStartTime": "170800.812000",
      "PhotometricInterpretation": "MONOCHROME2",
      "PixelBandwidth": 2290.0,
      "PixelRepresentation": 0,
      "PixelSpacing": [2.0, 2.0],
      "ProtocolName": "func_task-things_run-3",
      "RepetitionTime": 1490.0,
      "Rows": 832,
      "SAR": 0.05305463525642,
      "SamplesPerPixel": 1,
      "ScanOptions": "FS",
      "ScanningSequence": "EP",
      "SequenceName": "epfid2d1_104",
      "SequenceVariant": [
        "SK",
        "SS"
],
      "SeriesDescription": "func_task-things_run-3",
      "SeriesNumber": 16,
      "SeriesTime": "175142.843000",
      "SliceLocation": -33.369796525135,
      "SliceThickness": 2.0,
      "SmallestImagePixelValue": 0,
      "SoftwareVersions": "syngo MR E11",
      "SpacingBetweenSlices": 1.9999999650555,
      "SpecificCharacterSet": "ISO_IR 100",
      "StudyID": "1",
      "StudyTime": "170800.727000",
      "TransmitCoilName": "Body",
      "VariableFlipAngleFlag": "N",
      "WindowCenterWidthExplanation": "Algo1",
      "dBdt": 0.0},
    "slices": {}
  },
  "time": {
    "samples": {
      "AcquisitionNumber": [1, 2, 3, 4, 5, 6, 7, 8, 9, 10, 11, 12, 13, 14, 15, 16, 17, 18, 19, 20, 21, 22, 23, 24, 25, 26, 27, 28, 29, 30, 31, 32, 33, 34, 35, 36, 37, 38, 39, 40, 41, 42, 43, 44, 45, 46, 47, 48, 49, 50, 51, 52, 53, 54, 55, 56, 57, 58, 59, 60, 61, 62, 63, 64, 65, 66, 67, 68, 69, 70, 71, 72, 73, 74, 75, 76, 77, 78, 79, 80, 81, 82, 83, 84, 85, 86, 87, 88, 89, 90, 91, 92, 93, 94, 95, 96, 97, 98, 99, 100, 101, 102, 103, 104, 105, 106, 107, 108, 109, 110, 111, 112, 113, 114, 115, 116, 117, 118, 119, 120, 121, 122, 123, 124, 125, 126, 127, 128, 129, 130, 131, 132, 133, 134, 135, 136, 137, 138, 139, 140, 141, 142, 143, 144, 145, 146, 147, 148, 149, 150, 151, 152, 153, 154, 155, 156, 157, 158, 159, 160, 161, 162, 163, 164, 165, 166, 167, 168, 169, 170, 171, 172, 173, 174, 175, 176, 177, 178, 179, 180, 181, 182, 183, 184, 185, 186, 187, 188, 189, 190],
      "AcquisitionTime": ["175013.222500", "175014.712500", "175016.202500", "175017.692500", "175019.182500", "175020.672500", "175022.162500", "175023.652500", "175025.142500", "175026.632500", "175028.122500", "175029.612500", "175031.102500", "175032.592500", "175034.082500", "175035.572500", "175037.062500", "175038.552500", "175040.042500", "175041.532500", "175043.022500", "175044.512500", "175046.002500", "175047.492500", "175048.982500", "175050.472500", "175051.962500", "175053.452500", "175054.942500", "175056.432500", "175057.922500", "175059.412500", "175100.902500", "175102.392500", "175103.882500", "175105.372500", "175106.862500", "175108.352500", "175109.842500", "175111.332500", "175112.822500", "175114.312500", "175115.802500", "175117.292500", "175118.782500", "175120.272500", "175121.762500", "175123.252500", "175124.742500", "175126.232500", "175127.722500", "175129.212500", "175130.702500", "175132.192500", "175133.682500", "175135.172500", "175136.662500", "175138.152500", "175139.642500", "175141.132500", "175142.622500", "175144.112500", "175145.602500", "175147.092500", "175148.582500", "175150.072500", "175151.562500", "175153.052500", "175154.542500", "175156.032500", "175157.522500", "175159.012500", "175200.502500", "175201.992500", "175203.482500", "175204.972500", "175206.462500", "175207.952500", "175209.442500", "175210.932500", "175212.422500", "175213.912500", "175215.402500", "175216.892500", "175218.382500", "175219.872500", "175221.362500", "175222.852500", "175224.342500", "175225.832500", "175227.322500", "175228.812500", "175230.302500", "175231.792500", "175233.282500", "175234.772500", "175236.262500", "175237.752500", "175239.242500", "175240.732500", "175242.222500", "175243.712500", "175245.202500", "175246.692500", "175248.182500", "175249.672500", "175251.162500", "175252.652500", "175254.142500", "175255.632500", "175257.122500", "175258.612500", "175300.102500", "175301.592500", "175303.082500", "175304.572500", "175306.062500", "175307.552500", "175309.042500", "175310.532500", "175312.022500", "175313.512500", "175315.002500", "175316.492500", "175317.982500", "175319.472500", "175320.962500", "175322.452500", "175323.942500", "175325.432500", "175326.922500", "175328.412500", "175329.902500", "175331.392500", "175332.882500", "175334.372500", "175335.862500", "175337.352500", "175338.842500", "175340.332500", "175341.822500", "175343.312500", "175344.802500", "175346.292500", "175347.782500", "175349.272500", "175350.762500", "175352.252500", "175353.742500", "175355.232500", "175356.722500", "175358.212500", "175359.702500", "175401.192500", "175402.682500", "175404.172500", "175405.662500", "175407.152500", "175408.642500", "175410.132500", "175411.622500", "175413.112500", "175414.602500", "175416.092500", "175417.582500", "175419.072500", "175420.562500", "175422.052500", "175423.542500", "175425.032500", "175426.522500", "175428.012500", "175429.502500", "175430.992500", "175432.482500", "175433.972500", "175435.462500", "175436.952500", "175438.442500", "175439.932500", "175441.422500", "175442.912500", "175444.402500", "175445.892500", "175447.382500", "175448.872500", "175450.362500", "175451.852500", "175453.342500", "175454.832500"],
      "ContentTime": ["175142.846000", "175142.850000", "175142.853000", "175142.857000", "175142.860000", "175142.863000", "175142.866000", "175142.870000", "175142.873000", "175142.876000", "175142.880000", "175142.883000", "175142.886000", "175142.890000", "175142.893000", "175142.896000", "175142.900000", "175142.903000", "175142.914000", "175142.917000", "175142.921000", "175142.938000", "175142.942000", "175142.945000", "175142.963000", "175142.967000", "175142.970000", "175142.974000", "175142.977000", "175142.980000", "175142.984000", "175142.987000", "175142.990000", "175142.994000", "175142.998000", "175143.002000", "175143.006000", "175202.814000", "175202.818000", "175202.821000", "175202.824000", "175202.827000", "175202.831000", "175202.834000", "175202.838000", "175202.841000", "175202.844000", "175202.848000", "175202.851000", "175202.854000", "175202.857000", "175202.861000", "175202.864000", "175202.867000", "175202.870000", "175202.874000", "175202.877000", "175222.814000", "175222.818000", "175222.822000", "175222.825000", "175222.829000", "175222.832000", "175222.835000", "175222.838000", "175222.842000", "175222.845000", "175222.849000", "175222.852000", "175222.856000", "175222.859000", "175222.863000", "175222.866000", "175222.870000", "175222.873000", "175222.876000", "175222.880000", "175242.813000", "175242.817000", "175242.820000", "175242.824000", "175242.827000", "175242.831000", "175242.834000", "175242.837000", "175242.841000", "175242.844000", "175242.848000", "175242.851000", "175242.854000", "175242.858000", "175242.861000", "175242.864000", "175242.867000", "175242.871000", "175242.874000", "175242.877000", "175242.881000", "175322.814000", "175322.818000", "175322.821000", "175322.825000", "175322.828000", "175322.831000", "175322.834000", "175322.838000", "175322.841000", "175322.844000", "175322.848000", "175322.851000", "175322.854000", "175322.857000", "175322.861000", "175322.864000", "175322.867000", "175322.871000", "175322.874000", "175322.877000", "175322.881000", "175322.884000", "175322.887000", "175322.890000", "175322.906000", "175322.909000", "175322.912000", "175322.916000", "175402.814000", "175402.818000", "175402.821000", "175402.825000", "175402.828000", "175402.831000", "175402.835000", "175402.838000", "175402.841000", "175402.845000", "175402.848000", "175402.851000", "175402.854000", "175402.858000", "175402.861000", "175402.869000", "175402.872000", "175402.875000", "175402.879000", "175402.882000", "175402.885000", "175402.889000", "175402.892000", "175402.895000", "175402.899000", "175402.902000", "175402.905000", "175442.814000", "175442.818000", "175442.821000", "175442.824000", "175442.828000", "175442.831000", "175442.834000", "175442.838000", "175442.841000", "175442.844000", "175442.847000", "175442.851000", "175442.854000", "175442.857000", "175442.861000", "175442.864000", "175442.867000", "175442.870000", "175442.874000", "175442.877000", "175442.880000", "175442.883000", "175442.887000", "175442.890000", "175442.893000", "175442.897000", "175442.900000", "175457.296000", "175457.299000", "175457.303000", "175457.306000", "175457.309000", "175457.312000", "175457.316000", "175457.319000", "175457.322000", "175457.326000"],
      "InstanceCreationTime": ["175142.846000", "175142.850000", "175142.853000", "175142.857000", "175142.860000", "175142.863000", "175142.866000", "175142.870000", "175142.873000", "175142.876000", "175142.880000", "175142.883000", "175142.886000", "175142.890000", "175142.893000", "175142.896000", "175142.900000", "175142.903000", "175142.914000", "175142.917000", "175142.921000", "175142.938000", "175142.942000", "175142.945000", "175142.963000", "175142.967000", "175142.970000", "175142.974000", "175142.977000", "175142.980000", "175142.984000", "175142.987000", "175142.990000", "175142.994000", "175142.998000", "175143.002000", "175143.006000", "175202.814000", "175202.818000", "175202.821000", "175202.824000", "175202.827000", "175202.831000", "175202.834000", "175202.838000", "175202.841000", "175202.844000", "175202.848000", "175202.851000", "175202.854000", "175202.857000", "175202.861000", "175202.864000", "175202.867000", "175202.870000", "175202.874000", "175202.877000", "175222.814000", "175222.818000", "175222.822000", "175222.825000", "175222.829000", "175222.832000", "175222.835000", "175222.838000", "175222.842000", "175222.845000", "175222.849000", "175222.852000", "175222.856000", "175222.859000", "175222.863000", "175222.866000", "175222.870000", "175222.873000", "175222.876000", "175222.880000", "175242.813000", "175242.817000", "175242.820000", "175242.824000", "175242.827000", "175242.831000", "175242.834000", "175242.837000", "175242.841000", "175242.844000", "175242.848000", "175242.851000", "175242.854000", "175242.858000", "175242.861000", "175242.864000", "175242.867000", "175242.871000", "175242.874000", "175242.877000", "175242.881000", "175322.814000", "175322.818000", "175322.821000", "175322.825000", "175322.828000", "175322.831000", "175322.834000", "175322.838000", "175322.841000", "175322.844000", "175322.848000", "175322.851000", "175322.854000", "175322.857000", "175322.861000", "175322.864000", "175322.867000", "175322.871000", "175322.874000", "175322.877000", "175322.881000", "175322.884000", "175322.887000", "175322.890000", "175322.906000", "175322.909000", "175322.912000", "175322.916000", "175402.814000", "175402.818000", "175402.821000", "175402.825000", "175402.828000", "175402.831000", "175402.835000", "175402.838000", "175402.841000", "175402.845000", "175402.848000", "175402.851000", "175402.854000", "175402.858000", "175402.861000", "175402.869000", "175402.872000", "175402.875000", "175402.879000", "175402.882000", "175402.885000", "175402.889000", "175402.892000", "175402.895000", "175402.899000", "175402.902000", "175402.905000", "175442.814000", "175442.818000", "175442.821000", "175442.824000", "175442.828000", "175442.831000", "175442.834000", "175442.838000", "175442.841000", "175442.844000", "175442.847000", "175442.851000", "175442.854000", "175442.857000", "175442.861000", "175442.864000", "175442.867000", "175442.870000", "175442.874000", "175442.877000", "175442.880000", "175442.883000", "175442.887000", "175442.890000", "175442.893000", "175442.897000", "175442.900000", "175457.296000", "175457.299000", "175457.303000", "175457.306000", "175457.309000", "175457.312000", "175457.316000", "175457.319000", "175457.322000", "175457.326000"],
      "InstanceNumber": [1, 2, 3, 4, 5, 6, 7, 8, 9, 10, 11, 12, 13, 14, 15, 16, 17, 18, 19, 20, 21, 22, 23, 24, 25, 26, 27, 28, 29, 30, 31, 32, 33, 34, 35, 36, 37, 38, 39, 40, 41, 42, 43, 44, 45, 46, 47, 48, 49, 50, 51, 52, 53, 54, 55, 56, 57, 58, 59, 60, 61, 62, 63, 64, 65, 66, 67, 68, 69, 70, 71, 72, 73, 74, 75, 76, 77, 78, 79, 80, 81, 82, 83, 84, 85, 86, 87, 88, 89, 90, 91, 92, 93, 94, 95, 96, 97, 98, 99, 100, 101, 102, 103, 104, 105, 106, 107, 108, 109, 110, 111, 112, 113, 114, 115, 116, 117, 118, 119, 120, 121, 122, 123, 124, 125, 126, 127, 128, 129, 130, 131, 132, 133, 134, 135, 136, 137, 138, 139, 140, 141, 142, 143, 144, 145, 146, 147, 148, 149, 150, 151, 152, 153, 154, 155, 156, 157, 158, 159, 160, 161, 162, 163, 164, 165, 166, 167, 168, 169, 170, 171, 172, 173, 174, 175, 176, 177, 178, 179, 180, 181, 182, 183, 184, 185, 186, 187, 188, 189, 190],
      "LargestImagePixelValue": [42569, 41045, 40535, 40042, 40695, 39235, 38689, 38818, 39834, 39028, 38626, 38198, 39146, 38973, 38504, 39108, 39209, 39204, 38550, 38249, 37933, 37909, 38075, 37912, 39457, 42308, 38373, 39105, 38978, 38714, 39756, 38293, 38239, 37829, 38062, 37916, 39814, 38524, 40265, 39196, 43749, 39188, 39792, 41457, 42314, 39695, 38363, 38896, 39569, 38463, 38695, 38777, 38408, 38223, 38659, 39321, 38100, 38231, 38709, 38214, 38005, 38796, 38153, 47700, 38988, 38008, 37575, 38457, 38249, 38298, 38185, 38044, 37966, 38018, 38951, 38697, 38553, 38325, 38288, 37837, 38224, 37845, 37529, 38351, 37717, 38475, 38531, 38554, 41490, 38876, 38936, 38474, 43597, 40182, 39062, 39504, 38366, 39203, 44878, 39169, 39197, 38878, 43284, 41798, 42406, 42160, 42070, 40933, 44432, 41082, 39016, 40679, 41867, 40186, 40595, 40024, 46815, 40515, 38667, 40150, 40152, 41266, 43607, 41177, 41515, 40645, 43613, 43911, 41796, 43116, 43808, 42843, 43350, 42779, 39455, 40644, 41488, 41213, 40991, 40177, 41794, 43283, 38426, 38403, 39371, 41642, 46528, 42635, 41667, 41969, 42282, 41790, 41281, 41181, 41963, 41942, 43477, 43476, 42903, 42847, 42092, 41143, 40130, 39823, 39160, 38886, 39312, 39079, 39177, 38928, 39142, 39024, 40150, 42410, 40197, 49875, 40020, 39329, 40989, 49771, 43423, 42886, 41954, 40735, 38723, 39614, 40592, 39836, 39641, 42361],
      "WindowCenter": [10491.0, 10432.0, 10427.0, 10413.0, 10408.0, 10387.0, 10382.0, 10406.0, 10403.0, 10388.0, 10379.0, 10368.0, 10376.0, 10383.0, 10388.0, 10394.0, 10396.0, 10392.0, 10375.0, 10377.0, 10372.0, 10368.0, 10381.0, 10387.0, 10404.0, 10433.0, 10389.0, 10394.0, 10400.0, 10398.0, 10402.0, 10381.0, 10364.0, 10348.0, 10351.0, 10353.0, 10386.0, 10394.0, 10426.0, 10411.0, 10450.0, 10400.0, 10396.0, 10418.0, 10434.0, 10408.0, 10405.0, 10429.0, 10435.0, 10407.0, 10394.0, 10377.0, 10366.0, 10367.0, 10383.0, 10414.0, 10412.0, 10407.0, 10396.0, 10379.0, 10377.0, 10375.0, 10368.0, 10460.0, 10382.0, 10369.0, 10365.0, 10376.0, 10383.0, 10392.0, 10405.0, 10414.0, 10400.0, 10388.0, 10397.0, 10398.0, 10410.0, 10424.0, 10418.0, 10401.0, 10383.0, 10364.0, 10353.0, 10358.0, 10347.0, 10363.0, 10372.0, 10384.0, 10432.0, 10405.0, 10408.0, 10404.0, 10441.0, 10416.0, 10399.0, 10408.0, 10407.0, 10416.0, 10444.0, 10375.0, 10380.0, 10388.0, 10419.0, 10392.0, 10401.0, 10409.0, 10439.0, 10455.0, 10459.0, 10397.0, 10355.0, 10369.0, 10391.0, 10397.0, 10414.0, 10427.0, 10490.0, 10414.0, 10371.0, 10375.0, 10370.0, 10368.0, 10384.0, 10369.0, 10394.0, 10407.0, 10440.0, 10430.0, 10407.0, 10423.0, 10439.0, 10444.0, 10440.0, 10409.0, 10373.0, 10373.0, 10372.0, 10381.0, 10393.0, 10400.0, 10423.0, 10427.0, 10377.0, 10383.0, 10406.0, 10436.0, 10468.0, 10414.0, 10391.0, 10392.0, 10404.0, 10410.0, 10417.0, 10425.0, 10429.0, 10435.0, 10462.0, 10478.0, 10485.0, 10471.0, 10444.0, 10422.0, 10398.0, 10382.0, 10367.0, 10364.0, 10347.0, 10336.0, 10336.0, 10335.0, 10338.0, 10370.0, 10403.0, 10424.0, 10386.0, 10441.0, 10363.0, 10393.0, 10424.0, 10437.0, 10425.0, 10393.0, 10354.0, 10340.0, 10328.0, 10350.0, 10377.0, 10372.0, 10364.0, 10375.0],
      "WindowWidth": [22310.0, 22159.0, 22140.0, 22106.0, 22093.0, 22041.0, 22029.0, 22091.0, 22075.0, 22039.0, 22024.0, 22002.0, 22014.0, 22031.0, 22050.0, 22057.0, 22065.0, 22054.0, 22025.0, 22024.0, 22017.0, 22009.0, 22041.0, 22056.0, 22089.0, 22146.0, 22050.0, 22057.0, 22071.0, 22073.0, 22079.0, 22034.0, 21994.0, 21960.0, 21965.0, 21970.0, 22046.0, 22069.0, 22135.0, 22101.0, 22178.0, 22080.0, 22064.0, 22106.0, 22152.0, 22096.0, 22093.0, 22146.0, 22158.0, 22097.0, 22063.0, 22025.0, 21998.0, 22001.0, 22042.0, 22107.0, 22106.0, 22098.0, 22069.0, 22031.0, 22028.0, 22020.0, 22006.0, 22196.0, 22040.0, 22009.0, 22004.0, 22023.0, 22036.0, 22059.0, 22092.0, 22119.0, 22091.0, 22051.0, 22067.0, 22071.0, 22103.0, 22135.0, 22120.0, 22083.0, 22040.0, 21994.0, 21972.0, 21981.0, 21963.0, 21992.0, 22014.0, 22044.0, 22143.0, 22090.0, 22092.0, 22088.0, 22162.0, 22103.0, 22074.0, 22092.0, 22096.0, 22116.0, 22153.0, 22013.0, 22026.0, 22052.0, 22107.0, 22047.0, 22051.0, 22070.0, 22145.0, 22188.0, 22191.0, 22050.0, 21963.0, 21992.0, 22037.0, 22058.0, 22097.0, 22131.0, 22269.0, 22092.0, 22008.0, 22010.0, 21995.0, 21994.0, 22015.0, 21986.0, 22054.0, 22096.0, 22153.0, 22120.0, 22066.0, 22102.0, 22136.0, 22151.0, 22152.0, 22079.0, 22012.0, 22011.0, 21992.0, 22013.0, 22042.0, 22069.0, 22113.0, 22127.0, 22019.0, 22034.0, 22087.0, 22154.0, 22208.0, 22095.0, 22044.0, 22048.0, 22070.0, 22085.0, 22105.0, 22124.0, 22130.0, 22141.0, 22195.0, 22232.0, 22252.0, 22219.0, 22152.0, 22104.0, 22057.0, 22021.0, 21985.0, 21979.0, 21943.0, 21915.0, 21914.0, 21915.0, 21923.0, 21998.0, 22075.0, 22115.0, 22038.0, 22122.0, 21973.0, 22047.0, 22117.0, 22133.0, 22105.0, 22033.0, 21954.0, 21922.0, 21905.0, 21955.0, 22015.0, 22002.0, 21988.0, 21996.0]
    },
    "slices": {}
  }
}