{
  "AcquisitionMatrixPE": 104,
  "AcquisitionNumber": 1,
  "AcquisitionTime": "17:43:0.165000",
  "BandwidthPerPixelPhaseEncode": 17.17,
  "BaseResolution": 104,
  "BodyPartExamined": "BRAIN",
  "CoilString": "HC1-7;NC1_2",
  "ConsistencyInfo": "N4_VE11C_LATEST_20160120",
  "ConversionSoftware": "dcm2niix",
  "ConversionSoftwareVersion": "v1.0.20190902",
  "DerivedVendorReportedEchoSpacing": 0.000560011,
  "DeviceSerialNumber": "167006",
  "DwellTime": 2.1e-06,
  "EchoTime": 0.037,
  "EchoTrainLength": 104,
  "EffectiveEchoSpacing": 0.000560011,
  "FlipAngle": 52,
  "ImageComments": "Unaliased_MB4_PE3_LB",
  "ImageOrientationPatientDICOM": [0.998542, 0.0135872, 0.0522491, 0.00592556, 0.934381, -0.356227],
  "ImageType": [
    "ORIGINAL",
    "PRIMARY",
    "P",
    "MB",
    "ND",
    "MOSAIC"
],
  "ImagingFrequency": 123.259,
  "InPlanePhaseEncodingDirectionDICOM": "COL",
  "InstitutionAddress": "Chemin_Queen-Mary_4565_Montreal_District_CA_H3W_1W5",
  "InstitutionName": "IUGM",
  "InstitutionalDepartmentName": "Department",
  "MRAcquisitionType": "2D",
  "MagneticFieldStrength": 3,
  "Manufacturer": "Siemens",
  "ManufacturersModelName": "Prisma_fit",
  "Modality": "MR",
  "MultibandAccelerationFactor": 4,
  "PartialFourier": 1,
  "PatientPosition": "HFS",
  "PercentPhaseFOV": 100,
  "PhaseEncodingDirection": "j",
  "PhaseEncodingSteps": 104,
  "PhaseResolution": 1,
  "PixelBandwidth": 2290,
  "ProcedureStepDescription": "memory_things",
  "ProtocolName": "func_task-things_run-2",
  "PulseSequenceDetails": "%CustomerSeq%_cmrr_mbep2d_bold",
  "ReceiveCoilActiveElements": "HC1-7;NC1,2",
  "ReceiveCoilName": "HeadNeck_64",
  "ReconMatrixPE": 104,
  "RepetitionTime": 1.49,
  "SAR": 0.0530546,
  "ScanOptions": "FS",
  "ScanningSequence": "EP",
  "SequenceName": "epfid2d1_104",
  "SequenceVariant": "SK_SS",
  "SeriesDescription": "func_task-things_run-2",
  "SeriesNumber": 14,
  "ShimSetting": [637, -7173, -8809, 652, 79, 77, -59, 4],
  "SliceThickness": 2,
  "SliceTiming": [0, 0.7825, 0.0975, 0.88, 0.195, 0.98, 0.2925, 1.0775, 0.39, 1.175, 0.49, 1.2725, 0.5875, 1.37, 0.685, 0, 0.7825, 0.0975, 0.88, 0.195, 0.98, 0.2925, 1.0775, 0.39, 1.175, 0.49, 1.2725, 0.5875, 1.37, 0.685, 0, 0.7825, 0.0975, 0.88, 0.195, 0.98, 0.2925, 1.0775, 0.39, 1.175, 0.49, 1.2725, 0.5875, 1.37, 0.685, 0, 0.7825, 0.0975, 0.88, 0.195, 0.98, 0.2925, 1.0775, 0.39, 1.175, 0.49, 1.2725, 0.5875, 1.37, 0.685],
  "SoftwareVersions": "syngo_MR_E11",
  "SpacingBetweenSlices": 2,
  "StationName": "MRC35049",
  "TaskName": "things",
  "TotalReadoutTime": 0.0576811,
  "TxRefAmp": 280.021,
  "WipMemBlock": "1f3daa75-1c3c-4c40-a0b6-a696230dc462||Sequence: R016 ve11c/master r/e634e98; Dec 19 2017 11:00:25 by eja",
  "dcmmeta_affine": [
    [-1.997083306312561, 0.011851117946207523, 0.10732140392065048, 104.64358520507812],
    [-0.0271744504570961, 1.8687611818313599, -0.7120345234870911, -59.062286376953125],
    [0.1044982373714447, 0.7124543786048889, 1.8658747673034668, -64.32611846923828],
    [0.0, 0.0, 0.0, 1.0]
],
  "dcmmeta_reorient_transform": [
    [0.0, -1.0, 0.0, 103.0],
    [1.0, 0.0, 0.0, 0.0],
    [0.0, 0.0, 1.0, 0.0],
    [0.0, 0.0, 0.0, 1.0]
],
  "dcmmeta_shape": [104, 104, 60, 190],
  "dcmmeta_slice_dim": 2,
  "dcmmeta_version": 0.6,
  "global": {
    "const": {
      "AcquisitionMatrix": [104, 0, 0, 104],
      "AngioFlag": "N",
      "BitsAllocated": 16,
      "BitsStored": 16,
      "BodyPartExamined": "BRAIN",
      "Columns": 832,
      "EchoNumbers": 1,
      "EchoTime": 37.0,
      "EchoTrainLength": 104,
      "FlipAngle": 52.0,
      "HighBit": 15,
      "ImageOrientationPatient": [0.99854164497679, 0.01358722532853, 0.0522491201354, 0.00592555886727, 0.93438058725541, -0.356227183006],
      "ImagePositionPatient": [-837.11637525845, -823.54068292994, 230.35271476948],
      "ImageType": [
        "ORIGINAL",
        "PRIMARY",
        "P",
        "MB",
        "ND",
        "MOSAIC"
],
      "ImagedNucleus": "1H",
      "ImagingFrequency": 123.258914,
      "InPlanePhaseEncodingDirection": "COL",
      "LargestImagePixelValue": 4095,
      "MRAcquisitionType": "2D",
      "MagneticFieldStrength": 3.0,
      "Manufacturer": "SIEMENS",
      "ManufacturerModelName": "Prisma_fit",
      "Modality": "MR",
      "NumberOfAverages": 1.0,
      "NumberOfPhaseEncodingSteps": 104,
      "PercentPhaseFieldOfView": 100.0,
      "PercentSampling": 100.0,
      "PerformedProcedureStepStartTime": "170800.812000",
      "PhotometricInterpretation": "MONOCHROME2",
      "PixelBandwidth": 2290.0,
      "PixelRepresentation": 0,
      "PixelSpacing": [2.0, 2.0],
      "ProtocolName": "func_task-things_run-2",
      "RepetitionTime": 1490.0,
      "RescaleIntercept": -4096.0,
      "RescaleSlope": 2.0,
      "RescaleType": "US",
      "Rows": 832,
      "SAR": 0.05305463525642,
      "SamplesPerPixel": 1,
      "ScanOptions": "FS",
      "ScanningSequence": "EP",
      "SequenceName": "epfid2d1_104",
      "SequenceVariant": [
        "SK",
        "SS"
],
      "SeriesDescription": "func_task-things_run-2",
      "SeriesNumber": 14,
      "SeriesTime": "174415.126000",
      "SliceLocation": -33.369796525135,
      "SliceThickness": 2.0,
      "SmallestImagePixelValue": 0,
      "SoftwareVersions": "syngo MR E11",
      "SpacingBetweenSlices": 1.9999999650555,
      "SpecificCharacterSet": "ISO_IR 100",
      "StudyID": "1",
      "StudyTime": "170800.727000",
      "TransmitCoilName": "Body",
      "VariableFlipAngleFlag": "N",
      "WindowCenterWidthExplanation": "Algo1",
      "dBdt": 0.0},
    "slices": {}
  },
  "time": {
    "samples": {
      "AcquisitionNumber": [1, 2, 3, 4, 5, 6, 7, 8, 9, 10, 11, 12, 13, 14, 15, 16, 17, 18, 19, 20, 21, 22, 23, 24, 25, 26, 27, 28, 29, 30, 31, 32, 33, 34, 35, 36, 37, 38, 39, 40, 41, 42, 43, 44, 45, 46, 47, 48, 49, 50, 51, 52, 53, 54, 55, 56, 57, 58, 59, 60, 61, 62, 63, 64, 65, 66, 67, 68, 69, 70, 71, 72, 73, 74, 75, 76, 77, 78, 79, 80, 81, 82, 83, 84, 85, 86, 87, 88, 89, 90, 91, 92, 93, 94, 95, 96, 97, 98, 99, 100, 101, 102, 103, 104, 105, 106, 107, 108, 109, 110, 111, 112, 113, 114, 115, 116, 117, 118, 119, 120, 121, 122, 123, 124, 125, 126, 127, 128, 129, 130, 131, 132, 133, 134, 135, 136, 137, 138, 139, 140, 141, 142, 143, 144, 145, 146, 147, 148, 149, 150, 151, 152, 153, 154, 155, 156, 157, 158, 159, 160, 161, 162, 163, 164, 165, 166, 167, 168, 169, 170, 171, 172, 173, 174, 175, 176, 177, 178, 179, 180, 181, 182, 183, 184, 185, 186, 187, 188, 189, 190],
      "AcquisitionTime": ["174300.165000", "174301.655000", "174303.145000", "174304.635000", "174306.125000", "174307.615000", "174309.105000", "174310.595000", "174312.085000", "174313.575000", "174315.065000", "174316.555000", "174318.045000", "174319.535000", "174321.025000", "174322.515000", "174324.005000", "174325.495000", "174326.985000", "174328.475000", "174329.965000", "174331.455000", "174332.945000", "174334.435000", "174335.925000", "174337.415000", "174338.905000", "174340.395000", "174341.885000", "174343.375000", "174344.865000", "174346.355000", "174347.845000", "174349.335000", "174350.825000", "174352.315000", "174353.805000", "174355.295000", "174356.785000", "174358.275000", "174359.765000", "174401.255000", "174402.745000", "174404.235000", "174405.725000", "174407.215000", "174408.705000", "174410.195000", "174411.685000", "174413.175000", "174414.665000", "174416.155000", "174417.645000", "174419.135000", "174420.625000", "174422.115000", "174423.605000", "174425.095000", "174426.585000", "174428.075000", "174429.565000", "174431.055000", "174432.545000", "174434.035000", "174435.525000", "174437.015000", "174438.505000", "174439.995000", "174441.485000", "174442.975000", "174444.465000", "174445.955000", "174447.445000", "174448.935000", "174450.425000", "174451.915000", "174453.405000", "174454.895000", "174456.385000", "174457.875000", "174459.365000", "174500.855000", "174502.345000", "174503.835000", "174505.325000", "174506.815000", "174508.305000", "174509.795000", "174511.285000", "174512.775000", "174514.265000", "174515.755000", "174517.245000", "174518.735000", "174520.225000", "174521.715000", "174523.205000", "174524.695000", "174526.185000", "174527.675000", "174529.165000", "174530.655000", "174532.145000", "174533.635000", "174535.125000", "174536.615000", "174538.105000", "174539.595000", "174541.085000", "174542.575000", "174544.065000", "174545.555000", "174547.045000", "174548.535000", "174550.025000", "174551.515000", "174553.005000", "174554.495000", "174555.985000", "174557.475000", "174558.965000", "174600.455000", "174601.945000", "174603.435000", "174604.925000", "174606.415000", "174607.905000", "174609.395000", "174610.885000", "174612.375000", "174613.865000", "174615.355000", "174616.845000", "174618.335000", "174619.825000", "174621.315000", "174622.805000", "174624.295000", "174625.785000", "174627.275000", "174628.765000", "174630.255000", "174631.745000", "174633.235000", "174634.725000", "174636.215000", "174637.705000", "174639.195000", "174640.685000", "174642.175000", "174643.665000", "174645.155000", "174646.645000", "174648.135000", "174649.625000", "174651.115000", "174652.605000", "174654.095000", "174655.585000", "174657.075000", "174658.565000", "174700.055000", "174701.545000", "174703.035000", "174704.525000", "174706.015000", "174707.505000", "174708.995000", "174710.485000", "174711.975000", "174713.465000", "174714.955000", "174716.445000", "174717.935000", "174719.425000", "174720.915000", "174722.405000", "174723.895000", "174725.385000", "174726.875000", "174728.365000", "174729.855000", "174731.345000", "174732.835000", "174734.325000", "174735.815000", "174737.305000", "174738.795000", "174740.285000", "174741.775000"],
      "ContentTime": ["174415.128000", "174415.131000", "174415.134000", "174415.137000", "174415.140000", "174415.144000", "174415.147000", "174415.150000", "174415.152000", "174415.155000", "174415.158000", "174415.161000", "174415.164000", "174415.167000", "174415.170000", "174415.173000", "174415.176000", "174415.179000", "174415.183000", "174415.185000", "174435.113000", "174435.116000", "174435.118000", "174435.121000", "174435.123000", "174435.126000", "174435.128000", "174435.131000", "174435.133000", "174435.136000", "174435.146000", "174435.149000", "174435.151000", "174435.154000", "174435.157000", "174435.159000", "174435.162000", "174435.164000", "174435.167000", "174435.169000", "174435.172000", "174455.083000", "174455.086000", "174455.089000", "174455.091000", "174455.094000", "174455.096000", "174455.105000", "174455.107000", "174455.110000", "174455.112000", "174455.115000", "174455.118000", "174455.120000", "174455.122000", "174455.125000", "174455.128000", "174455.130000", "174455.132000", "174455.135000", "174455.138000", "174515.688000", "174515.690000", "174515.693000", "174515.695000", "174515.698000", "174515.701000", "174515.703000", "174515.706000", "174515.708000", "174515.711000", "174515.713000", "174515.715000", "174515.718000", "174515.720000", "174515.723000", "174515.725000", "174515.728000", "174515.730000", "174515.733000", "174515.735000", "174535.099000", "174535.101000", "174535.104000", "174535.106000", "174535.109000", "174535.111000", "174535.114000", "174535.116000", "174535.119000", "174535.121000", "174535.124000", "174535.126000", "174535.129000", "174535.131000", "174535.134000", "174535.136000", "174535.138000", "174535.144000", "174535.147000", "174535.149000", "174535.152000", "174615.146000", "174615.149000", "174615.151000", "174615.154000", "174615.156000", "174615.159000", "174615.161000", "174615.164000", "174615.176000", "174615.179000", "174615.181000", "174615.184000", "174615.186000", "174615.189000", "174615.191000", "174615.194000", "174615.206000", "174615.209000", "174615.211000", "174615.214000", "174615.216000", "174615.219000", "174615.222000", "174615.224000", "174615.227000", "174615.230000", "174615.232000", "174615.235000", "174655.119000", "174655.122000", "174655.125000", "174655.127000", "174655.130000", "174655.132000", "174655.135000", "174655.137000", "174655.140000", "174655.142000", "174655.145000", "174655.147000", "174655.151000", "174655.153000", "174655.156000", "174655.175000", "174655.178000", "174655.180000", "174655.183000", "174655.185000", "174655.188000", "174655.190000", "174655.193000", "174655.195000", "174655.198000", "174655.200000", "174655.203000", "174735.116000", "174735.119000", "174735.122000", "174735.124000", "174735.127000", "174735.129000", "174735.132000", "174735.134000", "174735.137000", "174735.139000", "174735.142000", "174735.144000", "174735.147000", "174735.149000", "174735.152000", "174735.154000", "174735.157000", "174735.234000", "174735.236000", "174735.239000", "174735.241000", "174735.244000", "174735.246000", "174735.249000", "174735.251000", "174735.254000", "174735.262000", "174743.581000", "174743.585000", "174743.587000", "174743.590000", "174743.593000", "174743.595000"],
      "InstanceCreationTime": ["174415.128000", "174415.131000", "174415.134000", "174415.137000", "174415.140000", "174415.144000", "174415.147000", "174415.150000", "174415.152000", "174415.155000", "174415.158000", "174415.161000", "174415.164000", "174415.167000", "174415.170000", "174415.173000", "174415.176000", "174415.179000", "174415.183000", "174415.185000", "174435.113000", "174435.116000", "174435.118000", "174435.121000", "174435.123000", "174435.126000", "174435.128000", "174435.131000", "174435.133000", "174435.136000", "174435.146000", "174435.149000", "174435.151000", "174435.154000", "174435.157000", "174435.159000", "174435.162000", "174435.164000", "174435.167000", "174435.169000", "174435.172000", "174455.083000", "174455.086000", "174455.089000", "174455.091000", "174455.094000", "174455.096000", "174455.105000", "174455.107000", "174455.110000", "174455.112000", "174455.115000", "174455.118000", "174455.120000", "174455.122000", "174455.125000", "174455.128000", "174455.130000", "174455.132000", "174455.135000", "174455.138000", "174515.688000", "174515.690000", "174515.693000", "174515.695000", "174515.698000", "174515.701000", "174515.703000", "174515.706000", "174515.708000", "174515.711000", "174515.713000", "174515.715000", "174515.718000", "174515.720000", "174515.723000", "174515.725000", "174515.728000", "174515.730000", "174515.733000", "174515.735000", "174535.099000", "174535.101000", "174535.104000", "174535.106000", "174535.109000", "174535.111000", "174535.114000", "174535.116000", "174535.119000", "174535.121000", "174535.124000", "174535.126000", "174535.129000", "174535.131000", "174535.134000", "174535.136000", "174535.138000", "174535.144000", "174535.147000", "174535.149000", "174535.152000", "174615.146000", "174615.149000", "174615.151000", "174615.154000", "174615.156000", "174615.159000", "174615.161000", "174615.164000", "174615.176000", "174615.179000", "174615.181000", "174615.184000", "174615.186000", "174615.189000", "174615.191000", "174615.194000", "174615.206000", "174615.209000", "174615.211000", "174615.214000", "174615.216000", "174615.219000", "174615.222000", "174615.224000", "174615.227000", "174615.230000", "174615.232000", "174615.235000", "174655.119000", "174655.122000", "174655.125000", "174655.127000", "174655.130000", "174655.132000", "174655.135000", "174655.137000", "174655.140000", "174655.142000", "174655.145000", "174655.147000", "174655.151000", "174655.153000", "174655.156000", "174655.175000", "174655.178000", "174655.180000", "174655.183000", "174655.185000", "174655.188000", "174655.190000", "174655.193000", "174655.195000", "174655.198000", "174655.200000", "174655.203000", "174735.116000", "174735.119000", "174735.122000", "174735.124000", "174735.127000", "174735.129000", "174735.132000", "174735.134000", "174735.137000", "174735.139000", "174735.142000", "174735.144000", "174735.147000", "174735.149000", "174735.152000", "174735.154000", "174735.157000", "174735.234000", "174735.236000", "174735.239000", "174735.241000", "174735.244000", "174735.246000", "174735.249000", "174735.251000", "174735.254000", "174735.262000", "174743.581000", "174743.585000", "174743.587000", "174743.590000", "174743.593000", "174743.595000"],
      "InstanceNumber": [1, 2, 3, 4, 5, 6, 7, 8, 9, 10, 11, 12, 13, 14, 15, 16, 17, 18, 19, 20, 21, 22, 23, 24, 25, 26, 27, 28, 29, 30, 31, 32, 33, 34, 35, 36, 37, 38, 39, 40, 41, 42, 43, 44, 45, 46, 47, 48, 49, 50, 51, 52, 53, 54, 55, 56, 57, 58, 59, 60, 61, 62, 63, 64, 65, 66, 67, 68, 69, 70, 71, 72, 73, 74, 75, 76, 77, 78, 79, 80, 81, 82, 83, 84, 85, 86, 87, 88, 89, 90, 91, 92, 93, 94, 95, 96, 97, 98, 99, 100, 101, 102, 103, 104, 105, 106, 107, 108, 109, 110, 111, 112, 113, 114, 115, 116, 117, 118, 119, 120, 121, 122, 123, 124, 125, 126, 127, 128, 129, 130, 131, 132, 133, 134, 135, 136, 137, 138, 139, 140, 141, 142, 143, 144, 145, 146, 147, 148, 149, 150, 151, 152, 153, 154, 155, 156, 157, 158, 159, 160, 161, 162, 163, 164, 165, 166, 167, 168, 169, 170, 171, 172, 173, 174, 175, 176, 177, 178, 179, 180, 181, 182, 183, 184, 185, 186, 187, 188, 189, 190],
      "WindowCenter": [4856.0, 4858.0, 4878.0, 4874.0, 4874.0, 4854.0, 4824.0, 4828.0, 4824.0, 4852.0, 4858.0, 4858.0, 4858.0, 4858.0, 4858.0, 4858.0, 4856.0, 4854.0, 4854.0, 4854.0, 4854.0, 4852.0, 4856.0, 4880.0, 4880.0, 4858.0, 4856.0, 4882.0, 4860.0, 4856.0, 4854.0, 4854.0, 4856.0, 4858.0, 4858.0, 4858.0, 4880.0, 4860.0, 4856.0, 4858.0, 4882.0, 4858.0, 4856.0, 4880.0, 4856.0, 4858.0, 4858.0, 4854.0, 4858.0, 4858.0, 4860.0, 4858.0, 4856.0, 4882.0, 4858.0, 4880.0, 4882.0, 4880.0, 4858.0, 4858.0, 4858.0, 4858.0, 4856.0, 4858.0, 4854.0, 4858.0, 4856.0, 4882.0, 4882.0, 4880.0, 4882.0, 4858.0, 4856.0, 4856.0, 4856.0, 4858.0, 4858.0, 4882.0, 4882.0, 4860.0, 4858.0, 4882.0, 4856.0, 4856.0, 4856.0, 4856.0, 4856.0, 4858.0, 4856.0, 4880.0, 4858.0, 4882.0, 4858.0, 4880.0, 4856.0, 4856.0, 4856.0, 4854.0, 4856.0, 4858.0, 4858.0, 4858.0, 4882.0, 4882.0, 4858.0, 4858.0, 4860.0, 4860.0, 4858.0, 4882.0, 4882.0, 4880.0, 4884.0, 4860.0, 4860.0, 4858.0, 4858.0, 4856.0, 4856.0, 4858.0, 4882.0, 4882.0, 4858.0, 4882.0, 4860.0, 4882.0, 4858.0, 4858.0, 4858.0, 4862.0, 4882.0, 4880.0, 4878.0, 4880.0, 4882.0, 4880.0, 4880.0, 4862.0, 4882.0, 4880.0, 4882.0, 4880.0, 4878.0, 4882.0, 4880.0, 4878.0, 4884.0, 4880.0, 4882.0, 4856.0, 4856.0, 4882.0, 4880.0, 4882.0, 4858.0, 4858.0, 4880.0, 4860.0, 4860.0, 4860.0, 4856.0, 4882.0, 4858.0, 4858.0, 4880.0, 4862.0, 4860.0, 4860.0, 4860.0, 4882.0, 4886.0, 4884.0, 4860.0, 4858.0, 4860.0, 4882.0, 4860.0, 4854.0, 4860.0, 4880.0, 4880.0, 4880.0, 4880.0, 4878.0, 4878.0, 4882.0, 4880.0, 4878.0, 4884.0, 4878.0],
      "WindowWidth": [18630.0, 18638.0, 18672.0, 18670.0, 18672.0, 18628.0, 18586.0, 18596.0, 18592.0, 18620.0, 18638.0, 18634.0, 18634.0, 18628.0, 18620.0, 18628.0, 18630.0, 18626.0, 18624.0, 18628.0, 18624.0, 18626.0, 18626.0, 18670.0, 18664.0, 18634.0, 18626.0, 18660.0, 18632.0, 18626.0, 18622.0, 18624.0, 18624.0, 18634.0, 18630.0, 18630.0, 18668.0, 18632.0, 18626.0, 18628.0, 18664.0, 18624.0, 18626.0, 18662.0, 18632.0, 18630.0, 18628.0, 18624.0, 18630.0, 18632.0, 18624.0, 18624.0, 18626.0, 18670.0, 18636.0, 18668.0, 18660.0, 18664.0, 18636.0, 18630.0, 18632.0, 18630.0, 18628.0, 18636.0, 18624.0, 18626.0, 18630.0, 18664.0, 18662.0, 18662.0, 18660.0, 18636.0, 18632.0, 18622.0, 18622.0, 18632.0, 18632.0, 18666.0, 18668.0, 18634.0, 18630.0, 18660.0, 18626.0, 18634.0, 18628.0, 18628.0, 18628.0, 18634.0, 18628.0, 18666.0, 18628.0, 18664.0, 18632.0, 18664.0, 18632.0, 18626.0, 18628.0, 18626.0, 18624.0, 18634.0, 18632.0, 18628.0, 18672.0, 18668.0, 18628.0, 18628.0, 18632.0, 18630.0, 18630.0, 18662.0, 18668.0, 18664.0, 18662.0, 18636.0, 18630.0, 18632.0, 18622.0, 18622.0, 18628.0, 18624.0, 18662.0, 18664.0, 18628.0, 18666.0, 18634.0, 18662.0, 18624.0, 18622.0, 18624.0, 18634.0, 18676.0, 18670.0, 18672.0, 18678.0, 18670.0, 18672.0, 18672.0, 18638.0, 18670.0, 18672.0, 18664.0, 18670.0, 18666.0, 18672.0, 18666.0, 18670.0, 18670.0, 18670.0, 18672.0, 18630.0, 18636.0, 18670.0, 18670.0, 18670.0, 18636.0, 18634.0, 18668.0, 18634.0, 18634.0, 18632.0, 18630.0, 18664.0, 18630.0, 18626.0, 18666.0, 18634.0, 18630.0, 18632.0, 18626.0, 18656.0, 18654.0, 18658.0, 18630.0, 18630.0, 18630.0, 18654.0, 18632.0, 18634.0, 18628.0, 18662.0, 18662.0, 18670.0, 18672.0, 18678.0, 18676.0, 18674.0, 18676.0, 18672.0, 18668.0, 18668.0]
    },
    "slices": {}
  }
}