{
  "AcquisitionMatrixPE": 104,
  "AcquisitionNumber": 1,
  "AcquisitionTime": "17:50:13.222500",
  "BandwidthPerPixelPhaseEncode": 17.17,
  "BaseResolution": 104,
  "BodyPartExamined": "BRAIN",
  "CoilString": "HC1-7;NC1_2",
  "ConsistencyInfo": "N4_VE11C_LATEST_20160120",
  "ConversionSoftware": "dcm2niix",
  "ConversionSoftwareVersion": "v1.0.20190902",
  "DerivedVendorReportedEchoSpacing": 0.000560011,
  "DeviceSerialNumber": "167006",
  "DwellTime": 2.1e-06,
  "EchoTime": 0.037,
  "EchoTrainLength": 104,
  "EffectiveEchoSpacing": 0.000560011,
  "FlipAngle": 52,
  "ImageComments": "Unaliased_MB4_PE3_LB",
  "ImageOrientationPatientDICOM": [0.998542, 0.0135872, 0.0522491, 0.00592556, 0.934381, -0.356227],
  "ImageType": [
    "ORIGINAL",
    "PRIMARY",
    "P",
    "MB",
    "ND",
    "MOSAIC"
],
  "ImagingFrequency": 123.259,
  "InPlanePhaseEncodingDirectionDICOM": "COL",
  "InstitutionAddress": "Chemin_Queen-Mary_4565_Montreal_District_CA_H3W_1W5",
  "InstitutionName": "IUGM",
  "InstitutionalDepartmentName": "Department",
  "MRAcquisitionType": "2D",
  "MagneticFieldStrength": 3,
  "Manufacturer": "Siemens",
  "ManufacturersModelName": "Prisma_fit",
  "Modality": "MR",
  "MultibandAccelerationFactor": 4,
  "PartialFourier": 1,
  "PatientPosition": "HFS",
  "PercentPhaseFOV": 100,
  "PhaseEncodingDirection": "j",
  "PhaseEncodingSteps": 104,
  "PhaseResolution": 1,
  "PixelBandwidth": 2290,
  "ProcedureStepDescription": "memory_things",
  "ProtocolName": "func_task-things_run-3",
  "PulseSequenceDetails": "%CustomerSeq%_cmrr_mbep2d_bold",
  "ReceiveCoilActiveElements": "HC1-7;NC1,2",
  "ReceiveCoilName": "HeadNeck_64",
  "ReconMatrixPE": 104,
  "RepetitionTime": 1.49,
  "SAR": 0.0530546,
  "ScanOptions": "FS",
  "ScanningSequence": "EP",
  "SequenceName": "epfid2d1_104",
  "SequenceVariant": "SK_SS",
  "SeriesDescription": "func_task-things_run-3",
  "SeriesNumber": 17,
  "ShimSetting": [637, -7173, -8809, 652, 79, 77, -59, 4],
  "SliceThickness": 2,
  "SliceTiming": [0, 0.7825, 0.0975, 0.88, 0.195, 0.98, 0.2925, 1.0775, 0.39, 1.175, 0.49, 1.2725, 0.5875, 1.37, 0.685, 0, 0.7825, 0.0975, 0.88, 0.195, 0.98, 0.2925, 1.0775, 0.39, 1.175, 0.49, 1.2725, 0.5875, 1.37, 0.685, 0, 0.7825, 0.0975, 0.88, 0.195, 0.98, 0.2925, 1.0775, 0.39, 1.175, 0.49, 1.2725, 0.5875, 1.37, 0.685, 0, 0.7825, 0.0975, 0.88, 0.195, 0.98, 0.2925, 1.0775, 0.39, 1.175, 0.49, 1.2725, 0.5875, 1.37, 0.685],
  "SoftwareVersions": "syngo_MR_E11",
  "SpacingBetweenSlices": 2,
  "StationName": "MRC35049",
  "TaskName": "things",
  "TotalReadoutTime": 0.0576811,
  "TxRefAmp": 280.021,
  "WipMemBlock": "96c5d755-2bdb-4329-b711-4afa9764bd26||Sequence: R016 ve11c/master r/e634e98; Dec 19 2017 11:00:25 by eja",
  "dcmmeta_affine": [
    [-1.997083306312561, 0.011851117946207523, 0.10732140392065048, 104.64358520507812],
    [-0.0271744504570961, 1.8687611818313599, -0.7120345234870911, -59.062286376953125],
    [0.1044982373714447, 0.7124543786048889, 1.8658747673034668, -64.32611846923828],
    [0.0, 0.0, 0.0, 1.0]
],
  "dcmmeta_reorient_transform": [
    [0.0, -1.0, 0.0, 103.0],
    [1.0, 0.0, 0.0, 0.0],
    [0.0, 0.0, 1.0, 0.0],
    [0.0, 0.0, 0.0, 1.0]
],
  "dcmmeta_shape": [104, 104, 60, 190],
  "dcmmeta_slice_dim": 2,
  "dcmmeta_version": 0.6,
  "global": {
    "const": {
      "AcquisitionMatrix": [104, 0, 0, 104],
      "AngioFlag": "N",
      "BitsAllocated": 16,
      "BitsStored": 16,
      "BodyPartExamined": "BRAIN",
      "Columns": 832,
      "EchoNumbers": 1,
      "EchoTime": 37.0,
      "EchoTrainLength": 104,
      "FlipAngle": 52.0,
      "HighBit": 15,
      "ImageOrientationPatient": [0.99854164497679, 0.01358722532853, 0.0522491201354, 0.00592555886727, 0.93438058725541, -0.356227183006],
      "ImagePositionPatient": [-837.11637525845, -823.54068292994, 230.35271476948],
      "ImageType": [
        "ORIGINAL",
        "PRIMARY",
        "P",
        "MB",
        "ND",
        "MOSAIC"
],
      "ImagedNucleus": "1H",
      "ImagingFrequency": 123.258917,
      "InPlanePhaseEncodingDirection": "COL",
      "LargestImagePixelValue": 4095,
      "MRAcquisitionType": "2D",
      "MagneticFieldStrength": 3.0,
      "Manufacturer": "SIEMENS",
      "ManufacturerModelName": "Prisma_fit",
      "Modality": "MR",
      "NumberOfAverages": 1.0,
      "NumberOfPhaseEncodingSteps": 104,
      "PercentPhaseFieldOfView": 100.0,
      "PercentSampling": 100.0,
      "PerformedProcedureStepStartTime": "170800.812000",
      "PhotometricInterpretation": "MONOCHROME2",
      "PixelBandwidth": 2290.0,
      "PixelRepresentation": 0,
      "PixelSpacing": [2.0, 2.0],
      "ProtocolName": "func_task-things_run-3",
      "RepetitionTime": 1490.0,
      "RescaleIntercept": -4096.0,
      "RescaleSlope": 2.0,
      "RescaleType": "US",
      "Rows": 832,
      "SAR": 0.05305463525642,
      "SamplesPerPixel": 1,
      "ScanOptions": "FS",
      "ScanningSequence": "EP",
      "SequenceName": "epfid2d1_104",
      "SequenceVariant": [
        "SK",
        "SS"
],
      "SeriesDescription": "func_task-things_run-3",
      "SeriesNumber": 17,
      "SeriesTime": "175143.054000",
      "SliceLocation": -33.369796525135,
      "SliceThickness": 2.0,
      "SmallestImagePixelValue": 0,
      "SoftwareVersions": "syngo MR E11",
      "SpacingBetweenSlices": 1.9999999650555,
      "SpecificCharacterSet": "ISO_IR 100",
      "StudyID": "1",
      "StudyTime": "170800.727000",
      "TransmitCoilName": "Body",
      "VariableFlipAngleFlag": "N",
      "WindowCenterWidthExplanation": "Algo1",
      "dBdt": 0.0},
    "slices": {}
  },
  "time": {
    "samples": {
      "AcquisitionNumber": [1, 2, 3, 4, 5, 6, 7, 8, 9, 10, 11, 12, 13, 14, 15, 16, 17, 18, 19, 20, 21, 22, 23, 24, 25, 26, 27, 28, 29, 30, 31, 32, 33, 34, 35, 36, 37, 38, 39, 40, 41, 42, 43, 44, 45, 46, 47, 48, 49, 50, 51, 52, 53, 54, 55, 56, 57, 58, 59, 60, 61, 62, 63, 64, 65, 66, 67, 68, 69, 70, 71, 72, 73, 74, 75, 76, 77, 78, 79, 80, 81, 82, 83, 84, 85, 86, 87, 88, 89, 90, 91, 92, 93, 94, 95, 96, 97, 98, 99, 100, 101, 102, 103, 104, 105, 106, 107, 108, 109, 110, 111, 112, 113, 114, 115, 116, 117, 118, 119, 120, 121, 122, 123, 124, 125, 126, 127, 128, 129, 130, 131, 132, 133, 134, 135, 136, 137, 138, 139, 140, 141, 142, 143, 144, 145, 146, 147, 148, 149, 150, 151, 152, 153, 154, 155, 156, 157, 158, 159, 160, 161, 162, 163, 164, 165, 166, 167, 168, 169, 170, 171, 172, 173, 174, 175, 176, 177, 178, 179, 180, 181, 182, 183, 184, 185, 186, 187, 188, 189, 190],
      "AcquisitionTime": ["175013.222500", "175014.712500", "175016.202500", "175017.692500", "175019.182500", "175020.672500", "175022.162500", "175023.652500", "175025.142500", "175026.632500", "175028.122500", "175029.612500", "175031.102500", "175032.592500", "175034.082500", "175035.572500", "175037.062500", "175038.552500", "175040.042500", "175041.532500", "175043.022500", "175044.512500", "175046.002500", "175047.492500", "175048.982500", "175050.472500", "175051.962500", "175053.452500", "175054.942500", "175056.432500", "175057.922500", "175059.412500", "175100.902500", "175102.392500", "175103.882500", "175105.372500", "175106.862500", "175108.352500", "175109.842500", "175111.332500", "175112.822500", "175114.312500", "175115.802500", "175117.292500", "175118.782500", "175120.272500", "175121.762500", "175123.252500", "175124.742500", "175126.232500", "175127.722500", "175129.212500", "175130.702500", "175132.192500", "175133.682500", "175135.172500", "175136.662500", "175138.152500", "175139.642500", "175141.132500", "175142.622500", "175144.112500", "175145.602500", "175147.092500", "175148.582500", "175150.072500", "175151.562500", "175153.052500", "175154.542500", "175156.032500", "175157.522500", "175159.012500", "175200.502500", "175201.992500", "175203.482500", "175204.972500", "175206.462500", "175207.952500", "175209.442500", "175210.932500", "175212.422500", "175213.912500", "175215.402500", "175216.892500", "175218.382500", "175219.872500", "175221.362500", "175222.852500", "175224.342500", "175225.832500", "175227.322500", "175228.812500", "175230.302500", "175231.792500", "175233.282500", "175234.772500", "175236.262500", "175237.752500", "175239.242500", "175240.732500", "175242.222500", "175243.712500", "175245.202500", "175246.692500", "175248.182500", "175249.672500", "175251.162500", "175252.652500", "175254.142500", "175255.632500", "175257.122500", "175258.612500", "175300.102500", "175301.592500", "175303.082500", "175304.572500", "175306.062500", "175307.552500", "175309.042500", "175310.532500", "175312.022500", "175313.512500", "175315.002500", "175316.492500", "175317.982500", "175319.472500", "175320.962500", "175322.452500", "175323.942500", "175325.432500", "175326.922500", "175328.412500", "175329.902500", "175331.392500", "175332.882500", "175334.372500", "175335.862500", "175337.352500", "175338.842500", "175340.332500", "175341.822500", "175343.312500", "175344.802500", "175346.292500", "175347.782500", "175349.272500", "175350.762500", "175352.252500", "175353.742500", "175355.232500", "175356.722500", "175358.212500", "175359.702500", "175401.192500", "175402.682500", "175404.172500", "175405.662500", "175407.152500", "175408.642500", "175410.132500", "175411.622500", "175413.112500", "175414.602500", "175416.092500", "175417.582500", "175419.072500", "175420.562500", "175422.052500", "175423.542500", "175425.032500", "175426.522500", "175428.012500", "175429.502500", "175430.992500", "175432.482500", "175433.972500", "175435.462500", "175436.952500", "175438.442500", "175439.932500", "175441.422500", "175442.912500", "175444.402500", "175445.892500", "175447.382500", "175448.872500", "175450.362500", "175451.852500", "175453.342500", "175454.832500"],
      "ContentTime": ["175143.056000", "175143.059000", "175143.061000", "175143.064000", "175143.067000", "175143.069000", "175143.072000", "175143.074000", "175143.077000", "175143.080000", "175143.082000", "175143.085000", "175143.087000", "175143.090000", "175143.092000", "175143.095000", "175143.097000", "175143.099000", "175143.102000", "175143.104000", "175143.107000", "175143.109000", "175143.112000", "175143.114000", "175143.121000", "175143.124000", "175143.126000", "175143.129000", "175143.131000", "175143.134000", "175143.136000", "175143.138000", "175143.141000", "175143.143000", "175143.146000", "175143.148000", "175143.151000", "175202.933000", "175202.935000", "175202.938000", "175202.941000", "175202.943000", "175202.946000", "175202.948000", "175202.950000", "175202.953000", "175202.955000", "175202.958000", "175202.960000", "175202.963000", "175202.965000", "175202.968000", "175202.970000", "175202.973000", "175202.975000", "175202.978000", "175202.980000", "175222.949000", "175222.952000", "175222.955000", "175222.957000", "175222.960000", "175222.962000", "175222.965000", "175222.967000", "175222.970000", "175222.972000", "175222.974000", "175222.977000", "175222.979000", "175222.982000", "175222.984000", "175222.987000", "175222.990000", "175222.993000", "175222.996000", "175223.000000", "175242.932000", "175242.935000", "175242.937000", "175242.940000", "175242.942000", "175242.945000", "175242.947000", "175242.949000", "175242.952000", "175242.954000", "175242.957000", "175242.959000", "175242.962000", "175242.964000", "175242.967000", "175242.970000", "175242.972000", "175242.975000", "175242.977000", "175242.980000", "175322.969000", "175322.971000", "175322.974000", "175322.976000", "175322.979000", "175322.981000", "175322.984000", "175322.986000", "175322.989000", "175322.991000", "175322.994000", "175322.996000", "175323.000000", "175323.002000", "175323.005000", "175323.007000", "175323.010000", "175323.013000", "175323.015000", "175323.017000", "175323.020000", "175323.023000", "175323.025000", "175323.027000", "175323.030000", "175323.032000", "175323.035000", "175323.037000", "175323.040000", "175402.965000", "175402.968000", "175402.970000", "175402.973000", "175402.975000", "175402.978000", "175402.980000", "175402.983000", "175402.985000", "175402.988000", "175402.990000", "175402.993000", "175402.995000", "175402.998000", "175403.002000", "175403.004000", "175403.007000", "175403.018000", "175403.020000", "175403.022000", "175403.025000", "175403.028000", "175403.031000", "175403.033000", "175403.036000", "175403.039000", "175403.041000", "175442.961000", "175442.963000", "175442.966000", "175442.968000", "175442.971000", "175442.973000", "175442.976000", "175442.978000", "175442.981000", "175442.983000", "175442.986000", "175442.988000", "175442.991000", "175442.993000", "175442.996000", "175442.998000", "175443.002000", "175443.004000", "175443.007000", "175443.009000", "175443.012000", "175443.014000", "175443.017000", "175443.019000", "175443.022000", "175443.024000", "175443.027000", "175457.381000", "175457.384000", "175457.387000", "175457.389000", "175457.392000", "175457.394000", "175457.397000", "175457.399000", "175457.402000", "175457.404000"],
      "InstanceCreationTime": ["175143.056000", "175143.059000", "175143.061000", "175143.064000", "175143.067000", "175143.069000", "175143.072000", "175143.074000", "175143.077000", "175143.080000", "175143.082000", "175143.085000", "175143.087000", "175143.090000", "175143.092000", "175143.095000", "175143.097000", "175143.099000", "175143.102000", "175143.104000", "175143.107000", "175143.109000", "175143.112000", "175143.114000", "175143.121000", "175143.124000", "175143.126000", "175143.129000", "175143.131000", "175143.134000", "175143.136000", "175143.138000", "175143.141000", "175143.143000", "175143.146000", "175143.148000", "175143.151000", "175202.933000", "175202.935000", "175202.938000", "175202.941000", "175202.943000", "175202.946000", "175202.948000", "175202.950000", "175202.953000", "175202.955000", "175202.958000", "175202.960000", "175202.963000", "175202.965000", "175202.968000", "175202.970000", "175202.973000", "175202.975000", "175202.978000", "175202.980000", "175222.949000", "175222.952000", "175222.955000", "175222.957000", "175222.960000", "175222.962000", "175222.965000", "175222.967000", "175222.970000", "175222.972000", "175222.974000", "175222.977000", "175222.979000", "175222.982000", "175222.984000", "175222.987000", "175222.990000", "175222.993000", "175222.996000", "175223.000000", "175242.932000", "175242.935000", "175242.937000", "175242.940000", "175242.942000", "175242.945000", "175242.947000", "175242.949000", "175242.952000", "175242.954000", "175242.957000", "175242.959000", "175242.962000", "175242.964000", "175242.967000", "175242.970000", "175242.972000", "175242.975000", "175242.977000", "175242.980000", "175322.969000", "175322.971000", "175322.974000", "175322.976000", "175322.979000", "175322.981000", "175322.984000", "175322.986000", "175322.989000", "175322.991000", "175322.994000", "175322.996000", "175323.000000", "175323.002000", "175323.005000", "175323.007000", "175323.010000", "175323.013000", "175323.015000", "175323.017000", "175323.020000", "175323.023000", "175323.025000", "175323.027000", "175323.030000", "175323.032000", "175323.035000", "175323.037000", "175323.040000", "175402.965000", "175402.968000", "175402.970000", "175402.973000", "175402.975000", "175402.978000", "175402.980000", "175402.983000", "175402.985000", "175402.988000", "175402.990000", "175402.993000", "175402.995000", "175402.998000", "175403.002000", "175403.004000", "175403.007000", "175403.018000", "175403.020000", "175403.022000", "175403.025000", "175403.028000", "175403.031000", "175403.033000", "175403.036000", "175403.039000", "175403.041000", "175442.961000", "175442.963000", "175442.966000", "175442.968000", "175442.971000", "175442.973000", "175442.976000", "175442.978000", "175442.981000", "175442.983000", "175442.986000", "175442.988000", "175442.991000", "175442.993000", "175442.996000", "175442.998000", "175443.002000", "175443.004000", "175443.007000", "175443.009000", "175443.012000", "175443.014000", "175443.017000", "175443.019000", "175443.022000", "175443.024000", "175443.027000", "175457.381000", "175457.384000", "175457.387000", "175457.389000", "175457.392000", "175457.394000", "175457.397000", "175457.399000", "175457.402000", "175457.404000"],
      "InstanceNumber": [1, 2, 3, 4, 5, 6, 7, 8, 9, 10, 11, 12, 13, 14, 15, 16, 17, 18, 19, 20, 21, 22, 23, 24, 25, 26, 27, 28, 29, 30, 31, 32, 33, 34, 35, 36, 37, 38, 39, 40, 41, 42, 43, 44, 45, 46, 47, 48, 49, 50, 51, 52, 53, 54, 55, 56, 57, 58, 59, 60, 61, 62, 63, 64, 65, 66, 67, 68, 69, 70, 71, 72, 73, 74, 75, 76, 77, 78, 79, 80, 81, 82, 83, 84, 85, 86, 87, 88, 89, 90, 91, 92, 93, 94, 95, 96, 97, 98, 99, 100, 101, 102, 103, 104, 105, 106, 107, 108, 109, 110, 111, 112, 113, 114, 115, 116, 117, 118, 119, 120, 121, 122, 123, 124, 125, 126, 127, 128, 129, 130, 131, 132, 133, 134, 135, 136, 137, 138, 139, 140, 141, 142, 143, 144, 145, 146, 147, 148, 149, 150, 151, 152, 153, 154, 155, 156, 157, 158, 159, 160, 161, 162, 163, 164, 165, 166, 167, 168, 169, 170, 171, 172, 173, 174, 175, 176, 177, 178, 179, 180, 181, 182, 183, 184, 185, 186, 187, 188, 189, 190],
      "WindowCenter": [4854.0, 4856.0, 4852.0, 4854.0, 4854.0, 4858.0, 4858.0, 4858.0, 4858.0, 4882.0, 4852.0, 4856.0, 4856.0, 4852.0, 4854.0, 4854.0, 4852.0, 4880.0, 4854.0, 4856.0, 4878.0, 4854.0, 4854.0, 4856.0, 4854.0, 4852.0, 4852.0, 4860.0, 4850.0, 4856.0, 4858.0, 4854.0, 4856.0, 4856.0, 4856.0, 4856.0, 4854.0, 4858.0, 4856.0, 4856.0, 4854.0, 4858.0, 4856.0, 4860.0, 4854.0, 4856.0, 4856.0, 4856.0, 4858.0, 4854.0, 4856.0, 4852.0, 4856.0, 4852.0, 4854.0, 4856.0, 4856.0, 4858.0, 4882.0, 4856.0, 4858.0, 4856.0, 4852.0, 4850.0, 4856.0, 4852.0, 4854.0, 4858.0, 4856.0, 4858.0, 4856.0, 4856.0, 4856.0, 4854.0, 4856.0, 4858.0, 4858.0, 4856.0, 4880.0, 4856.0, 4854.0, 4856.0, 4852.0, 4856.0, 4854.0, 4854.0, 4858.0, 4860.0, 4858.0, 4854.0, 4856.0, 4858.0, 4860.0, 4854.0, 4856.0, 4858.0, 4858.0, 4854.0, 4854.0, 4852.0, 4860.0, 4858.0, 4856.0, 4854.0, 4854.0, 4858.0, 4880.0, 4882.0, 4858.0, 4854.0, 4856.0, 4852.0, 4854.0, 4854.0, 4880.0, 4860.0, 4858.0, 4882.0, 4858.0, 4854.0, 4856.0, 4854.0, 4854.0, 4858.0, 4858.0, 4854.0, 4854.0, 4858.0, 4860.0, 4856.0, 4858.0, 4854.0, 4856.0, 4854.0, 4856.0, 4858.0, 4856.0, 4858.0, 4860.0, 4858.0, 4858.0, 4858.0, 4858.0, 4856.0, 4854.0, 4856.0, 4852.0, 4856.0, 4858.0, 4858.0, 4854.0, 4862.0, 4856.0, 4858.0, 4852.0, 4834.0, 4854.0, 4860.0, 4856.0, 4860.0, 4854.0, 4854.0, 4852.0, 4880.0, 4878.0, 4884.0, 4884.0, 4884.0, 4856.0, 4856.0, 4880.0, 4856.0, 4878.0, 4852.0, 4860.0, 4878.0, 4878.0, 4856.0, 4884.0, 4878.0, 4878.0, 4882.0, 4856.0, 4854.0, 4882.0, 4882.0, 4880.0, 4880.0, 4880.0, 4878.0],
      "WindowWidth": [18630.0, 18636.0, 18624.0, 18620.0, 18622.0, 18632.0, 18638.0, 18630.0, 18634.0, 18666.0, 18622.0, 18632.0, 18634.0, 18626.0, 18628.0, 18634.0, 18626.0, 18666.0, 18628.0, 18626.0, 18664.0, 18630.0, 18628.0, 18632.0, 18624.0, 18624.0, 18624.0, 18632.0, 18620.0, 18628.0, 18638.0, 18630.0, 18630.0, 18630.0, 18628.0, 18632.0, 18628.0, 18632.0, 18628.0, 18630.0, 18636.0, 18634.0, 18634.0, 18628.0, 18626.0, 18628.0, 18624.0, 18626.0, 18632.0, 18624.0, 18622.0, 18626.0, 18628.0, 18626.0, 18626.0, 18638.0, 18632.0, 18634.0, 18670.0, 18636.0, 18630.0, 18632.0, 18628.0, 18624.0, 18632.0, 18630.0, 18630.0, 18632.0, 18626.0, 18638.0, 18632.0, 18626.0, 18630.0, 18624.0, 18630.0, 18636.0, 18630.0, 18636.0, 18668.0, 18628.0, 18632.0, 18632.0, 18628.0, 18624.0, 18628.0, 18624.0, 18632.0, 18634.0, 18628.0, 18636.0, 18630.0, 18626.0, 18632.0, 18620.0, 18622.0, 18632.0, 18628.0, 18626.0, 18620.0, 18624.0, 18638.0, 18630.0, 18626.0, 18622.0, 18622.0, 18624.0, 18664.0, 18658.0, 18628.0, 18628.0, 18626.0, 18624.0, 18628.0, 18626.0, 18660.0, 18634.0, 18628.0, 18660.0, 18628.0, 18626.0, 18628.0, 18620.0, 18620.0, 18624.0, 18632.0, 18632.0, 18626.0, 18626.0, 18630.0, 18626.0, 18632.0, 18624.0, 18624.0, 18626.0, 18620.0, 18628.0, 18628.0, 18632.0, 18632.0, 18630.0, 18638.0, 18632.0, 18632.0, 18626.0, 18618.0, 18628.0, 18624.0, 18630.0, 18626.0, 18620.0, 18628.0, 18630.0, 18628.0, 18628.0, 18618.0, 18588.0, 18624.0, 18626.0, 18620.0, 18632.0, 18622.0, 18630.0, 18630.0, 18668.0, 18672.0, 18676.0, 18678.0, 18670.0, 18632.0, 18630.0, 18666.0, 18628.0, 18666.0, 18630.0, 18630.0, 18668.0, 18666.0, 18630.0, 18668.0, 18678.0, 18668.0, 18672.0, 18632.0, 18626.0, 18670.0, 18676.0, 18672.0, 18670.0, 18670.0, 18672.0]
    },
    "slices": {}
  }
}