{
  "AcquisitionMatrixPE": 104,
  "AcquisitionNumber": 1,
  "AcquisitionTime": "17:34:57.530000",
  "BandwidthPerPixelPhaseEncode": 17.17,
  "BaseResolution": 104,
  "BodyPartExamined": "BRAIN",
  "CoilString": "HC1-7;NC1_2",
  "ConsistencyInfo": "N4_VE11C_LATEST_20160120",
  "ConversionSoftware": "dcm2niix",
  "ConversionSoftwareVersion": "v1.0.20190902",
  "DerivedVendorReportedEchoSpacing": 0.000560011,
  "DeviceSerialNumber": "167006",
  "DwellTime": 2.1e-06,
  "EchoTime": 0.037,
  "EchoTrainLength": 104,
  "EffectiveEchoSpacing": 0.000560011,
  "FlipAngle": 52,
  "ImageComments": "Unaliased_MB4_PE3_LB",
  "ImageOrientationPatientDICOM": [0.998542, 0.0135872, 0.0522491, 0.00592556, 0.934381, -0.356227],
  "ImageType": [
    "ORIGINAL",
    "PRIMARY",
    "M",
    "MB",
    "ND",
    "MOSAIC"
],
  "ImagingFrequency": 123.259,
  "InPlanePhaseEncodingDirectionDICOM": "COL",
  "InstitutionAddress": "Chemin_Queen-Mary_4565_Montreal_District_CA_H3W_1W5",
  "InstitutionName": "IUGM",
  "InstitutionalDepartmentName": "Department",
  "MRAcquisitionType": "2D",
  "MagneticFieldStrength": 3,
  "Manufacturer": "Siemens",
  "ManufacturersModelName": "Prisma_fit",
  "Modality": "MR",
  "MultibandAccelerationFactor": 4,
  "PartialFourier": 1,
  "PatientPosition": "HFS",
  "PercentPhaseFOV": 100,
  "PhaseEncodingDirection": "j",
  "PhaseEncodingSteps": 104,
  "PhaseResolution": 1,
  "PixelBandwidth": 2290,
  "ProcedureStepDescription": "memory_things",
  "ProtocolName": "func_task-things_run-1",
  "PulseSequenceDetails": "%CustomerSeq%_cmrr_mbep2d_bold",
  "ReceiveCoilActiveElements": "HC1-7;NC1,2",
  "ReceiveCoilName": "HeadNeck_64",
  "ReconMatrixPE": 104,
  "RepetitionTime": 1.49,
  "SAR": 0.0530546,
  "ScanOptions": "FS",
  "ScanningSequence": "EP",
  "SequenceName": "epfid2d1_104",
  "SequenceVariant": "SK_SS",
  "SeriesDescription": "func_task-things_run-1",
  "SeriesNumber": 10,
  "ShimSetting": [637, -7173, -8809, 652, 79, 77, -59, 4],
  "SliceThickness": 2,
  "SliceTiming": [0, 0.785, 0.0975, 0.8825, 0.195, 0.98, 0.295, 1.0775, 0.3925, 1.175, 0.49, 1.275, 0.5875, 1.3725, 0.685, 0, 0.785, 0.0975, 0.8825, 0.195, 0.98, 0.295, 1.0775, 0.3925, 1.175, 0.49, 1.275, 0.5875, 1.3725, 0.685, 0, 0.785, 0.0975, 0.8825, 0.195, 0.98, 0.295, 1.0775, 0.3925, 1.175, 0.49, 1.275, 0.5875, 1.3725, 0.685, 0, 0.785, 0.0975, 0.8825, 0.195, 0.98, 0.295, 1.0775, 0.3925, 1.175, 0.49, 1.275, 0.5875, 1.3725, 0.685],
  "SoftwareVersions": "syngo_MR_E11",
  "SpacingBetweenSlices": 2,
  "StationName": "MRC35049",
  "TaskName": "things",
  "TotalReadoutTime": 0.0576811,
  "TxRefAmp": 280.021,
  "WipMemBlock": "33522a77-e903-4beb-b15c-e6f23e862f62||Sequence: R016 ve11c/master r/e634e98; Dec 19 2017 11:00:25 by eja",
  "dcmmeta_affine": [
    [-1.997083306312561, 0.011851117946207523, 0.10732140392065048, 104.64358520507812],
    [-0.0271744504570961, 1.8687611818313599, -0.7120345234870911, -59.062286376953125],
    [0.1044982373714447, 0.7124543786048889, 1.8658747673034668, -64.32611846923828],
    [0.0, 0.0, 0.0, 1.0]
],
  "dcmmeta_reorient_transform": [
    [0.0, -1.0, 0.0, 103.0],
    [1.0, 0.0, 0.0, 0.0],
    [0.0, 0.0, 1.0, 0.0],
    [0.0, 0.0, 0.0, 1.0]
],
  "dcmmeta_shape": [104, 104, 60, 190],
  "dcmmeta_slice_dim": 2,
  "dcmmeta_version": 0.6,
  "global": {
    "const": {
      "AcquisitionMatrix": [104, 0, 0, 104],
      "AngioFlag": "N",
      "BitsAllocated": 16,
      "BitsStored": 16,
      "BodyPartExamined": "BRAIN",
      "Columns": 832,
      "EchoNumbers": 1,
      "EchoTime": 37.0,
      "EchoTrainLength": 104,
      "FlipAngle": 52.0,
      "HighBit": 15,
      "ImageOrientationPatient": [0.99854164497679, 0.01358722532853, 0.0522491201354, 0.00592555886727, 0.93438058725541, -0.356227183006],
      "ImagePositionPatient": [-837.11637525845, -823.54068292994, 230.35271476948],
      "ImageType": [
        "ORIGINAL",
        "PRIMARY",
        "M",
        "MB",
        "ND",
        "MOSAIC"
],
      "ImagedNucleus": "1H",
      "ImagingFrequency": 123.258906,
      "InPlanePhaseEncodingDirection": "COL",
      "MRAcquisitionType": "2D",
      "MagneticFieldStrength": 3.0,
      "Manufacturer": "SIEMENS",
      "ManufacturerModelName": "Prisma_fit",
      "Modality": "MR",
      "NumberOfAverages": 1.0,
      "NumberOfPhaseEncodingSteps": 104,
      "PercentPhaseFieldOfView": 100.0,
      "PercentSampling": 100.0,
      "PerformedProcedureStepStartTime": "170800.812000",
      "PhotometricInterpretation": "MONOCHROME2",
      "PixelBandwidth": 2290.0,
      "PixelRepresentation": 0,
      "PixelSpacing": [2.0, 2.0],
      "ProtocolName": "func_task-things_run-1",
      "RepetitionTime": 1490.0,
      "Rows": 832,
      "SAR": 0.05305463525642,
      "SamplesPerPixel": 1,
      "ScanOptions": "FS",
      "ScanningSequence": "EP",
      "SequenceName": "epfid2d1_104",
      "SequenceVariant": [
        "SK",
        "SS"
],
      "SeriesDescription": "func_task-things_run-1",
      "SeriesNumber": 10,
      "SeriesTime": "173604.769000",
      "SliceLocation": -33.369796525135,
      "SliceThickness": 2.0,
      "SmallestImagePixelValue": 0,
      "SoftwareVersions": "syngo MR E11",
      "SpacingBetweenSlices": 1.9999999650555,
      "SpecificCharacterSet": "ISO_IR 100",
      "StudyID": "1",
      "StudyTime": "170800.727000",
      "TransmitCoilName": "Body",
      "VariableFlipAngleFlag": "N",
      "WindowCenterWidthExplanation": "Algo1",
      "dBdt": 0.0},
    "slices": {}
  },
  "time": {
    "samples": {
      "AcquisitionNumber": [1, 2, 3, 4, 5, 6, 7, 8, 9, 10, 11, 12, 13, 14, 15, 16, 17, 18, 19, 20, 21, 22, 23, 24, 25, 26, 27, 28, 29, 30, 31, 32, 33, 34, 35, 36, 37, 38, 39, 40, 41, 42, 43, 44, 45, 46, 47, 48, 49, 50, 51, 52, 53, 54, 55, 56, 57, 58, 59, 60, 61, 62, 63, 64, 65, 66, 67, 68, 69, 70, 71, 72, 73, 74, 75, 76, 77, 78, 79, 80, 81, 82, 83, 84, 85, 86, 87, 88, 89, 90, 91, 92, 93, 94, 95, 96, 97, 98, 99, 100, 101, 102, 103, 104, 105, 106, 107, 108, 109, 110, 111, 112, 113, 114, 115, 116, 117, 118, 119, 120, 121, 122, 123, 124, 125, 126, 127, 128, 129, 130, 131, 132, 133, 134, 135, 136, 137, 138, 139, 140, 141, 142, 143, 144, 145, 146, 147, 148, 149, 150, 151, 152, 153, 154, 155, 156, 157, 158, 159, 160, 161, 162, 163, 164, 165, 166, 167, 168, 169, 170, 171, 172, 173, 174, 175, 176, 177, 178, 179, 180, 181, 182, 183, 184, 185, 186, 187, 188, 189, 190],
      "AcquisitionTime": ["173457.530000", "173459.020000", "173500.510000", "173502.000000", "173503.490000", "173504.980000", "173506.470000", "173507.960000", "173509.450000", "173510.940000", "173512.430000", "173513.920000", "173515.410000", "173516.900000", "173518.390000", "173519.880000", "173521.370000", "173522.860000", "173524.350000", "173525.840000", "173527.330000", "173528.820000", "173530.310000", "173531.800000", "173533.290000", "173534.780000", "173536.270000", "173537.760000", "173539.250000", "173540.740000", "173542.230000", "173543.720000", "173545.210000", "173546.700000", "173548.190000", "173549.680000", "173551.170000", "173552.660000", "173554.150000", "173555.640000", "173557.130000", "173558.620000", "173600.110000", "173601.600000", "173603.090000", "173604.580000", "173606.070000", "173607.560000", "173609.050000", "173610.540000", "173612.030000", "173613.520000", "173615.010000", "173616.500000", "173617.990000", "173619.480000", "173620.970000", "173622.460000", "173623.950000", "173625.440000", "173626.930000", "173628.420000", "173629.910000", "173631.400000", "173632.890000", "173634.380000", "173635.870000", "173637.360000", "173638.850000", "173640.340000", "173641.830000", "173643.320000", "173644.810000", "173646.300000", "173647.790000", "173649.280000", "173650.770000", "173652.260000", "173653.750000", "173655.240000", "173656.730000", "173658.220000", "173659.710000", "173701.200000", "173702.690000", "173704.180000", "173705.670000", "173707.160000", "173708.650000", "173710.140000", "173711.630000", "173713.120000", "173714.610000", "173716.100000", "173717.590000", "173719.080000", "173720.570000", "173722.060000", "173723.550000", "173725.040000", "173726.530000", "173728.020000", "173729.510000", "173731.000000", "173732.490000", "173733.980000", "173735.470000", "173736.960000", "173738.450000", "173739.940000", "173741.430000", "173742.920000", "173744.410000", "173745.900000", "173747.390000", "173748.880000", "173750.370000", "173751.860000", "173753.350000", "173754.840000", "173756.330000", "173757.820000", "173759.310000", "173800.800000", "173802.290000", "173803.780000", "173805.270000", "173806.760000", "173808.250000", "173809.740000", "173811.230000", "173812.720000", "173814.210000", "173815.700000", "173817.190000", "173818.680000", "173820.170000", "173821.660000", "173823.150000", "173824.640000", "173826.130000", "173827.620000", "173829.110000", "173830.600000", "173832.090000", "173833.580000", "173835.070000", "173836.560000", "173838.050000", "173839.540000", "173841.030000", "173842.520000", "173844.010000", "173845.500000", "173846.990000", "173848.480000", "173849.970000", "173851.460000", "173852.950000", "173854.440000", "173855.930000", "173857.420000", "173858.910000", "173900.400000", "173901.890000", "173903.380000", "173904.870000", "173906.360000", "173907.850000", "173909.340000", "173910.830000", "173912.320000", "173913.810000", "173915.300000", "173916.790000", "173918.280000", "173919.770000", "173921.260000", "173922.750000", "173924.240000", "173925.730000", "173927.220000", "173928.710000", "173930.200000", "173931.690000", "173933.180000", "173934.670000", "173936.160000", "173937.650000", "173939.140000"],
      "ContentTime": ["173604.772000", "173604.780000", "173604.783000", "173604.787000", "173604.790000", "173604.793000", "173604.797000", "173604.800000", "173604.803000", "173604.807000", "173604.810000", "173604.813000", "173604.816000", "173604.820000", "173604.823000", "173624.740000", "173624.745000", "173624.748000", "173624.752000", "173624.755000", "173624.758000", "173624.761000", "173624.765000", "173624.768000", "173624.771000", "173624.775000", "173624.792000", "173624.796000", "173624.799000", "173624.802000", "173624.805000", "173624.809000", "173624.812000", "173624.815000", "173624.819000", "173644.741000", "173644.745000", "173644.748000", "173644.752000", "173644.756000", "173644.759000", "173644.763000", "173644.767000", "173644.770000", "173644.774000", "173644.778000", "173644.781000", "173644.784000", "173644.788000", "173644.791000", "173644.795000", "173644.799000", "173644.802000", "173644.805000", "173644.809000", "173704.760000", "173704.764000", "173704.767000", "173704.770000", "173704.774000", "173704.777000", "173704.780000", "173704.784000", "173704.787000", "173704.790000", "173704.793000", "173704.797000", "173704.800000", "173704.803000", "173704.807000", "173704.810000", "173704.813000", "173704.816000", "173704.820000", "173704.823000", "173724.740000", "173724.744000", "173724.747000", "173724.750000", "173724.754000", "173724.757000", "173724.760000", "173724.764000", "173724.767000", "173724.770000", "173724.773000", "173724.777000", "173724.780000", "173724.783000", "173724.787000", "173724.790000", "173724.793000", "173724.797000", "173724.800000", "173724.803000", "173724.807000", "173804.740000", "173804.744000", "173804.747000", "173804.751000", "173804.754000", "173804.757000", "173804.761000", "173804.764000", "173804.767000", "173804.771000", "173804.774000", "173804.778000", "173804.781000", "173804.785000", "173804.788000", "173804.792000", "173804.795000", "173804.799000", "173804.802000", "173804.806000", "173804.809000", "173804.812000", "173804.816000", "173804.819000", "173804.822000", "173804.825000", "173804.829000", "173804.832000", "173844.740000", "173844.751000", "173844.754000", "173844.758000", "173844.761000", "173844.764000", "173844.768000", "173844.771000", "173844.774000", "173844.777000", "173844.781000", "173844.784000", "173844.787000", "173844.791000", "173844.794000", "173844.797000", "173844.801000", "173844.804000", "173844.807000", "173844.810000", "173844.814000", "173844.817000", "173844.820000", "173844.824000", "173844.827000", "173844.830000", "173844.833000", "173924.740000", "173924.744000", "173924.748000", "173924.751000", "173924.754000", "173924.758000", "173924.761000", "173924.764000", "173924.768000", "173924.771000", "173924.774000", "173924.778000", "173924.781000", "173924.784000", "173924.788000", "173924.791000", "173924.794000", "173924.798000", "173924.801000", "173924.804000", "173924.807000", "173924.811000", "173924.814000", "173924.817000", "173924.821000", "173924.824000", "173924.827000", "173941.763000", "173941.767000", "173941.770000", "173941.773000", "173941.777000", "173941.780000", "173941.784000", "173941.787000", "173941.791000", "173941.794000", "173941.798000", "173941.801000"],
      "InstanceCreationTime": ["173604.772000", "173604.780000", "173604.783000", "173604.787000", "173604.790000", "173604.793000", "173604.797000", "173604.800000", "173604.803000", "173604.807000", "173604.810000", "173604.813000", "173604.816000", "173604.820000", "173604.823000", "173624.740000", "173624.745000", "173624.748000", "173624.752000", "173624.755000", "173624.758000", "173624.761000", "173624.765000", "173624.768000", "173624.771000", "173624.775000", "173624.792000", "173624.796000", "173624.799000", "173624.802000", "173624.805000", "173624.809000", "173624.812000", "173624.815000", "173624.819000", "173644.741000", "173644.745000", "173644.748000", "173644.752000", "173644.756000", "173644.759000", "173644.763000", "173644.767000", "173644.770000", "173644.774000", "173644.778000", "173644.781000", "173644.784000", "173644.788000", "173644.791000", "173644.795000", "173644.799000", "173644.802000", "173644.805000", "173644.809000", "173704.760000", "173704.764000", "173704.767000", "173704.770000", "173704.774000", "173704.777000", "173704.780000", "173704.784000", "173704.787000", "173704.790000", "173704.793000", "173704.797000", "173704.800000", "173704.803000", "173704.807000", "173704.810000", "173704.813000", "173704.816000", "173704.820000", "173704.823000", "173724.740000", "173724.744000", "173724.747000", "173724.750000", "173724.754000", "173724.757000", "173724.760000", "173724.764000", "173724.767000", "173724.770000", "173724.773000", "173724.777000", "173724.780000", "173724.783000", "173724.787000", "173724.790000", "173724.793000", "173724.797000", "173724.800000", "173724.803000", "173724.807000", "173804.740000", "173804.744000", "173804.747000", "173804.751000", "173804.754000", "173804.757000", "173804.761000", "173804.764000", "173804.767000", "173804.771000", "173804.774000", "173804.778000", "173804.781000", "173804.785000", "173804.788000", "173804.792000", "173804.795000", "173804.799000", "173804.802000", "173804.806000", "173804.809000", "173804.812000", "173804.816000", "173804.819000", "173804.822000", "173804.825000", "173804.829000", "173804.832000", "173844.740000", "173844.751000", "173844.754000", "173844.758000", "173844.761000", "173844.764000", "173844.768000", "173844.771000", "173844.774000", "173844.777000", "173844.781000", "173844.784000", "173844.787000", "173844.791000", "173844.794000", "173844.797000", "173844.801000", "173844.804000", "173844.807000", "173844.810000", "173844.814000", "173844.817000", "173844.820000", "173844.824000", "173844.827000", "173844.830000", "173844.833000", "173924.740000", "173924.744000", "173924.748000", "173924.751000", "173924.754000", "173924.758000", "173924.761000", "173924.764000", "173924.768000", "173924.771000", "173924.774000", "173924.778000", "173924.781000", "173924.784000", "173924.788000", "173924.791000", "173924.794000", "173924.798000", "173924.801000", "173924.804000", "173924.807000", "173924.811000", "173924.814000", "173924.817000", "173924.821000", "173924.824000", "173924.827000", "173941.763000", "173941.767000", "173941.770000", "173941.773000", "173941.777000", "173941.780000", "173941.784000", "173941.787000", "173941.791000", "173941.794000", "173941.798000", "173941.801000"],
      "InstanceNumber": [1, 2, 3, 4, 5, 6, 7, 8, 9, 10, 11, 12, 13, 14, 15, 16, 17, 18, 19, 20, 21, 22, 23, 24, 25, 26, 27, 28, 29, 30, 31, 32, 33, 34, 35, 36, 37, 38, 39, 40, 41, 42, 43, 44, 45, 46, 47, 48, 49, 50, 51, 52, 53, 54, 55, 56, 57, 58, 59, 60, 61, 62, 63, 64, 65, 66, 67, 68, 69, 70, 71, 72, 73, 74, 75, 76, 77, 78, 79, 80, 81, 82, 83, 84, 85, 86, 87, 88, 89, 90, 91, 92, 93, 94, 95, 96, 97, 98, 99, 100, 101, 102, 103, 104, 105, 106, 107, 108, 109, 110, 111, 112, 113, 114, 115, 116, 117, 118, 119, 120, 121, 122, 123, 124, 125, 126, 127, 128, 129, 130, 131, 132, 133, 134, 135, 136, 137, 138, 139, 140, 141, 142, 143, 144, 145, 146, 147, 148, 149, 150, 151, 152, 153, 154, 155, 156, 157, 158, 159, 160, 161, 162, 163, 164, 165, 166, 167, 168, 169, 170, 171, 172, 173, 174, 175, 176, 177, 178, 179, 180, 181, 182, 183, 184, 185, 186, 187, 188, 189, 190],
      "LargestImagePixelValue": [46940, 46773, 45465, 43254, 41743, 41534, 43662, 44276, 43834, 43701, 42792, 42557, 42566, 41891, 42520, 41190, 41764, 41831, 44430, 44126, 41716, 41363, 43780, 44215, 43630, 42884, 43400, 44769, 42432, 42300, 44514, 44495, 43068, 42899, 44499, 43990, 43126, 43098, 44876, 44318, 43888, 43842, 44511, 43966, 43928, 43786, 42317, 42397, 43647, 43574, 43353, 41876, 43787, 44643, 43065, 42529, 44076, 44232, 43458, 43314, 44122, 42434, 42253, 44360, 43761, 43173, 44296, 44170, 44457, 44449, 44252, 44683, 44143, 44423, 43498, 44475, 45189, 44610, 44471, 46282, 45064, 44974, 45368, 44568, 46367, 45619, 44767, 45028, 46242, 45498, 45635, 45258, 47020, 46668, 45137, 45040, 45907, 46117, 45669, 45076, 46339, 46874, 46339, 46519, 45633, 42562, 44286, 43349, 43839, 44410, 44394, 44319, 44831, 43691, 45113, 44298, 43773, 44015, 44268, 45629, 44186, 43871, 44037, 45117, 44072, 43222, 43233, 43257, 42795, 43296, 44385, 43661, 43051, 42628, 43752, 42725, 42884, 41003, 42491, 41243, 41994, 41671, 42226, 41177, 41412, 41475, 41260, 41315, 39303, 38767, 42767, 39539, 39062, 39836, 39729, 40864, 40282, 39778, 39878, 39606, 39312, 39490, 39614, 39493, 38948, 39183, 39578, 39024, 39603, 40452, 40246, 40089, 40249, 42536, 40342, 46367, 40786, 39511, 39153, 39158, 39537, 39297, 39625, 40288, 39982, 40562, 40269, 41043, 40325, 39888],
      "WindowCenter": [10537.0, 10483.0, 10462.0, 10462.0, 10457.0, 10453.0, 10461.0, 10472.0, 10490.0, 10506.0, 10511.0, 10496.0, 10485.0, 10471.0, 10483.0, 10492.0, 10506.0, 10491.0, 10506.0, 10500.0, 10490.0, 10505.0, 10521.0, 10512.0, 10512.0, 10511.0, 10524.0, 10531.0, 10505.0, 10495.0, 10499.0, 10497.0, 10494.0, 10524.0, 10544.0, 10530.0, 10510.0, 10499.0, 10506.0, 10498.0, 10504.0, 10508.0, 10504.0, 10489.0, 10487.0, 10493.0, 10489.0, 10500.0, 10505.0, 10509.0, 10507.0, 10503.0, 10526.0, 10530.0, 10511.0, 10507.0, 10514.0, 10504.0, 10501.0, 10519.0, 10534.0, 10517.0, 10516.0, 10520.0, 10500.0, 10500.0, 10513.0, 10515.0, 10521.0, 10537.0, 10534.0, 10522.0, 10514.0, 10514.0, 10498.0, 10514.0, 10531.0, 10526.0, 10525.0, 10534.0, 10516.0, 10520.0, 10523.0, 10512.0, 10535.0, 10528.0, 10522.0, 10527.0, 10533.0, 10512.0, 10502.0, 10481.0, 10519.0, 10524.0, 10526.0, 10528.0, 10516.0, 10498.0, 10490.0, 10500.0, 10503.0, 10501.0, 10500.0, 10508.0, 10501.0, 10451.0, 10506.0, 10506.0, 10521.0, 10529.0, 10527.0, 10522.0, 10513.0, 10505.0, 10515.0, 10496.0, 10491.0, 10495.0, 10503.0, 10525.0, 10511.0, 10500.0, 10488.0, 10505.0, 10509.0, 10518.0, 10518.0, 10514.0, 10507.0, 10521.0, 10530.0, 10525.0, 10522.0, 10507.0, 10521.0, 10514.0, 10525.0, 10496.0, 10492.0, 10474.0, 10475.0, 10494.0, 10511.0, 10500.0, 10490.0, 10479.0, 10471.0, 10478.0, 10457.0, 10445.0, 10488.0, 10455.0, 10464.0, 10471.0, 10474.0, 10497.0, 10489.0, 10474.0, 10471.0, 10473.0, 10466.0, 10457.0, 10465.0, 10482.0, 10494.0, 10488.0, 10483.0, 10453.0, 10455.0, 10468.0, 10471.0, 10478.0, 10486.0, 10497.0, 10470.0, 10524.0, 10472.0, 10466.0, 10467.0, 10474.0, 10472.0, 10463.0, 10461.0, 10467.0, 10458.0, 10470.0, 10457.0, 10473.0, 10467.0, 10469.0],
      "WindowWidth": [22403.0, 22257.0, 22204.0, 22211.0, 22210.0, 22194.0, 22205.0, 22229.0, 22271.0, 22316.0, 22325.0, 22291.0, 22261.0, 22234.0, 22259.0, 22292.0, 22320.0, 22283.0, 22306.0, 22294.0, 22281.0, 22323.0, 22346.0, 22325.0, 22323.0, 22329.0, 22355.0, 22360.0, 22322.0, 22290.0, 22292.0, 22286.0, 22284.0, 22362.0, 22398.0, 22368.0, 22325.0, 22300.0, 22309.0, 22291.0, 22303.0, 22316.0, 22300.0, 22266.0, 22261.0, 22273.0, 22276.0, 22304.0, 22311.0, 22319.0, 22317.0, 22316.0, 22361.0, 22363.0, 22323.0, 22318.0, 22325.0, 22301.0, 22299.0, 22344.0, 22374.0, 22342.0, 22340.0, 22340.0, 22299.0, 22301.0, 22328.0, 22333.0, 22342.0, 22381.0, 22382.0, 22345.0, 22331.0, 22328.0, 22295.0, 22335.0, 22366.0, 22354.0, 22352.0, 22364.0, 22325.0, 22332.0, 22339.0, 22316.0, 22365.0, 22347.0, 22338.0, 22354.0, 22355.0, 22309.0, 22285.0, 22244.0, 22327.0, 22335.0, 22350.0, 22352.0, 22319.0, 22278.0, 22257.0, 22292.0, 22292.0, 22281.0, 22279.0, 22298.0, 22282.0, 22182.0, 22306.0, 22306.0, 22350.0, 22357.0, 22351.0, 22342.0, 22321.0, 22306.0, 22324.0, 22285.0, 22275.0, 22282.0, 22300.0, 22360.0, 22319.0, 22293.0, 22261.0, 22298.0, 22309.0, 22341.0, 22338.0, 22328.0, 22313.0, 22350.0, 22361.0, 22354.0, 22352.0, 22314.0, 22350.0, 22331.0, 22368.0, 22299.0, 22276.0, 22240.0, 22238.0, 22291.0, 22326.0, 22299.0, 22271.0, 22244.0, 22225.0, 22244.0, 22203.0, 22177.0, 22267.0, 22200.0, 22224.0, 22238.0, 22246.0, 22294.0, 22282.0, 22248.0, 22237.0, 22248.0, 22230.0, 22209.0, 22227.0, 22269.0, 22296.0, 22282.0, 22266.0, 22195.0, 22197.0, 22232.0, 22238.0, 22248.0, 22271.0, 22298.0, 22240.0, 22343.0, 22244.0, 22227.0, 22232.0, 22245.0, 22237.0, 22216.0, 22211.0, 22226.0, 22203.0, 22229.0, 22199.0, 22241.0, 22224.0, 22231.0]
    },
    "slices": {}
  }
}