{
  "AcquisitionMatrixPE": 104,
  "AcquisitionNumber": 1,
  "AcquisitionTime": "17:43:0.165000",
  "BandwidthPerPixelPhaseEncode": 17.17,
  "BaseResolution": 104,
  "BodyPartExamined": "BRAIN",
  "CoilString": "HC1-7;NC1_2",
  "ConsistencyInfo": "N4_VE11C_LATEST_20160120",
  "ConversionSoftware": "dcm2niix",
  "ConversionSoftwareVersion": "v1.0.20190902",
  "DerivedVendorReportedEchoSpacing": 0.000560011,
  "DeviceSerialNumber": "167006",
  "DwellTime": 2.1e-06,
  "EchoTime": 0.037,
  "EchoTrainLength": 104,
  "EffectiveEchoSpacing": 0.000560011,
  "FlipAngle": 52,
  "ImageComments": "Unaliased_MB4_PE3_LB",
  "ImageOrientationPatientDICOM": [0.998542, 0.0135872, 0.0522491, 0.00592556, 0.934381, -0.356227],
  "ImageType": [
    "ORIGINAL",
    "PRIMARY",
    "M",
    "MB",
    "ND",
    "MOSAIC"
],
  "ImagingFrequency": 123.259,
  "InPlanePhaseEncodingDirectionDICOM": "COL",
  "InstitutionAddress": "Chemin_Queen-Mary_4565_Montreal_District_CA_H3W_1W5",
  "InstitutionName": "IUGM",
  "InstitutionalDepartmentName": "Department",
  "MRAcquisitionType": "2D",
  "MagneticFieldStrength": 3,
  "Manufacturer": "Siemens",
  "ManufacturersModelName": "Prisma_fit",
  "Modality": "MR",
  "MultibandAccelerationFactor": 4,
  "PartialFourier": 1,
  "PatientPosition": "HFS",
  "PercentPhaseFOV": 100,
  "PhaseEncodingDirection": "j",
  "PhaseEncodingSteps": 104,
  "PhaseResolution": 1,
  "PixelBandwidth": 2290,
  "ProcedureStepDescription": "memory_things",
  "ProtocolName": "func_task-things_run-2",
  "PulseSequenceDetails": "%CustomerSeq%_cmrr_mbep2d_bold",
  "ReceiveCoilActiveElements": "HC1-7;NC1,2",
  "ReceiveCoilName": "HeadNeck_64",
  "ReconMatrixPE": 104,
  "RepetitionTime": 1.49,
  "SAR": 0.0530546,
  "ScanOptions": "FS",
  "ScanningSequence": "EP",
  "SequenceName": "epfid2d1_104",
  "SequenceVariant": "SK_SS",
  "SeriesDescription": "func_task-things_run-2",
  "SeriesNumber": 13,
  "ShimSetting": [637, -7173, -8809, 652, 79, 77, -59, 4],
  "SliceThickness": 2,
  "SliceTiming": [0, 0.7825, 0.0975, 0.88, 0.195, 0.98, 0.2925, 1.0775, 0.39, 1.175, 0.49, 1.2725, 0.5875, 1.37, 0.685, 0, 0.7825, 0.0975, 0.88, 0.195, 0.98, 0.2925, 1.0775, 0.39, 1.175, 0.49, 1.2725, 0.5875, 1.37, 0.685, 0, 0.7825, 0.0975, 0.88, 0.195, 0.98, 0.2925, 1.0775, 0.39, 1.175, 0.49, 1.2725, 0.5875, 1.37, 0.685, 0, 0.7825, 0.0975, 0.88, 0.195, 0.98, 0.2925, 1.0775, 0.39, 1.175, 0.49, 1.2725, 0.5875, 1.37, 0.685],
  "SoftwareVersions": "syngo_MR_E11",
  "SpacingBetweenSlices": 2,
  "StationName": "MRC35049",
  "TaskName": "things",
  "TotalReadoutTime": 0.0576811,
  "TxRefAmp": 280.021,
  "WipMemBlock": "1f3daa75-1c3c-4c40-a0b6-a696230dc462||Sequence: R016 ve11c/master r/e634e98; Dec 19 2017 11:00:25 by eja",
  "dcmmeta_affine": [
    [-1.997083306312561, 0.011851117946207523, 0.10732140392065048, 104.64358520507812],
    [-0.0271744504570961, 1.8687611818313599, -0.7120345234870911, -59.062286376953125],
    [0.1044982373714447, 0.7124543786048889, 1.8658747673034668, -64.32611846923828],
    [0.0, 0.0, 0.0, 1.0]
],
  "dcmmeta_reorient_transform": [
    [0.0, -1.0, 0.0, 103.0],
    [1.0, 0.0, 0.0, 0.0],
    [0.0, 0.0, 1.0, 0.0],
    [0.0, 0.0, 0.0, 1.0]
],
  "dcmmeta_shape": [104, 104, 60, 190],
  "dcmmeta_slice_dim": 2,
  "dcmmeta_version": 0.6,
  "global": {
    "const": {
      "AcquisitionMatrix": [104, 0, 0, 104],
      "AngioFlag": "N",
      "BitsAllocated": 16,
      "BitsStored": 16,
      "BodyPartExamined": "BRAIN",
      "Columns": 832,
      "EchoNumbers": 1,
      "EchoTime": 37.0,
      "EchoTrainLength": 104,
      "FlipAngle": 52.0,
      "HighBit": 15,
      "ImageOrientationPatient": [0.99854164497679, 0.01358722532853, 0.0522491201354, 0.00592555886727, 0.93438058725541, -0.356227183006],
      "ImagePositionPatient": [-837.11637525845, -823.54068292994, 230.35271476948],
      "ImageType": [
        "ORIGINAL",
        "PRIMARY",
        "M",
        "MB",
        "ND",
        "MOSAIC"
],
      "ImagedNucleus": "1H",
      "ImagingFrequency": 123.258914,
      "InPlanePhaseEncodingDirection": "COL",
      "MRAcquisitionType": "2D",
      "MagneticFieldStrength": 3.0,
      "Manufacturer": "SIEMENS",
      "ManufacturerModelName": "Prisma_fit",
      "Modality": "MR",
      "NumberOfAverages": 1.0,
      "NumberOfPhaseEncodingSteps": 104,
      "PercentPhaseFieldOfView": 100.0,
      "PercentSampling": 100.0,
      "PerformedProcedureStepStartTime": "170800.812000",
      "PhotometricInterpretation": "MONOCHROME2",
      "PixelBandwidth": 2290.0,
      "PixelRepresentation": 0,
      "PixelSpacing": [2.0, 2.0],
      "ProtocolName": "func_task-things_run-2",
      "RepetitionTime": 1490.0,
      "Rows": 832,
      "SAR": 0.05305463525642,
      "SamplesPerPixel": 1,
      "ScanOptions": "FS",
      "ScanningSequence": "EP",
      "SequenceName": "epfid2d1_104",
      "SequenceVariant": [
        "SK",
        "SS"
],
      "SeriesDescription": "func_task-things_run-2",
      "SeriesNumber": 13,
      "SeriesTime": "174415.013000",
      "SliceLocation": -33.369796525135,
      "SliceThickness": 2.0,
      "SmallestImagePixelValue": 0,
      "SoftwareVersions": "syngo MR E11",
      "SpacingBetweenSlices": 1.9999999650555,
      "SpecificCharacterSet": "ISO_IR 100",
      "StudyID": "1",
      "StudyTime": "170800.727000",
      "TransmitCoilName": "Body",
      "VariableFlipAngleFlag": "N",
      "WindowCenterWidthExplanation": "Algo1",
      "dBdt": 0.0},
    "slices": {}
  },
  "time": {
    "samples": {
      "AcquisitionNumber": [1, 2, 3, 4, 5, 6, 7, 8, 9, 10, 11, 12, 13, 14, 15, 16, 17, 18, 19, 20, 21, 22, 23, 24, 25, 26, 27, 28, 29, 30, 31, 32, 33, 34, 35, 36, 37, 38, 39, 40, 41, 42, 43, 44, 45, 46, 47, 48, 49, 50, 51, 52, 53, 54, 55, 56, 57, 58, 59, 60, 61, 62, 63, 64, 65, 66, 67, 68, 69, 70, 71, 72, 73, 74, 75, 76, 77, 78, 79, 80, 81, 82, 83, 84, 85, 86, 87, 88, 89, 90, 91, 92, 93, 94, 95, 96, 97, 98, 99, 100, 101, 102, 103, 104, 105, 106, 107, 108, 109, 110, 111, 112, 113, 114, 115, 116, 117, 118, 119, 120, 121, 122, 123, 124, 125, 126, 127, 128, 129, 130, 131, 132, 133, 134, 135, 136, 137, 138, 139, 140, 141, 142, 143, 144, 145, 146, 147, 148, 149, 150, 151, 152, 153, 154, 155, 156, 157, 158, 159, 160, 161, 162, 163, 164, 165, 166, 167, 168, 169, 170, 171, 172, 173, 174, 175, 176, 177, 178, 179, 180, 181, 182, 183, 184, 185, 186, 187, 188, 189, 190],
      "AcquisitionTime": ["174300.165000", "174301.655000", "174303.145000", "174304.635000", "174306.125000", "174307.615000", "174309.105000", "174310.595000", "174312.085000", "174313.575000", "174315.065000", "174316.555000", "174318.045000", "174319.535000", "174321.025000", "174322.515000", "174324.005000", "174325.495000", "174326.985000", "174328.475000", "174329.965000", "174331.455000", "174332.945000", "174334.435000", "174335.925000", "174337.415000", "174338.905000", "174340.395000", "174341.885000", "174343.375000", "174344.865000", "174346.355000", "174347.845000", "174349.335000", "174350.825000", "174352.315000", "174353.805000", "174355.295000", "174356.785000", "174358.275000", "174359.765000", "174401.255000", "174402.745000", "174404.235000", "174405.725000", "174407.215000", "174408.705000", "174410.195000", "174411.685000", "174413.175000", "174414.665000", "174416.155000", "174417.645000", "174419.135000", "174420.625000", "174422.115000", "174423.605000", "174425.095000", "174426.585000", "174428.075000", "174429.565000", "174431.055000", "174432.545000", "174434.035000", "174435.525000", "174437.015000", "174438.505000", "174439.995000", "174441.485000", "174442.975000", "174444.465000", "174445.955000", "174447.445000", "174448.935000", "174450.425000", "174451.915000", "174453.405000", "174454.895000", "174456.385000", "174457.875000", "174459.365000", "174500.855000", "174502.345000", "174503.835000", "174505.325000", "174506.815000", "174508.305000", "174509.795000", "174511.285000", "174512.775000", "174514.265000", "174515.755000", "174517.245000", "174518.735000", "174520.225000", "174521.715000", "174523.205000", "174524.695000", "174526.185000", "174527.675000", "174529.165000", "174530.655000", "174532.145000", "174533.635000", "174535.125000", "174536.615000", "174538.105000", "174539.595000", "174541.085000", "174542.575000", "174544.065000", "174545.555000", "174547.045000", "174548.535000", "174550.025000", "174551.515000", "174553.005000", "174554.495000", "174555.985000", "174557.475000", "174558.965000", "174600.455000", "174601.945000", "174603.435000", "174604.925000", "174606.415000", "174607.905000", "174609.395000", "174610.885000", "174612.375000", "174613.865000", "174615.355000", "174616.845000", "174618.335000", "174619.825000", "174621.315000", "174622.805000", "174624.295000", "174625.785000", "174627.275000", "174628.765000", "174630.255000", "174631.745000", "174633.235000", "174634.725000", "174636.215000", "174637.705000", "174639.195000", "174640.685000", "174642.175000", "174643.665000", "174645.155000", "174646.645000", "174648.135000", "174649.625000", "174651.115000", "174652.605000", "174654.095000", "174655.585000", "174657.075000", "174658.565000", "174700.055000", "174701.545000", "174703.035000", "174704.525000", "174706.015000", "174707.505000", "174708.995000", "174710.485000", "174711.975000", "174713.465000", "174714.955000", "174716.445000", "174717.935000", "174719.425000", "174720.915000", "174722.405000", "174723.895000", "174725.385000", "174726.875000", "174728.365000", "174729.855000", "174731.345000", "174732.835000", "174734.325000", "174735.815000", "174737.305000", "174738.795000", "174740.285000", "174741.775000"],
      "ContentTime": ["174415.016000", "174415.020000", "174415.023000", "174415.026000", "174415.030000", "174415.033000", "174415.036000", "174415.040000", "174415.043000", "174415.047000", "174415.051000", "174415.055000", "174415.058000", "174415.068000", "174415.071000", "174415.075000", "174415.079000", "174415.083000", "174415.087000", "174415.091000", "174434.983000", "174434.987000", "174434.990000", "174434.993000", "174434.996000", "174435.001000", "174435.021000", "174435.024000", "174435.027000", "174435.031000", "174435.034000", "174435.037000", "174435.041000", "174435.044000", "174435.047000", "174435.050000", "174435.054000", "174435.057000", "174435.060000", "174435.063000", "174435.067000", "174454.983000", "174454.987000", "174454.990000", "174454.993000", "174454.997000", "174455.000000", "174455.004000", "174455.007000", "174455.010000", "174455.014000", "174455.017000", "174455.020000", "174455.024000", "174455.027000", "174455.030000", "174455.033000", "174455.037000", "174455.040000", "174455.043000", "174455.047000", "174514.983000", "174514.987000", "174514.990000", "174514.993000", "174514.997000", "174515.001000", "174515.004000", "174515.008000", "174515.011000", "174515.014000", "174515.018000", "174515.021000", "174515.024000", "174515.028000", "174515.031000", "174515.034000", "174515.038000", "174515.041000", "174515.044000", "174515.047000", "174534.983000", "174534.987000", "174534.990000", "174534.993000", "174534.997000", "174535.000000", "174535.004000", "174535.007000", "174535.010000", "174535.013000", "174535.017000", "174535.020000", "174535.023000", "174535.027000", "174535.030000", "174535.033000", "174535.037000", "174535.040000", "174535.043000", "174535.046000", "174535.050000", "174614.983000", "174614.987000", "174614.991000", "174614.994000", "174614.997000", "174615.002000", "174615.005000", "174615.008000", "174615.011000", "174615.015000", "174615.018000", "174615.042000", "174615.045000", "174615.048000", "174615.052000", "174615.055000", "174615.058000", "174615.061000", "174615.065000", "174615.068000", "174615.071000", "174615.074000", "174615.078000", "174615.081000", "174615.084000", "174615.088000", "174615.091000", "174615.094000", "174654.983000", "174654.987000", "174654.990000", "174654.994000", "174654.997000", "174655.001000", "174655.004000", "174655.008000", "174655.011000", "174655.014000", "174655.018000", "174655.021000", "174655.024000", "174655.028000", "174655.031000", "174655.034000", "174655.038000", "174655.041000", "174655.044000", "174655.048000", "174655.051000", "174655.054000", "174655.057000", "174655.061000", "174655.064000", "174655.067000", "174655.071000", "174734.983000", "174734.987000", "174734.990000", "174734.994000", "174734.997000", "174735.001000", "174735.005000", "174735.008000", "174735.011000", "174735.015000", "174735.018000", "174735.021000", "174735.025000", "174735.028000", "174735.031000", "174735.034000", "174735.038000", "174735.041000", "174735.045000", "174735.048000", "174735.051000", "174735.054000", "174735.058000", "174735.061000", "174735.064000", "174735.068000", "174735.071000", "174743.534000", "174743.538000", "174743.541000", "174743.544000", "174743.548000", "174743.551000"],
      "InstanceCreationTime": ["174415.016000", "174415.020000", "174415.023000", "174415.026000", "174415.030000", "174415.033000", "174415.036000", "174415.040000", "174415.043000", "174415.047000", "174415.051000", "174415.055000", "174415.058000", "174415.068000", "174415.071000", "174415.075000", "174415.079000", "174415.083000", "174415.087000", "174415.091000", "174434.983000", "174434.987000", "174434.990000", "174434.993000", "174434.996000", "174435.001000", "174435.021000", "174435.024000", "174435.027000", "174435.031000", "174435.034000", "174435.037000", "174435.041000", "174435.044000", "174435.047000", "174435.050000", "174435.054000", "174435.057000", "174435.060000", "174435.063000", "174435.067000", "174454.983000", "174454.987000", "174454.990000", "174454.993000", "174454.997000", "174455.000000", "174455.004000", "174455.007000", "174455.010000", "174455.014000", "174455.017000", "174455.020000", "174455.024000", "174455.027000", "174455.030000", "174455.033000", "174455.037000", "174455.040000", "174455.043000", "174455.047000", "174514.983000", "174514.987000", "174514.990000", "174514.993000", "174514.997000", "174515.001000", "174515.004000", "174515.008000", "174515.011000", "174515.014000", "174515.018000", "174515.021000", "174515.024000", "174515.028000", "174515.031000", "174515.034000", "174515.038000", "174515.041000", "174515.044000", "174515.047000", "174534.983000", "174534.987000", "174534.990000", "174534.993000", "174534.997000", "174535.000000", "174535.004000", "174535.007000", "174535.010000", "174535.013000", "174535.017000", "174535.020000", "174535.023000", "174535.027000", "174535.030000", "174535.033000", "174535.037000", "174535.040000", "174535.043000", "174535.046000", "174535.050000", "174614.983000", "174614.987000", "174614.991000", "174614.994000", "174614.997000", "174615.002000", "174615.005000", "174615.008000", "174615.011000", "174615.015000", "174615.018000", "174615.042000", "174615.045000", "174615.048000", "174615.052000", "174615.055000", "174615.058000", "174615.061000", "174615.065000", "174615.068000", "174615.071000", "174615.074000", "174615.078000", "174615.081000", "174615.084000", "174615.088000", "174615.091000", "174615.094000", "174654.983000", "174654.987000", "174654.990000", "174654.994000", "174654.997000", "174655.001000", "174655.004000", "174655.008000", "174655.011000", "174655.014000", "174655.018000", "174655.021000", "174655.024000", "174655.028000", "174655.031000", "174655.034000", "174655.038000", "174655.041000", "174655.044000", "174655.048000", "174655.051000", "174655.054000", "174655.057000", "174655.061000", "174655.064000", "174655.067000", "174655.071000", "174734.983000", "174734.987000", "174734.990000", "174734.994000", "174734.997000", "174735.001000", "174735.005000", "174735.008000", "174735.011000", "174735.015000", "174735.018000", "174735.021000", "174735.025000", "174735.028000", "174735.031000", "174735.034000", "174735.038000", "174735.041000", "174735.045000", "174735.048000", "174735.051000", "174735.054000", "174735.058000", "174735.061000", "174735.064000", "174735.068000", "174735.071000", "174743.534000", "174743.538000", "174743.541000", "174743.544000", "174743.548000", "174743.551000"],
      "InstanceNumber": [1, 2, 3, 4, 5, 6, 7, 8, 9, 10, 11, 12, 13, 14, 15, 16, 17, 18, 19, 20, 21, 22, 23, 24, 25, 26, 27, 28, 29, 30, 31, 32, 33, 34, 35, 36, 37, 38, 39, 40, 41, 42, 43, 44, 45, 46, 47, 48, 49, 50, 51, 52, 53, 54, 55, 56, 57, 58, 59, 60, 61, 62, 63, 64, 65, 66, 67, 68, 69, 70, 71, 72, 73, 74, 75, 76, 77, 78, 79, 80, 81, 82, 83, 84, 85, 86, 87, 88, 89, 90, 91, 92, 93, 94, 95, 96, 97, 98, 99, 100, 101, 102, 103, 104, 105, 106, 107, 108, 109, 110, 111, 112, 113, 114, 115, 116, 117, 118, 119, 120, 121, 122, 123, 124, 125, 126, 127, 128, 129, 130, 131, 132, 133, 134, 135, 136, 137, 138, 139, 140, 141, 142, 143, 144, 145, 146, 147, 148, 149, 150, 151, 152, 153, 154, 155, 156, 157, 158, 159, 160, 161, 162, 163, 164, 165, 166, 167, 168, 169, 170, 171, 172, 173, 174, 175, 176, 177, 178, 179, 180, 181, 182, 183, 184, 185, 186, 187, 188, 189, 190],
      "LargestImagePixelValue": [45186, 42494, 41624, 40994, 41844, 42346, 42433, 38877, 39595, 38341, 40273, 38849, 39691, 40601, 38570, 38424, 39194, 42757, 38681, 39734, 38970, 39067, 38430, 42344, 38465, 38918, 39202, 39278, 41487, 40605, 39187, 39684, 39686, 42290, 39229, 39350, 39607, 41796, 40355, 39683, 39829, 38793, 40345, 41612, 41646, 41562, 43718, 40586, 42387, 38612, 39243, 39232, 38536, 40251, 40018, 40088, 40595, 39621, 40212, 40594, 39849, 40456, 40518, 39793, 40795, 41217, 38993, 40287, 40536, 39671, 41310, 39908, 41187, 41816, 46573, 39441, 41896, 41309, 40746, 41533, 40928, 41705, 39586, 39671, 39926, 39278, 41966, 40349, 40392, 40082, 41261, 45761, 38411, 39109, 40379, 39556, 39337, 42802, 40372, 40210, 38396, 39926, 39002, 44109, 39917, 41741, 41843, 38632, 39647, 40136, 39171, 40973, 40235, 40376, 39776, 39684, 40587, 40590, 48807, 46803, 38216, 40718, 40327, 40029, 40293, 39615, 39588, 39775, 40529, 39705, 41585, 41882, 44644, 41324, 40894, 41792, 41950, 42415, 42806, 41757, 43043, 42931, 42120, 42959, 42911, 43587, 43367, 43293, 42429, 43414, 42939, 47978, 42444, 41651, 42863, 42454, 42506, 43526, 42522, 42706, 42662, 42703, 41218, 41548, 42194, 42109, 40759, 42382, 41692, 42168, 45815, 40935, 40561, 45166, 40600, 40959, 41666, 44847, 49302, 40715, 41038, 40947, 41312, 41041, 41907, 40529, 41594, 41987, 41730, 40776],
      "WindowCenter": [10575.0, 10503.0, 10476.0, 10478.0, 10507.0, 10502.0, 10476.0, 10438.0, 10454.0, 10472.0, 10504.0, 10476.0, 10473.0, 10455.0, 10407.0, 10399.0, 10413.0, 10468.0, 10435.0, 10438.0, 10440.0, 10416.0, 10407.0, 10470.0, 10453.0, 10476.0, 10478.0, 10469.0, 10487.0, 10475.0, 10458.0, 10471.0, 10482.0, 10511.0, 10469.0, 10465.0, 10466.0, 10494.0, 10468.0, 10457.0, 10445.0, 10452.0, 10484.0, 10503.0, 10507.0, 10503.0, 10509.0, 10468.0, 10473.0, 10451.0, 10464.0, 10476.0, 10457.0, 10459.0, 10447.0, 10448.0, 10455.0, 10450.0, 10468.0, 10468.0, 10465.0, 10466.0, 10462.0, 10442.0, 10463.0, 10485.0, 10477.0, 10496.0, 10487.0, 10467.0, 10462.0, 10445.0, 10453.0, 10458.0, 10494.0, 10436.0, 10472.0, 10493.0, 10493.0, 10488.0, 10448.0, 10440.0, 10422.0, 10423.0, 10429.0, 10442.0, 10491.0, 10464.0, 10465.0, 10459.0, 10476.0, 10505.0, 10434.0, 10456.0, 10491.0, 10468.0, 10454.0, 10468.0, 10437.0, 10444.0, 10439.0, 10481.0, 10485.0, 10526.0, 10465.0, 10446.0, 10440.0, 10405.0, 10430.0, 10465.0, 10474.0, 10492.0, 10471.0, 10441.0, 10427.0, 10419.0, 10428.0, 10422.0, 10504.0, 10491.0, 10431.0, 10459.0, 10469.0, 10469.0, 10459.0, 10441.0, 10426.0, 10413.0, 10408.0, 10401.0, 10350.0, 10478.0, 10516.0, 10487.0, 10461.0, 10449.0, 10438.0, 10436.0, 10436.0, 10442.0, 10473.0, 10482.0, 10470.0, 10474.0, 10475.0, 10480.0, 10471.0, 10473.0, 10464.0, 10464.0, 10440.0, 10474.0, 10432.0, 10437.0, 10464.0, 10491.0, 10505.0, 10508.0, 10481.0, 10453.0, 10442.0, 10433.0, 10415.0, 10418.0, 10432.0, 10438.0, 10436.0, 10440.0, 10432.0, 10428.0, 10476.0, 10451.0, 10445.0, 10480.0, 10418.0, 10401.0, 10406.0, 10444.0, 10481.0, 10420.0, 10444.0, 10455.0, 10462.0, 10449.0, 10430.0, 10398.0, 10385.0, 10384.0, 10403.0, 10411.0],
      "WindowWidth": [22518.0, 22334.0, 22258.0, 22261.0, 22322.0, 22304.0, 22245.0, 22170.0, 22200.0, 22252.0, 22318.0, 22255.0, 22242.0, 22200.0, 22089.0, 22074.0, 22109.0, 22225.0, 22161.0, 22167.0, 22168.0, 22113.0, 22097.0, 22236.0, 22210.0, 22258.0, 22261.0, 22237.0, 22275.0, 22245.0, 22212.0, 22239.0, 22266.0, 22333.0, 22236.0, 22224.0, 22229.0, 22297.0, 22230.0, 22209.0, 22174.0, 22200.0, 22265.0, 22305.0, 22319.0, 22307.0, 22321.0, 22235.0, 22242.0, 22197.0, 22226.0, 22253.0, 22213.0, 22205.0, 22183.0, 22193.0, 22197.0, 22195.0, 22228.0, 22227.0, 22225.0, 22221.0, 22208.0, 22164.0, 22218.0, 22272.0, 22256.0, 22297.0, 22272.0, 22231.0, 22211.0, 22179.0, 22204.0, 22214.0, 22267.0, 22155.0, 22229.0, 22278.0, 22284.0, 22271.0, 22176.0, 22157.0, 22120.0, 22125.0, 22138.0, 22172.0, 22289.0, 22218.0, 22223.0, 22211.0, 22254.0, 22303.0, 22158.0, 22209.0, 22286.0, 22230.0, 22200.0, 22230.0, 22156.0, 22174.0, 22168.0, 22257.0, 22274.0, 22357.0, 22226.0, 22181.0, 22167.0, 22087.0, 22144.0, 22225.0, 22248.0, 22289.0, 22245.0, 22163.0, 22136.0, 22121.0, 22142.0, 22128.0, 22287.0, 22260.0, 22151.0, 22204.0, 22229.0, 22229.0, 22201.0, 22173.0, 22128.0, 22104.0, 22088.0, 22075.0, 21953.0, 22244.0, 22328.0, 22270.0, 22203.0, 22173.0, 22151.0, 22138.0, 22135.0, 22156.0, 22228.0, 22252.0, 22217.0, 22226.0, 22229.0, 22239.0, 22218.0, 22223.0, 22217.0, 22213.0, 22150.0, 22223.0, 22144.0, 22145.0, 22204.0, 22266.0, 22300.0, 22304.0, 22246.0, 22174.0, 22149.0, 22127.0, 22100.0, 22095.0, 22133.0, 22141.0, 22148.0, 22153.0, 22133.0, 22118.0, 22227.0, 22180.0, 22166.0, 22241.0, 22100.0, 22067.0, 22083.0, 22161.0, 22226.0, 22106.0, 22165.0, 22193.0, 22204.0, 22177.0, 22132.0, 22062.0, 22019.0, 22020.0, 22079.0, 22107.0]
    },
    "slices": {}
  }
}