{
  "AcquisitionMatrixPE": 104,
  "AcquisitionNumber": 1,
  "AcquisitionTime": "17:59:6.155000",
  "BandwidthPerPixelPhaseEncode": 17.17,
  "BaseResolution": 104,
  "BodyPartExamined": "BRAIN",
  "CoilString": "HC1-7;NC1_2",
  "ConsistencyInfo": "N4_VE11C_LATEST_20160120",
  "ConversionSoftware": "dcm2niix",
  "ConversionSoftwareVersion": "v1.0.20190902",
  "DerivedVendorReportedEchoSpacing": 0.000560011,
  "DeviceSerialNumber": "167006",
  "DwellTime": 2.1e-06,
  "EchoTime": 0.037,
  "EchoTrainLength": 104,
  "EffectiveEchoSpacing": 0.000560011,
  "FlipAngle": 52,
  "ImageComments": "Unaliased_MB4_PE3_LB",
  "ImageOrientationPatientDICOM": [0.998542, 0.0135872, 0.0522491, 0.00592556, 0.934381, -0.356227],
  "ImageType": [
    "ORIGINAL",
    "PRIMARY",
    "M",
    "MB",
    "ND",
    "MOSAIC"
],
  "ImagingFrequency": 123.259,
  "InPlanePhaseEncodingDirectionDICOM": "COL",
  "InstitutionAddress": "Chemin_Queen-Mary_4565_Montreal_District_CA_H3W_1W5",
  "InstitutionName": "IUGM",
  "InstitutionalDepartmentName": "Department",
  "MRAcquisitionType": "2D",
  "MagneticFieldStrength": 3,
  "Manufacturer": "Siemens",
  "ManufacturersModelName": "Prisma_fit",
  "Modality": "MR",
  "MultibandAccelerationFactor": 4,
  "PartialFourier": 1,
  "PatientPosition": "HFS",
  "PercentPhaseFOV": 100,
  "PhaseEncodingDirection": "j",
  "PhaseEncodingSteps": 104,
  "PhaseResolution": 1,
  "PixelBandwidth": 2290,
  "ProcedureStepDescription": "memory_things",
  "ProtocolName": "func_task-things_run-4",
  "PulseSequenceDetails": "%CustomerSeq%_cmrr_mbep2d_bold",
  "ReceiveCoilActiveElements": "HC1-7;NC1,2",
  "ReceiveCoilName": "HeadNeck_64",
  "ReconMatrixPE": 104,
  "RepetitionTime": 1.49,
  "SAR": 0.0530546,
  "ScanOptions": "FS",
  "ScanningSequence": "EP",
  "SequenceName": "epfid2d1_104",
  "SequenceVariant": "SK_SS",
  "SeriesDescription": "func_task-things_run-4",
  "SeriesNumber": 19,
  "ShimSetting": [637, -7173, -8809, 652, 79, 77, -59, 4],
  "SliceThickness": 2,
  "SliceTiming": [0, 0.7825, 0.0975, 0.88, 0.195, 0.98, 0.2925, 1.0775, 0.39, 1.175, 0.49, 1.2725, 0.5875, 1.37, 0.685, 0, 0.7825, 0.0975, 0.88, 0.195, 0.98, 0.2925, 1.0775, 0.39, 1.175, 0.49, 1.2725, 0.5875, 1.37, 0.685, 0, 0.7825, 0.0975, 0.88, 0.195, 0.98, 0.2925, 1.0775, 0.39, 1.175, 0.49, 1.2725, 0.5875, 1.37, 0.685, 0, 0.7825, 0.0975, 0.88, 0.195, 0.98, 0.2925, 1.0775, 0.39, 1.175, 0.49, 1.2725, 0.5875, 1.37, 0.685],
  "SoftwareVersions": "syngo_MR_E11",
  "SpacingBetweenSlices": 2,
  "StationName": "MRC35049",
  "TaskName": "things",
  "TotalReadoutTime": 0.0576811,
  "TxRefAmp": 280.021,
  "WipMemBlock": "dc98430a-7685-4d99-a4f7-46b5da1845fc||Sequence: R016 ve11c/master r/e634e98; Dec 19 2017 11:00:25 by eja",
  "dcmmeta_affine": [
    [-1.997083306312561, 0.011851117946207523, 0.10732140392065048, 104.64358520507812],
    [-0.0271744504570961, 1.8687611818313599, -0.7120345234870911, -59.062286376953125],
    [0.1044982373714447, 0.7124543786048889, 1.8658747673034668, -64.32611846923828],
    [0.0, 0.0, 0.0, 1.0]
],
  "dcmmeta_reorient_transform": [
    [0.0, -1.0, 0.0, 103.0],
    [1.0, 0.0, 0.0, 0.0],
    [0.0, 0.0, 1.0, 0.0],
    [0.0, 0.0, 0.0, 1.0]
],
  "dcmmeta_shape": [104, 104, 60, 190],
  "dcmmeta_slice_dim": 2,
  "dcmmeta_version": 0.6,
  "global": {
    "const": {
      "AcquisitionMatrix": [104, 0, 0, 104],
      "AngioFlag": "N",
      "BitsAllocated": 16,
      "BitsStored": 16,
      "BodyPartExamined": "BRAIN",
      "Columns": 832,
      "EchoNumbers": 1,
      "EchoTime": 37.0,
      "EchoTrainLength": 104,
      "FlipAngle": 52.0,
      "HighBit": 15,
      "ImageOrientationPatient": [0.99854164497679, 0.01358722532853, 0.0522491201354, 0.00592555886727, 0.93438058725541, -0.356227183006],
      "ImagePositionPatient": [-837.11637525845, -823.54068292994, 230.35271476948],
      "ImageType": [
        "ORIGINAL",
        "PRIMARY",
        "M",
        "MB",
        "ND",
        "MOSAIC"
],
      "ImagedNucleus": "1H",
      "ImagingFrequency": 123.258918,
      "InPlanePhaseEncodingDirection": "COL",
      "MRAcquisitionType": "2D",
      "MagneticFieldStrength": 3.0,
      "Manufacturer": "SIEMENS",
      "ManufacturerModelName": "Prisma_fit",
      "Modality": "MR",
      "NumberOfAverages": 1.0,
      "NumberOfPhaseEncodingSteps": 104,
      "PercentPhaseFieldOfView": 100.0,
      "PercentSampling": 100.0,
      "PerformedProcedureStepStartTime": "170800.812000",
      "PhotometricInterpretation": "MONOCHROME2",
      "PixelBandwidth": 2290.0,
      "PixelRepresentation": 0,
      "PixelSpacing": [2.0, 2.0],
      "ProtocolName": "func_task-things_run-4",
      "RepetitionTime": 1490.0,
      "Rows": 832,
      "SAR": 0.05305463525642,
      "SamplesPerPixel": 1,
      "ScanOptions": "FS",
      "ScanningSequence": "EP",
      "SequenceName": "epfid2d1_104",
      "SequenceVariant": [
        "SK",
        "SS"
],
      "SeriesDescription": "func_task-things_run-4",
      "SeriesNumber": 19,
      "SeriesTime": "180004.775000",
      "SliceLocation": -33.369796525135,
      "SliceThickness": 2.0,
      "SmallestImagePixelValue": 0,
      "SoftwareVersions": "syngo MR E11",
      "SpacingBetweenSlices": 1.9999999650555,
      "SpecificCharacterSet": "ISO_IR 100",
      "StudyID": "1",
      "StudyTime": "170800.727000",
      "TransmitCoilName": "Body",
      "VariableFlipAngleFlag": "N",
      "WindowCenterWidthExplanation": "Algo1",
      "dBdt": 0.0},
    "slices": {}
  },
  "time": {
    "samples": {
      "AcquisitionNumber": [1, 2, 3, 4, 5, 6, 7, 8, 9, 10, 11, 12, 13, 14, 15, 16, 17, 18, 19, 20, 21, 22, 23, 24, 25, 26, 27, 28, 29, 30, 31, 32, 33, 34, 35, 36, 37, 38, 39, 40, 41, 42, 43, 44, 45, 46, 47, 48, 49, 50, 51, 52, 53, 54, 55, 56, 57, 58, 59, 60, 61, 62, 63, 64, 65, 66, 67, 68, 69, 70, 71, 72, 73, 74, 75, 76, 77, 78, 79, 80, 81, 82, 83, 84, 85, 86, 87, 88, 89, 90, 91, 92, 93, 94, 95, 96, 97, 98, 99, 100, 101, 102, 103, 104, 105, 106, 107, 108, 109, 110, 111, 112, 113, 114, 115, 116, 117, 118, 119, 120, 121, 122, 123, 124, 125, 126, 127, 128, 129, 130, 131, 132, 133, 134, 135, 136, 137, 138, 139, 140, 141, 142, 143, 144, 145, 146, 147, 148, 149, 150, 151, 152, 153, 154, 155, 156, 157, 158, 159, 160, 161, 162, 163, 164, 165, 166, 167, 168, 169, 170, 171, 172, 173, 174, 175, 176, 177, 178, 179, 180, 181, 182, 183, 184, 185, 186, 187, 188, 189, 190],
      "AcquisitionTime": ["175906.155000", "175907.645000", "175909.135000", "175910.625000", "175912.115000", "175913.605000", "175915.095000", "175916.585000", "175918.075000", "175919.565000", "175921.055000", "175922.545000", "175924.035000", "175925.525000", "175927.015000", "175928.505000", "175929.995000", "175931.485000", "175932.975000", "175934.465000", "175935.955000", "175937.445000", "175938.935000", "175940.425000", "175941.915000", "175943.405000", "175944.895000", "175946.385000", "175947.875000", "175949.365000", "175950.855000", "175952.345000", "175953.835000", "175955.325000", "175956.815000", "175958.305000", "175959.795000", "180001.285000", "180002.775000", "180004.265000", "180005.755000", "180007.245000", "180008.735000", "180010.225000", "180011.715000", "180013.205000", "180014.695000", "180016.185000", "180017.675000", "180019.165000", "180020.655000", "180022.145000", "180023.635000", "180025.125000", "180026.615000", "180028.105000", "180029.595000", "180031.085000", "180032.575000", "180034.065000", "180035.555000", "180037.045000", "180038.535000", "180040.025000", "180041.515000", "180043.005000", "180044.495000", "180045.985000", "180047.475000", "180048.965000", "180050.455000", "180051.945000", "180053.435000", "180054.925000", "180056.415000", "180057.905000", "180059.395000", "180100.885000", "180102.375000", "180103.865000", "180105.355000", "180106.845000", "180108.335000", "180109.825000", "180111.315000", "180112.805000", "180114.295000", "180115.785000", "180117.275000", "180118.765000", "180120.255000", "180121.745000", "180123.235000", "180124.725000", "180126.215000", "180127.705000", "180129.195000", "180130.685000", "180132.175000", "180133.665000", "180135.155000", "180136.645000", "180138.135000", "180139.625000", "180141.115000", "180142.605000", "180144.095000", "180145.585000", "180147.075000", "180148.565000", "180150.055000", "180151.545000", "180153.035000", "180154.525000", "180156.015000", "180157.505000", "180158.995000", "180200.485000", "180201.975000", "180203.465000", "180204.955000", "180206.445000", "180207.935000", "180209.425000", "180210.915000", "180212.405000", "180213.895000", "180215.385000", "180216.875000", "180218.365000", "180219.855000", "180221.345000", "180222.835000", "180224.325000", "180225.815000", "180227.305000", "180228.795000", "180230.285000", "180231.775000", "180233.265000", "180234.755000", "180236.245000", "180237.735000", "180239.225000", "180240.715000", "180242.205000", "180243.695000", "180245.185000", "180246.675000", "180248.165000", "180249.655000", "180251.145000", "180252.635000", "180254.125000", "180255.615000", "180257.105000", "180258.595000", "180300.085000", "180301.575000", "180303.065000", "180304.555000", "180306.045000", "180307.535000", "180309.025000", "180310.515000", "180312.005000", "180313.495000", "180314.985000", "180316.475000", "180317.965000", "180319.455000", "180320.945000", "180322.435000", "180323.925000", "180325.415000", "180326.905000", "180328.395000", "180329.885000", "180331.375000", "180332.865000", "180334.355000", "180335.845000", "180337.335000", "180338.825000", "180340.315000", "180341.805000", "180343.295000", "180344.785000", "180346.275000", "180347.765000"],
      "ContentTime": ["180004.779000", "180004.783000", "180004.792000", "180004.796000", "180024.740000", "180024.744000", "180024.747000", "180024.751000", "180024.754000", "180024.757000", "180024.760000", "180024.764000", "180024.767000", "180024.781000", "180024.784000", "180024.788000", "180024.791000", "180024.794000", "180024.798000", "180024.801000", "180024.804000", "180024.808000", "180024.811000", "180024.814000", "180044.740000", "180044.744000", "180044.747000", "180044.750000", "180044.754000", "180044.757000", "180044.760000", "180044.764000", "180044.767000", "180044.770000", "180044.774000", "180044.777000", "180044.780000", "180044.783000", "180044.787000", "180044.790000", "180044.793000", "180044.796000", "180044.800000", "180044.803000", "180044.806000", "180104.740000", "180104.744000", "180104.747000", "180104.750000", "180104.754000", "180104.757000", "180104.760000", "180104.763000", "180104.767000", "180104.770000", "180104.773000", "180104.776000", "180104.780000", "180104.783000", "180104.786000", "180104.790000", "180104.793000", "180104.796000", "180104.799000", "180104.803000", "180124.740000", "180124.744000", "180124.747000", "180124.751000", "180124.754000", "180124.757000", "180124.760000", "180124.764000", "180124.767000", "180124.771000", "180124.774000", "180124.777000", "180124.781000", "180124.784000", "180124.787000", "180124.790000", "180124.794000", "180124.797000", "180124.800000", "180124.803000", "180144.740000", "180144.744000", "180144.747000", "180144.751000", "180144.758000", "180144.762000", "180144.765000", "180144.768000", "180144.772000", "180144.776000", "180144.779000", "180144.782000", "180144.786000", "180144.789000", "180144.792000", "180144.796000", "180144.799000", "180144.802000", "180144.806000", "180144.809000", "180224.741000", "180224.745000", "180224.748000", "180224.751000", "180224.755000", "180224.758000", "180224.761000", "180224.765000", "180224.768000", "180224.771000", "180224.774000", "180224.778000", "180224.781000", "180224.784000", "180224.788000", "180224.799000", "180224.802000", "180224.806000", "180224.809000", "180224.812000", "180224.815000", "180224.819000", "180224.822000", "180224.825000", "180224.829000", "180224.832000", "180224.835000", "180304.740000", "180304.744000", "180304.747000", "180304.751000", "180304.754000", "180304.757000", "180304.760000", "180304.764000", "180304.767000", "180304.770000", "180304.774000", "180304.777000", "180304.780000", "180304.784000", "180304.787000", "180304.790000", "180304.793000", "180304.797000", "180304.800000", "180304.803000", "180304.807000", "180304.810000", "180304.813000", "180304.816000", "180304.820000", "180304.823000", "180304.826000", "180344.740000", "180344.744000", "180344.747000", "180344.750000", "180344.754000", "180344.766000", "180344.769000", "180344.773000", "180344.776000", "180344.779000", "180344.783000", "180344.786000", "180344.789000", "180344.792000", "180344.796000", "180344.799000", "180344.802000", "180344.806000", "180344.809000", "180344.812000", "180344.816000", "180344.819000", "180344.822000", "180344.826000", "180344.829000", "180344.832000", "180344.836000", "180350.075000", "180350.078000", "180350.082000", "180350.085000"],
      "InstanceCreationTime": ["180004.779000", "180004.783000", "180004.792000", "180004.796000", "180024.740000", "180024.744000", "180024.747000", "180024.751000", "180024.754000", "180024.757000", "180024.760000", "180024.764000", "180024.767000", "180024.781000", "180024.784000", "180024.788000", "180024.791000", "180024.794000", "180024.798000", "180024.801000", "180024.804000", "180024.808000", "180024.811000", "180024.814000", "180044.740000", "180044.744000", "180044.747000", "180044.750000", "180044.754000", "180044.757000", "180044.760000", "180044.764000", "180044.767000", "180044.770000", "180044.774000", "180044.777000", "180044.780000", "180044.783000", "180044.787000", "180044.790000", "180044.793000", "180044.796000", "180044.800000", "180044.803000", "180044.806000", "180104.740000", "180104.744000", "180104.747000", "180104.750000", "180104.754000", "180104.757000", "180104.760000", "180104.763000", "180104.767000", "180104.770000", "180104.773000", "180104.776000", "180104.780000", "180104.783000", "180104.786000", "180104.790000", "180104.793000", "180104.796000", "180104.799000", "180104.803000", "180124.740000", "180124.744000", "180124.747000", "180124.751000", "180124.754000", "180124.757000", "180124.760000", "180124.764000", "180124.767000", "180124.771000", "180124.774000", "180124.777000", "180124.781000", "180124.784000", "180124.787000", "180124.790000", "180124.794000", "180124.797000", "180124.800000", "180124.803000", "180144.740000", "180144.744000", "180144.747000", "180144.751000", "180144.758000", "180144.762000", "180144.765000", "180144.768000", "180144.772000", "180144.776000", "180144.779000", "180144.782000", "180144.786000", "180144.789000", "180144.792000", "180144.796000", "180144.799000", "180144.802000", "180144.806000", "180144.809000", "180224.741000", "180224.745000", "180224.748000", "180224.751000", "180224.755000", "180224.758000", "180224.761000", "180224.765000", "180224.768000", "180224.771000", "180224.774000", "180224.778000", "180224.781000", "180224.784000", "180224.788000", "180224.799000", "180224.802000", "180224.806000", "180224.809000", "180224.812000", "180224.815000", "180224.819000", "180224.822000", "180224.825000", "180224.829000", "180224.832000", "180224.835000", "180304.740000", "180304.744000", "180304.747000", "180304.751000", "180304.754000", "180304.757000", "180304.760000", "180304.764000", "180304.767000", "180304.770000", "180304.774000", "180304.777000", "180304.780000", "180304.784000", "180304.787000", "180304.790000", "180304.793000", "180304.797000", "180304.800000", "180304.803000", "180304.807000", "180304.810000", "180304.813000", "180304.816000", "180304.820000", "180304.823000", "180304.826000", "180344.740000", "180344.744000", "180344.747000", "180344.750000", "180344.754000", "180344.766000", "180344.769000", "180344.773000", "180344.776000", "180344.779000", "180344.783000", "180344.786000", "180344.789000", "180344.792000", "180344.796000", "180344.799000", "180344.802000", "180344.806000", "180344.809000", "180344.812000", "180344.816000", "180344.819000", "180344.822000", "180344.826000", "180344.829000", "180344.832000", "180344.836000", "180350.075000", "180350.078000", "180350.082000", "180350.085000"],
      "InstanceNumber": [1, 2, 3, 4, 5, 6, 7, 8, 9, 10, 11, 12, 13, 14, 15, 16, 17, 18, 19, 20, 21, 22, 23, 24, 25, 26, 27, 28, 29, 30, 31, 32, 33, 34, 35, 36, 37, 38, 39, 40, 41, 42, 43, 44, 45, 46, 47, 48, 49, 50, 51, 52, 53, 54, 55, 56, 57, 58, 59, 60, 61, 62, 63, 64, 65, 66, 67, 68, 69, 70, 71, 72, 73, 74, 75, 76, 77, 78, 79, 80, 81, 82, 83, 84, 85, 86, 87, 88, 89, 90, 91, 92, 93, 94, 95, 96, 97, 98, 99, 100, 101, 102, 103, 104, 105, 106, 107, 108, 109, 110, 111, 112, 113, 114, 115, 116, 117, 118, 119, 120, 121, 122, 123, 124, 125, 126, 127, 128, 129, 130, 131, 132, 133, 134, 135, 136, 137, 138, 139, 140, 141, 142, 143, 144, 145, 146, 147, 148, 149, 150, 151, 152, 153, 154, 155, 156, 157, 158, 159, 160, 161, 162, 163, 164, 165, 166, 167, 168, 169, 170, 171, 172, 173, 174, 175, 176, 177, 178, 179, 180, 181, 182, 183, 184, 185, 186, 187, 188, 189, 190],
      "LargestImagePixelValue": [43911, 42761, 42919, 41276, 41861, 42128, 41845, 42252, 40381, 40647, 40312, 40273, 41386, 40340, 39662, 39462, 40913, 39777, 39319, 40379, 40184, 39393, 39087, 39701, 41232, 38820, 41054, 38669, 38794, 38761, 38955, 39000, 38373, 38362, 39251, 39800, 38745, 38730, 38786, 38693, 38862, 38871, 39463, 40304, 39441, 39941, 40299, 41441, 40653, 41527, 39859, 40303, 42196, 42313, 41789, 42428, 41889, 42146, 42268, 42139, 42453, 43121, 42723, 42554, 42411, 43196, 42307, 42476, 43229, 42651, 42689, 42590, 42692, 42146, 41905, 40696, 42772, 43100, 42025, 42375, 43083, 42339, 41996, 42352, 41350, 42115, 41831, 42608, 41430, 42233, 40890, 42219, 41675, 41797, 41229, 42069, 41089, 40308, 40596, 41472, 42133, 41604, 41122, 42436, 41877, 41221, 41201, 41763, 41359, 40677, 41507, 43243, 40157, 40816, 40382, 39985, 39982, 40107, 39688, 40300, 40028, 39710, 40415, 39668, 39701, 43179, 39298, 39040, 40033, 39836, 39696, 39772, 39612, 39775, 39311, 39396, 39978, 39608, 39749, 39453, 39465, 39250, 39493, 39531, 39802, 39457, 40148, 39993, 39381, 40248, 39703, 39604, 39613, 40809, 39774, 39903, 39454, 39434, 39734, 39363, 39994, 39545, 39498, 39572, 40065, 39600, 42756, 40530, 39715, 39793, 46514, 39771, 39737, 39514, 39520, 39506, 39060, 41803, 39336, 39682, 39762, 43716, 39468, 38886, 39388, 39319, 42878, 41790, 38444, 38478],
      "WindowCenter": [10478.0, 10414.0, 10383.0, 10360.0, 10371.0, 10360.0, 10349.0, 10360.0, 10366.0, 10390.0, 10378.0, 10360.0, 10362.0, 10368.0, 10365.0, 10365.0, 10373.0, 10369.0, 10372.0, 10376.0, 10375.0, 10370.0, 10366.0, 10379.0, 10404.0, 10377.0, 10425.0, 10392.0, 10383.0, 10371.0, 10376.0, 10386.0, 10383.0, 10393.0, 10430.0, 10445.0, 10418.0, 10388.0, 10395.0, 10399.0, 10407.0, 10412.0, 10419.0, 10415.0, 10410.0, 10412.0, 10395.0, 10392.0, 10378.0, 10426.0, 10424.0, 10395.0, 10380.0, 10369.0, 10379.0, 10403.0, 10409.0, 10407.0, 10381.0, 10355.0, 10355.0, 10367.0, 10380.0, 10375.0, 10374.0, 10387.0, 10386.0, 10391.0, 10396.0, 10391.0, 10402.0, 10404.0, 10402.0, 10395.0, 10399.0, 10405.0, 10418.0, 10397.0, 10377.0, 10386.0, 10414.0, 10419.0, 10409.0, 10398.0, 10376.0, 10379.0, 10379.0, 10400.0, 10400.0, 10414.0, 10410.0, 10424.0, 10401.0, 10398.0, 10400.0, 10414.0, 10420.0, 10418.0, 10416.0, 10408.0, 10404.0, 10389.0, 10392.0, 10402.0, 10388.0, 10382.0, 10384.0, 10395.0, 10401.0, 10388.0, 10390.0, 10418.0, 10376.0, 10385.0, 10388.0, 10390.0, 10410.0, 10406.0, 10396.0, 10402.0, 10406.0, 10407.0, 10422.0, 10402.0, 10389.0, 10421.0, 10391.0, 10383.0, 10394.0, 10390.0, 10387.0, 10386.0, 10387.0, 10392.0, 10401.0, 10417.0, 10418.0, 10382.0, 10361.0, 10352.0, 10359.0, 10361.0, 10371.0, 10372.0, 10369.0, 10371.0, 10376.0, 10385.0, 10389.0, 10401.0, 10395.0, 10381.0, 10370.0, 10378.0, 10360.0, 10383.0, 10388.0, 10398.0, 10392.0, 10389.0, 10378.0, 10378.0, 10388.0, 10395.0, 10404.0, 10408.0, 10436.0, 10402.0, 10382.0, 10386.0, 10452.0, 10379.0, 10386.0, 10391.0, 10406.0, 10394.0, 10391.0, 10409.0, 10380.0, 10371.0, 10386.0, 10441.0, 10390.0, 10393.0, 10391.0, 10389.0, 10414.0, 10383.0, 10340.0, 10349.0],
      "WindowWidth": [22272.0, 22104.0, 22019.0, 21971.0, 21992.0, 21965.0, 21948.0, 21964.0, 21989.0, 22041.0, 22013.0, 21970.0, 21973.0, 21999.0, 21994.0, 21997.0, 22005.0, 22001.0, 22007.0, 22013.0, 22006.0, 21998.0, 21996.0, 22024.0, 22081.0, 22026.0, 22140.0, 22075.0, 22052.0, 22019.0, 22023.0, 22052.0, 22044.0, 22065.0, 22150.0, 22184.0, 22123.0, 22049.0, 22062.0, 22077.0, 22091.0, 22100.0, 22114.0, 22101.0, 22094.0, 22099.0, 22055.0, 22043.0, 22010.0, 22119.0, 22125.0, 22055.0, 22009.0, 21984.0, 22009.0, 22062.0, 22076.0, 22069.0, 22008.0, 21954.0, 21949.0, 21974.0, 22008.0, 21997.0, 21990.0, 22019.0, 22025.0, 22033.0, 22044.0, 22035.0, 22062.0, 22070.0, 22062.0, 22046.0, 22058.0, 22080.0, 22105.0, 22045.0, 22004.0, 22028.0, 22086.0, 22105.0, 22086.0, 22054.0, 22012.0, 22014.0, 22014.0, 22062.0, 22066.0, 22090.0, 22087.0, 22131.0, 22065.0, 22062.0, 22066.0, 22098.0, 22113.0, 22113.0, 22105.0, 22080.0, 22068.0, 22037.0, 22049.0, 22065.0, 22035.0, 22026.0, 22028.0, 22048.0, 22069.0, 22037.0, 22038.0, 22112.0, 22017.0, 22033.0, 22041.0, 22046.0, 22099.0, 22095.0, 22066.0, 22080.0, 22091.0, 22093.0, 22129.0, 22081.0, 22046.0, 22118.0, 22062.0, 22040.0, 22063.0, 22054.0, 22043.0, 22043.0, 22042.0, 22051.0, 22077.0, 22112.0, 22108.0, 22029.0, 21977.0, 21961.0, 21977.0, 21983.0, 22012.0, 22008.0, 22000.0, 22008.0, 22019.0, 22038.0, 22048.0, 22069.0, 22058.0, 22028.0, 22000.0, 22019.0, 21978.0, 22031.0, 22048.0, 22069.0, 22054.0, 22048.0, 22017.0, 22019.0, 22047.0, 22061.0, 22080.0, 22096.0, 22152.0, 22079.0, 22033.0, 22036.0, 22177.0, 22026.0, 22039.0, 22057.0, 22089.0, 22066.0, 22053.0, 22087.0, 22024.0, 22002.0, 22040.0, 22159.0, 22047.0, 22063.0, 22050.0, 22047.0, 22101.0, 22030.0, 21935.0, 21961.0]
    },
    "slices": {}
  }
}