{
  "AcquisitionMatrixPE": 104,
  "AcquisitionNumber": 1,
  "AcquisitionTime": "18:13:43.227500",
  "BandwidthPerPixelPhaseEncode": 17.17,
  "BaseResolution": 104,
  "BodyPartExamined": "BRAIN",
  "CoilString": "HC1-7;NC1_2",
  "ConsistencyInfo": "N4_VE11C_LATEST_20160120",
  "ConversionSoftware": "dcm2niix",
  "ConversionSoftwareVersion": "v1.0.20190902",
  "DerivedVendorReportedEchoSpacing": 0.000560011,
  "DeviceSerialNumber": "167006",
  "DwellTime": 2.1e-06,
  "EchoTime": 0.037,
  "EchoTrainLength": 104,
  "EffectiveEchoSpacing": 0.000560011,
  "FlipAngle": 52,
  "ImageComments": "Unaliased_MB4_PE3_LB",
  "ImageOrientationPatientDICOM": [0.998542, 0.0135872, 0.0522491, 0.00592556, 0.934381, -0.356227],
  "ImageType": [
    "ORIGINAL",
    "PRIMARY",
    "M",
    "MB",
    "ND",
    "MOSAIC"
],
  "ImagingFrequency": 123.259,
  "InPlanePhaseEncodingDirectionDICOM": "COL",
  "InstitutionAddress": "Chemin_Queen-Mary_4565_Montreal_District_CA_H3W_1W5",
  "InstitutionName": "IUGM",
  "InstitutionalDepartmentName": "Department",
  "MRAcquisitionType": "2D",
  "MagneticFieldStrength": 3,
  "Manufacturer": "Siemens",
  "ManufacturersModelName": "Prisma_fit",
  "Modality": "MR",
  "MultibandAccelerationFactor": 4,
  "PartialFourier": 1,
  "PatientPosition": "HFS",
  "PercentPhaseFOV": 100,
  "PhaseEncodingDirection": "j",
  "PhaseEncodingSteps": 104,
  "PhaseResolution": 1,
  "PixelBandwidth": 2290,
  "ProcedureStepDescription": "memory_things",
  "ProtocolName": "func_task-things_run-6",
  "PulseSequenceDetails": "%CustomerSeq%_cmrr_mbep2d_bold",
  "ReceiveCoilActiveElements": "HC1-7;NC1,2",
  "ReceiveCoilName": "HeadNeck_64",
  "ReconMatrixPE": 104,
  "RepetitionTime": 1.49,
  "SAR": 0.0530546,
  "ScanOptions": "FS",
  "ScanningSequence": "EP",
  "SequenceName": "epfid2d1_104",
  "SequenceVariant": "SK_SS",
  "SeriesDescription": "func_task-things_run-6",
  "SeriesNumber": 25,
  "ShimSetting": [637, -7173, -8809, 652, 79, 77, -59, 4],
  "SliceThickness": 2,
  "SliceTiming": [0, 0.785, 0.0975, 0.8825, 0.195, 0.98, 0.295, 1.0775, 0.3925, 1.175, 0.49, 1.275, 0.5875, 1.3725, 0.685, 0, 0.785, 0.0975, 0.8825, 0.195, 0.98, 0.295, 1.0775, 0.3925, 1.175, 0.49, 1.275, 0.5875, 1.3725, 0.685, 0, 0.785, 0.0975, 0.8825, 0.195, 0.98, 0.295, 1.0775, 0.3925, 1.175, 0.49, 1.275, 0.5875, 1.3725, 0.685, 0, 0.785, 0.0975, 0.8825, 0.195, 0.98, 0.295, 1.0775, 0.3925, 1.175, 0.49, 1.275, 0.5875, 1.3725, 0.685],
  "SoftwareVersions": "syngo_MR_E11",
  "SpacingBetweenSlices": 2,
  "StationName": "MRC35049",
  "TaskName": "things",
  "TotalReadoutTime": 0.0576811,
  "TxRefAmp": 280.021,
  "WipMemBlock": "6cdedeb3-eded-4082-ba1f-1f7d3b018785||Sequence: R016 ve11c/master r/e634e98; Dec 19 2017 11:00:25 by eja",
  "dcmmeta_affine": [
    [-1.997083306312561, 0.011851117946207523, 0.10732140392065048, 104.64358520507812],
    [-0.0271744504570961, 1.8687611818313599, -0.7120345234870911, -59.062286376953125],
    [0.1044982373714447, 0.7124543786048889, 1.8658747673034668, -64.32611846923828],
    [0.0, 0.0, 0.0, 1.0]
],
  "dcmmeta_reorient_transform": [
    [0.0, -1.0, 0.0, 103.0],
    [1.0, 0.0, 0.0, 0.0],
    [0.0, 0.0, 1.0, 0.0],
    [0.0, 0.0, 0.0, 1.0]
],
  "dcmmeta_shape": [104, 104, 60, 190],
  "dcmmeta_slice_dim": 2,
  "dcmmeta_version": 0.6,
  "global": {
    "const": {
      "AcquisitionMatrix": [104, 0, 0, 104],
      "AngioFlag": "N",
      "BitsAllocated": 16,
      "BitsStored": 16,
      "BodyPartExamined": "BRAIN",
      "Columns": 832,
      "EchoNumbers": 1,
      "EchoTime": 37.0,
      "EchoTrainLength": 104,
      "FlipAngle": 52.0,
      "HighBit": 15,
      "ImageOrientationPatient": [0.99854164497679, 0.01358722532853, 0.0522491201354, 0.00592555886727, 0.93438058725541, -0.356227183006],
      "ImagePositionPatient": [-837.11637525845, -823.54068292994, 230.35271476948],
      "ImageType": [
        "ORIGINAL",
        "PRIMARY",
        "M",
        "MB",
        "ND",
        "MOSAIC"
],
      "ImagedNucleus": "1H",
      "ImagingFrequency": 123.258922,
      "InPlanePhaseEncodingDirection": "COL",
      "MRAcquisitionType": "2D",
      "MagneticFieldStrength": 3.0,
      "Manufacturer": "SIEMENS",
      "ManufacturerModelName": "Prisma_fit",
      "Modality": "MR",
      "NumberOfAverages": 1.0,
      "NumberOfPhaseEncodingSteps": 104,
      "PercentPhaseFieldOfView": 100.0,
      "PercentSampling": 100.0,
      "PerformedProcedureStepStartTime": "170800.812000",
      "PhotometricInterpretation": "MONOCHROME2",
      "PixelBandwidth": 2290.0,
      "PixelRepresentation": 0,
      "PixelSpacing": [2.0, 2.0],
      "ProtocolName": "func_task-things_run-6",
      "RepetitionTime": 1490.0,
      "Rows": 832,
      "SAR": 0.05305463525642,
      "SamplesPerPixel": 1,
      "ScanOptions": "FS",
      "ScanningSequence": "EP",
      "SequenceName": "epfid2d1_104",
      "SequenceVariant": [
        "SK",
        "SS"
],
      "SeriesDescription": "func_task-things_run-6",
      "SeriesNumber": 25,
      "SeriesTime": "181502.840000",
      "SliceLocation": -33.369796525135,
      "SliceThickness": 2.0,
      "SmallestImagePixelValue": 0,
      "SoftwareVersions": "syngo MR E11",
      "SpacingBetweenSlices": 1.9999999650555,
      "SpecificCharacterSet": "ISO_IR 100",
      "StudyID": "1",
      "StudyTime": "170800.727000",
      "TransmitCoilName": "Body",
      "VariableFlipAngleFlag": "N",
      "WindowCenterWidthExplanation": "Algo1",
      "dBdt": 0.0},
    "slices": {}
  },
  "time": {
    "samples": {
      "AcquisitionNumber": [1, 2, 3, 4, 5, 6, 7, 8, 9, 10, 11, 12, 13, 14, 15, 16, 17, 18, 19, 20, 21, 22, 23, 24, 25, 26, 27, 28, 29, 30, 31, 32, 33, 34, 35, 36, 37, 38, 39, 40, 41, 42, 43, 44, 45, 46, 47, 48, 49, 50, 51, 52, 53, 54, 55, 56, 57, 58, 59, 60, 61, 62, 63, 64, 65, 66, 67, 68, 69, 70, 71, 72, 73, 74, 75, 76, 77, 78, 79, 80, 81, 82, 83, 84, 85, 86, 87, 88, 89, 90, 91, 92, 93, 94, 95, 96, 97, 98, 99, 100, 101, 102, 103, 104, 105, 106, 107, 108, 109, 110, 111, 112, 113, 114, 115, 116, 117, 118, 119, 120, 121, 122, 123, 124, 125, 126, 127, 128, 129, 130, 131, 132, 133, 134, 135, 136, 137, 138, 139, 140, 141, 142, 143, 144, 145, 146, 147, 148, 149, 150, 151, 152, 153, 154, 155, 156, 157, 158, 159, 160, 161, 162, 163, 164, 165, 166, 167, 168, 169, 170, 171, 172, 173, 174, 175, 176, 177, 178, 179, 180, 181, 182, 183, 184, 185, 186, 187, 188, 189, 190],
      "AcquisitionTime": ["181343.227500", "181344.717500", "181346.207500", "181347.697500", "181349.187500", "181350.677500", "181352.167500", "181353.657500", "181355.147500", "181356.637500", "181358.127500", "181359.617500", "181401.107500", "181402.597500", "181404.087500", "181405.577500", "181407.067500", "181408.557500", "181410.047500", "181411.537500", "181413.027500", "181414.517500", "181416.007500", "181417.497500", "181418.987500", "181420.477500", "181421.967500", "181423.457500", "181424.947500", "181426.437500", "181427.927500", "181429.417500", "181430.907500", "181432.397500", "181433.887500", "181435.377500", "181436.867500", "181438.357500", "181439.847500", "181441.337500", "181442.827500", "181444.317500", "181445.807500", "181447.297500", "181448.787500", "181450.277500", "181451.767500", "181453.257500", "181454.747500", "181456.237500", "181457.727500", "181459.217500", "181500.707500", "181502.197500", "181503.687500", "181505.177500", "181506.667500", "181508.157500", "181509.647500", "181511.137500", "181512.627500", "181514.117500", "181515.607500", "181517.097500", "181518.587500", "181520.077500", "181521.567500", "181523.057500", "181524.547500", "181526.037500", "181527.527500", "181529.017500", "181530.507500", "181531.997500", "181533.487500", "181534.977500", "181536.467500", "181537.957500", "181539.447500", "181540.937500", "181542.427500", "181543.917500", "181545.407500", "181546.897500", "181548.387500", "181549.877500", "181551.367500", "181552.857500", "181554.347500", "181555.837500", "181557.327500", "181558.817500", "181600.307500", "181601.797500", "181603.287500", "181604.777500", "181606.267500", "181607.757500", "181609.247500", "181610.737500", "181612.227500", "181613.717500", "181615.207500", "181616.697500", "181618.187500", "181619.677500", "181621.167500", "181622.657500", "181624.147500", "181625.637500", "181627.127500", "181628.617500", "181630.107500", "181631.597500", "181633.087500", "181634.577500", "181636.067500", "181637.557500", "181639.047500", "181640.537500", "181642.027500", "181643.517500", "181645.007500", "181646.497500", "181647.987500", "181649.477500", "181650.967500", "181652.457500", "181653.947500", "181655.437500", "181656.927500", "181658.417500", "181659.907500", "181701.397500", "181702.887500", "181704.377500", "181705.867500", "181707.357500", "181708.847500", "181710.337500", "181711.827500", "181713.317500", "181714.807500", "181716.297500", "181717.787500", "181719.277500", "181720.767500", "181722.257500", "181723.747500", "181725.237500", "181726.727500", "181728.217500", "181729.707500", "181731.197500", "181732.687500", "181734.177500", "181735.667500", "181737.157500", "181738.647500", "181740.137500", "181741.627500", "181743.117500", "181744.607500", "181746.097500", "181747.587500", "181749.077500", "181750.567500", "181752.057500", "181753.547500", "181755.037500", "181756.527500", "181758.017500", "181759.507500", "181800.997500", "181802.487500", "181803.977500", "181805.467500", "181806.957500", "181808.447500", "181809.937500", "181811.427500", "181812.917500", "181814.407500", "181815.897500", "181817.387500", "181818.877500", "181820.367500", "181821.857500", "181823.347500", "181824.837500"],
      "ContentTime": ["181502.843000", "181502.847000", "181502.850000", "181502.854000", "181502.857000", "181502.860000", "181502.864000", "181502.867000", "181502.870000", "181502.873000", "181502.877000", "181502.880000", "181502.883000", "181502.887000", "181502.890000", "181502.901000", "181502.904000", "181502.907000", "181502.910000", "181502.914000", "181502.917000", "181502.920000", "181502.931000", "181502.935000", "181502.938000", "181502.941000", "181502.944000", "181522.814000", "181522.818000", "181522.821000", "181522.825000", "181522.828000", "181522.840000", "181522.843000", "181522.846000", "181522.850000", "181522.853000", "181522.856000", "181522.859000", "181522.863000", "181522.866000", "181522.869000", "181522.873000", "181522.876000", "181522.879000", "181522.882000", "181522.886000", "181522.889000", "181542.814000", "181542.818000", "181542.821000", "181542.824000", "181542.827000", "181542.831000", "181542.834000", "181542.837000", "181542.841000", "181542.844000", "181542.847000", "181542.851000", "181542.854000", "181542.857000", "181542.861000", "181542.865000", "181542.868000", "181542.871000", "181542.875000", "181542.878000", "181602.813000", "181602.817000", "181602.820000", "181602.823000", "181602.827000", "181602.836000", "181602.839000", "181602.842000", "181602.846000", "181602.849000", "181602.852000", "181602.856000", "181602.859000", "181602.863000", "181602.866000", "181602.869000", "181602.873000", "181602.876000", "181602.879000", "181602.883000", "181642.814000", "181642.826000", "181642.830000", "181642.833000", "181642.836000", "181642.840000", "181642.843000", "181642.846000", "181642.849000", "181642.853000", "181642.856000", "181642.859000", "181642.863000", "181642.866000", "181642.869000", "181642.872000", "181642.876000", "181642.879000", "181642.882000", "181642.885000", "181642.889000", "181642.892000", "181642.895000", "181642.899000", "181642.902000", "181642.905000", "181642.908000", "181642.912000", "181642.915000", "181642.918000", "181642.921000", "181642.925000", "181722.814000", "181722.818000", "181722.821000", "181722.825000", "181722.828000", "181722.831000", "181722.856000", "181722.859000", "181722.863000", "181722.866000", "181722.869000", "181722.872000", "181722.876000", "181722.879000", "181722.882000", "181722.886000", "181722.889000", "181722.892000", "181722.896000", "181722.899000", "181722.902000", "181722.906000", "181722.909000", "181722.912000", "181722.916000", "181722.919000", "181802.814000", "181802.818000", "181802.821000", "181802.824000", "181802.828000", "181802.831000", "181802.834000", "181802.838000", "181802.841000", "181802.844000", "181802.847000", "181802.851000", "181802.854000", "181802.857000", "181802.861000", "181802.864000", "181802.867000", "181802.871000", "181802.874000", "181802.877000", "181802.880000", "181802.884000", "181802.887000", "181802.890000", "181802.894000", "181802.897000", "181802.900000", "181826.968000", "181826.972000", "181826.980000", "181826.984000", "181826.987000", "181826.990000", "181826.994000", "181826.997000", "181827.000000", "181827.004000", "181827.007000", "181827.010000", "181827.014000", "181827.017000", "181827.021000", "181827.024000", "181827.027000"],
      "InstanceCreationTime": ["181502.843000", "181502.847000", "181502.850000", "181502.854000", "181502.857000", "181502.860000", "181502.864000", "181502.867000", "181502.870000", "181502.873000", "181502.877000", "181502.880000", "181502.883000", "181502.887000", "181502.890000", "181502.901000", "181502.904000", "181502.907000", "181502.910000", "181502.914000", "181502.917000", "181502.920000", "181502.931000", "181502.935000", "181502.938000", "181502.941000", "181502.944000", "181522.814000", "181522.818000", "181522.821000", "181522.825000", "181522.828000", "181522.840000", "181522.843000", "181522.846000", "181522.850000", "181522.853000", "181522.856000", "181522.859000", "181522.863000", "181522.866000", "181522.869000", "181522.873000", "181522.876000", "181522.879000", "181522.882000", "181522.886000", "181522.889000", "181542.814000", "181542.818000", "181542.821000", "181542.824000", "181542.827000", "181542.831000", "181542.834000", "181542.837000", "181542.841000", "181542.844000", "181542.847000", "181542.851000", "181542.854000", "181542.857000", "181542.861000", "181542.865000", "181542.868000", "181542.871000", "181542.875000", "181542.878000", "181602.813000", "181602.817000", "181602.820000", "181602.823000", "181602.827000", "181602.836000", "181602.839000", "181602.842000", "181602.846000", "181602.849000", "181602.852000", "181602.856000", "181602.859000", "181602.863000", "181602.866000", "181602.869000", "181602.873000", "181602.876000", "181602.879000", "181602.883000", "181642.814000", "181642.826000", "181642.830000", "181642.833000", "181642.836000", "181642.840000", "181642.843000", "181642.846000", "181642.849000", "181642.853000", "181642.856000", "181642.859000", "181642.863000", "181642.866000", "181642.869000", "181642.872000", "181642.876000", "181642.879000", "181642.882000", "181642.885000", "181642.889000", "181642.892000", "181642.895000", "181642.899000", "181642.902000", "181642.905000", "181642.908000", "181642.912000", "181642.915000", "181642.918000", "181642.921000", "181642.925000", "181722.814000", "181722.818000", "181722.821000", "181722.825000", "181722.828000", "181722.831000", "181722.856000", "181722.859000", "181722.863000", "181722.866000", "181722.869000", "181722.872000", "181722.876000", "181722.879000", "181722.882000", "181722.886000", "181722.889000", "181722.892000", "181722.896000", "181722.899000", "181722.902000", "181722.906000", "181722.909000", "181722.912000", "181722.916000", "181722.919000", "181802.814000", "181802.818000", "181802.821000", "181802.824000", "181802.828000", "181802.831000", "181802.834000", "181802.838000", "181802.841000", "181802.844000", "181802.847000", "181802.851000", "181802.854000", "181802.857000", "181802.861000", "181802.864000", "181802.867000", "181802.871000", "181802.874000", "181802.877000", "181802.880000", "181802.884000", "181802.887000", "181802.890000", "181802.894000", "181802.897000", "181802.900000", "181826.968000", "181826.972000", "181826.980000", "181826.984000", "181826.987000", "181826.990000", "181826.994000", "181826.997000", "181827.000000", "181827.004000", "181827.007000", "181827.010000", "181827.014000", "181827.017000", "181827.021000", "181827.024000", "181827.027000"],
      "InstanceNumber": [1, 2, 3, 4, 5, 6, 7, 8, 9, 10, 11, 12, 13, 14, 15, 16, 17, 18, 19, 20, 21, 22, 23, 24, 25, 26, 27, 28, 29, 30, 31, 32, 33, 34, 35, 36, 37, 38, 39, 40, 41, 42, 43, 44, 45, 46, 47, 48, 49, 50, 51, 52, 53, 54, 55, 56, 57, 58, 59, 60, 61, 62, 63, 64, 65, 66, 67, 68, 69, 70, 71, 72, 73, 74, 75, 76, 77, 78, 79, 80, 81, 82, 83, 84, 85, 86, 87, 88, 89, 90, 91, 92, 93, 94, 95, 96, 97, 98, 99, 100, 101, 102, 103, 104, 105, 106, 107, 108, 109, 110, 111, 112, 113, 114, 115, 116, 117, 118, 119, 120, 121, 122, 123, 124, 125, 126, 127, 128, 129, 130, 131, 132, 133, 134, 135, 136, 137, 138, 139, 140, 141, 142, 143, 144, 145, 146, 147, 148, 149, 150, 151, 152, 153, 154, 155, 156, 157, 158, 159, 160, 161, 162, 163, 164, 165, 166, 167, 168, 169, 170, 171, 172, 173, 174, 175, 176, 177, 178, 179, 180, 181, 182, 183, 184, 185, 186, 187, 188, 189, 190],
      "LargestImagePixelValue": [43168, 42201, 41563, 41563, 41286, 40736, 40718, 40641, 40604, 41222, 40916, 40809, 40297, 40979, 40296, 40808, 41169, 40563, 40791, 40800, 40929, 40601, 40311, 41255, 41313, 40445, 41113, 40986, 40793, 41616, 40497, 40865, 41205, 40965, 40954, 41050, 41294, 40463, 40593, 40820, 41063, 40735, 40803, 40866, 41094, 40909, 41042, 41234, 41055, 40238, 41414, 41289, 41095, 40709, 40792, 40950, 41071, 40857, 40722, 41226, 41186, 40443, 40822, 40184, 40760, 44628, 40354, 40434, 40601, 40591, 41040, 41023, 40444, 40336, 40956, 40683, 40113, 40678, 41247, 40124, 40483, 41082, 40517, 41119, 40889, 41304, 41788, 41289, 40762, 41289, 43177, 40614, 41141, 41068, 40568, 40792, 42709, 40418, 41080, 40686, 39979, 40358, 39073, 39309, 39798, 39252, 40183, 40393, 40574, 40628, 40800, 40582, 40765, 40603, 42440, 39290, 39596, 40567, 41080, 41015, 41614, 40899, 40874, 40835, 40907, 41252, 41499, 41822, 42366, 40404, 41779, 41603, 42640, 41368, 42056, 41205, 40708, 41370, 39361, 40503, 40692, 40031, 40791, 40840, 41430, 39125, 38993, 39774, 41077, 40900, 41383, 41216, 41334, 40686, 41438, 40364, 40465, 39667, 42138, 40606, 40801, 40532, 40614, 39921, 40863, 40433, 40983, 40511, 41254, 41121, 41070, 40859, 40768, 40818, 41301, 41667, 41468, 41180, 41264, 41384, 41248, 41182, 40649, 40563, 40089, 40542, 40297, 40606, 39951, 40435],
      "WindowCenter": [10497.0, 10464.0, 10444.0, 10445.0, 10455.0, 10458.0, 10440.0, 10416.0, 10406.0, 10419.0, 10434.0, 10435.0, 10430.0, 10427.0, 10404.0, 10399.0, 10395.0, 10391.0, 10394.0, 10385.0, 10383.0, 10393.0, 10397.0, 10408.0, 10401.0, 10388.0, 10400.0, 10401.0, 10394.0, 10419.0, 10421.0, 10430.0, 10422.0, 10402.0, 10392.0, 10403.0, 10418.0, 10418.0, 10440.0, 10424.0, 10405.0, 10393.0, 10391.0, 10397.0, 10406.0, 10408.0, 10411.0, 10408.0, 10392.0, 10393.0, 10415.0, 10416.0, 10411.0, 10422.0, 10416.0, 10404.0, 10400.0, 10394.0, 10403.0, 10415.0, 10417.0, 10404.0, 10415.0, 10396.0, 10390.0, 10422.0, 10390.0, 10407.0, 10421.0, 10431.0, 10426.0, 10409.0, 10389.0, 10393.0, 10405.0, 10404.0, 10405.0, 10411.0, 10408.0, 10396.0, 10392.0, 10389.0, 10394.0, 10408.0, 10424.0, 10434.0, 10431.0, 10418.0, 10419.0, 10433.0, 10443.0, 10413.0, 10408.0, 10393.0, 10391.0, 10400.0, 10410.0, 10404.0, 10408.0, 10409.0, 10406.0, 10398.0, 10378.0, 10374.0, 10378.0, 10380.0, 10396.0, 10409.0, 10418.0, 10409.0, 10417.0, 10418.0, 10385.0, 10362.0, 10385.0, 10381.0, 10418.0, 10422.0, 10382.0, 10357.0, 10352.0, 10352.0, 10363.0, 10365.0, 10383.0, 10386.0, 10374.0, 10362.0, 10368.0, 10370.0, 10378.0, 10344.0, 10326.0, 10316.0, 10349.0, 10359.0, 10373.0, 10406.0, 10373.0, 10372.0, 10369.0, 10355.0, 10350.0, 10344.0, 10350.0, 10337.0, 10342.0, 10349.0, 10364.0, 10372.0, 10380.0, 10396.0, 10386.0, 10363.0, 10368.0, 10376.0, 10400.0, 10416.0, 10439.0, 10409.0, 10388.0, 10360.0, 10347.0, 10329.0, 10359.0, 10391.0, 10395.0, 10384.0, 10390.0, 10379.0, 10368.0, 10367.0, 10375.0, 10386.0, 10383.0, 10362.0, 10361.0, 10374.0, 10408.0, 10411.0, 10378.0, 10348.0, 10345.0, 10379.0, 10407.0, 10399.0, 10343.0, 10320.0, 10304.0, 10318.0],
      "WindowWidth": [22321.0, 22236.0, 22175.0, 22167.0, 22190.0, 22197.0, 22157.0, 22096.0, 22070.0, 22101.0, 22139.0, 22139.0, 22129.0, 22121.0, 22071.0, 22055.0, 22046.0, 22044.0, 22047.0, 22026.0, 22019.0, 22043.0, 22056.0, 22071.0, 22057.0, 22032.0, 22057.0, 22064.0, 22045.0, 22096.0, 22111.0, 22134.0, 22114.0, 22063.0, 22043.0, 22071.0, 22103.0, 22109.0, 22161.0, 22122.0, 22072.0, 22042.0, 22039.0, 22051.0, 22070.0, 22076.0, 22085.0, 22076.0, 22041.0, 22048.0, 22096.0, 22100.0, 22092.0, 22119.0, 22108.0, 22075.0, 22061.0, 22050.0, 22070.0, 22092.0, 22101.0, 22071.0, 22092.0, 22052.0, 22036.0, 22106.0, 22038.0, 22078.0, 22114.0, 22139.0, 22121.0, 22078.0, 22039.0, 22046.0, 22071.0, 22075.0, 22076.0, 22086.0, 22076.0, 22052.0, 22041.0, 22031.0, 22054.0, 22081.0, 22118.0, 22145.0, 22131.0, 22103.0, 22108.0, 22139.0, 22158.0, 22094.0, 22078.0, 22045.0, 22041.0, 22065.0, 22089.0, 22076.0, 22077.0, 22077.0, 22077.0, 22058.0, 22020.0, 22013.0, 22015.0, 22024.0, 22051.0, 22078.0, 22101.0, 22077.0, 22095.0, 22101.0, 22024.0, 21969.0, 22024.0, 22021.0, 22109.0, 22114.0, 22017.0, 21952.0, 21940.0, 21942.0, 21969.0, 21970.0, 22010.0, 22020.0, 21992.0, 21965.0, 21977.0, 21989.0, 22001.0, 21920.0, 21874.0, 21859.0, 21934.0, 21966.0, 21995.0, 22069.0, 22005.0, 21995.0, 21990.0, 21963.0, 21945.0, 21930.0, 21939.0, 21915.0, 21924.0, 21942.0, 21970.0, 21988.0, 22008.0, 22046.0, 22022.0, 21969.0, 21980.0, 22002.0, 22061.0, 22102.0, 22144.0, 22081.0, 22031.0, 21968.0, 21937.0, 21897.0, 21961.0, 22044.0, 22047.0, 22024.0, 22041.0, 22009.0, 21983.0, 21978.0, 21997.0, 22027.0, 22024.0, 21967.0, 21963.0, 21996.0, 22073.0, 22085.0, 22009.0, 21936.0, 21934.0, 22014.0, 22087.0, 22065.0, 21930.0, 21877.0, 21839.0, 21874.0]
    },
    "slices": {}
  }
}