{
  "AcquisitionMatrixPE": 104,
  "AcquisitionNumber": 1,
  "AcquisitionTime": "17:44:16.875000",
  "BandwidthPerPixelPhaseEncode": 17.17,
  "BaseResolution": 104,
  "BodyPartExamined": "BRAIN",
  "CoilString": "HC1-7;NC1_2",
  "ConsistencyInfo": "N4_VE11C_LATEST_20160120",
  "ConversionSoftware": "dcm2niix",
  "ConversionSoftwareVersion": "v1.0.20190902",
  "DerivedVendorReportedEchoSpacing": 0.000560011,
  "DeviceSerialNumber": "167006",
  "DwellTime": 2.1e-06,
  "EchoTime": 0.037,
  "EchoTrainLength": 104,
  "EffectiveEchoSpacing": 0.000560011,
  "FlipAngle": 52,
  "ImageComments": "Unaliased_MB4_PE3_LB",
  "ImageOrientationPatientDICOM": [0.995775, 0.0875151, 0.0278033, -0.0677105, 0.904324, -0.421443],
  "ImageType": [
    "ORIGINAL",
    "PRIMARY",
    "M",
    "MB",
    "ND",
    "MOSAIC"
],
  "ImagingFrequency": 123.259,
  "InPlanePhaseEncodingDirectionDICOM": "COL",
  "InstitutionAddress": "Chemin_Queen-Mary_4565_Montreal_District_CA_H3W_1W5",
  "InstitutionName": "IUGM",
  "InstitutionalDepartmentName": "Department",
  "MRAcquisitionType": "2D",
  "MagneticFieldStrength": 3,
  "Manufacturer": "Siemens",
  "ManufacturersModelName": "Prisma_fit",
  "Modality": "MR",
  "MultibandAccelerationFactor": 4,
  "PartialFourier": 1,
  "PatientPosition": "HFS",
  "PercentPhaseFOV": 100,
  "PhaseEncodingDirection": "j",
  "PhaseEncodingSteps": 104,
  "PhaseResolution": 1,
  "PixelBandwidth": 2290,
  "ProcedureStepDescription": "memory_things",
  "ProtocolName": "func_task-things_run-1",
  "PulseSequenceDetails": "%CustomerSeq%_cmrr_mbep2d_bold",
  "ReceiveCoilActiveElements": "HC1-7;NC1,2",
  "ReceiveCoilName": "HeadNeck_64",
  "ReconMatrixPE": 104,
  "RepetitionTime": 1.49,
  "SAR": 0.0340615,
  "ScanOptions": "FS",
  "ScanningSequence": "EP",
  "SequenceName": "epfid2d1_104",
  "SequenceVariant": "SK_SS",
  "SeriesDescription": "func_task-things_run-1",
  "SeriesNumber": 10,
  "ShimSetting": [628, -7203, -8825, 637, 71, 75, -44, 17],
  "SliceThickness": 2,
  "SliceTiming": [0, 0.785, 0.1, 0.8825, 0.1975, 0.98, 0.295, 1.08, 0.3925, 1.1775, 0.49, 1.275, 0.59, 1.3725, 0.6875, 0, 0.785, 0.1, 0.8825, 0.1975, 0.98, 0.295, 1.08, 0.3925, 1.1775, 0.49, 1.275, 0.59, 1.3725, 0.6875, 0, 0.785, 0.1, 0.8825, 0.1975, 0.98, 0.295, 1.08, 0.3925, 1.1775, 0.49, 1.275, 0.59, 1.3725, 0.6875, 0, 0.785, 0.1, 0.8825, 0.1975, 0.98, 0.295, 1.08, 0.3925, 1.1775, 0.49, 1.275, 0.59, 1.3725, 0.6875],
  "SoftwareVersions": "syngo_MR_E11",
  "SpacingBetweenSlices": 2,
  "StationName": "MRC35049",
  "TaskName": "things",
  "TotalReadoutTime": 0.0576811,
  "TxRefAmp": 246.117,
  "WipMemBlock": "8554bbd2-e66c-4cdf-9f6e-5e9f2b5ed446||Sequence: R016 ve11c/master r/e634e98; Dec 19 2017 11:00:25 by eja",
  "dcmmeta_affine": [
    [-1.9915502071380615, -0.13542108237743378, 0.12405163049697876, 109.79293823242188],
    [-0.17503021657466888, 1.8086472749710083, -0.8355593085289001, -46.071861267089844],
    [0.055606648325920105, 0.8428856134414673, 1.8128572702407837, -72.25662231445312],
    [0.0, 0.0, 0.0, 1.0]
],
  "dcmmeta_reorient_transform": [
    [0.0, -1.0, 0.0, 103.0],
    [1.0, 0.0, 0.0, 0.0],
    [0.0, 0.0, 1.0, 0.0],
    [0.0, 0.0, 0.0, 1.0]
],
  "dcmmeta_shape": [104, 104, 60, 190],
  "dcmmeta_slice_dim": 2,
  "dcmmeta_version": 0.6,
  "global": {
    "const": {
      "AcquisitionMatrix": [104, 0, 0, 104],
      "AngioFlag": "N",
      "BitsAllocated": 16,
      "BitsStored": 16,
      "BodyPartExamined": "BRAIN",
      "Columns": 832,
      "EchoNumbers": 1,
      "EchoTime": 37.0,
      "EchoTrainLength": 104,
      "FlipAngle": 52.0,
      "HighBit": 15,
      "ImageOrientationPatient": [0.99577511565743, 0.08751510844955, 0.02780332409093, -0.0677105399064, 0.90432364094996, -0.4214428018185],
      "ImagePositionPatient": [-771.47557572351, -862.27741686245, 301.1301310406],
      "ImageType": [
        "ORIGINAL",
        "PRIMARY",
        "M",
        "MB",
        "ND",
        "MOSAIC"
],
      "ImagedNucleus": "1H",
      "ImagingFrequency": 123.259132,
      "InPlanePhaseEncodingDirection": "COL",
      "MRAcquisitionType": "2D",
      "MagneticFieldStrength": 3.0,
      "Manufacturer": "SIEMENS",
      "ManufacturerModelName": "Prisma_fit",
      "Modality": "MR",
      "NumberOfAverages": 1.0,
      "NumberOfPhaseEncodingSteps": 104,
      "PercentPhaseFieldOfView": 100.0,
      "PercentSampling": 100.0,
      "PerformedProcedureStepStartTime": "171701.656000",
      "PhotometricInterpretation": "MONOCHROME2",
      "PixelBandwidth": 2290.0,
      "PixelRepresentation": 0,
      "PixelSpacing": [2.0, 2.0],
      "ProtocolName": "func_task-things_run-1",
      "RepetitionTime": 1490.0,
      "Rows": 832,
      "SAR": 0.03406149802211,
      "SamplesPerPixel": 1,
      "ScanOptions": "FS",
      "ScanningSequence": "EP",
      "SequenceName": "epfid2d1_104",
      "SequenceVariant": [
        "SK",
        "SS"
],
      "SeriesDescription": "func_task-things_run-1",
      "SeriesNumber": 10,
      "SeriesTime": "174521.158000",
      "SliceLocation": -39.437593251238,
      "SliceThickness": 2.0,
      "SmallestImagePixelValue": 0,
      "SoftwareVersions": "syngo MR E11",
      "SpacingBetweenSlices": 1.9999999567898,
      "SpecificCharacterSet": "ISO_IR 100",
      "StudyID": "1",
      "StudyTime": "171701.544000",
      "TransmitCoilName": "Body",
      "VariableFlipAngleFlag": "N",
      "WindowCenterWidthExplanation": "Algo1",
      "dBdt": 0.0},
    "slices": {}
  },
  "time": {
    "samples": {
      "AcquisitionNumber": [1, 2, 3, 4, 5, 6, 7, 8, 9, 10, 11, 12, 13, 14, 15, 16, 17, 18, 19, 20, 21, 22, 23, 24, 25, 26, 27, 28, 29, 30, 31, 32, 33, 34, 35, 36, 37, 38, 39, 40, 41, 42, 43, 44, 45, 46, 47, 48, 49, 50, 51, 52, 53, 54, 55, 56, 57, 58, 59, 60, 61, 62, 63, 64, 65, 66, 67, 68, 69, 70, 71, 72, 73, 74, 75, 76, 77, 78, 79, 80, 81, 82, 83, 84, 85, 86, 87, 88, 89, 90, 91, 92, 93, 94, 95, 96, 97, 98, 99, 100, 101, 102, 103, 104, 105, 106, 107, 108, 109, 110, 111, 112, 113, 114, 115, 116, 117, 118, 119, 120, 121, 122, 123, 124, 125, 126, 127, 128, 129, 130, 131, 132, 133, 134, 135, 136, 137, 138, 139, 140, 141, 142, 143, 144, 145, 146, 147, 148, 149, 150, 151, 152, 153, 154, 155, 156, 157, 158, 159, 160, 161, 162, 163, 164, 165, 166, 167, 168, 169, 170, 171, 172, 173, 174, 175, 176, 177, 178, 179, 180, 181, 182, 183, 184, 185, 186, 187, 188, 189, 190],
      "AcquisitionTime": ["174416.875000", "174418.365000", "174419.855000", "174421.345000", "174422.835000", "174424.325000", "174425.815000", "174427.305000", "174428.795000", "174430.285000", "174431.775000", "174433.265000", "174434.755000", "174436.245000", "174437.735000", "174439.225000", "174440.715000", "174442.205000", "174443.695000", "174445.185000", "174446.675000", "174448.165000", "174449.655000", "174451.145000", "174452.635000", "174454.125000", "174455.615000", "174457.105000", "174458.595000", "174500.085000", "174501.575000", "174503.065000", "174504.555000", "174506.045000", "174507.535000", "174509.025000", "174510.515000", "174512.005000", "174513.495000", "174514.985000", "174516.475000", "174517.965000", "174519.455000", "174520.945000", "174522.435000", "174523.925000", "174525.415000", "174526.905000", "174528.395000", "174529.885000", "174531.375000", "174532.865000", "174534.355000", "174535.845000", "174537.335000", "174538.825000", "174540.315000", "174541.805000", "174543.295000", "174544.785000", "174546.275000", "174547.765000", "174549.255000", "174550.745000", "174552.235000", "174553.725000", "174555.215000", "174556.705000", "174558.195000", "174559.685000", "174601.175000", "174602.665000", "174604.155000", "174605.645000", "174607.135000", "174608.625000", "174610.115000", "174611.605000", "174613.095000", "174614.585000", "174616.075000", "174617.565000", "174619.055000", "174620.545000", "174622.035000", "174623.525000", "174625.015000", "174626.505000", "174627.995000", "174629.485000", "174630.975000", "174632.465000", "174633.955000", "174635.445000", "174636.935000", "174638.425000", "174639.915000", "174641.405000", "174642.895000", "174644.385000", "174645.875000", "174647.365000", "174648.855000", "174650.345000", "174651.835000", "174653.325000", "174654.815000", "174656.305000", "174657.795000", "174659.285000", "174700.775000", "174702.265000", "174703.755000", "174705.245000", "174706.735000", "174708.225000", "174709.715000", "174711.205000", "174712.695000", "174714.185000", "174715.675000", "174717.165000", "174718.655000", "174720.145000", "174721.635000", "174723.125000", "174724.615000", "174726.105000", "174727.595000", "174729.085000", "174730.575000", "174732.065000", "174733.555000", "174735.045000", "174736.535000", "174738.025000", "174739.515000", "174741.005000", "174742.495000", "174743.985000", "174745.475000", "174746.965000", "174748.455000", "174749.945000", "174751.435000", "174752.925000", "174754.415000", "174755.905000", "174757.395000", "174758.885000", "174800.375000", "174801.865000", "174803.355000", "174804.845000", "174806.335000", "174807.825000", "174809.315000", "174810.805000", "174812.295000", "174813.785000", "174815.275000", "174816.765000", "174818.255000", "174819.745000", "174821.235000", "174822.725000", "174824.215000", "174825.705000", "174827.195000", "174828.685000", "174830.175000", "174831.665000", "174833.155000", "174834.645000", "174836.135000", "174837.625000", "174839.115000", "174840.605000", "174842.095000", "174843.585000", "174845.075000", "174846.565000", "174848.055000", "174849.545000", "174851.035000", "174852.525000", "174854.015000", "174855.505000", "174856.995000", "174858.485000"],
      "ContentTime": ["174521.161000", "174521.165000", "174521.168000", "174521.172000", "174521.175000", "174521.178000", "174521.182000", "174521.185000", "174521.189000", "174541.111000", "174541.115000", "174541.118000", "174541.122000", "174541.125000", "174541.128000", "174541.132000", "174541.135000", "174541.139000", "174541.142000", "174541.146000", "174541.149000", "174541.152000", "174541.156000", "174541.159000", "174541.163000", "174541.166000", "174541.169000", "174541.173000", "174541.176000", "174621.110000", "174621.114000", "174621.117000", "174621.121000", "174621.124000", "174621.128000", "174621.131000", "174621.134000", "174621.138000", "174621.141000", "174621.145000", "174621.148000", "174621.152000", "174621.155000", "174621.158000", "174621.162000", "174621.165000", "174621.168000", "174621.172000", "174621.175000", "174621.179000", "174621.182000", "174621.185000", "174621.189000", "174621.192000", "174621.195000", "174621.199000", "174621.202000", "174621.206000", "174621.209000", "174621.212000", "174621.216000", "174621.219000", "174621.223000", "174621.226000", "174621.230000", "174621.233000", "174621.237000", "174621.240000", "174621.243000", "174641.110000", "174641.114000", "174641.117000", "174641.132000", "174641.135000", "174641.139000", "174641.142000", "174641.145000", "174641.149000", "174641.152000", "174641.156000", "174641.159000", "174641.163000", "174641.166000", "174641.175000", "174641.178000", "174641.182000", "174641.185000", "174641.189000", "174641.192000", "174701.109000", "174701.113000", "174701.116000", "174701.120000", "174701.132000", "174701.135000", "174701.139000", "174701.142000", "174701.146000", "174701.149000", "174701.152000", "174701.156000", "174701.159000", "174701.163000", "174701.166000", "174701.169000", "174701.173000", "174701.176000", "174701.180000", "174701.183000", "174741.109000", "174741.113000", "174741.116000", "174741.120000", "174741.123000", "174741.127000", "174741.130000", "174741.134000", "174741.137000", "174741.140000", "174741.144000", "174741.147000", "174741.151000", "174741.154000", "174741.158000", "174741.161000", "174741.165000", "174741.168000", "174741.171000", "174741.175000", "174741.178000", "174741.182000", "174741.185000", "174741.188000", "174741.192000", "174741.195000", "174741.199000", "174821.110000", "174821.114000", "174821.118000", "174821.121000", "174821.124000", "174821.128000", "174821.131000", "174821.135000", "174821.138000", "174821.141000", "174821.145000", "174821.148000", "174821.152000", "174821.155000", "174821.158000", "174821.162000", "174821.165000", "174821.169000", "174821.172000", "174821.175000", "174821.179000", "174821.182000", "174821.186000", "174821.189000", "174821.193000", "174821.196000", "174821.200000", "174901.071000", "174901.075000", "174901.079000", "174901.082000", "174901.091000", "174901.095000", "174901.098000", "174901.102000", "174901.105000", "174901.109000", "174901.124000", "174901.128000", "174901.137000", "174901.141000", "174901.144000", "174901.148000", "174901.151000", "174901.155000", "174901.158000", "174901.162000", "174901.165000", "174901.169000", "174901.172000", "174901.175000", "174901.179000", "174901.183000", "174901.186000"],
      "InstanceCreationTime": ["174521.161000", "174521.165000", "174521.168000", "174521.172000", "174521.175000", "174521.178000", "174521.182000", "174521.185000", "174521.189000", "174541.111000", "174541.115000", "174541.118000", "174541.122000", "174541.125000", "174541.128000", "174541.132000", "174541.135000", "174541.139000", "174541.142000", "174541.146000", "174541.149000", "174541.152000", "174541.156000", "174541.159000", "174541.163000", "174541.166000", "174541.169000", "174541.173000", "174541.176000", "174621.110000", "174621.114000", "174621.117000", "174621.121000", "174621.124000", "174621.128000", "174621.131000", "174621.134000", "174621.138000", "174621.141000", "174621.145000", "174621.148000", "174621.152000", "174621.155000", "174621.158000", "174621.162000", "174621.165000", "174621.168000", "174621.172000", "174621.175000", "174621.179000", "174621.182000", "174621.185000", "174621.189000", "174621.192000", "174621.195000", "174621.199000", "174621.202000", "174621.206000", "174621.209000", "174621.212000", "174621.216000", "174621.219000", "174621.223000", "174621.226000", "174621.230000", "174621.233000", "174621.237000", "174621.240000", "174621.243000", "174641.110000", "174641.114000", "174641.117000", "174641.132000", "174641.135000", "174641.139000", "174641.142000", "174641.145000", "174641.149000", "174641.152000", "174641.156000", "174641.159000", "174641.163000", "174641.166000", "174641.175000", "174641.178000", "174641.182000", "174641.185000", "174641.189000", "174641.192000", "174701.109000", "174701.113000", "174701.116000", "174701.120000", "174701.132000", "174701.135000", "174701.139000", "174701.142000", "174701.146000", "174701.149000", "174701.152000", "174701.156000", "174701.159000", "174701.163000", "174701.166000", "174701.169000", "174701.173000", "174701.176000", "174701.180000", "174701.183000", "174741.109000", "174741.113000", "174741.116000", "174741.120000", "174741.123000", "174741.127000", "174741.130000", "174741.134000", "174741.137000", "174741.140000", "174741.144000", "174741.147000", "174741.151000", "174741.154000", "174741.158000", "174741.161000", "174741.165000", "174741.168000", "174741.171000", "174741.175000", "174741.178000", "174741.182000", "174741.185000", "174741.188000", "174741.192000", "174741.195000", "174741.199000", "174821.110000", "174821.114000", "174821.118000", "174821.121000", "174821.124000", "174821.128000", "174821.131000", "174821.135000", "174821.138000", "174821.141000", "174821.145000", "174821.148000", "174821.152000", "174821.155000", "174821.158000", "174821.162000", "174821.165000", "174821.169000", "174821.172000", "174821.175000", "174821.179000", "174821.182000", "174821.186000", "174821.189000", "174821.193000", "174821.196000", "174821.200000", "174901.071000", "174901.075000", "174901.079000", "174901.082000", "174901.091000", "174901.095000", "174901.098000", "174901.102000", "174901.105000", "174901.109000", "174901.124000", "174901.128000", "174901.137000", "174901.141000", "174901.144000", "174901.148000", "174901.151000", "174901.155000", "174901.158000", "174901.162000", "174901.165000", "174901.169000", "174901.172000", "174901.175000", "174901.179000", "174901.183000", "174901.186000"],
      "InstanceNumber": [1, 2, 3, 4, 5, 6, 7, 8, 9, 10, 11, 12, 13, 14, 15, 16, 17, 18, 19, 20, 21, 22, 23, 24, 25, 26, 27, 28, 29, 30, 31, 32, 33, 34, 35, 36, 37, 38, 39, 40, 41, 42, 43, 44, 45, 46, 47, 48, 49, 50, 51, 52, 53, 54, 55, 56, 57, 58, 59, 60, 61, 62, 63, 64, 65, 66, 67, 68, 69, 70, 71, 72, 73, 74, 75, 76, 77, 78, 79, 80, 81, 82, 83, 84, 85, 86, 87, 88, 89, 90, 91, 92, 93, 94, 95, 96, 97, 98, 99, 100, 101, 102, 103, 104, 105, 106, 107, 108, 109, 110, 111, 112, 113, 114, 115, 116, 117, 118, 119, 120, 121, 122, 123, 124, 125, 126, 127, 128, 129, 130, 131, 132, 133, 134, 135, 136, 137, 138, 139, 140, 141, 142, 143, 144, 145, 146, 147, 148, 149, 150, 151, 152, 153, 154, 155, 156, 157, 158, 159, 160, 161, 162, 163, 164, 165, 166, 167, 168, 169, 170, 171, 172, 173, 174, 175, 176, 177, 178, 179, 180, 181, 182, 183, 184, 185, 186, 187, 188, 189, 190],
      "LargestImagePixelValue": [43407, 43337, 42221, 42140, 41540, 40636, 41982, 42174, 42163, 42318, 42676, 42182, 40880, 38571, 41411, 43238, 43145, 42766, 41077, 39464, 38901, 41619, 43936, 44194, 44039, 43944, 44306, 43576, 42853, 43120, 44747, 45085, 44901, 45147, 44447, 44311, 44097, 44969, 43981, 44645, 44443, 44078, 43695, 45102, 44075, 44346, 45435, 44291, 43770, 44013, 44115, 43929, 43936, 44306, 44015, 44238, 44296, 44315, 43946, 43924, 44083, 43742, 43882, 43490, 43188, 43250, 42755, 43333, 39343, 42697, 42444, 42143, 41795, 42184, 42950, 43730, 43143, 43412, 41938, 43810, 44320, 43533, 43499, 43834, 43354, 43495, 42679, 42648, 43292, 43719, 43452, 44185, 44231, 43702, 43719, 43471, 44161, 43818, 43381, 43484, 43684, 43719, 43975, 44409, 44338, 44269, 43977, 43451, 43840, 43904, 42673, 43101, 43578, 43996, 43807, 43293, 43729, 43223, 43887, 43646, 43463, 43351, 43197, 43469, 43605, 43808, 43525, 44056, 44423, 43769, 42860, 43801, 44111, 43511, 43136, 42950, 43549, 43378, 43948, 44274, 43839, 42499, 43836, 44013, 44655, 44800, 44513, 43276, 43230, 42155, 41981, 42825, 43513, 43378, 43511, 43224, 43018, 42983, 42712, 42393, 42524, 42758, 42347, 42960, 42659, 42247, 42540, 42881, 42269, 42918, 42200, 42395, 42727, 42456, 43046, 43445, 42582, 42520, 42790, 42583, 42069, 42619, 42661, 42922, 42567, 42961, 42477, 42668, 42574, 42127],
      "WindowCenter": [10471.0, 10422.0, 10399.0, 10376.0, 10359.0, 10337.0, 10351.0, 10376.0, 10370.0, 10368.0, 10374.0, 10367.0, 10344.0, 10347.0, 10383.0, 10400.0, 10380.0, 10374.0, 10354.0, 10340.0, 10336.0, 10366.0, 10387.0, 10376.0, 10364.0, 10348.0, 10346.0, 10349.0, 10354.0, 10356.0, 10378.0, 10377.0, 10377.0, 10367.0, 10363.0, 10356.0, 10373.0, 10393.0, 10375.0, 10378.0, 10371.0, 10372.0, 10369.0, 10386.0, 10382.0, 10363.0, 10365.0, 10336.0, 10327.0, 10343.0, 10344.0, 10355.0, 10364.0, 10373.0, 10384.0, 10373.0, 10360.0, 10345.0, 10363.0, 10381.0, 10373.0, 10362.0, 10356.0, 10359.0, 10363.0, 10362.0, 10355.0, 10368.0, 10337.0, 10388.0, 10377.0, 10356.0, 10344.0, 10358.0, 10386.0, 10403.0, 10400.0, 10384.0, 10362.0, 10371.0, 10382.0, 10377.0, 10361.0, 10346.0, 10329.0, 10319.0, 10309.0, 10316.0, 10331.0, 10360.0, 10351.0, 10353.0, 10344.0, 10335.0, 10350.0, 10345.0, 10355.0, 10358.0, 10379.0, 10399.0, 10397.0, 10375.0, 10366.0, 10373.0, 10376.0, 10384.0, 10372.0, 10354.0, 10340.0, 10321.0, 10305.0, 10310.0, 10311.0, 10349.0, 10372.0, 10360.0, 10346.0, 10330.0, 10333.0, 10342.0, 10354.0, 10354.0, 10365.0, 10360.0, 10341.0, 10342.0, 10337.0, 10361.0, 10371.0, 10369.0, 10360.0, 10364.0, 10361.0, 10346.0, 10340.0, 10342.0, 10347.0, 10342.0, 10349.0, 10356.0, 10367.0, 10348.0, 10356.0, 10365.0, 10381.0, 10384.0, 10402.0, 10376.0, 10358.0, 10346.0, 10334.0, 10333.0, 10343.0, 10346.0, 10354.0, 10343.0, 10335.0, 10343.0, 10362.0, 10374.0, 10374.0, 10374.0, 10370.0, 10375.0, 10365.0, 10360.0, 10372.0, 10394.0, 10394.0, 10402.0, 10372.0, 10369.0, 10383.0, 10385.0, 10403.0, 10412.0, 10393.0, 10394.0, 10399.0, 10408.0, 10407.0, 10410.0, 10408.0, 10415.0, 10412.0, 10409.0, 10398.0, 10387.0, 10395.0, 10404.0],
      "WindowWidth": [22314.0, 22188.0, 22126.0, 22068.0, 22026.0, 21974.0, 21999.0, 22058.0, 22045.0, 22038.0, 22052.0, 22041.0, 21993.0, 22007.0, 22081.0, 22113.0, 22064.0, 22053.0, 22018.0, 21991.0, 21981.0, 22039.0, 22077.0, 22052.0, 22027.0, 21991.0, 21985.0, 21994.0, 22007.0, 22009.0, 22051.0, 22054.0, 22056.0, 22032.0, 22030.0, 22009.0, 22047.0, 22091.0, 22055.0, 22060.0, 22045.0, 22052.0, 22038.0, 22072.0, 22069.0, 22025.0, 22031.0, 21959.0, 21937.0, 21978.0, 21981.0, 22007.0, 22027.0, 22050.0, 22081.0, 22049.0, 22015.0, 21981.0, 22029.0, 22069.0, 22048.0, 22025.0, 22006.0, 22020.0, 22033.0, 22028.0, 22013.0, 22041.0, 21992.0, 22093.0, 22058.0, 22012.0, 21981.0, 22016.0, 22088.0, 22124.0, 22117.0, 22077.0, 22032.0, 22038.0, 22060.0, 22056.0, 22018.0, 21980.0, 21944.0, 21920.0, 21903.0, 21915.0, 21948.0, 22014.0, 21999.0, 21997.0, 21978.0, 21959.0, 21993.0, 21984.0, 22001.0, 22010.0, 22066.0, 22113.0, 22105.0, 22056.0, 22032.0, 22044.0, 22048.0, 22069.0, 22040.0, 22000.0, 21967.0, 21927.0, 21890.0, 21898.0, 21899.0, 21987.0, 22046.0, 22018.0, 21985.0, 21952.0, 21955.0, 21978.0, 22006.0, 22007.0, 22029.0, 22025.0, 21974.0, 21970.0, 21966.0, 22016.0, 22039.0, 22037.0, 22019.0, 22028.0, 22019.0, 21981.0, 21969.0, 21976.0, 21984.0, 21975.0, 22002.0, 22011.0, 22041.0, 22004.0, 22016.0, 22033.0, 22062.0, 22068.0, 22107.0, 22054.0, 22013.0, 21987.0, 21964.0, 21955.0, 21974.0, 21988.0, 22008.0, 21982.0, 21962.0, 21982.0, 22029.0, 22058.0, 22058.0, 22057.0, 22053.0, 22062.0, 22035.0, 22028.0, 22051.0, 22102.0, 22107.0, 22132.0, 22060.0, 22049.0, 22079.0, 22086.0, 22124.0, 22146.0, 22104.0, 22107.0, 22117.0, 22138.0, 22140.0, 22144.0, 22138.0, 22152.0, 22151.0, 22140.0, 22121.0, 22089.0, 22112.0, 22131.0]
    },
    "slices": {}
  }
}