{
  "AcquisitionMatrixPE": 104,
  "AcquisitionNumber": 1,
  "AcquisitionTime": "18:11:26.805000",
  "BandwidthPerPixelPhaseEncode": 17.17,
  "BaseResolution": 104,
  "BodyPartExamined": "BRAIN",
  "CoilString": "HC1-7;NC1_2",
  "ConsistencyInfo": "N4_VE11C_LATEST_20160120",
  "ConversionSoftware": "dcm2niix",
  "ConversionSoftwareVersion": "v1.0.20190902",
  "DerivedVendorReportedEchoSpacing": 0.000560011,
  "DeviceSerialNumber": "167006",
  "DwellTime": 2.1e-06,
  "EchoTime": 0.037,
  "EchoTrainLength": 104,
  "EffectiveEchoSpacing": 0.000560011,
  "FlipAngle": 52,
  "ImageComments": "Unaliased_MB4_PE3_LB",
  "ImageOrientationPatientDICOM": [0.995775, 0.0875151, 0.0278033, -0.0677105, 0.904324, -0.421443],
  "ImageType": [
    "ORIGINAL",
    "PRIMARY",
    "M",
    "MB",
    "ND",
    "MOSAIC"
],
  "ImagingFrequency": 123.259,
  "InPlanePhaseEncodingDirectionDICOM": "COL",
  "InstitutionAddress": "Chemin_Queen-Mary_4565_Montreal_District_CA_H3W_1W5",
  "InstitutionName": "IUGM",
  "InstitutionalDepartmentName": "Department",
  "MRAcquisitionType": "2D",
  "MagneticFieldStrength": 3,
  "Manufacturer": "Siemens",
  "ManufacturersModelName": "Prisma_fit",
  "Modality": "MR",
  "MultibandAccelerationFactor": 4,
  "PartialFourier": 1,
  "PatientPosition": "HFS",
  "PercentPhaseFOV": 100,
  "PhaseEncodingDirection": "j",
  "PhaseEncodingSteps": 104,
  "PhaseResolution": 1,
  "PixelBandwidth": 2290,
  "ProcedureStepDescription": "memory_things",
  "ProtocolName": "func_task-things_run-5",
  "PulseSequenceDetails": "%CustomerSeq%_cmrr_mbep2d_bold",
  "ReceiveCoilActiveElements": "HC1-7;NC1,2",
  "ReceiveCoilName": "HeadNeck_64",
  "ReconMatrixPE": 104,
  "RepetitionTime": 1.49,
  "SAR": 0.0340615,
  "ScanOptions": "FS",
  "ScanningSequence": "EP",
  "SequenceName": "epfid2d1_104",
  "SequenceVariant": "SK_SS",
  "SeriesDescription": "func_task-things_run-5",
  "SeriesNumber": 22,
  "ShimSetting": [628, -7203, -8825, 637, 71, 75, -44, 17],
  "SliceThickness": 2,
  "SliceTiming": [0, 0.7825, 0.0975, 0.8825, 0.195, 0.98, 0.2925, 1.0775, 0.3925, 1.175, 0.49, 1.2725, 0.5875, 1.3725, 0.685, 0, 0.7825, 0.0975, 0.8825, 0.195, 0.98, 0.2925, 1.0775, 0.3925, 1.175, 0.49, 1.2725, 0.5875, 1.3725, 0.685, 0, 0.7825, 0.0975, 0.8825, 0.195, 0.98, 0.2925, 1.0775, 0.3925, 1.175, 0.49, 1.2725, 0.5875, 1.3725, 0.685, 0, 0.7825, 0.0975, 0.8825, 0.195, 0.98, 0.2925, 1.0775, 0.3925, 1.175, 0.49, 1.2725, 0.5875, 1.3725, 0.685],
  "SoftwareVersions": "syngo_MR_E11",
  "SpacingBetweenSlices": 2,
  "StationName": "MRC35049",
  "TaskName": "things",
  "TotalReadoutTime": 0.0576811,
  "TxRefAmp": 246.117,
  "WipMemBlock": "9b31d232-f3f6-40d4-9b26-902d2c9bb204||Sequence: R016 ve11c/master r/e634e98; Dec 19 2017 11:00:25 by eja",
  "dcmmeta_affine": [
    [-1.9915502071380615, -0.13542108237743378, 0.12405163049697876, 109.79293823242188],
    [-0.17503021657466888, 1.8086472749710083, -0.8355593085289001, -46.071861267089844],
    [0.055606648325920105, 0.8428856134414673, 1.8128572702407837, -72.25662231445312],
    [0.0, 0.0, 0.0, 1.0]
],
  "dcmmeta_reorient_transform": [
    [0.0, -1.0, 0.0, 103.0],
    [1.0, 0.0, 0.0, 0.0],
    [0.0, 0.0, 1.0, 0.0],
    [0.0, 0.0, 0.0, 1.0]
],
  "dcmmeta_shape": [104, 104, 60, 190],
  "dcmmeta_slice_dim": 2,
  "dcmmeta_version": 0.6,
  "global": {
    "const": {
      "AcquisitionMatrix": [104, 0, 0, 104],
      "AngioFlag": "N",
      "BitsAllocated": 16,
      "BitsStored": 16,
      "BodyPartExamined": "BRAIN",
      "Columns": 832,
      "EchoNumbers": 1,
      "EchoTime": 37.0,
      "EchoTrainLength": 104,
      "FlipAngle": 52.0,
      "HighBit": 15,
      "ImageOrientationPatient": [0.99577511565743, 0.08751510844955, 0.02780332409093, -0.0677105399064, 0.90432364094996, -0.4214428018185],
      "ImagePositionPatient": [-771.47557572351, -862.27741686245, 301.1301310406],
      "ImageType": [
        "ORIGINAL",
        "PRIMARY",
        "M",
        "MB",
        "ND",
        "MOSAIC"
],
      "ImagedNucleus": "1H",
      "ImagingFrequency": 123.25914,
      "InPlanePhaseEncodingDirection": "COL",
      "MRAcquisitionType": "2D",
      "MagneticFieldStrength": 3.0,
      "Manufacturer": "SIEMENS",
      "ManufacturerModelName": "Prisma_fit",
      "Modality": "MR",
      "NumberOfAverages": 1.0,
      "NumberOfPhaseEncodingSteps": 104,
      "PercentPhaseFieldOfView": 100.0,
      "PercentSampling": 100.0,
      "PerformedProcedureStepStartTime": "171701.656000",
      "PhotometricInterpretation": "MONOCHROME2",
      "PixelBandwidth": 2290.0,
      "PixelRepresentation": 0,
      "PixelSpacing": [2.0, 2.0],
      "ProtocolName": "func_task-things_run-5",
      "RepetitionTime": 1490.0,
      "Rows": 832,
      "SAR": 0.03406149802211,
      "SamplesPerPixel": 1,
      "ScanOptions": "FS",
      "ScanningSequence": "EP",
      "SequenceName": "epfid2d1_104",
      "SequenceVariant": [
        "SK",
        "SS"
],
      "SeriesDescription": "func_task-things_run-5",
      "SeriesNumber": 22,
      "SeriesTime": "181250.667000",
      "SliceLocation": -39.437593251238,
      "SliceThickness": 2.0,
      "SmallestImagePixelValue": 0,
      "SoftwareVersions": "syngo MR E11",
      "SpacingBetweenSlices": 1.9999999567898,
      "SpecificCharacterSet": "ISO_IR 100",
      "StudyID": "1",
      "StudyTime": "171701.544000",
      "TransmitCoilName": "Body",
      "VariableFlipAngleFlag": "N",
      "WindowCenterWidthExplanation": "Algo1",
      "dBdt": 0.0},
    "slices": {}
  },
  "time": {
    "samples": {
      "AcquisitionNumber": [1, 2, 3, 4, 5, 6, 7, 8, 9, 10, 11, 12, 13, 14, 15, 16, 17, 18, 19, 20, 21, 22, 23, 24, 25, 26, 27, 28, 29, 30, 31, 32, 33, 34, 35, 36, 37, 38, 39, 40, 41, 42, 43, 44, 45, 46, 47, 48, 49, 50, 51, 52, 53, 54, 55, 56, 57, 58, 59, 60, 61, 62, 63, 64, 65, 66, 67, 68, 69, 70, 71, 72, 73, 74, 75, 76, 77, 78, 79, 80, 81, 82, 83, 84, 85, 86, 87, 88, 89, 90, 91, 92, 93, 94, 95, 96, 97, 98, 99, 100, 101, 102, 103, 104, 105, 106, 107, 108, 109, 110, 111, 112, 113, 114, 115, 116, 117, 118, 119, 120, 121, 122, 123, 124, 125, 126, 127, 128, 129, 130, 131, 132, 133, 134, 135, 136, 137, 138, 139, 140, 141, 142, 143, 144, 145, 146, 147, 148, 149, 150, 151, 152, 153, 154, 155, 156, 157, 158, 159, 160, 161, 162, 163, 164, 165, 166, 167, 168, 169, 170, 171, 172, 173, 174, 175, 176, 177, 178, 179, 180, 181, 182, 183, 184, 185, 186, 187, 188, 189, 190],
      "AcquisitionTime": ["181126.805000", "181128.295000", "181129.785000", "181131.275000", "181132.765000", "181134.255000", "181135.745000", "181137.235000", "181138.725000", "181140.215000", "181141.705000", "181143.195000", "181144.685000", "181146.175000", "181147.665000", "181149.155000", "181150.645000", "181152.135000", "181153.625000", "181155.115000", "181156.605000", "181158.095000", "181159.585000", "181201.075000", "181202.565000", "181204.055000", "181205.545000", "181207.035000", "181208.525000", "181210.015000", "181211.505000", "181212.995000", "181214.485000", "181215.975000", "181217.465000", "181218.955000", "181220.445000", "181221.935000", "181223.425000", "181224.915000", "181226.405000", "181227.895000", "181229.385000", "181230.875000", "181232.365000", "181233.855000", "181235.345000", "181236.835000", "181238.325000", "181239.815000", "181241.305000", "181242.795000", "181244.285000", "181245.775000", "181247.265000", "181248.755000", "181250.245000", "181251.735000", "181253.225000", "181254.715000", "181256.205000", "181257.695000", "181259.185000", "181300.675000", "181302.165000", "181303.655000", "181305.145000", "181306.635000", "181308.125000", "181309.615000", "181311.105000", "181312.595000", "181314.085000", "181315.575000", "181317.065000", "181318.555000", "181320.045000", "181321.535000", "181323.025000", "181324.515000", "181326.005000", "181327.495000", "181328.985000", "181330.475000", "181331.965000", "181333.455000", "181334.945000", "181336.435000", "181337.925000", "181339.415000", "181340.905000", "181342.395000", "181343.885000", "181345.375000", "181346.865000", "181348.355000", "181349.845000", "181351.335000", "181352.825000", "181354.315000", "181355.805000", "181357.295000", "181358.785000", "181400.275000", "181401.765000", "181403.255000", "181404.745000", "181406.235000", "181407.725000", "181409.215000", "181410.705000", "181412.195000", "181413.685000", "181415.175000", "181416.665000", "181418.155000", "181419.645000", "181421.135000", "181422.625000", "181424.115000", "181425.605000", "181427.095000", "181428.585000", "181430.075000", "181431.565000", "181433.055000", "181434.545000", "181436.035000", "181437.525000", "181439.015000", "181440.505000", "181441.995000", "181443.485000", "181444.975000", "181446.465000", "181447.955000", "181449.445000", "181450.935000", "181452.425000", "181453.915000", "181455.405000", "181456.895000", "181458.385000", "181459.875000", "181501.365000", "181502.855000", "181504.345000", "181505.835000", "181507.325000", "181508.815000", "181510.305000", "181511.795000", "181513.285000", "181514.775000", "181516.265000", "181517.755000", "181519.245000", "181520.735000", "181522.225000", "181523.715000", "181525.205000", "181526.695000", "181528.185000", "181529.675000", "181531.165000", "181532.655000", "181534.145000", "181535.635000", "181537.125000", "181538.615000", "181540.105000", "181541.595000", "181543.085000", "181544.575000", "181546.065000", "181547.555000", "181549.045000", "181550.535000", "181552.025000", "181553.515000", "181555.005000", "181556.495000", "181557.985000", "181559.475000", "181600.965000", "181602.455000", "181603.945000", "181605.435000", "181606.925000", "181608.415000"],
      "ContentTime": ["181250.670000", "181250.682000", "181250.686000", "181250.689000", "181250.693000", "181250.696000", "181250.716000", "181250.720000", "181250.724000", "181250.727000", "181250.730000", "181250.734000", "181250.737000", "181250.741000", "181250.744000", "181250.747000", "181250.751000", "181250.754000", "181250.768000", "181250.772000", "181250.775000", "181250.779000", "181250.782000", "181250.786000", "181250.789000", "181250.792000", "181250.796000", "181310.593000", "181310.597000", "181310.600000", "181310.603000", "181310.607000", "181310.611000", "181310.614000", "181310.617000", "181310.621000", "181310.624000", "181310.627000", "181310.631000", "181310.634000", "181310.638000", "181310.641000", "181310.644000", "181310.648000", "181310.651000", "181310.655000", "181310.658000", "181330.593000", "181330.597000", "181330.600000", "181330.604000", "181330.614000", "181330.617000", "181330.621000", "181330.624000", "181330.627000", "181330.631000", "181330.634000", "181330.637000", "181330.641000", "181330.644000", "181330.651000", "181330.654000", "181330.657000", "181330.661000", "181330.664000", "181330.667000", "181350.593000", "181350.597000", "181350.600000", "181350.604000", "181350.607000", "181350.611000", "181350.614000", "181350.617000", "181350.621000", "181350.624000", "181350.628000", "181350.631000", "181350.635000", "181350.638000", "181350.641000", "181350.645000", "181350.648000", "181350.652000", "181350.655000", "181350.658000", "181410.593000", "181410.597000", "181410.600000", "181410.604000", "181410.607000", "181410.610000", "181410.614000", "181410.617000", "181410.621000", "181410.624000", "181410.628000", "181410.631000", "181410.635000", "181410.638000", "181410.641000", "181410.645000", "181410.648000", "181410.652000", "181410.655000", "181410.658000", "181450.593000", "181450.597000", "181450.600000", "181450.604000", "181450.607000", "181450.611000", "181450.614000", "181450.618000", "181450.621000", "181450.624000", "181450.628000", "181450.631000", "181450.635000", "181450.638000", "181450.642000", "181450.645000", "181450.649000", "181450.652000", "181450.655000", "181450.659000", "181450.662000", "181450.666000", "181450.669000", "181450.672000", "181450.676000", "181450.679000", "181450.682000", "181450.686000", "181450.689000", "181510.593000", "181510.597000", "181510.601000", "181510.604000", "181510.607000", "181510.611000", "181510.614000", "181510.618000", "181510.621000", "181510.624000", "181510.628000", "181510.632000", "181510.635000", "181550.593000", "181550.597000", "181550.610000", "181550.613000", "181550.617000", "181550.620000", "181550.624000", "181550.627000", "181550.631000", "181550.634000", "181550.638000", "181550.641000", "181550.645000", "181550.648000", "181550.651000", "181550.655000", "181550.658000", "181550.662000", "181550.665000", "181550.669000", "181550.672000", "181550.676000", "181550.679000", "181550.682000", "181550.686000", "181550.689000", "181550.693000", "181610.573000", "181610.577000", "181610.580000", "181610.584000", "181610.587000", "181610.591000", "181610.594000", "181610.598000", "181610.601000", "181610.605000", "181610.617000", "181610.621000", "181610.625000", "181610.629000"],
      "InstanceCreationTime": ["181250.670000", "181250.682000", "181250.686000", "181250.689000", "181250.693000", "181250.696000", "181250.716000", "181250.720000", "181250.724000", "181250.727000", "181250.730000", "181250.734000", "181250.737000", "181250.741000", "181250.744000", "181250.747000", "181250.751000", "181250.754000", "181250.768000", "181250.772000", "181250.775000", "181250.779000", "181250.782000", "181250.786000", "181250.789000", "181250.792000", "181250.796000", "181310.593000", "181310.597000", "181310.600000", "181310.603000", "181310.607000", "181310.611000", "181310.614000", "181310.617000", "181310.621000", "181310.624000", "181310.627000", "181310.631000", "181310.634000", "181310.638000", "181310.641000", "181310.644000", "181310.648000", "181310.651000", "181310.655000", "181310.658000", "181330.593000", "181330.597000", "181330.600000", "181330.604000", "181330.614000", "181330.617000", "181330.621000", "181330.624000", "181330.627000", "181330.631000", "181330.634000", "181330.637000", "181330.641000", "181330.644000", "181330.651000", "181330.654000", "181330.657000", "181330.661000", "181330.664000", "181330.667000", "181350.593000", "181350.597000", "181350.600000", "181350.604000", "181350.607000", "181350.611000", "181350.614000", "181350.617000", "181350.621000", "181350.624000", "181350.628000", "181350.631000", "181350.635000", "181350.638000", "181350.641000", "181350.645000", "181350.648000", "181350.652000", "181350.655000", "181350.658000", "181410.593000", "181410.597000", "181410.600000", "181410.604000", "181410.607000", "181410.610000", "181410.614000", "181410.617000", "181410.621000", "181410.624000", "181410.628000", "181410.631000", "181410.635000", "181410.638000", "181410.641000", "181410.645000", "181410.648000", "181410.652000", "181410.655000", "181410.658000", "181450.593000", "181450.597000", "181450.600000", "181450.604000", "181450.607000", "181450.611000", "181450.614000", "181450.618000", "181450.621000", "181450.624000", "181450.628000", "181450.631000", "181450.635000", "181450.638000", "181450.642000", "181450.645000", "181450.649000", "181450.652000", "181450.655000", "181450.659000", "181450.662000", "181450.666000", "181450.669000", "181450.672000", "181450.676000", "181450.679000", "181450.682000", "181450.686000", "181450.689000", "181510.593000", "181510.597000", "181510.601000", "181510.604000", "181510.607000", "181510.611000", "181510.614000", "181510.618000", "181510.621000", "181510.624000", "181510.628000", "181510.632000", "181510.635000", "181550.593000", "181550.597000", "181550.610000", "181550.613000", "181550.617000", "181550.620000", "181550.624000", "181550.627000", "181550.631000", "181550.634000", "181550.638000", "181550.641000", "181550.645000", "181550.648000", "181550.651000", "181550.655000", "181550.658000", "181550.662000", "181550.665000", "181550.669000", "181550.672000", "181550.676000", "181550.679000", "181550.682000", "181550.686000", "181550.689000", "181550.693000", "181610.573000", "181610.577000", "181610.580000", "181610.584000", "181610.587000", "181610.591000", "181610.594000", "181610.598000", "181610.601000", "181610.605000", "181610.617000", "181610.621000", "181610.625000", "181610.629000"],
      "InstanceNumber": [1, 2, 3, 4, 5, 6, 7, 8, 9, 10, 11, 12, 13, 14, 15, 16, 17, 18, 19, 20, 21, 22, 23, 24, 25, 26, 27, 28, 29, 30, 31, 32, 33, 34, 35, 36, 37, 38, 39, 40, 41, 42, 43, 44, 45, 46, 47, 48, 49, 50, 51, 52, 53, 54, 55, 56, 57, 58, 59, 60, 61, 62, 63, 64, 65, 66, 67, 68, 69, 70, 71, 72, 73, 74, 75, 76, 77, 78, 79, 80, 81, 82, 83, 84, 85, 86, 87, 88, 89, 90, 91, 92, 93, 94, 95, 96, 97, 98, 99, 100, 101, 102, 103, 104, 105, 106, 107, 108, 109, 110, 111, 112, 113, 114, 115, 116, 117, 118, 119, 120, 121, 122, 123, 124, 125, 126, 127, 128, 129, 130, 131, 132, 133, 134, 135, 136, 137, 138, 139, 140, 141, 142, 143, 144, 145, 146, 147, 148, 149, 150, 151, 152, 153, 154, 155, 156, 157, 158, 159, 160, 161, 162, 163, 164, 165, 166, 167, 168, 169, 170, 171, 172, 173, 174, 175, 176, 177, 178, 179, 180, 181, 182, 183, 184, 185, 186, 187, 188, 189, 190],
      "LargestImagePixelValue": [43203, 42739, 41334, 41239, 40841, 40919, 40713, 40507, 42730, 40357, 40677, 41514, 41183, 40044, 40346, 38617, 40113, 40368, 40003, 39971, 40547, 42790, 41779, 39943, 40733, 39998, 42527, 40970, 42633, 44741, 42436, 41290, 40249, 39017, 39543, 39626, 39538, 42488, 40653, 40544, 41018, 40563, 40642, 40427, 40753, 42406, 40520, 42650, 41616, 39986, 39887, 40087, 38873, 40138, 40650, 41330, 41606, 41820, 41722, 41920, 40614, 42356, 41103, 42703, 44466, 44291, 40798, 40927, 40829, 41856, 43071, 43402, 42974, 43069, 40939, 39703, 43134, 39333, 40670, 41540, 41042, 40495, 41539, 42403, 42850, 41793, 39141, 38693, 41530, 41462, 40271, 40311, 44580, 39772, 40398, 40748, 41898, 40008, 39883, 40381, 40578, 40299, 40163, 40473, 43571, 39221, 39971, 41720, 40490, 39458, 39580, 40013, 38981, 39004, 39397, 39001, 39253, 39325, 39592, 39430, 39285, 39067, 38882, 38677, 39092, 39720, 39109, 38869, 38808, 41416, 41935, 38836, 39319, 40535, 40047, 39332, 39483, 39441, 39181, 39871, 39958, 40868, 40883, 41005, 39270, 40834, 39777, 39883, 39696, 39402, 41132, 40842, 38888, 39689, 38308, 39159, 38405, 37474, 39583, 38131, 38486, 37416, 46853, 39400, 38382, 38374, 37809, 37868, 37570, 37862, 38418, 37886, 40952, 38584, 38055, 37882, 37214, 37911, 41023, 37540, 36952, 37311, 37082, 38695, 37104, 37156, 37232, 37334, 37088, 36993],
      "WindowCenter": [10215.0, 10164.0, 10156.0, 10164.0, 10140.0, 10127.0, 10112.0, 10118.0, 10145.0, 10129.0, 10136.0, 10150.0, 10149.0, 10149.0, 10138.0, 10110.0, 10127.0, 10163.0, 10184.0, 10174.0, 10161.0, 10174.0, 10189.0, 10187.0, 10181.0, 10153.0, 10165.0, 10157.0, 10167.0, 10181.0, 10158.0, 10155.0, 10179.0, 10176.0, 10176.0, 10157.0, 10129.0, 10162.0, 10157.0, 10187.0, 10213.0, 10216.0, 10197.0, 10161.0, 10144.0, 10158.0, 10133.0, 10157.0, 10144.0, 10138.0, 10157.0, 10166.0, 10163.0, 10178.0, 10187.0, 10192.0, 10183.0, 10200.0, 10224.0, 10237.0, 10210.0, 10205.0, 10176.0, 10177.0, 10190.0, 10194.0, 10188.0, 10192.0, 10186.0, 10187.0, 10188.0, 10192.0, 10186.0, 10220.0, 10221.0, 10202.0, 10206.0, 10153.0, 10174.0, 10188.0, 10184.0, 10158.0, 10144.0, 10145.0, 10158.0, 10165.0, 10155.0, 10141.0, 10165.0, 10152.0, 10123.0, 10132.0, 10200.0, 10150.0, 10147.0, 10142.0, 10149.0, 10128.0, 10138.0, 10152.0, 10150.0, 10140.0, 10123.0, 10125.0, 10170.0, 10149.0, 10135.0, 10153.0, 10129.0, 10129.0, 10165.0, 10139.0, 10109.0, 10092.0, 10088.0, 10085.0, 10096.0, 10104.0, 10126.0, 10121.0, 10109.0, 10100.0, 10117.0, 10110.0, 10119.0, 10116.0, 10110.0, 10121.0, 10131.0, 10179.0, 10184.0, 10135.0, 10125.0, 10143.0, 10135.0, 10161.0, 10206.0, 10214.0, 10190.0, 10190.0, 10172.0, 10151.0, 10157.0, 10171.0, 10165.0, 10166.0, 10147.0, 10154.0, 10129.0, 10120.0, 10122.0, 10119.0, 10107.0, 10145.0, 10135.0, 10131.0, 10117.0, 10112.0, 10147.0, 10142.0, 10132.0, 10121.0, 10196.0, 10131.0, 10101.0, 10134.0, 10148.0, 10139.0, 10105.0, 10090.0, 10074.0, 10068.0, 10112.0, 10097.0, 10093.0, 10106.0, 10110.0, 10111.0, 10132.0, 10098.0, 10094.0, 10109.0, 10109.0, 10128.0, 10101.0, 10095.0, 10097.0, 10114.0, 10133.0, 10125.0],
      "WindowWidth": [21693.0, 21557.0, 21545.0, 21556.0, 21501.0, 21465.0, 21435.0, 21449.0, 21494.0, 21474.0, 21484.0, 21519.0, 21515.0, 21525.0, 21503.0, 21439.0, 21468.0, 21556.0, 21605.0, 21583.0, 21541.0, 21560.0, 21609.0, 21617.0, 21596.0, 21537.0, 21548.0, 21539.0, 21552.0, 21568.0, 21528.0, 21528.0, 21593.0, 21600.0, 21590.0, 21549.0, 21485.0, 21551.0, 21540.0, 21611.0, 21677.0, 21682.0, 21635.0, 21555.0, 21513.0, 21541.0, 21484.0, 21532.0, 21505.0, 21500.0, 21547.0, 21568.0, 21568.0, 21596.0, 21617.0, 21623.0, 21600.0, 21637.0, 21697.0, 21729.0, 21665.0, 21648.0, 21581.0, 21578.0, 21595.0, 21605.0, 21612.0, 21624.0, 21611.0, 21607.0, 21605.0, 21614.0, 21601.0, 21677.0, 21692.0, 21658.0, 21655.0, 21546.0, 21584.0, 21610.0, 21605.0, 21543.0, 21506.0, 21503.0, 21534.0, 21556.0, 21550.0, 21526.0, 21558.0, 21522.0, 21464.0, 21487.0, 21641.0, 21529.0, 21521.0, 21506.0, 21526.0, 21479.0, 21503.0, 21534.0, 21527.0, 21501.0, 21469.0, 21477.0, 21570.0, 21541.0, 21504.0, 21530.0, 21477.0, 21487.0, 21572.0, 21518.0, 21435.0, 21399.0, 21389.0, 21388.0, 21405.0, 21428.0, 21478.0, 21468.0, 21436.0, 21420.0, 21458.0, 21444.0, 21467.0, 21464.0, 21447.0, 21475.0, 21496.0, 21599.0, 21603.0, 21509.0, 21475.0, 21507.0, 21490.0, 21557.0, 21663.0, 21682.0, 21633.0, 21621.0, 21583.0, 21527.0, 21533.0, 21568.0, 21571.0, 21562.0, 21522.0, 21534.0, 21479.0, 21460.0, 21459.0, 21446.0, 21435.0, 21522.0, 21504.0, 21488.0, 21460.0, 21454.0, 21524.0, 21521.0, 21496.0, 21482.0, 21605.0, 21483.0, 21419.0, 21494.0, 21540.0, 21513.0, 21436.0, 21398.0, 21361.0, 21350.0, 21442.0, 21409.0, 21405.0, 21441.0, 21450.0, 21450.0, 21484.0, 21418.0, 21417.0, 21450.0, 21448.0, 21491.0, 21434.0, 21415.0, 21418.0, 21458.0, 21512.0, 21487.0]
    },
    "slices": {}
  }
}