{
  "AcquisitionMatrixPE": 104,
  "AcquisitionNumber": 1,
  "AcquisitionTime": "18:05:31.125000",
  "BandwidthPerPixelPhaseEncode": 17.17,
  "BaseResolution": 104,
  "BodyPartExamined": "BRAIN",
  "CoilString": "HC1-7;NC1_2",
  "ConsistencyInfo": "N4_VE11C_LATEST_20160120",
  "ConversionSoftware": "dcm2niix",
  "ConversionSoftwareVersion": "v1.0.20190902",
  "DerivedVendorReportedEchoSpacing": 0.000560011,
  "DeviceSerialNumber": "167006",
  "DwellTime": 2.1e-06,
  "EchoTime": 0.037,
  "EchoTrainLength": 104,
  "EffectiveEchoSpacing": 0.000560011,
  "FlipAngle": 52,
  "ImageComments": "Unaliased_MB4_PE3_LB",
  "ImageOrientationPatientDICOM": [0.995775, 0.0875151, 0.0278033, -0.0677105, 0.904324, -0.421443],
  "ImageType": [
    "ORIGINAL",
    "PRIMARY",
    "M",
    "MB",
    "ND",
    "MOSAIC"
],
  "ImagingFrequency": 123.259,
  "InPlanePhaseEncodingDirectionDICOM": "COL",
  "InstitutionAddress": "Chemin_Queen-Mary_4565_Montreal_District_CA_H3W_1W5",
  "InstitutionName": "IUGM",
  "InstitutionalDepartmentName": "Department",
  "MRAcquisitionType": "2D",
  "MagneticFieldStrength": 3,
  "Manufacturer": "Siemens",
  "ManufacturersModelName": "Prisma_fit",
  "Modality": "MR",
  "MultibandAccelerationFactor": 4,
  "PartialFourier": 1,
  "PatientPosition": "HFS",
  "PercentPhaseFOV": 100,
  "PhaseEncodingDirection": "j",
  "PhaseEncodingSteps": 104,
  "PhaseResolution": 1,
  "PixelBandwidth": 2290,
  "ProcedureStepDescription": "memory_things",
  "ProtocolName": "func_task-things_run-4",
  "PulseSequenceDetails": "%CustomerSeq%_cmrr_mbep2d_bold",
  "ReceiveCoilActiveElements": "HC1-7;NC1,2",
  "ReceiveCoilName": "HeadNeck_64",
  "ReconMatrixPE": 104,
  "RepetitionTime": 1.49,
  "SAR": 0.0340615,
  "ScanOptions": "FS",
  "ScanningSequence": "EP",
  "SequenceName": "epfid2d1_104",
  "SequenceVariant": "SK_SS",
  "SeriesDescription": "func_task-things_run-4",
  "SeriesNumber": 19,
  "ShimSetting": [628, -7203, -8825, 637, 71, 75, -44, 17],
  "SliceThickness": 2,
  "SliceTiming": [0, 0.785, 0.1, 0.8825, 0.1975, 0.98, 0.295, 1.0775, 0.3925, 1.1775, 0.49, 1.275, 0.59, 1.3725, 0.6875, 0, 0.785, 0.1, 0.8825, 0.1975, 0.98, 0.295, 1.0775, 0.3925, 1.1775, 0.49, 1.275, 0.59, 1.3725, 0.6875, 0, 0.785, 0.1, 0.8825, 0.1975, 0.98, 0.295, 1.0775, 0.3925, 1.1775, 0.49, 1.275, 0.59, 1.3725, 0.6875, 0, 0.785, 0.1, 0.8825, 0.1975, 0.98, 0.295, 1.0775, 0.3925, 1.1775, 0.49, 1.275, 0.59, 1.3725, 0.6875],
  "SoftwareVersions": "syngo_MR_E11",
  "SpacingBetweenSlices": 2,
  "StationName": "MRC35049",
  "TaskName": "things",
  "TotalReadoutTime": 0.0576811,
  "TxRefAmp": 246.117,
  "WipMemBlock": "95835a20-570b-427a-a6c7-cb521c721675||Sequence: R016 ve11c/master r/e634e98; Dec 19 2017 11:00:25 by eja",
  "dcmmeta_affine": [
    [-1.9915502071380615, -0.13542108237743378, 0.12405163049697876, 109.79293823242188],
    [-0.17503021657466888, 1.8086472749710083, -0.8355593085289001, -46.071861267089844],
    [0.055606648325920105, 0.8428856134414673, 1.8128572702407837, -72.25662231445312],
    [0.0, 0.0, 0.0, 1.0]
],
  "dcmmeta_reorient_transform": [
    [0.0, -1.0, 0.0, 103.0],
    [1.0, 0.0, 0.0, 0.0],
    [0.0, 0.0, 1.0, 0.0],
    [0.0, 0.0, 0.0, 1.0]
],
  "dcmmeta_shape": [104, 104, 60, 190],
  "dcmmeta_slice_dim": 2,
  "dcmmeta_version": 0.6,
  "global": {
    "const": {
      "AcquisitionMatrix": [104, 0, 0, 104],
      "AngioFlag": "N",
      "BitsAllocated": 16,
      "BitsStored": 16,
      "BodyPartExamined": "BRAIN",
      "Columns": 832,
      "EchoNumbers": 1,
      "EchoTime": 37.0,
      "EchoTrainLength": 104,
      "FlipAngle": 52.0,
      "HighBit": 15,
      "ImageOrientationPatient": [0.99577511565743, 0.08751510844955, 0.02780332409093, -0.0677105399064, 0.90432364094996, -0.4214428018185],
      "ImagePositionPatient": [-771.47557572351, -862.27741686245, 301.1301310406],
      "ImageType": [
        "ORIGINAL",
        "PRIMARY",
        "M",
        "MB",
        "ND",
        "MOSAIC"
],
      "ImagedNucleus": "1H",
      "ImagingFrequency": 123.25914,
      "InPlanePhaseEncodingDirection": "COL",
      "MRAcquisitionType": "2D",
      "MagneticFieldStrength": 3.0,
      "Manufacturer": "SIEMENS",
      "ManufacturerModelName": "Prisma_fit",
      "Modality": "MR",
      "NumberOfAverages": 1.0,
      "NumberOfPhaseEncodingSteps": 104,
      "PercentPhaseFieldOfView": 100.0,
      "PercentSampling": 100.0,
      "PerformedProcedureStepStartTime": "171701.656000",
      "PhotometricInterpretation": "MONOCHROME2",
      "PixelBandwidth": 2290.0,
      "PixelRepresentation": 0,
      "PixelSpacing": [2.0, 2.0],
      "ProtocolName": "func_task-things_run-4",
      "RepetitionTime": 1490.0,
      "Rows": 832,
      "SAR": 0.03406149802211,
      "SamplesPerPixel": 1,
      "ScanOptions": "FS",
      "ScanningSequence": "EP",
      "SequenceName": "epfid2d1_104",
      "SequenceVariant": [
        "SK",
        "SS"
],
      "SeriesDescription": "func_task-things_run-4",
      "SeriesNumber": 19,
      "SeriesTime": "180641.138000",
      "SliceLocation": -39.437593251238,
      "SliceThickness": 2.0,
      "SmallestImagePixelValue": 0,
      "SoftwareVersions": "syngo MR E11",
      "SpacingBetweenSlices": 1.9999999567898,
      "SpecificCharacterSet": "ISO_IR 100",
      "StudyID": "1",
      "StudyTime": "171701.544000",
      "TransmitCoilName": "Body",
      "VariableFlipAngleFlag": "N",
      "WindowCenterWidthExplanation": "Algo1",
      "dBdt": 0.0},
    "slices": {}
  },
  "time": {
    "samples": {
      "AcquisitionNumber": [1, 2, 3, 4, 5, 6, 7, 8, 9, 10, 11, 12, 13, 14, 15, 16, 17, 18, 19, 20, 21, 22, 23, 24, 25, 26, 27, 28, 29, 30, 31, 32, 33, 34, 35, 36, 37, 38, 39, 40, 41, 42, 43, 44, 45, 46, 47, 48, 49, 50, 51, 52, 53, 54, 55, 56, 57, 58, 59, 60, 61, 62, 63, 64, 65, 66, 67, 68, 69, 70, 71, 72, 73, 74, 75, 76, 77, 78, 79, 80, 81, 82, 83, 84, 85, 86, 87, 88, 89, 90, 91, 92, 93, 94, 95, 96, 97, 98, 99, 100, 101, 102, 103, 104, 105, 106, 107, 108, 109, 110, 111, 112, 113, 114, 115, 116, 117, 118, 119, 120, 121, 122, 123, 124, 125, 126, 127, 128, 129, 130, 131, 132, 133, 134, 135, 136, 137, 138, 139, 140, 141, 142, 143, 144, 145, 146, 147, 148, 149, 150, 151, 152, 153, 154, 155, 156, 157, 158, 159, 160, 161, 162, 163, 164, 165, 166, 167, 168, 169, 170, 171, 172, 173, 174, 175, 176, 177, 178, 179, 180, 181, 182, 183, 184, 185, 186, 187, 188, 189, 190],
      "AcquisitionTime": ["180531.125000", "180532.615000", "180534.105000", "180535.595000", "180537.085000", "180538.575000", "180540.065000", "180541.555000", "180543.045000", "180544.535000", "180546.025000", "180547.515000", "180549.005000", "180550.495000", "180551.985000", "180553.475000", "180554.965000", "180556.455000", "180557.945000", "180559.435000", "180600.925000", "180602.415000", "180603.905000", "180605.395000", "180606.885000", "180608.375000", "180609.865000", "180611.355000", "180612.845000", "180614.335000", "180615.825000", "180617.315000", "180618.805000", "180620.295000", "180621.785000", "180623.275000", "180624.765000", "180626.255000", "180627.745000", "180629.235000", "180630.725000", "180632.215000", "180633.705000", "180635.195000", "180636.685000", "180638.175000", "180639.665000", "180641.155000", "180642.645000", "180644.135000", "180645.625000", "180647.115000", "180648.605000", "180650.095000", "180651.585000", "180653.075000", "180654.565000", "180656.055000", "180657.545000", "180659.035000", "180700.525000", "180702.015000", "180703.505000", "180704.995000", "180706.485000", "180707.975000", "180709.465000", "180710.955000", "180712.445000", "180713.935000", "180715.425000", "180716.915000", "180718.405000", "180719.895000", "180721.385000", "180722.875000", "180724.365000", "180725.855000", "180727.345000", "180728.835000", "180730.325000", "180731.815000", "180733.305000", "180734.795000", "180736.285000", "180737.775000", "180739.265000", "180740.755000", "180742.245000", "180743.735000", "180745.225000", "180746.715000", "180748.205000", "180749.695000", "180751.185000", "180752.675000", "180754.165000", "180755.655000", "180757.145000", "180758.635000", "180800.125000", "180801.615000", "180803.105000", "180804.595000", "180806.085000", "180807.575000", "180809.065000", "180810.555000", "180812.045000", "180813.535000", "180815.025000", "180816.515000", "180818.005000", "180819.495000", "180820.985000", "180822.475000", "180823.965000", "180825.455000", "180826.945000", "180828.435000", "180829.925000", "180831.415000", "180832.905000", "180834.395000", "180835.885000", "180837.375000", "180838.865000", "180840.355000", "180841.845000", "180843.335000", "180844.825000", "180846.315000", "180847.805000", "180849.295000", "180850.785000", "180852.275000", "180853.765000", "180855.255000", "180856.745000", "180858.235000", "180859.725000", "180901.215000", "180902.705000", "180904.195000", "180905.685000", "180907.175000", "180908.665000", "180910.155000", "180911.645000", "180913.135000", "180914.625000", "180916.115000", "180917.605000", "180919.095000", "180920.585000", "180922.075000", "180923.565000", "180925.055000", "180926.545000", "180928.035000", "180929.525000", "180931.015000", "180932.505000", "180933.995000", "180935.485000", "180936.975000", "180938.465000", "180939.955000", "180941.445000", "180942.935000", "180944.425000", "180945.915000", "180947.405000", "180948.895000", "180950.385000", "180951.875000", "180953.365000", "180954.855000", "180956.345000", "180957.835000", "180959.325000", "181000.815000", "181002.305000", "181003.795000", "181005.285000", "181006.775000", "181008.265000", "181009.755000", "181011.245000", "181012.735000"],
      "ContentTime": ["180641.141000", "180641.145000", "180641.149000", "180641.152000", "180641.156000", "180641.159000", "180641.162000", "180641.166000", "180641.169000", "180641.180000", "180641.183000", "180641.194000", "180641.198000", "180641.201000", "180701.110000", "180701.114000", "180701.117000", "180701.121000", "180701.124000", "180701.128000", "180701.131000", "180701.135000", "180701.138000", "180701.141000", "180701.154000", "180701.157000", "180701.161000", "180701.164000", "180701.168000", "180701.171000", "180701.174000", "180701.178000", "180701.181000", "180701.184000", "180721.110000", "180721.114000", "180721.117000", "180721.121000", "180721.124000", "180721.127000", "180721.131000", "180721.134000", "180721.138000", "180721.141000", "180721.145000", "180721.148000", "180721.152000", "180721.155000", "180721.158000", "180721.162000", "180721.165000", "180721.169000", "180721.172000", "180721.175000", "180721.179000", "180741.110000", "180741.114000", "180741.117000", "180741.121000", "180741.124000", "180741.127000", "180741.136000", "180741.139000", "180741.143000", "180741.146000", "180741.150000", "180741.153000", "180741.156000", "180741.160000", "180741.163000", "180741.167000", "180741.170000", "180741.173000", "180741.177000", "180741.180000", "180801.109000", "180801.113000", "180801.117000", "180801.120000", "180801.123000", "180801.127000", "180801.130000", "180801.134000", "180801.137000", "180801.140000", "180801.144000", "180801.147000", "180801.151000", "180801.154000", "180801.157000", "180801.161000", "180801.164000", "180801.168000", "180801.171000", "180801.174000", "180841.109000", "180841.113000", "180841.117000", "180841.120000", "180841.137000", "180841.140000", "180841.144000", "180841.147000", "180841.151000", "180841.154000", "180841.158000", "180841.161000", "180841.164000", "180841.168000", "180841.171000", "180841.175000", "180841.178000", "180841.181000", "180841.185000", "180841.188000", "180841.192000", "180841.195000", "180841.198000", "180841.202000", "180841.205000", "180841.209000", "180841.212000", "180841.216000", "180841.219000", "180841.222000", "180841.226000", "180921.110000", "180921.114000", "180921.117000", "180921.121000", "180921.124000", "180921.128000", "180921.131000", "180921.135000", "180921.138000", "180921.142000", "180921.145000", "180921.148000", "180921.152000", "180921.155000", "180921.159000", "180921.162000", "180921.166000", "180921.169000", "180921.172000", "180921.176000", "180921.179000", "180921.183000", "180921.186000", "180921.189000", "180921.193000", "180921.196000", "180921.200000", "181001.110000", "181001.114000", "181001.118000", "181001.121000", "181001.124000", "181001.128000", "181001.131000", "181001.135000", "181001.138000", "181001.142000", "181001.145000", "181001.149000", "181001.152000", "181001.155000", "181001.159000", "181001.162000", "181001.166000", "181001.169000", "181001.172000", "181001.176000", "181001.179000", "181001.183000", "181001.186000", "181001.190000", "181001.193000", "181001.196000", "181001.200000", "181015.351000", "181015.355000", "181015.358000", "181015.361000", "181015.374000", "181015.378000", "181015.381000", "181015.385000", "181015.389000", "181015.392000"],
      "InstanceCreationTime": ["180641.141000", "180641.145000", "180641.149000", "180641.152000", "180641.156000", "180641.159000", "180641.162000", "180641.166000", "180641.169000", "180641.180000", "180641.183000", "180641.194000", "180641.198000", "180641.201000", "180701.110000", "180701.114000", "180701.117000", "180701.121000", "180701.124000", "180701.128000", "180701.131000", "180701.135000", "180701.138000", "180701.141000", "180701.154000", "180701.157000", "180701.161000", "180701.164000", "180701.168000", "180701.171000", "180701.174000", "180701.178000", "180701.181000", "180701.184000", "180721.110000", "180721.114000", "180721.117000", "180721.121000", "180721.124000", "180721.127000", "180721.131000", "180721.134000", "180721.138000", "180721.141000", "180721.145000", "180721.148000", "180721.152000", "180721.155000", "180721.158000", "180721.162000", "180721.165000", "180721.169000", "180721.172000", "180721.175000", "180721.179000", "180741.110000", "180741.114000", "180741.117000", "180741.121000", "180741.124000", "180741.127000", "180741.136000", "180741.139000", "180741.143000", "180741.146000", "180741.150000", "180741.153000", "180741.156000", "180741.160000", "180741.163000", "180741.167000", "180741.170000", "180741.173000", "180741.177000", "180741.180000", "180801.109000", "180801.113000", "180801.117000", "180801.120000", "180801.123000", "180801.127000", "180801.130000", "180801.134000", "180801.137000", "180801.140000", "180801.144000", "180801.147000", "180801.151000", "180801.154000", "180801.157000", "180801.161000", "180801.164000", "180801.168000", "180801.171000", "180801.174000", "180841.109000", "180841.113000", "180841.117000", "180841.120000", "180841.137000", "180841.140000", "180841.144000", "180841.147000", "180841.151000", "180841.154000", "180841.158000", "180841.161000", "180841.164000", "180841.168000", "180841.171000", "180841.175000", "180841.178000", "180841.181000", "180841.185000", "180841.188000", "180841.192000", "180841.195000", "180841.198000", "180841.202000", "180841.205000", "180841.209000", "180841.212000", "180841.216000", "180841.219000", "180841.222000", "180841.226000", "180921.110000", "180921.114000", "180921.117000", "180921.121000", "180921.124000", "180921.128000", "180921.131000", "180921.135000", "180921.138000", "180921.142000", "180921.145000", "180921.148000", "180921.152000", "180921.155000", "180921.159000", "180921.162000", "180921.166000", "180921.169000", "180921.172000", "180921.176000", "180921.179000", "180921.183000", "180921.186000", "180921.189000", "180921.193000", "180921.196000", "180921.200000", "181001.110000", "181001.114000", "181001.118000", "181001.121000", "181001.124000", "181001.128000", "181001.131000", "181001.135000", "181001.138000", "181001.142000", "181001.145000", "181001.149000", "181001.152000", "181001.155000", "181001.159000", "181001.162000", "181001.166000", "181001.169000", "181001.172000", "181001.176000", "181001.179000", "181001.183000", "181001.186000", "181001.190000", "181001.193000", "181001.196000", "181001.200000", "181015.351000", "181015.355000", "181015.358000", "181015.361000", "181015.374000", "181015.378000", "181015.381000", "181015.385000", "181015.389000", "181015.392000"],
      "InstanceNumber": [1, 2, 3, 4, 5, 6, 7, 8, 9, 10, 11, 12, 13, 14, 15, 16, 17, 18, 19, 20, 21, 22, 23, 24, 25, 26, 27, 28, 29, 30, 31, 32, 33, 34, 35, 36, 37, 38, 39, 40, 41, 42, 43, 44, 45, 46, 47, 48, 49, 50, 51, 52, 53, 54, 55, 56, 57, 58, 59, 60, 61, 62, 63, 64, 65, 66, 67, 68, 69, 70, 71, 72, 73, 74, 75, 76, 77, 78, 79, 80, 81, 82, 83, 84, 85, 86, 87, 88, 89, 90, 91, 92, 93, 94, 95, 96, 97, 98, 99, 100, 101, 102, 103, 104, 105, 106, 107, 108, 109, 110, 111, 112, 113, 114, 115, 116, 117, 118, 119, 120, 121, 122, 123, 124, 125, 126, 127, 128, 129, 130, 131, 132, 133, 134, 135, 136, 137, 138, 139, 140, 141, 142, 143, 144, 145, 146, 147, 148, 149, 150, 151, 152, 153, 154, 155, 156, 157, 158, 159, 160, 161, 162, 163, 164, 165, 166, 167, 168, 169, 170, 171, 172, 173, 174, 175, 176, 177, 178, 179, 180, 181, 182, 183, 184, 185, 186, 187, 188, 189, 190],
      "LargestImagePixelValue": [41087, 40615, 40489, 39375, 39943, 38682, 39579, 40356, 39056, 38790, 39039, 39379, 38637, 41880, 41369, 38660, 41364, 42413, 41312, 39401, 41345, 43584, 40188, 41495, 41549, 40952, 40725, 40837, 39059, 41638, 40665, 42134, 40055, 40696, 40522, 41060, 41203, 42280, 41187, 40149, 41855, 41838, 42245, 41770, 41376, 40573, 41395, 41802, 42082, 41876, 41388, 41791, 42449, 41276, 41692, 41481, 41787, 41321, 43093, 43559, 42033, 41514, 40112, 39799, 40130, 42350, 41493, 41248, 41057, 41340, 41071, 41981, 40790, 42669, 39570, 39611, 40377, 40514, 41295, 40994, 40613, 40521, 40029, 40352, 40386, 40186, 39235, 39461, 39546, 40587, 40030, 40606, 40459, 39736, 39769, 42012, 40148, 39187, 39179, 40261, 40600, 39857, 39589, 39647, 39649, 39840, 39476, 39446, 42536, 44290, 42527, 42684, 41558, 41791, 42739, 43036, 42416, 41754, 42491, 41757, 41416, 41134, 41760, 41750, 42316, 42661, 40498, 40438, 40566, 40412, 40574, 40345, 40880, 41037, 41775, 39893, 40595, 40803, 39789, 39802, 40808, 41911, 39838, 40993, 41143, 40996, 40611, 40284, 40161, 40952, 41548, 42337, 41685, 42001, 41195, 39690, 40404, 40167, 40182, 39752, 45099, 39249, 38322, 39069, 39583, 38449, 40902, 40024, 40503, 38734, 39042, 40071, 39696, 40905, 42298, 40347, 40251, 39235, 39179, 39601, 39808, 41959, 38434, 39195, 39697, 39455, 40476, 38985, 38864, 38977],
      "WindowCenter": [10236.0, 10217.0, 10205.0, 10184.0, 10185.0, 10180.0, 10228.0, 10246.0, 10229.0, 10206.0, 10189.0, 10189.0, 10201.0, 10232.0, 10216.0, 10172.0, 10196.0, 10218.0, 10216.0, 10205.0, 10211.0, 10201.0, 10147.0, 10155.0, 10148.0, 10133.0, 10135.0, 10154.0, 10183.0, 10244.0, 10226.0, 10225.0, 10180.0, 10193.0, 10217.0, 10244.0, 10245.0, 10240.0, 10208.0, 10182.0, 10175.0, 10177.0, 10175.0, 10167.0, 10199.0, 10213.0, 10221.0, 10222.0, 10202.0, 10190.0, 10202.0, 10241.0, 10261.0, 10245.0, 10233.0, 10195.0, 10177.0, 10153.0, 10175.0, 10184.0, 10178.0, 10190.0, 10198.0, 10186.0, 10173.0, 10186.0, 10182.0, 10192.0, 10216.0, 10206.0, 10182.0, 10167.0, 10154.0, 10180.0, 10167.0, 10176.0, 10164.0, 10151.0, 10156.0, 10152.0, 10169.0, 10178.0, 10166.0, 10161.0, 10153.0, 10154.0, 10158.0, 10178.0, 10187.0, 10179.0, 10166.0, 10186.0, 10197.0, 10198.0, 10212.0, 10221.0, 10180.0, 10161.0, 10169.0, 10201.0, 10226.0, 10226.0, 10223.0, 10217.0, 10198.0, 10190.0, 10191.0, 10221.0, 10288.0, 10295.0, 10267.0, 10251.0, 10222.0, 10228.0, 10255.0, 10265.0, 10268.0, 10255.0, 10241.0, 10203.0, 10197.0, 10199.0, 10200.0, 10184.0, 10205.0, 10232.0, 10206.0, 10181.0, 10173.0, 10157.0, 10167.0, 10171.0, 10188.0, 10197.0, 10202.0, 10193.0, 10198.0, 10195.0, 10181.0, 10182.0, 10193.0, 10214.0, 10190.0, 10196.0, 10194.0, 10202.0, 10205.0, 10218.0, 10219.0, 10214.0, 10231.0, 10276.0, 10264.0, 10242.0, 10222.0, 10197.0, 10200.0, 10185.0, 10176.0, 10178.0, 10245.0, 10190.0, 10178.0, 10175.0, 10191.0, 10192.0, 10215.0, 10191.0, 10190.0, 10179.0, 10180.0, 10181.0, 10164.0, 10183.0, 10210.0, 10197.0, 10186.0, 10157.0, 10142.0, 10159.0, 10168.0, 10188.0, 10135.0, 10103.0, 10152.0, 10153.0, 10172.0, 10161.0, 10141.0, 10128.0],
      "WindowWidth": [21759.0, 21702.0, 21662.0, 21616.0, 21611.0, 21605.0, 21712.0, 21754.0, 21718.0, 21669.0, 21624.0, 21618.0, 21650.0, 21705.0, 21672.0, 21586.0, 21626.0, 21667.0, 21670.0, 21660.0, 21667.0, 21628.0, 21521.0, 21530.0, 21513.0, 21479.0, 21485.0, 21531.0, 21610.0, 21745.0, 21706.0, 21702.0, 21600.0, 21624.0, 21682.0, 21743.0, 21747.0, 21727.0, 21658.0, 21602.0, 21576.0, 21581.0, 21576.0, 21556.0, 21636.0, 21678.0, 21693.0, 21689.0, 21641.0, 21610.0, 21640.0, 21733.0, 21779.0, 21753.0, 21718.0, 21629.0, 21580.0, 21526.0, 21567.0, 21590.0, 21585.0, 21617.0, 21645.0, 21621.0, 21591.0, 21605.0, 21598.0, 21622.0, 21680.0, 21651.0, 21595.0, 21557.0, 21534.0, 21598.0, 21573.0, 21596.0, 21562.0, 21528.0, 21542.0, 21533.0, 21576.0, 21596.0, 21568.0, 21550.0, 21537.0, 21544.0, 21557.0, 21607.0, 21633.0, 21602.0, 21577.0, 21614.0, 21638.0, 21648.0, 21679.0, 21695.0, 21601.0, 21558.0, 21577.0, 21642.0, 21709.0, 21709.0, 21705.0, 21688.0, 21647.0, 21624.0, 21628.0, 21700.0, 21850.0, 21852.0, 21797.0, 21753.0, 21691.0, 21701.0, 21764.0, 21789.0, 21796.0, 21775.0, 21736.0, 21647.0, 21630.0, 21633.0, 21635.0, 21601.0, 21647.0, 21712.0, 21661.0, 21607.0, 21580.0, 21549.0, 21564.0, 21579.0, 21612.0, 21628.0, 21636.0, 21625.0, 21633.0, 21626.0, 21597.0, 21603.0, 21622.0, 21672.0, 21631.0, 21631.0, 21627.0, 21640.0, 21651.0, 21686.0, 21690.0, 21671.0, 21705.0, 21809.0, 21789.0, 21736.0, 21688.0, 21639.0, 21641.0, 21610.0, 21582.0, 21589.0, 21729.0, 21624.0, 21601.0, 21593.0, 21624.0, 21636.0, 21682.0, 21622.0, 21621.0, 21602.0, 21609.0, 21594.0, 21558.0, 21599.0, 21657.0, 21637.0, 21606.0, 21546.0, 21515.0, 21547.0, 21567.0, 21613.0, 21501.0, 21422.0, 21532.0, 21538.0, 21583.0, 21567.0, 21512.0, 21478.0]
    },
    "slices": {}
  }
}