{
  "AcquisitionMatrixPE": 104,
  "AcquisitionNumber": 1,
  "AcquisitionTime": "17:56:27.637500",
  "BandwidthPerPixelPhaseEncode": 17.17,
  "BaseResolution": 104,
  "BodyPartExamined": "BRAIN",
  "CoilString": "HC1-7;NC1_2",
  "ConsistencyInfo": "N4_VE11C_LATEST_20160120",
  "ConversionSoftware": "dcm2niix",
  "ConversionSoftwareVersion": "v1.0.20190902",
  "DerivedVendorReportedEchoSpacing": 0.000560011,
  "DeviceSerialNumber": "167006",
  "DwellTime": 2.1e-06,
  "EchoTime": 0.037,
  "EchoTrainLength": 104,
  "EffectiveEchoSpacing": 0.000560011,
  "FlipAngle": 52,
  "ImageComments": "Unaliased_MB4_PE3_LB",
  "ImageOrientationPatientDICOM": [0.995775, 0.0875151, 0.0278033, -0.0677105, 0.904324, -0.421443],
  "ImageType": [
    "ORIGINAL",
    "PRIMARY",
    "M",
    "MB",
    "ND",
    "MOSAIC"
],
  "ImagingFrequency": 123.259,
  "InPlanePhaseEncodingDirectionDICOM": "COL",
  "InstitutionAddress": "Chemin_Queen-Mary_4565_Montreal_District_CA_H3W_1W5",
  "InstitutionName": "IUGM",
  "InstitutionalDepartmentName": "Department",
  "MRAcquisitionType": "2D",
  "MagneticFieldStrength": 3,
  "Manufacturer": "Siemens",
  "ManufacturersModelName": "Prisma_fit",
  "Modality": "MR",
  "MultibandAccelerationFactor": 4,
  "PartialFourier": 1,
  "PatientPosition": "HFS",
  "PercentPhaseFOV": 100,
  "PhaseEncodingDirection": "j",
  "PhaseEncodingSteps": 104,
  "PhaseResolution": 1,
  "PixelBandwidth": 2290,
  "ProcedureStepDescription": "memory_things",
  "ProtocolName": "func_task-things_run-3",
  "PulseSequenceDetails": "%CustomerSeq%_cmrr_mbep2d_bold",
  "ReceiveCoilActiveElements": "HC1-7;NC1,2",
  "ReceiveCoilName": "HeadNeck_64",
  "ReconMatrixPE": 104,
  "RepetitionTime": 1.49,
  "SAR": 0.0340615,
  "ScanOptions": "FS",
  "ScanningSequence": "EP",
  "SequenceName": "epfid2d1_104",
  "SequenceVariant": "SK_SS",
  "SeriesDescription": "func_task-things_run-3",
  "SeriesNumber": 16,
  "ShimSetting": [628, -7203, -8825, 637, 71, 75, -44, 17],
  "SliceThickness": 2,
  "SliceTiming": [0, 0.7825, 0.0975, 0.88, 0.195, 0.98, 0.2925, 1.0775, 0.39, 1.175, 0.49, 1.2725, 0.5875, 1.37, 0.685, 0, 0.7825, 0.0975, 0.88, 0.195, 0.98, 0.2925, 1.0775, 0.39, 1.175, 0.49, 1.2725, 0.5875, 1.37, 0.685, 0, 0.7825, 0.0975, 0.88, 0.195, 0.98, 0.2925, 1.0775, 0.39, 1.175, 0.49, 1.2725, 0.5875, 1.37, 0.685, 0, 0.7825, 0.0975, 0.88, 0.195, 0.98, 0.2925, 1.0775, 0.39, 1.175, 0.49, 1.2725, 0.5875, 1.37, 0.685],
  "SoftwareVersions": "syngo_MR_E11",
  "SpacingBetweenSlices": 2,
  "StationName": "MRC35049",
  "TaskName": "things",
  "TotalReadoutTime": 0.0576811,
  "TxRefAmp": 246.117,
  "WipMemBlock": "c5d9170a-f0c4-434c-8fbf-3f5c85d2f742||Sequence: R016 ve11c/master r/e634e98; Dec 19 2017 11:00:25 by eja",
  "dcmmeta_affine": [
    [-1.9915502071380615, -0.13542108237743378, 0.12405163049697876, 109.79293823242188],
    [-0.17503021657466888, 1.8086472749710083, -0.8355593085289001, -46.071861267089844],
    [0.055606648325920105, 0.8428856134414673, 1.8128572702407837, -72.25662231445312],
    [0.0, 0.0, 0.0, 1.0]
],
  "dcmmeta_reorient_transform": [
    [0.0, -1.0, 0.0, 103.0],
    [1.0, 0.0, 0.0, 0.0],
    [0.0, 0.0, 1.0, 0.0],
    [0.0, 0.0, 0.0, 1.0]
],
  "dcmmeta_shape": [104, 104, 60, 190],
  "dcmmeta_slice_dim": 2,
  "dcmmeta_version": 0.6,
  "global": {
    "const": {
      "AcquisitionMatrix": [104, 0, 0, 104],
      "AngioFlag": "N",
      "BitsAllocated": 16,
      "BitsStored": 16,
      "BodyPartExamined": "BRAIN",
      "Columns": 832,
      "EchoNumbers": 1,
      "EchoTime": 37.0,
      "EchoTrainLength": 104,
      "FlipAngle": 52.0,
      "HighBit": 15,
      "ImageOrientationPatient": [0.99577511565743, 0.08751510844955, 0.02780332409093, -0.0677105399064, 0.90432364094996, -0.4214428018185],
      "ImagePositionPatient": [-771.47557572351, -862.27741686245, 301.1301310406],
      "ImageType": [
        "ORIGINAL",
        "PRIMARY",
        "M",
        "MB",
        "ND",
        "MOSAIC"
],
      "ImagedNucleus": "1H",
      "ImagingFrequency": 123.259138,
      "InPlanePhaseEncodingDirection": "COL",
      "MRAcquisitionType": "2D",
      "MagneticFieldStrength": 3.0,
      "Manufacturer": "SIEMENS",
      "ManufacturerModelName": "Prisma_fit",
      "Modality": "MR",
      "NumberOfAverages": 1.0,
      "NumberOfPhaseEncodingSteps": 104,
      "PercentPhaseFieldOfView": 100.0,
      "PercentSampling": 100.0,
      "PerformedProcedureStepStartTime": "171701.656000",
      "PhotometricInterpretation": "MONOCHROME2",
      "PixelBandwidth": 2290.0,
      "PixelRepresentation": 0,
      "PixelSpacing": [2.0, 2.0],
      "ProtocolName": "func_task-things_run-3",
      "RepetitionTime": 1490.0,
      "Rows": 832,
      "SAR": 0.03406149802211,
      "SamplesPerPixel": 1,
      "ScanOptions": "FS",
      "ScanningSequence": "EP",
      "SequenceName": "epfid2d1_104",
      "SequenceVariant": [
        "SK",
        "SS"
],
      "SeriesDescription": "func_task-things_run-3",
      "SeriesNumber": 16,
      "SeriesTime": "175730.541000",
      "SliceLocation": -39.437593251238,
      "SliceThickness": 2.0,
      "SmallestImagePixelValue": 0,
      "SoftwareVersions": "syngo MR E11",
      "SpacingBetweenSlices": 1.9999999567898,
      "SpecificCharacterSet": "ISO_IR 100",
      "StudyID": "1",
      "StudyTime": "171701.544000",
      "TransmitCoilName": "Body",
      "VariableFlipAngleFlag": "N",
      "WindowCenterWidthExplanation": "Algo1",
      "dBdt": 0.0},
    "slices": {}
  },
  "time": {
    "samples": {
      "AcquisitionNumber": [1, 2, 3, 4, 5, 6, 7, 8, 9, 10, 11, 12, 13, 14, 15, 16, 17, 18, 19, 20, 21, 22, 23, 24, 25, 26, 27, 28, 29, 30, 31, 32, 33, 34, 35, 36, 37, 38, 39, 40, 41, 42, 43, 44, 45, 46, 47, 48, 49, 50, 51, 52, 53, 54, 55, 56, 57, 58, 59, 60, 61, 62, 63, 64, 65, 66, 67, 68, 69, 70, 71, 72, 73, 74, 75, 76, 77, 78, 79, 80, 81, 82, 83, 84, 85, 86, 87, 88, 89, 90, 91, 92, 93, 94, 95, 96, 97, 98, 99, 100, 101, 102, 103, 104, 105, 106, 107, 108, 109, 110, 111, 112, 113, 114, 115, 116, 117, 118, 119, 120, 121, 122, 123, 124, 125, 126, 127, 128, 129, 130, 131, 132, 133, 134, 135, 136, 137, 138, 139, 140, 141, 142, 143, 144, 145, 146, 147, 148, 149, 150, 151, 152, 153, 154, 155, 156, 157, 158, 159, 160, 161, 162, 163, 164, 165, 166, 167, 168, 169, 170, 171, 172, 173, 174, 175, 176, 177, 178, 179, 180, 181, 182, 183, 184, 185, 186, 187, 188, 189, 190],
      "AcquisitionTime": ["175627.637500", "175629.127500", "175630.617500", "175632.107500", "175633.597500", "175635.087500", "175636.577500", "175638.067500", "175639.557500", "175641.047500", "175642.537500", "175644.027500", "175645.517500", "175647.007500", "175648.497500", "175649.987500", "175651.477500", "175652.967500", "175654.457500", "175655.947500", "175657.437500", "175658.927500", "175700.417500", "175701.907500", "175703.397500", "175704.887500", "175706.377500", "175707.867500", "175709.357500", "175710.847500", "175712.337500", "175713.827500", "175715.317500", "175716.807500", "175718.297500", "175719.787500", "175721.277500", "175722.767500", "175724.257500", "175725.747500", "175727.237500", "175728.727500", "175730.217500", "175731.707500", "175733.197500", "175734.687500", "175736.177500", "175737.667500", "175739.157500", "175740.647500", "175742.137500", "175743.627500", "175745.117500", "175746.607500", "175748.097500", "175749.587500", "175751.077500", "175752.567500", "175754.057500", "175755.547500", "175757.037500", "175758.527500", "175800.017500", "175801.507500", "175802.997500", "175804.487500", "175805.977500", "175807.467500", "175808.957500", "175810.447500", "175811.937500", "175813.427500", "175814.917500", "175816.407500", "175817.897500", "175819.387500", "175820.877500", "175822.367500", "175823.857500", "175825.347500", "175826.837500", "175828.327500", "175829.817500", "175831.307500", "175832.797500", "175834.287500", "175835.777500", "175837.267500", "175838.757500", "175840.247500", "175841.737500", "175843.227500", "175844.717500", "175846.207500", "175847.697500", "175849.187500", "175850.677500", "175852.167500", "175853.657500", "175855.147500", "175856.637500", "175858.127500", "175859.617500", "175901.107500", "175902.597500", "175904.087500", "175905.577500", "175907.067500", "175908.557500", "175910.047500", "175911.537500", "175913.027500", "175914.517500", "175916.007500", "175917.497500", "175918.987500", "175920.477500", "175921.967500", "175923.457500", "175924.947500", "175926.437500", "175927.927500", "175929.417500", "175930.907500", "175932.397500", "175933.887500", "175935.377500", "175936.867500", "175938.357500", "175939.847500", "175941.337500", "175942.827500", "175944.317500", "175945.807500", "175947.297500", "175948.787500", "175950.277500", "175951.767500", "175953.257500", "175954.747500", "175956.237500", "175957.727500", "175959.217500", "180000.707500", "180002.197500", "180003.687500", "180005.177500", "180006.667500", "180008.157500", "180009.647500", "180011.137500", "180012.627500", "180014.117500", "180015.607500", "180017.097500", "180018.587500", "180020.077500", "180021.567500", "180023.057500", "180024.547500", "180026.037500", "180027.527500", "180029.017500", "180030.507500", "180031.997500", "180033.487500", "180034.977500", "180036.467500", "180037.957500", "180039.447500", "180040.937500", "180042.427500", "180043.917500", "180045.407500", "180046.897500", "180048.387500", "180049.877500", "180051.367500", "180052.857500", "180054.347500", "180055.837500", "180057.327500", "180058.817500", "180100.307500", "180101.797500", "180103.287500", "180104.777500", "180106.267500", "180107.757500", "180109.247500"],
      "ContentTime": ["175730.544000", "175730.548000", "175730.551000", "175730.555000", "175730.558000", "175730.562000", "175730.565000", "175730.568000", "175750.511000", "175750.515000", "175750.518000", "175750.522000", "175750.525000", "175750.528000", "175750.532000", "175750.535000", "175750.538000", "175750.542000", "175750.545000", "175750.549000", "175750.552000", "175750.555000", "175750.559000", "175750.562000", "175750.565000", "175750.569000", "175750.572000", "175750.576000", "175810.511000", "175810.515000", "175810.518000", "175810.522000", "175810.525000", "175810.528000", "175810.532000", "175810.535000", "175810.539000", "175810.542000", "175810.545000", "175810.549000", "175810.552000", "175810.555000", "175810.563000", "175810.567000", "175810.570000", "175810.573000", "175810.577000", "175810.580000", "175830.511000", "175830.515000", "175830.518000", "175830.522000", "175830.525000", "175830.529000", "175830.532000", "175830.535000", "175830.539000", "175830.542000", "175830.546000", "175830.549000", "175830.552000", "175830.556000", "175830.559000", "175830.563000", "175830.566000", "175830.569000", "175830.574000", "175830.577000", "175850.511000", "175850.515000", "175850.518000", "175850.522000", "175850.525000", "175850.529000", "175850.532000", "175850.535000", "175850.539000", "175850.542000", "175850.546000", "175850.549000", "175850.552000", "175850.556000", "175850.559000", "175850.562000", "175850.566000", "175850.569000", "175850.573000", "175850.589000", "175910.511000", "175910.515000", "175910.518000", "175910.522000", "175910.542000", "175910.545000", "175910.548000", "175910.552000", "175910.555000", "175910.558000", "175910.562000", "175910.565000", "175910.569000", "175910.572000", "175910.576000", "175910.579000", "175910.583000", "175910.586000", "175910.589000", "175910.593000", "175950.511000", "175950.515000", "175950.519000", "175950.522000", "175950.525000", "175950.529000", "175950.532000", "175950.536000", "175950.539000", "175950.542000", "175950.546000", "175950.549000", "175950.553000", "175950.556000", "175950.560000", "175950.563000", "175950.566000", "175950.570000", "175950.573000", "175950.577000", "175950.580000", "175950.584000", "175950.596000", "175950.600000", "175950.603000", "175950.606000", "175950.610000", "180030.511000", "180030.515000", "180030.518000", "180030.522000", "180030.525000", "180030.529000", "180030.532000", "180030.535000", "180030.539000", "180030.542000", "180030.546000", "180030.549000", "180030.553000", "180030.556000", "180030.560000", "180030.563000", "180030.566000", "180030.570000", "180030.573000", "180030.577000", "180030.580000", "180030.584000", "180030.587000", "180030.590000", "180030.594000", "180030.597000", "180030.601000", "180110.511000", "180110.515000", "180110.519000", "180110.522000", "180110.525000", "180110.529000", "180110.532000", "180110.536000", "180110.539000", "180110.542000", "180110.546000", "180110.549000", "180110.553000", "180110.556000", "180110.560000", "180110.563000", "180110.566000", "180110.570000", "180110.573000", "180110.577000", "180110.580000", "180110.583000", "180110.587000", "180110.590000", "180110.594000", "180110.597000", "180110.600000", "180111.695000"],
      "InstanceCreationTime": ["175730.544000", "175730.548000", "175730.551000", "175730.555000", "175730.558000", "175730.562000", "175730.565000", "175730.568000", "175750.511000", "175750.515000", "175750.518000", "175750.522000", "175750.525000", "175750.528000", "175750.532000", "175750.535000", "175750.538000", "175750.542000", "175750.545000", "175750.549000", "175750.552000", "175750.555000", "175750.559000", "175750.562000", "175750.565000", "175750.569000", "175750.572000", "175750.576000", "175810.511000", "175810.515000", "175810.518000", "175810.522000", "175810.525000", "175810.528000", "175810.532000", "175810.535000", "175810.539000", "175810.542000", "175810.545000", "175810.549000", "175810.552000", "175810.555000", "175810.563000", "175810.567000", "175810.570000", "175810.573000", "175810.577000", "175810.580000", "175830.511000", "175830.515000", "175830.518000", "175830.522000", "175830.525000", "175830.529000", "175830.532000", "175830.535000", "175830.539000", "175830.542000", "175830.546000", "175830.549000", "175830.552000", "175830.556000", "175830.559000", "175830.563000", "175830.566000", "175830.569000", "175830.574000", "175830.577000", "175850.511000", "175850.515000", "175850.518000", "175850.522000", "175850.525000", "175850.529000", "175850.532000", "175850.535000", "175850.539000", "175850.542000", "175850.546000", "175850.549000", "175850.552000", "175850.556000", "175850.559000", "175850.562000", "175850.566000", "175850.569000", "175850.573000", "175850.589000", "175910.511000", "175910.515000", "175910.518000", "175910.522000", "175910.542000", "175910.545000", "175910.548000", "175910.552000", "175910.555000", "175910.558000", "175910.562000", "175910.565000", "175910.569000", "175910.572000", "175910.576000", "175910.579000", "175910.583000", "175910.586000", "175910.589000", "175910.593000", "175950.511000", "175950.515000", "175950.519000", "175950.522000", "175950.525000", "175950.529000", "175950.532000", "175950.536000", "175950.539000", "175950.542000", "175950.546000", "175950.549000", "175950.553000", "175950.556000", "175950.560000", "175950.563000", "175950.566000", "175950.570000", "175950.573000", "175950.577000", "175950.580000", "175950.584000", "175950.596000", "175950.600000", "175950.603000", "175950.606000", "175950.610000", "180030.511000", "180030.515000", "180030.518000", "180030.522000", "180030.525000", "180030.529000", "180030.532000", "180030.535000", "180030.539000", "180030.542000", "180030.546000", "180030.549000", "180030.553000", "180030.556000", "180030.560000", "180030.563000", "180030.566000", "180030.570000", "180030.573000", "180030.577000", "180030.580000", "180030.584000", "180030.587000", "180030.590000", "180030.594000", "180030.597000", "180030.601000", "180110.511000", "180110.515000", "180110.519000", "180110.522000", "180110.525000", "180110.529000", "180110.532000", "180110.536000", "180110.539000", "180110.542000", "180110.546000", "180110.549000", "180110.553000", "180110.556000", "180110.560000", "180110.563000", "180110.566000", "180110.570000", "180110.573000", "180110.577000", "180110.580000", "180110.583000", "180110.587000", "180110.590000", "180110.594000", "180110.597000", "180110.600000", "180111.695000"],
      "InstanceNumber": [1, 2, 3, 4, 5, 6, 7, 8, 9, 10, 11, 12, 13, 14, 15, 16, 17, 18, 19, 20, 21, 22, 23, 24, 25, 26, 27, 28, 29, 30, 31, 32, 33, 34, 35, 36, 37, 38, 39, 40, 41, 42, 43, 44, 45, 46, 47, 48, 49, 50, 51, 52, 53, 54, 55, 56, 57, 58, 59, 60, 61, 62, 63, 64, 65, 66, 67, 68, 69, 70, 71, 72, 73, 74, 75, 76, 77, 78, 79, 80, 81, 82, 83, 84, 85, 86, 87, 88, 89, 90, 91, 92, 93, 94, 95, 96, 97, 98, 99, 100, 101, 102, 103, 104, 105, 106, 107, 108, 109, 110, 111, 112, 113, 114, 115, 116, 117, 118, 119, 120, 121, 122, 123, 124, 125, 126, 127, 128, 129, 130, 131, 132, 133, 134, 135, 136, 137, 138, 139, 140, 141, 142, 143, 144, 145, 146, 147, 148, 149, 150, 151, 152, 153, 154, 155, 156, 157, 158, 159, 160, 161, 162, 163, 164, 165, 166, 167, 168, 169, 170, 171, 172, 173, 174, 175, 176, 177, 178, 179, 180, 181, 182, 183, 184, 185, 186, 187, 188, 189, 190],
      "LargestImagePixelValue": [43872, 42215, 41114, 40356, 40260, 40930, 42140, 42470, 43016, 43166, 42217, 40549, 39061, 42474, 42615, 42542, 41688, 42378, 43194, 41652, 39305, 40074, 40019, 41234, 42363, 42998, 42191, 44166, 42218, 42519, 43338, 43091, 42288, 40738, 40655, 43547, 43621, 44269, 42647, 43141, 44202, 43378, 42794, 41376, 43722, 44292, 43802, 42609, 45062, 45131, 43672, 43390, 44523, 44112, 44525, 40853, 40168, 40942, 42292, 43789, 44437, 44851, 43626, 43071, 45501, 44382, 42381, 40918, 39841, 39718, 40347, 44087, 45132, 44113, 44391, 45986, 43273, 39521, 40244, 41211, 41556, 44202, 43122, 42953, 44199, 43683, 42975, 42384, 40756, 40471, 42191, 41448, 40599, 43182, 42229, 41071, 41345, 42259, 40012, 41418, 40317, 40504, 41786, 40791, 39815, 40122, 41452, 42622, 42574, 41205, 39697, 41406, 41801, 41696, 42702, 44014, 42826, 40934, 38596, 39986, 41199, 42126, 43174, 42962, 43196, 44465, 42109, 40546, 40909, 40668, 41066, 40691, 41938, 44088, 44102, 47122, 43575, 42556, 41361, 41195, 39307, 40692, 40032, 42814, 43598, 44044, 44493, 44411, 41629, 39941, 39456, 39296, 40091, 41875, 40983, 41047, 41711, 43532, 41897, 41266, 40930, 41451, 40521, 39422, 41124, 43290, 43327, 45183, 40366, 39750, 39622, 40287, 40720, 41418, 42691, 43232, 42757, 42088, 42984, 43290, 40659, 40202, 39302, 40758, 40100, 42984, 43186, 42636, 42828, 42669],
      "WindowCenter": [10368.0, 10300.0, 10252.0, 10261.0, 10285.0, 10283.0, 10284.0, 10290.0, 10309.0, 10333.0, 10334.0, 10310.0, 10272.0, 10279.0, 10273.0, 10266.0, 10244.0, 10244.0, 10264.0, 10257.0, 10271.0, 10295.0, 10294.0, 10286.0, 10294.0, 10293.0, 10285.0, 10327.0, 10323.0, 10323.0, 10327.0, 10326.0, 10331.0, 10324.0, 10316.0, 10302.0, 10286.0, 10290.0, 10261.0, 10270.0, 10287.0, 10310.0, 10314.0, 10287.0, 10290.0, 10282.0, 10284.0, 10288.0, 10315.0, 10313.0, 10286.0, 10287.0, 10308.0, 10302.0, 10294.0, 10260.0, 10252.0, 10239.0, 10236.0, 10242.0, 10258.0, 10266.0, 10273.0, 10278.0, 10293.0, 10273.0, 10272.0, 10280.0, 10267.0, 10268.0, 10265.0, 10281.0, 10272.0, 10245.0, 10241.0, 10260.0, 10258.0, 10243.0, 10247.0, 10238.0, 10221.0, 10237.0, 10231.0, 10241.0, 10280.0, 10269.0, 10266.0, 10256.0, 10243.0, 10244.0, 10260.0, 10246.0, 10233.0, 10270.0, 10259.0, 10241.0, 10239.0, 10248.0, 10218.0, 10253.0, 10262.0, 10257.0, 10260.0, 10240.0, 10234.0, 10243.0, 10255.0, 10273.0, 10266.0, 10258.0, 10259.0, 10273.0, 10284.0, 10280.0, 10292.0, 10329.0, 10344.0, 10321.0, 10289.0, 10289.0, 10297.0, 10290.0, 10277.0, 10261.0, 10273.0, 10308.0, 10303.0, 10278.0, 10289.0, 10293.0, 10280.0, 10256.0, 10269.0, 10283.0, 10281.0, 10321.0, 10319.0, 10322.0, 10314.0, 10312.0, 10278.0, 10281.0, 10259.0, 10259.0, 10253.0, 10257.0, 10274.0, 10291.0, 10285.0, 10286.0, 10276.0, 10272.0, 10266.0, 10271.0, 10258.0, 10274.0, 10291.0, 10306.0, 10285.0, 10258.0, 10263.0, 10305.0, 10308.0, 10274.0, 10260.0, 10255.0, 10251.0, 10278.0, 10230.0, 10225.0, 10228.0, 10227.0, 10214.0, 10217.0, 10227.0, 10226.0, 10232.0, 10230.0, 10245.0, 10271.0, 10262.0, 10260.0, 10245.0, 10262.0, 10243.0, 10254.0, 10240.0, 10236.0, 10237.0, 10237.0],
      "WindowWidth": [22066.0, 21891.0, 21778.0, 21797.0, 21850.0, 21839.0, 21836.0, 21846.0, 21889.0, 21951.0, 21959.0, 21907.0, 21824.0, 21822.0, 21807.0, 21792.0, 21743.0, 21737.0, 21780.0, 21777.0, 21825.0, 21879.0, 21875.0, 21849.0, 21862.0, 21859.0, 21837.0, 21926.0, 21930.0, 21927.0, 21937.0, 21933.0, 21949.0, 21939.0, 21924.0, 21872.0, 21831.0, 21838.0, 21780.0, 21795.0, 21834.0, 21894.0, 21908.0, 21849.0, 21844.0, 21823.0, 21833.0, 21845.0, 21898.0, 21890.0, 21829.0, 21835.0, 21881.0, 21868.0, 21851.0, 21789.0, 21770.0, 21739.0, 21721.0, 21720.0, 21765.0, 21781.0, 21806.0, 21820.0, 21842.0, 21798.0, 21813.0, 21840.0, 21814.0, 21814.0, 21801.0, 21813.0, 21784.0, 21728.0, 21715.0, 21754.0, 21767.0, 21753.0, 21758.0, 21728.0, 21690.0, 21712.0, 21701.0, 21728.0, 21816.0, 21791.0, 21788.0, 21764.0, 21749.0, 21754.0, 21780.0, 21750.0, 21725.0, 21798.0, 21776.0, 21741.0, 21738.0, 21747.0, 21690.0, 21771.0, 21798.0, 21785.0, 21778.0, 21739.0, 21730.0, 21752.0, 21776.0, 21808.0, 21794.0, 21787.0, 21801.0, 21817.0, 21837.0, 21832.0, 21857.0, 21936.0, 21973.0, 21932.0, 21868.0, 21857.0, 21865.0, 21845.0, 21808.0, 21770.0, 21792.0, 21878.0, 21878.0, 21828.0, 21846.0, 21860.0, 21829.0, 21775.0, 21796.0, 21819.0, 21812.0, 21907.0, 21906.0, 21919.0, 21911.0, 21904.0, 21834.0, 21829.0, 21783.0, 21768.0, 21747.0, 21754.0, 21793.0, 21832.0, 21834.0, 21848.0, 21832.0, 21822.0, 21801.0, 21804.0, 21778.0, 21813.0, 21852.0, 21875.0, 21842.0, 21773.0, 21786.0, 21882.0, 21899.0, 21825.0, 21781.0, 21757.0, 21745.0, 21795.0, 21712.0, 21708.0, 21713.0, 21708.0, 21676.0, 21677.0, 21695.0, 21689.0, 21701.0, 21702.0, 21735.0, 21794.0, 21788.0, 21788.0, 21758.0, 21796.0, 21750.0, 21754.0, 21718.0, 21711.0, 21717.0, 21719.0]
    },
    "slices": {}
  }
}