{
  "AcquisitionMatrixPE": 104,
  "AcquisitionNumber": 1,
  "AcquisitionTime": "17:50:24.170000",
  "BandwidthPerPixelPhaseEncode": 17.17,
  "BaseResolution": 104,
  "BodyPartExamined": "BRAIN",
  "CoilString": "HC1-7;NC1_2",
  "ConsistencyInfo": "N4_VE11C_LATEST_20160120",
  "ConversionSoftware": "dcm2niix",
  "ConversionSoftwareVersion": "v1.0.20190902",
  "DerivedVendorReportedEchoSpacing": 0.000560011,
  "DeviceSerialNumber": "167006",
  "DwellTime": 2.1e-06,
  "EchoTime": 0.037,
  "EchoTrainLength": 104,
  "EffectiveEchoSpacing": 0.000560011,
  "FlipAngle": 52,
  "ImageComments": "Unaliased_MB4_PE3_LB",
  "ImageOrientationPatientDICOM": [0.995775, 0.0875151, 0.0278033, -0.0677105, 0.904324, -0.421443],
  "ImageType": [
    "ORIGINAL",
    "PRIMARY",
    "P",
    "MB",
    "ND",
    "MOSAIC"
],
  "ImagingFrequency": 123.259,
  "InPlanePhaseEncodingDirectionDICOM": "COL",
  "InstitutionAddress": "Chemin_Queen-Mary_4565_Montreal_District_CA_H3W_1W5",
  "InstitutionName": "IUGM",
  "InstitutionalDepartmentName": "Department",
  "MRAcquisitionType": "2D",
  "MagneticFieldStrength": 3,
  "Manufacturer": "Siemens",
  "ManufacturersModelName": "Prisma_fit",
  "Modality": "MR",
  "MultibandAccelerationFactor": 4,
  "PartialFourier": 1,
  "PatientPosition": "HFS",
  "PercentPhaseFOV": 100,
  "PhaseEncodingDirection": "j",
  "PhaseEncodingSteps": 104,
  "PhaseResolution": 1,
  "PixelBandwidth": 2290,
  "ProcedureStepDescription": "memory_things",
  "ProtocolName": "func_task-things_run-2",
  "PulseSequenceDetails": "%CustomerSeq%_cmrr_mbep2d_bold",
  "ReceiveCoilActiveElements": "HC1-7;NC1,2",
  "ReceiveCoilName": "HeadNeck_64",
  "ReconMatrixPE": 104,
  "RepetitionTime": 1.49,
  "SAR": 0.0340615,
  "ScanOptions": "FS",
  "ScanningSequence": "EP",
  "SequenceName": "epfid2d1_104",
  "SequenceVariant": "SK_SS",
  "SeriesDescription": "func_task-things_run-2",
  "SeriesNumber": 14,
  "ShimSetting": [628, -7203, -8825, 637, 71, 75, -44, 17],
  "SliceThickness": 2,
  "SliceTiming": [0, 0.785, 0.0975, 0.8825, 0.195, 0.98, 0.295, 1.0775, 0.3925, 1.175, 0.49, 1.275, 0.5875, 1.3725, 0.685, 0, 0.785, 0.0975, 0.8825, 0.195, 0.98, 0.295, 1.0775, 0.3925, 1.175, 0.49, 1.275, 0.5875, 1.3725, 0.685, 0, 0.785, 0.0975, 0.8825, 0.195, 0.98, 0.295, 1.0775, 0.3925, 1.175, 0.49, 1.275, 0.5875, 1.3725, 0.685, 0, 0.785, 0.0975, 0.8825, 0.195, 0.98, 0.295, 1.0775, 0.3925, 1.175, 0.49, 1.275, 0.5875, 1.3725, 0.685],
  "SoftwareVersions": "syngo_MR_E11",
  "SpacingBetweenSlices": 2,
  "StationName": "MRC35049",
  "TaskName": "things",
  "TotalReadoutTime": 0.0576811,
  "TxRefAmp": 246.117,
  "WipMemBlock": "236d00c7-570c-4801-85a8-db1295581d96||Sequence: R016 ve11c/master r/e634e98; Dec 19 2017 11:00:25 by eja",
  "dcmmeta_affine": [
    [-1.9915502071380615, -0.13542108237743378, 0.12405163049697876, 109.79293823242188],
    [-0.17503021657466888, 1.8086472749710083, -0.8355593085289001, -46.071861267089844],
    [0.055606648325920105, 0.8428856134414673, 1.8128572702407837, -72.25662231445312],
    [0.0, 0.0, 0.0, 1.0]
],
  "dcmmeta_reorient_transform": [
    [0.0, -1.0, 0.0, 103.0],
    [1.0, 0.0, 0.0, 0.0],
    [0.0, 0.0, 1.0, 0.0],
    [0.0, 0.0, 0.0, 1.0]
],
  "dcmmeta_shape": [104, 104, 60, 190],
  "dcmmeta_slice_dim": 2,
  "dcmmeta_version": 0.6,
  "global": {
    "const": {
      "AcquisitionMatrix": [104, 0, 0, 104],
      "AngioFlag": "N",
      "BitsAllocated": 16,
      "BitsStored": 16,
      "BodyPartExamined": "BRAIN",
      "Columns": 832,
      "EchoNumbers": 1,
      "EchoTime": 37.0,
      "EchoTrainLength": 104,
      "FlipAngle": 52.0,
      "HighBit": 15,
      "ImageOrientationPatient": [0.99577511565743, 0.08751510844955, 0.02780332409093, -0.0677105399064, 0.90432364094996, -0.4214428018185],
      "ImagePositionPatient": [-771.47557572351, -862.27741686245, 301.1301310406],
      "ImageType": [
        "ORIGINAL",
        "PRIMARY",
        "P",
        "MB",
        "ND",
        "MOSAIC"
],
      "ImagedNucleus": "1H",
      "ImagingFrequency": 123.259134,
      "InPlanePhaseEncodingDirection": "COL",
      "LargestImagePixelValue": 4095,
      "MRAcquisitionType": "2D",
      "MagneticFieldStrength": 3.0,
      "Manufacturer": "SIEMENS",
      "ManufacturerModelName": "Prisma_fit",
      "Modality": "MR",
      "NumberOfAverages": 1.0,
      "NumberOfPhaseEncodingSteps": 104,
      "PercentPhaseFieldOfView": 100.0,
      "PercentSampling": 100.0,
      "PerformedProcedureStepStartTime": "171701.656000",
      "PhotometricInterpretation": "MONOCHROME2",
      "PixelBandwidth": 2290.0,
      "PixelRepresentation": 0,
      "PixelSpacing": [2.0, 2.0],
      "ProtocolName": "func_task-things_run-2",
      "RepetitionTime": 1490.0,
      "RescaleIntercept": -4096.0,
      "RescaleSlope": 2.0,
      "RescaleType": "US",
      "Rows": 832,
      "SAR": 0.03406149802211,
      "SamplesPerPixel": 1,
      "ScanOptions": "FS",
      "ScanningSequence": "EP",
      "SequenceName": "epfid2d1_104",
      "SequenceVariant": [
        "SK",
        "SS"
],
      "SeriesDescription": "func_task-things_run-2",
      "SeriesNumber": 14,
      "SeriesTime": "175150.801000",
      "SliceLocation": -39.437593251238,
      "SliceThickness": 2.0,
      "SmallestImagePixelValue": 0,
      "SoftwareVersions": "syngo MR E11",
      "SpacingBetweenSlices": 1.9999999567898,
      "SpecificCharacterSet": "ISO_IR 100",
      "StudyID": "1",
      "StudyTime": "171701.544000",
      "TransmitCoilName": "Body",
      "VariableFlipAngleFlag": "N",
      "WindowCenterWidthExplanation": "Algo1",
      "dBdt": 0.0},
    "slices": {}
  },
  "time": {
    "samples": {
      "AcquisitionNumber": [1, 2, 3, 4, 5, 6, 7, 8, 9, 10, 11, 12, 13, 14, 15, 16, 17, 18, 19, 20, 21, 22, 23, 24, 25, 26, 27, 28, 29, 30, 31, 32, 33, 34, 35, 36, 37, 38, 39, 40, 41, 42, 43, 44, 45, 46, 47, 48, 49, 50, 51, 52, 53, 54, 55, 56, 57, 58, 59, 60, 61, 62, 63, 64, 65, 66, 67, 68, 69, 70, 71, 72, 73, 74, 75, 76, 77, 78, 79, 80, 81, 82, 83, 84, 85, 86, 87, 88, 89, 90, 91, 92, 93, 94, 95, 96, 97, 98, 99, 100, 101, 102, 103, 104, 105, 106, 107, 108, 109, 110, 111, 112, 113, 114, 115, 116, 117, 118, 119, 120, 121, 122, 123, 124, 125, 126, 127, 128, 129, 130, 131, 132, 133, 134, 135, 136, 137, 138, 139, 140, 141, 142, 143, 144, 145, 146, 147, 148, 149, 150, 151, 152, 153, 154, 155, 156, 157, 158, 159, 160, 161, 162, 163, 164, 165, 166, 167, 168, 169, 170, 171, 172, 173, 174, 175, 176, 177, 178, 179, 180, 181, 182, 183, 184, 185, 186, 187, 188, 189, 190],
      "AcquisitionTime": ["175024.170000", "175025.660000", "175027.150000", "175028.640000", "175030.130000", "175031.620000", "175033.110000", "175034.600000", "175036.090000", "175037.580000", "175039.070000", "175040.560000", "175042.050000", "175043.540000", "175045.030000", "175046.520000", "175048.010000", "175049.500000", "175050.990000", "175052.480000", "175053.970000", "175055.460000", "175056.950000", "175058.440000", "175059.930000", "175101.420000", "175102.910000", "175104.400000", "175105.890000", "175107.380000", "175108.870000", "175110.360000", "175111.850000", "175113.340000", "175114.830000", "175116.320000", "175117.810000", "175119.300000", "175120.790000", "175122.280000", "175123.770000", "175125.260000", "175126.750000", "175128.240000", "175129.730000", "175131.220000", "175132.710000", "175134.200000", "175135.690000", "175137.180000", "175138.670000", "175140.160000", "175141.650000", "175143.140000", "175144.630000", "175146.120000", "175147.610000", "175149.100000", "175150.590000", "175152.080000", "175153.570000", "175155.060000", "175156.550000", "175158.040000", "175159.530000", "175201.020000", "175202.510000", "175204.000000", "175205.490000", "175206.980000", "175208.470000", "175209.960000", "175211.450000", "175212.940000", "175214.430000", "175215.920000", "175217.410000", "175218.900000", "175220.390000", "175221.880000", "175223.370000", "175224.860000", "175226.350000", "175227.840000", "175229.330000", "175230.820000", "175232.310000", "175233.800000", "175235.290000", "175236.780000", "175238.270000", "175239.760000", "175241.250000", "175242.740000", "175244.230000", "175245.720000", "175247.210000", "175248.700000", "175250.190000", "175251.680000", "175253.170000", "175254.660000", "175256.150000", "175257.640000", "175259.130000", "175300.620000", "175302.110000", "175303.600000", "175305.090000", "175306.580000", "175308.070000", "175309.560000", "175311.050000", "175312.540000", "175314.030000", "175315.520000", "175317.010000", "175318.500000", "175319.990000", "175321.480000", "175322.970000", "175324.460000", "175325.950000", "175327.440000", "175328.930000", "175330.420000", "175331.910000", "175333.400000", "175334.890000", "175336.380000", "175337.870000", "175339.360000", "175340.850000", "175342.340000", "175343.830000", "175345.320000", "175346.810000", "175348.300000", "175349.790000", "175351.280000", "175352.770000", "175354.260000", "175355.750000", "175357.240000", "175358.730000", "175400.220000", "175401.710000", "175403.200000", "175404.690000", "175406.180000", "175407.670000", "175409.160000", "175410.650000", "175412.140000", "175413.630000", "175415.120000", "175416.610000", "175418.100000", "175419.590000", "175421.080000", "175422.570000", "175424.060000", "175425.550000", "175427.040000", "175428.530000", "175430.020000", "175431.510000", "175433.000000", "175434.490000", "175435.980000", "175437.470000", "175438.960000", "175440.450000", "175441.940000", "175443.430000", "175444.920000", "175446.410000", "175447.900000", "175449.390000", "175450.880000", "175452.370000", "175453.860000", "175455.350000", "175456.840000", "175458.330000", "175459.820000", "175501.310000", "175502.800000", "175504.290000", "175505.780000"],
      "ContentTime": ["175150.803000", "175150.806000", "175150.808000", "175150.811000", "175150.813000", "175150.816000", "175150.819000", "175150.821000", "175150.824000", "175150.826000", "175150.829000", "175150.831000", "175150.834000", "175150.836000", "175150.839000", "175150.842000", "175150.844000", "175150.847000", "175150.849000", "175150.852000", "175150.854000", "175150.857000", "175150.859000", "175150.862000", "175150.864000", "175150.867000", "175150.869000", "175150.872000", "175150.874000", "175150.877000", "175150.880000", "175150.882000", "175210.708000", "175210.711000", "175210.714000", "175210.716000", "175210.719000", "175210.722000", "175210.724000", "175210.727000", "175210.729000", "175210.732000", "175210.734000", "175210.737000", "175210.746000", "175210.748000", "175210.751000", "175210.753000", "175210.756000", "175210.758000", "175210.761000", "175210.763000", "175230.719000", "175230.721000", "175230.724000", "175230.727000", "175230.729000", "175230.732000", "175230.734000", "175230.737000", "175230.739000", "175230.742000", "175230.745000", "175230.747000", "175230.750000", "175230.752000", "175230.755000", "175230.757000", "175230.760000", "175230.762000", "175230.765000", "175230.768000", "175250.729000", "175250.732000", "175250.734000", "175250.737000", "175250.740000", "175250.742000", "175250.745000", "175250.747000", "175250.750000", "175250.752000", "175250.755000", "175250.757000", "175250.760000", "175250.763000", "175250.765000", "175250.768000", "175250.798000", "175250.801000", "175250.803000", "175250.806000", "175330.761000", "175330.763000", "175330.766000", "175330.768000", "175330.771000", "175330.774000", "175330.776000", "175330.779000", "175330.781000", "175330.784000", "175330.787000", "175330.789000", "175330.792000", "175330.794000", "175330.815000", "175330.818000", "175330.820000", "175330.823000", "175330.825000", "175330.828000", "175330.831000", "175330.833000", "175330.836000", "175330.838000", "175330.841000", "175330.843000", "175330.846000", "175330.848000", "175330.851000", "175330.854000", "175330.856000", "175330.859000", "175410.745000", "175410.748000", "175410.751000", "175410.753000", "175410.756000", "175410.759000", "175410.761000", "175410.764000", "175410.766000", "175410.769000", "175410.772000", "175410.774000", "175410.777000", "175410.780000", "175410.782000", "175410.785000", "175410.787000", "175410.790000", "175410.792000", "175410.795000", "175410.798000", "175410.800000", "175410.803000", "175410.805000", "175410.808000", "175410.810000", "175410.813000", "175450.747000", "175450.750000", "175450.753000", "175450.755000", "175450.758000", "175450.761000", "175450.763000", "175450.766000", "175450.820000", "175450.822000", "175450.825000", "175450.828000", "175450.830000", "175450.833000", "175450.835000", "175450.838000", "175450.840000", "175450.843000", "175450.845000", "175450.848000", "175450.851000", "175450.853000", "175450.856000", "175450.858000", "175450.861000", "175450.864000", "175450.866000", "175507.777000", "175507.779000", "175507.782000", "175507.785000", "175507.787000", "175507.790000", "175507.793000", "175507.795000", "175507.798000", "175507.800000", "175507.803000", "175507.805000"],
      "InstanceCreationTime": ["175150.803000", "175150.806000", "175150.808000", "175150.811000", "175150.813000", "175150.816000", "175150.819000", "175150.821000", "175150.824000", "175150.826000", "175150.829000", "175150.831000", "175150.834000", "175150.836000", "175150.839000", "175150.842000", "175150.844000", "175150.847000", "175150.849000", "175150.852000", "175150.854000", "175150.857000", "175150.859000", "175150.862000", "175150.864000", "175150.867000", "175150.869000", "175150.872000", "175150.874000", "175150.877000", "175150.880000", "175150.882000", "175210.708000", "175210.711000", "175210.714000", "175210.716000", "175210.719000", "175210.722000", "175210.724000", "175210.727000", "175210.729000", "175210.732000", "175210.734000", "175210.737000", "175210.746000", "175210.748000", "175210.751000", "175210.753000", "175210.756000", "175210.758000", "175210.761000", "175210.763000", "175230.719000", "175230.721000", "175230.724000", "175230.727000", "175230.729000", "175230.732000", "175230.734000", "175230.737000", "175230.739000", "175230.742000", "175230.745000", "175230.747000", "175230.750000", "175230.752000", "175230.755000", "175230.757000", "175230.760000", "175230.762000", "175230.765000", "175230.768000", "175250.729000", "175250.732000", "175250.734000", "175250.737000", "175250.740000", "175250.742000", "175250.745000", "175250.747000", "175250.750000", "175250.752000", "175250.755000", "175250.757000", "175250.760000", "175250.763000", "175250.765000", "175250.768000", "175250.798000", "175250.801000", "175250.803000", "175250.806000", "175330.761000", "175330.763000", "175330.766000", "175330.768000", "175330.771000", "175330.774000", "175330.776000", "175330.779000", "175330.781000", "175330.784000", "175330.787000", "175330.789000", "175330.792000", "175330.794000", "175330.815000", "175330.818000", "175330.820000", "175330.823000", "175330.825000", "175330.828000", "175330.831000", "175330.833000", "175330.836000", "175330.838000", "175330.841000", "175330.843000", "175330.846000", "175330.848000", "175330.851000", "175330.854000", "175330.856000", "175330.859000", "175410.745000", "175410.748000", "175410.751000", "175410.753000", "175410.756000", "175410.759000", "175410.761000", "175410.764000", "175410.766000", "175410.769000", "175410.772000", "175410.774000", "175410.777000", "175410.780000", "175410.782000", "175410.785000", "175410.787000", "175410.790000", "175410.792000", "175410.795000", "175410.798000", "175410.800000", "175410.803000", "175410.805000", "175410.808000", "175410.810000", "175410.813000", "175450.747000", "175450.750000", "175450.753000", "175450.755000", "175450.758000", "175450.761000", "175450.763000", "175450.766000", "175450.820000", "175450.822000", "175450.825000", "175450.828000", "175450.830000", "175450.833000", "175450.835000", "175450.838000", "175450.840000", "175450.843000", "175450.845000", "175450.848000", "175450.851000", "175450.853000", "175450.856000", "175450.858000", "175450.861000", "175450.864000", "175450.866000", "175507.777000", "175507.779000", "175507.782000", "175507.785000", "175507.787000", "175507.790000", "175507.793000", "175507.795000", "175507.798000", "175507.800000", "175507.803000", "175507.805000"],
      "InstanceNumber": [1, 2, 3, 4, 5, 6, 7, 8, 9, 10, 11, 12, 13, 14, 15, 16, 17, 18, 19, 20, 21, 22, 23, 24, 25, 26, 27, 28, 29, 30, 31, 32, 33, 34, 35, 36, 37, 38, 39, 40, 41, 42, 43, 44, 45, 46, 47, 48, 49, 50, 51, 52, 53, 54, 55, 56, 57, 58, 59, 60, 61, 62, 63, 64, 65, 66, 67, 68, 69, 70, 71, 72, 73, 74, 75, 76, 77, 78, 79, 80, 81, 82, 83, 84, 85, 86, 87, 88, 89, 90, 91, 92, 93, 94, 95, 96, 97, 98, 99, 100, 101, 102, 103, 104, 105, 106, 107, 108, 109, 110, 111, 112, 113, 114, 115, 116, 117, 118, 119, 120, 121, 122, 123, 124, 125, 126, 127, 128, 129, 130, 131, 132, 133, 134, 135, 136, 137, 138, 139, 140, 141, 142, 143, 144, 145, 146, 147, 148, 149, 150, 151, 152, 153, 154, 155, 156, 157, 158, 159, 160, 161, 162, 163, 164, 165, 166, 167, 168, 169, 170, 171, 172, 173, 174, 175, 176, 177, 178, 179, 180, 181, 182, 183, 184, 185, 186, 187, 188, 189, 190],
      "WindowCenter": [4802.0, 4828.0, 4800.0, 4776.0, 4800.0, 4830.0, 4838.0, 4824.0, 4804.0, 4802.0, 4800.0, 4802.0, 4800.0, 4800.0, 4800.0, 4802.0, 4830.0, 4802.0, 4804.0, 4798.0, 4796.0, 4800.0, 4798.0, 4798.0, 4800.0, 4800.0, 4798.0, 4800.0, 4802.0, 4800.0, 4798.0, 4806.0, 4800.0, 4800.0, 4800.0, 4772.0, 4798.0, 4802.0, 4798.0, 4800.0, 4798.0, 4802.0, 4798.0, 4804.0, 4798.0, 4776.0, 4774.0, 4800.0, 4826.0, 4802.0, 4828.0, 4802.0, 4796.0, 4798.0, 4772.0, 4774.0, 4798.0, 4796.0, 4774.0, 4802.0, 4800.0, 4796.0, 4800.0, 4798.0, 4798.0, 4774.0, 4774.0, 4774.0, 4800.0, 4802.0, 4826.0, 4800.0, 4798.0, 4774.0, 4774.0, 4772.0, 4796.0, 4776.0, 4796.0, 4774.0, 4796.0, 4800.0, 4774.0, 4800.0, 4796.0, 4774.0, 4776.0, 4774.0, 4800.0, 4776.0, 4774.0, 4776.0, 4776.0, 4772.0, 4798.0, 4802.0, 4796.0, 4800.0, 4776.0, 4774.0, 4778.0, 4776.0, 4798.0, 4776.0, 4776.0, 4778.0, 4776.0, 4802.0, 4800.0, 4798.0, 4800.0, 4778.0, 4780.0, 4774.0, 4802.0, 4832.0, 4832.0, 4804.0, 4798.0, 4774.0, 4776.0, 4776.0, 4772.0, 4772.0, 4838.0, 4876.0, 4898.0, 4868.0, 4834.0, 4796.0, 4778.0, 4780.0, 4778.0, 4774.0, 4798.0, 4834.0, 4828.0, 4830.0, 4834.0, 4828.0, 4804.0, 4796.0, 4800.0, 4796.0, 4798.0, 4802.0, 4798.0, 4802.0, 4804.0, 4832.0, 4800.0, 4800.0, 4800.0, 4800.0, 4774.0, 4802.0, 4800.0, 4798.0, 4804.0, 4806.0, 4804.0, 4800.0, 4800.0, 4802.0, 4800.0, 4800.0, 4802.0, 4806.0, 4804.0, 4804.0, 4830.0, 4802.0, 4800.0, 4798.0, 4800.0, 4800.0, 4802.0, 4800.0, 4804.0, 4830.0, 4800.0, 4798.0, 4802.0, 4800.0, 4802.0, 4828.0, 4798.0, 4796.0, 4798.0, 4796.0],
      "WindowWidth": [18606.0, 18640.0, 18608.0, 18570.0, 18604.0, 18642.0, 18650.0, 18640.0, 18608.0, 18604.0, 18604.0, 18604.0, 18598.0, 18606.0, 18608.0, 18606.0, 18644.0, 18606.0, 18606.0, 18608.0, 18606.0, 18604.0, 18602.0, 18608.0, 18606.0, 18610.0, 18602.0, 18604.0, 18610.0, 18604.0, 18608.0, 18610.0, 18604.0, 18604.0, 18604.0, 18566.0, 18604.0, 18608.0, 18604.0, 18608.0, 18602.0, 18610.0, 18600.0, 18608.0, 18608.0, 18568.0, 18574.0, 18608.0, 18642.0, 18610.0, 18640.0, 18610.0, 18604.0, 18602.0, 18570.0, 18572.0, 18606.0, 18602.0, 18572.0, 18606.0, 18606.0, 18608.0, 18608.0, 18602.0, 18606.0, 18572.0, 18574.0, 18570.0, 18608.0, 18610.0, 18642.0, 18606.0, 18602.0, 18570.0, 18574.0, 18568.0, 18602.0, 18572.0, 18600.0, 18574.0, 18606.0, 18606.0, 18574.0, 18604.0, 18600.0, 18574.0, 18574.0, 18574.0, 18600.0, 18574.0, 18574.0, 18570.0, 18574.0, 18576.0, 18602.0, 18608.0, 18606.0, 18608.0, 18574.0, 18570.0, 18578.0, 18576.0, 18602.0, 18576.0, 18572.0, 18580.0, 18576.0, 18610.0, 18608.0, 18604.0, 18606.0, 18574.0, 18574.0, 18572.0, 18606.0, 18642.0, 18644.0, 18610.0, 18602.0, 18564.0, 18572.0, 18566.0, 18566.0, 18560.0, 18650.0, 18692.0, 18718.0, 18692.0, 18646.0, 18594.0, 18570.0, 18570.0, 18564.0, 18566.0, 18598.0, 18646.0, 18638.0, 18642.0, 18646.0, 18642.0, 18608.0, 18596.0, 18596.0, 18600.0, 18598.0, 18606.0, 18600.0, 18604.0, 18608.0, 18646.0, 18602.0, 18598.0, 18602.0, 18600.0, 18566.0, 18602.0, 18602.0, 18596.0, 18606.0, 18606.0, 18610.0, 18600.0, 18604.0, 18602.0, 18602.0, 18602.0, 18600.0, 18608.0, 18606.0, 18604.0, 18640.0, 18606.0, 18606.0, 18596.0, 18600.0, 18604.0, 18602.0, 18604.0, 18612.0, 18644.0, 18600.0, 18600.0, 18608.0, 18602.0, 18606.0, 18640.0, 18598.0, 18598.0, 18598.0, 18600.0]
    },
    "slices": {}
  }
}