{
  "AcquisitionMatrixPE": 104,
  "AcquisitionNumber": 1,
  "AcquisitionTime": "18:17:36.687500",
  "BandwidthPerPixelPhaseEncode": 17.17,
  "BaseResolution": 104,
  "BodyPartExamined": "BRAIN",
  "CoilString": "HC1-7;NC1_2",
  "ConsistencyInfo": "N4_VE11C_LATEST_20160120",
  "ConversionSoftware": "dcm2niix",
  "ConversionSoftwareVersion": "v1.0.20190902",
  "DerivedVendorReportedEchoSpacing": 0.000560011,
  "DeviceSerialNumber": "167006",
  "DwellTime": 2.1e-06,
  "EchoTime": 0.037,
  "EchoTrainLength": 104,
  "EffectiveEchoSpacing": 0.000560011,
  "FlipAngle": 52,
  "ImageComments": "Unaliased_MB4_PE3_LB",
  "ImageOrientationPatientDICOM": [0.995775, 0.0875151, 0.0278033, -0.0677105, 0.904324, -0.421443],
  "ImageType": [
    "ORIGINAL",
    "PRIMARY",
    "M",
    "MB",
    "ND",
    "MOSAIC"
],
  "ImagingFrequency": 123.259,
  "InPlanePhaseEncodingDirectionDICOM": "COL",
  "InstitutionAddress": "Chemin_Queen-Mary_4565_Montreal_District_CA_H3W_1W5",
  "InstitutionName": "IUGM",
  "InstitutionalDepartmentName": "Department",
  "MRAcquisitionType": "2D",
  "MagneticFieldStrength": 3,
  "Manufacturer": "Siemens",
  "ManufacturersModelName": "Prisma_fit",
  "Modality": "MR",
  "MultibandAccelerationFactor": 4,
  "PartialFourier": 1,
  "PatientPosition": "HFS",
  "PercentPhaseFOV": 100,
  "PhaseEncodingDirection": "j",
  "PhaseEncodingSteps": 104,
  "PhaseResolution": 1,
  "PixelBandwidth": 2290,
  "ProcedureStepDescription": "memory_things",
  "ProtocolName": "func_task-things_run-6",
  "PulseSequenceDetails": "%CustomerSeq%_cmrr_mbep2d_bold",
  "ReceiveCoilActiveElements": "HC1-7;NC1,2",
  "ReceiveCoilName": "HeadNeck_64",
  "ReconMatrixPE": 104,
  "RepetitionTime": 1.49,
  "SAR": 0.0340615,
  "ScanOptions": "FS",
  "ScanningSequence": "EP",
  "SequenceName": "epfid2d1_104",
  "SequenceVariant": "SK_SS",
  "SeriesDescription": "func_task-things_run-6",
  "SeriesNumber": 25,
  "ShimSetting": [628, -7203, -8825, 637, 71, 75, -44, 17],
  "SliceThickness": 2,
  "SliceTiming": [0, 0.785, 0.0975, 0.8825, 0.1975, 0.98, 0.295, 1.0775, 0.3925, 1.1775, 0.49, 1.275, 0.5875, 1.3725, 0.6875, 0, 0.785, 0.0975, 0.8825, 0.1975, 0.98, 0.295, 1.0775, 0.3925, 1.1775, 0.49, 1.275, 0.5875, 1.3725, 0.6875, 0, 0.785, 0.0975, 0.8825, 0.1975, 0.98, 0.295, 1.0775, 0.3925, 1.1775, 0.49, 1.275, 0.5875, 1.3725, 0.6875, 0, 0.785, 0.0975, 0.8825, 0.1975, 0.98, 0.295, 1.0775, 0.3925, 1.1775, 0.49, 1.275, 0.5875, 1.3725, 0.6875],
  "SoftwareVersions": "syngo_MR_E11",
  "SpacingBetweenSlices": 2,
  "StationName": "MRC35049",
  "TaskName": "things",
  "TotalReadoutTime": 0.0576811,
  "TxRefAmp": 246.117,
  "WipMemBlock": "6deefac6-3182-4b48-9ca6-b7458f698005||Sequence: R016 ve11c/master r/e634e98; Dec 19 2017 11:00:25 by eja",
  "dcmmeta_affine": [
    [-1.9915502071380615, -0.13542108237743378, 0.12405163049697876, 109.79293823242188],
    [-0.17503021657466888, 1.8086472749710083, -0.8355593085289001, -46.071861267089844],
    [0.055606648325920105, 0.8428856134414673, 1.8128572702407837, -72.25662231445312],
    [0.0, 0.0, 0.0, 1.0]
],
  "dcmmeta_reorient_transform": [
    [0.0, -1.0, 0.0, 103.0],
    [1.0, 0.0, 0.0, 0.0],
    [0.0, 0.0, 1.0, 0.0],
    [0.0, 0.0, 0.0, 1.0]
],
  "dcmmeta_shape": [104, 104, 60, 190],
  "dcmmeta_slice_dim": 2,
  "dcmmeta_version": 0.6,
  "global": {
    "const": {
      "AcquisitionMatrix": [104, 0, 0, 104],
      "AngioFlag": "N",
      "BitsAllocated": 16,
      "BitsStored": 16,
      "BodyPartExamined": "BRAIN",
      "Columns": 832,
      "EchoNumbers": 1,
      "EchoTime": 37.0,
      "EchoTrainLength": 104,
      "FlipAngle": 52.0,
      "HighBit": 15,
      "ImageOrientationPatient": [0.99577511565743, 0.08751510844955, 0.02780332409093, -0.0677105399064, 0.90432364094996, -0.4214428018185],
      "ImagePositionPatient": [-771.47557572351, -862.27741686245, 301.1301310406],
      "ImageType": [
        "ORIGINAL",
        "PRIMARY",
        "M",
        "MB",
        "ND",
        "MOSAIC"
],
      "ImagedNucleus": "1H",
      "ImagingFrequency": 123.259143,
      "InPlanePhaseEncodingDirection": "COL",
      "MRAcquisitionType": "2D",
      "MagneticFieldStrength": 3.0,
      "Manufacturer": "SIEMENS",
      "ManufacturerModelName": "Prisma_fit",
      "Modality": "MR",
      "NumberOfAverages": 1.0,
      "NumberOfPhaseEncodingSteps": 104,
      "PercentPhaseFieldOfView": 100.0,
      "PercentSampling": 100.0,
      "PerformedProcedureStepStartTime": "171701.656000",
      "PhotometricInterpretation": "MONOCHROME2",
      "PixelBandwidth": 2290.0,
      "PixelRepresentation": 0,
      "PixelSpacing": [2.0, 2.0],
      "ProtocolName": "func_task-things_run-6",
      "RepetitionTime": 1490.0,
      "Rows": 832,
      "SAR": 0.03406149802211,
      "SamplesPerPixel": 1,
      "ScanOptions": "FS",
      "ScanningSequence": "EP",
      "SequenceName": "epfid2d1_104",
      "SequenceVariant": [
        "SK",
        "SS"
],
      "SeriesDescription": "func_task-things_run-6",
      "SeriesNumber": 25,
      "SeriesTime": "181910.546000",
      "SliceLocation": -39.437593251238,
      "SliceThickness": 2.0,
      "SmallestImagePixelValue": 0,
      "SoftwareVersions": "syngo MR E11",
      "SpacingBetweenSlices": 1.9999999567898,
      "SpecificCharacterSet": "ISO_IR 100",
      "StudyID": "1",
      "StudyTime": "171701.544000",
      "TransmitCoilName": "Body",
      "VariableFlipAngleFlag": "N",
      "WindowCenterWidthExplanation": "Algo1",
      "dBdt": 0.0},
    "slices": {}
  },
  "time": {
    "samples": {
      "AcquisitionNumber": [1, 2, 3, 4, 5, 6, 7, 8, 9, 10, 11, 12, 13, 14, 15, 16, 17, 18, 19, 20, 21, 22, 23, 24, 25, 26, 27, 28, 29, 30, 31, 32, 33, 34, 35, 36, 37, 38, 39, 40, 41, 42, 43, 44, 45, 46, 47, 48, 49, 50, 51, 52, 53, 54, 55, 56, 57, 58, 59, 60, 61, 62, 63, 64, 65, 66, 67, 68, 69, 70, 71, 72, 73, 74, 75, 76, 77, 78, 79, 80, 81, 82, 83, 84, 85, 86, 87, 88, 89, 90, 91, 92, 93, 94, 95, 96, 97, 98, 99, 100, 101, 102, 103, 104, 105, 106, 107, 108, 109, 110, 111, 112, 113, 114, 115, 116, 117, 118, 119, 120, 121, 122, 123, 124, 125, 126, 127, 128, 129, 130, 131, 132, 133, 134, 135, 136, 137, 138, 139, 140, 141, 142, 143, 144, 145, 146, 147, 148, 149, 150, 151, 152, 153, 154, 155, 156, 157, 158, 159, 160, 161, 162, 163, 164, 165, 166, 167, 168, 169, 170, 171, 172, 173, 174, 175, 176, 177, 178, 179, 180, 181, 182, 183, 184, 185, 186, 187, 188, 189, 190],
      "AcquisitionTime": ["181736.687500", "181738.177500", "181739.667500", "181741.157500", "181742.647500", "181744.137500", "181745.627500", "181747.117500", "181748.607500", "181750.097500", "181751.587500", "181753.077500", "181754.567500", "181756.057500", "181757.547500", "181759.037500", "181800.527500", "181802.017500", "181803.507500", "181804.997500", "181806.487500", "181807.977500", "181809.467500", "181810.957500", "181812.447500", "181813.937500", "181815.427500", "181816.917500", "181818.407500", "181819.897500", "181821.387500", "181822.877500", "181824.367500", "181825.857500", "181827.347500", "181828.837500", "181830.327500", "181831.817500", "181833.307500", "181834.797500", "181836.287500", "181837.777500", "181839.267500", "181840.757500", "181842.247500", "181843.737500", "181845.227500", "181846.717500", "181848.207500", "181849.697500", "181851.187500", "181852.677500", "181854.167500", "181855.657500", "181857.147500", "181858.637500", "181900.127500", "181901.617500", "181903.107500", "181904.597500", "181906.087500", "181907.577500", "181909.067500", "181910.557500", "181912.047500", "181913.537500", "181915.027500", "181916.517500", "181918.007500", "181919.497500", "181920.987500", "181922.477500", "181923.967500", "181925.457500", "181926.947500", "181928.437500", "181929.927500", "181931.417500", "181932.907500", "181934.397500", "181935.887500", "181937.377500", "181938.867500", "181940.357500", "181941.847500", "181943.337500", "181944.827500", "181946.317500", "181947.807500", "181949.297500", "181950.787500", "181952.277500", "181953.767500", "181955.257500", "181956.747500", "181958.237500", "181959.727500", "182001.217500", "182002.707500", "182004.197500", "182005.687500", "182007.177500", "182008.667500", "182010.157500", "182011.647500", "182013.137500", "182014.627500", "182016.117500", "182017.607500", "182019.097500", "182020.587500", "182022.077500", "182023.567500", "182025.057500", "182026.547500", "182028.037500", "182029.527500", "182031.017500", "182032.507500", "182033.997500", "182035.487500", "182036.977500", "182038.467500", "182039.957500", "182041.447500", "182042.937500", "182044.427500", "182045.917500", "182047.407500", "182048.897500", "182050.387500", "182051.877500", "182053.367500", "182054.857500", "182056.347500", "182057.837500", "182059.327500", "182100.817500", "182102.307500", "182103.797500", "182105.287500", "182106.777500", "182108.267500", "182109.757500", "182111.247500", "182112.737500", "182114.227500", "182115.717500", "182117.207500", "182118.697500", "182120.187500", "182121.677500", "182123.167500", "182124.657500", "182126.147500", "182127.637500", "182129.127500", "182130.617500", "182132.107500", "182133.597500", "182135.087500", "182136.577500", "182138.067500", "182139.557500", "182141.047500", "182142.537500", "182144.027500", "182145.517500", "182147.007500", "182148.497500", "182149.987500", "182151.477500", "182152.967500", "182154.457500", "182155.947500", "182157.437500", "182158.927500", "182200.417500", "182201.907500", "182203.397500", "182204.887500", "182206.377500", "182207.867500", "182209.357500", "182210.847500", "182212.337500", "182213.827500", "182215.317500", "182216.807500", "182218.297500"],
      "ContentTime": ["181910.549000", "181910.553000", "181910.556000", "181910.560000", "181910.563000", "181910.566000", "181910.587000", "181910.590000", "181910.593000", "181910.597000", "181910.611000", "181910.614000", "181910.618000", "181910.621000", "181910.624000", "181910.628000", "181910.631000", "181910.635000", "181910.638000", "181910.641000", "181910.645000", "181910.648000", "181910.652000", "181910.655000", "181910.658000", "181910.662000", "181910.665000", "181910.669000", "181910.672000", "181910.675000", "181910.679000", "181910.682000", "181910.686000", "181910.689000", "181910.692000", "181910.696000", "181910.699000", "181910.702000", "181910.706000", "181910.710000", "181930.511000", "181930.515000", "181930.518000", "181930.522000", "181930.525000", "181930.529000", "181930.532000", "181930.536000", "181930.539000", "181930.543000", "181930.546000", "181930.549000", "181930.553000", "181930.556000", "181930.559000", "181930.563000", "181930.566000", "181930.570000", "181930.573000", "181930.576000", "181950.511000", "181950.515000", "181950.518000", "181950.522000", "181950.525000", "181950.529000", "181950.532000", "181950.535000", "181950.539000", "181950.542000", "181950.546000", "181950.549000", "181950.553000", "181950.556000", "181950.559000", "181950.563000", "181950.566000", "181950.570000", "181950.573000", "181950.576000", "182010.511000", "182010.515000", "182010.518000", "182010.522000", "182010.525000", "182010.528000", "182010.532000", "182010.535000", "182010.539000", "182010.542000", "182010.545000", "182010.549000", "182010.552000", "182010.556000", "182010.559000", "182010.580000", "182010.583000", "182010.586000", "182010.590000", "182010.593000", "182050.511000", "182050.515000", "182050.518000", "182050.522000", "182050.525000", "182050.529000", "182050.543000", "182050.547000", "182050.550000", "182050.554000", "182050.557000", "182050.560000", "182050.564000", "182050.567000", "182050.571000", "182050.574000", "182050.578000", "182050.581000", "182050.584000", "182050.588000", "182050.591000", "182050.595000", "182050.598000", "182050.602000", "182050.605000", "182050.608000", "182050.612000", "182050.615000", "182050.619000", "182130.511000", "182130.515000", "182130.519000", "182130.522000", "182130.525000", "182130.529000", "182130.532000", "182130.536000", "182130.539000", "182130.543000", "182130.546000", "182130.549000", "182130.553000", "182130.556000", "182130.560000", "182130.563000", "182130.566000", "182130.570000", "182130.573000", "182130.578000", "182130.581000", "182130.585000", "182130.588000", "182130.592000", "182130.595000", "182130.599000", "182130.602000", "182210.584000", "182210.588000", "182210.592000", "182210.595000", "182210.599000", "182210.602000", "182210.606000", "182210.610000", "182210.613000", "182210.617000", "182210.621000", "182210.625000", "182210.628000", "182210.632000", "182210.636000", "182210.639000", "182210.643000", "182210.646000", "182210.650000", "182210.654000", "182210.657000", "182210.661000", "182210.665000", "182210.669000", "182210.672000", "182210.676000", "182210.680000", "182220.701000", "182220.710000", "182220.713000", "182220.716000", "182220.720000", "182220.723000", "182220.727000"],
      "InstanceCreationTime": ["181910.549000", "181910.553000", "181910.556000", "181910.560000", "181910.563000", "181910.566000", "181910.587000", "181910.590000", "181910.593000", "181910.597000", "181910.611000", "181910.614000", "181910.618000", "181910.621000", "181910.624000", "181910.628000", "181910.631000", "181910.635000", "181910.638000", "181910.641000", "181910.645000", "181910.648000", "181910.652000", "181910.655000", "181910.658000", "181910.662000", "181910.665000", "181910.669000", "181910.672000", "181910.675000", "181910.679000", "181910.682000", "181910.686000", "181910.689000", "181910.692000", "181910.696000", "181910.699000", "181910.702000", "181910.706000", "181910.710000", "181930.511000", "181930.515000", "181930.518000", "181930.522000", "181930.525000", "181930.529000", "181930.532000", "181930.536000", "181930.539000", "181930.543000", "181930.546000", "181930.549000", "181930.553000", "181930.556000", "181930.559000", "181930.563000", "181930.566000", "181930.570000", "181930.573000", "181930.576000", "181950.511000", "181950.515000", "181950.518000", "181950.522000", "181950.525000", "181950.529000", "181950.532000", "181950.535000", "181950.539000", "181950.542000", "181950.546000", "181950.549000", "181950.553000", "181950.556000", "181950.559000", "181950.563000", "181950.566000", "181950.570000", "181950.573000", "181950.576000", "182010.511000", "182010.515000", "182010.518000", "182010.522000", "182010.525000", "182010.528000", "182010.532000", "182010.535000", "182010.539000", "182010.542000", "182010.545000", "182010.549000", "182010.552000", "182010.556000", "182010.559000", "182010.580000", "182010.583000", "182010.586000", "182010.590000", "182010.593000", "182050.511000", "182050.515000", "182050.518000", "182050.522000", "182050.525000", "182050.529000", "182050.543000", "182050.547000", "182050.550000", "182050.554000", "182050.557000", "182050.560000", "182050.564000", "182050.567000", "182050.571000", "182050.574000", "182050.578000", "182050.581000", "182050.584000", "182050.588000", "182050.591000", "182050.595000", "182050.598000", "182050.602000", "182050.605000", "182050.608000", "182050.612000", "182050.615000", "182050.619000", "182130.511000", "182130.515000", "182130.519000", "182130.522000", "182130.525000", "182130.529000", "182130.532000", "182130.536000", "182130.539000", "182130.543000", "182130.546000", "182130.549000", "182130.553000", "182130.556000", "182130.560000", "182130.563000", "182130.566000", "182130.570000", "182130.573000", "182130.578000", "182130.581000", "182130.585000", "182130.588000", "182130.592000", "182130.595000", "182130.599000", "182130.602000", "182210.584000", "182210.588000", "182210.592000", "182210.595000", "182210.599000", "182210.602000", "182210.606000", "182210.610000", "182210.613000", "182210.617000", "182210.621000", "182210.625000", "182210.628000", "182210.632000", "182210.636000", "182210.639000", "182210.643000", "182210.646000", "182210.650000", "182210.654000", "182210.657000", "182210.661000", "182210.665000", "182210.669000", "182210.672000", "182210.676000", "182210.680000", "182220.701000", "182220.710000", "182220.713000", "182220.716000", "182220.720000", "182220.723000", "182220.727000"],
      "InstanceNumber": [1, 2, 3, 4, 5, 6, 7, 8, 9, 10, 11, 12, 13, 14, 15, 16, 17, 18, 19, 20, 21, 22, 23, 24, 25, 26, 27, 28, 29, 30, 31, 32, 33, 34, 35, 36, 37, 38, 39, 40, 41, 42, 43, 44, 45, 46, 47, 48, 49, 50, 51, 52, 53, 54, 55, 56, 57, 58, 59, 60, 61, 62, 63, 64, 65, 66, 67, 68, 69, 70, 71, 72, 73, 74, 75, 76, 77, 78, 79, 80, 81, 82, 83, 84, 85, 86, 87, 88, 89, 90, 91, 92, 93, 94, 95, 96, 97, 98, 99, 100, 101, 102, 103, 104, 105, 106, 107, 108, 109, 110, 111, 112, 113, 114, 115, 116, 117, 118, 119, 120, 121, 122, 123, 124, 125, 126, 127, 128, 129, 130, 131, 132, 133, 134, 135, 136, 137, 138, 139, 140, 141, 142, 143, 144, 145, 146, 147, 148, 149, 150, 151, 152, 153, 154, 155, 156, 157, 158, 159, 160, 161, 162, 163, 164, 165, 166, 167, 168, 169, 170, 171, 172, 173, 174, 175, 176, 177, 178, 179, 180, 181, 182, 183, 184, 185, 186, 187, 188, 189, 190],
      "LargestImagePixelValue": [41037, 41771, 39965, 38393, 39204, 39182, 38579, 39496, 38825, 43948, 38195, 39048, 38123, 38245, 38275, 37447, 38168, 37960, 42374, 37629, 37047, 37793, 39080, 37242, 37490, 37815, 36583, 37548, 37408, 36165, 37291, 36256, 40260, 36448, 37082, 38257, 37357, 36498, 37730, 39489, 37042, 37275, 36287, 37164, 36827, 37444, 39234, 36593, 36394, 37014, 37158, 36697, 37498, 38558, 35969, 37335, 38020, 38115, 36551, 37872, 36913, 37103, 37206, 36895, 37822, 37207, 38246, 38627, 39707, 39693, 40596, 39890, 39693, 39871, 41001, 41365, 40202, 39796, 40595, 40558, 37995, 38001, 39263, 40476, 40509, 40182, 40252, 39401, 40392, 39901, 40157, 39454, 40056, 39587, 40470, 41788, 37303, 37207, 38065, 39583, 39817, 39940, 39894, 38500, 36877, 37848, 37929, 39446, 38732, 38852, 37872, 42436, 37988, 38396, 38631, 39024, 38847, 38246, 38129, 38391, 38297, 37665, 38362, 39043, 38871, 39050, 39522, 40098, 39914, 40193, 40381, 40112, 39861, 40275, 39544, 39743, 40668, 40585, 38516, 43218, 36559, 37623, 41466, 40097, 37775, 36657, 38000, 40657, 39458, 38581, 48376, 38105, 39584, 41349, 39031, 38159, 38529, 40120, 37698, 37963, 38297, 38606, 38051, 38281, 38027, 39335, 40176, 39380, 40039, 40353, 40188, 39451, 38943, 39075, 39573, 39465, 38787, 38492, 39844, 39169, 39247, 37846, 38480, 40766, 39531, 40805, 37513, 37496, 37690, 37717],
      "WindowCenter": [10187.0, 10144.0, 10115.0, 10130.0, 10147.0, 10136.0, 10130.0, 10127.0, 10128.0, 10176.0, 10104.0, 10123.0, 10112.0, 10110.0, 10099.0, 10111.0, 10140.0, 10133.0, 10162.0, 10114.0, 10097.0, 10102.0, 10113.0, 10079.0, 10068.0, 10079.0, 10063.0, 10073.0, 10081.0, 10083.0, 10110.0, 10094.0, 10120.0, 10070.0, 10082.0, 10107.0, 10102.0, 10102.0, 10133.0, 10171.0, 10127.0, 10107.0, 10085.0, 10093.0, 10096.0, 10130.0, 10148.0, 10102.0, 10077.0, 10086.0, 10096.0, 10082.0, 10075.0, 10074.0, 10046.0, 10077.0, 10106.0, 10118.0, 10091.0, 10087.0, 10074.0, 10071.0, 10074.0, 10065.0, 10072.0, 10084.0, 10112.0, 10127.0, 10101.0, 10121.0, 10123.0, 10130.0, 10137.0, 10132.0, 10145.0, 10178.0, 10174.0, 10150.0, 10150.0, 10148.0, 10115.0, 10110.0, 10110.0, 10114.0, 10136.0, 10157.0, 10159.0, 10133.0, 10122.0, 10115.0, 10122.0, 10127.0, 10141.0, 10141.0, 10156.0, 10177.0, 10123.0, 10107.0, 10120.0, 10142.0, 10171.0, 10181.0, 10173.0, 10138.0, 10080.0, 10093.0, 10098.0, 10135.0, 10160.0, 10118.0, 10086.0, 10115.0, 10068.0, 10075.0, 10101.0, 10122.0, 10108.0, 10082.0, 10062.0, 10059.0, 10058.0, 10070.0, 10082.0, 10108.0, 10128.0, 10131.0, 10137.0, 10126.0, 10129.0, 10137.0, 10147.0, 10141.0, 10131.0, 10131.0, 10133.0, 10142.0, 10156.0, 10171.0, 10172.0, 10186.0, 10129.0, 10125.0, 10163.0, 10162.0, 10125.0, 10100.0, 10110.0, 10158.0, 10149.0, 10127.0, 10180.0, 10092.0, 10114.0, 10160.0, 10139.0, 10126.0, 10117.0, 10113.0, 10095.0, 10109.0, 10134.0, 10161.0, 10166.0, 10141.0, 10122.0, 10124.0, 10137.0, 10118.0, 10132.0, 10137.0, 10137.0, 10145.0, 10141.0, 10139.0, 10151.0, 10139.0, 10143.0, 10126.0, 10157.0, 10183.0, 10184.0, 10169.0, 10157.0, 10168.0, 10159.0, 10131.0, 10061.0, 10071.0, 10079.0, 10123.0],
      "WindowWidth": [21646.0, 21526.0, 21456.0, 21493.0, 21530.0, 21497.0, 21485.0, 21476.0, 21482.0, 21574.0, 21432.0, 21469.0, 21451.0, 21446.0, 21420.0, 21453.0, 21522.0, 21503.0, 21555.0, 21455.0, 21415.0, 21426.0, 21446.0, 21370.0, 21346.0, 21368.0, 21345.0, 21359.0, 21377.0, 21395.0, 21445.0, 21413.0, 21452.0, 21355.0, 21381.0, 21443.0, 21428.0, 21435.0, 21497.0, 21581.0, 21490.0, 21443.0, 21393.0, 21406.0, 21415.0, 21497.0, 21534.0, 21432.0, 21377.0, 21398.0, 21421.0, 21388.0, 21371.0, 21355.0, 21309.0, 21368.0, 21436.0, 21467.0, 21406.0, 21387.0, 21363.0, 21352.0, 21369.0, 21346.0, 21367.0, 21391.0, 21446.0, 21480.0, 21419.0, 21459.0, 21461.0, 21475.0, 21500.0, 21482.0, 21511.0, 21584.0, 21588.0, 21528.0, 21521.0, 21518.0, 21463.0, 21444.0, 21434.0, 21439.0, 21484.0, 21536.0, 21540.0, 21488.0, 21452.0, 21442.0, 21457.0, 21475.0, 21502.0, 21497.0, 21530.0, 21583.0, 21481.0, 21436.0, 21459.0, 21503.0, 21576.0, 21595.0, 21578.0, 21507.0, 21374.0, 21397.0, 21407.0, 21484.0, 21551.0, 21452.0, 21381.0, 21426.0, 21335.0, 21350.0, 21413.0, 21468.0, 21429.0, 21372.0, 21320.0, 21317.0, 21314.0, 21345.0, 21365.0, 21425.0, 21476.0, 21482.0, 21497.0, 21465.0, 21466.0, 21486.0, 21509.0, 21502.0, 21472.0, 21473.0, 21483.0, 21501.0, 21529.0, 21564.0, 21580.0, 21599.0, 21494.0, 21473.0, 21548.0, 21555.0, 21476.0, 21422.0, 21435.0, 21539.0, 21526.0, 21475.0, 21553.0, 21394.0, 21435.0, 21539.0, 21497.0, 21477.0, 21453.0, 21434.0, 21403.0, 21432.0, 21490.0, 21548.0, 21562.0, 21504.0, 21462.0, 21461.0, 21490.0, 21448.0, 21481.0, 21484.0, 21483.0, 21510.0, 21509.0, 21500.0, 21522.0, 21498.0, 21511.0, 21471.0, 21532.0, 21599.0, 21602.0, 21573.0, 21543.0, 21558.0, 21555.0, 21478.0, 21326.0, 21341.0, 21360.0, 21459.0]
    },
    "slices": {}
  }
}