{
  "AcquisitionMatrixPE": 104,
  "AcquisitionNumber": 1,
  "AcquisitionTime": "18:05:31.125000",
  "BandwidthPerPixelPhaseEncode": 17.17,
  "BaseResolution": 104,
  "BodyPartExamined": "BRAIN",
  "CoilString": "HC1-7;NC1_2",
  "ConsistencyInfo": "N4_VE11C_LATEST_20160120",
  "ConversionSoftware": "dcm2niix",
  "ConversionSoftwareVersion": "v1.0.20190902",
  "DerivedVendorReportedEchoSpacing": 0.000560011,
  "DeviceSerialNumber": "167006",
  "DwellTime": 2.1e-06,
  "EchoTime": 0.037,
  "EchoTrainLength": 104,
  "EffectiveEchoSpacing": 0.000560011,
  "FlipAngle": 52,
  "ImageComments": "Unaliased_MB4_PE3_LB",
  "ImageOrientationPatientDICOM": [0.995775, 0.0875151, 0.0278033, -0.0677105, 0.904324, -0.421443],
  "ImageType": [
    "ORIGINAL",
    "PRIMARY",
    "P",
    "MB",
    "ND",
    "MOSAIC"
],
  "ImagingFrequency": 123.259,
  "InPlanePhaseEncodingDirectionDICOM": "COL",
  "InstitutionAddress": "Chemin_Queen-Mary_4565_Montreal_District_CA_H3W_1W5",
  "InstitutionName": "IUGM",
  "InstitutionalDepartmentName": "Department",
  "MRAcquisitionType": "2D",
  "MagneticFieldStrength": 3,
  "Manufacturer": "Siemens",
  "ManufacturersModelName": "Prisma_fit",
  "Modality": "MR",
  "MultibandAccelerationFactor": 4,
  "PartialFourier": 1,
  "PatientPosition": "HFS",
  "PercentPhaseFOV": 100,
  "PhaseEncodingDirection": "j",
  "PhaseEncodingSteps": 104,
  "PhaseResolution": 1,
  "PixelBandwidth": 2290,
  "ProcedureStepDescription": "memory_things",
  "ProtocolName": "func_task-things_run-4",
  "PulseSequenceDetails": "%CustomerSeq%_cmrr_mbep2d_bold",
  "ReceiveCoilActiveElements": "HC1-7;NC1,2",
  "ReceiveCoilName": "HeadNeck_64",
  "ReconMatrixPE": 104,
  "RepetitionTime": 1.49,
  "SAR": 0.0340615,
  "ScanOptions": "FS",
  "ScanningSequence": "EP",
  "SequenceName": "epfid2d1_104",
  "SequenceVariant": "SK_SS",
  "SeriesDescription": "func_task-things_run-4",
  "SeriesNumber": 20,
  "ShimSetting": [628, -7203, -8825, 637, 71, 75, -44, 17],
  "SliceThickness": 2,
  "SliceTiming": [0, 0.785, 0.1, 0.8825, 0.1975, 0.98, 0.295, 1.0775, 0.3925, 1.1775, 0.49, 1.275, 0.59, 1.3725, 0.6875, 0, 0.785, 0.1, 0.8825, 0.1975, 0.98, 0.295, 1.0775, 0.3925, 1.1775, 0.49, 1.275, 0.59, 1.3725, 0.6875, 0, 0.785, 0.1, 0.8825, 0.1975, 0.98, 0.295, 1.0775, 0.3925, 1.1775, 0.49, 1.275, 0.59, 1.3725, 0.6875, 0, 0.785, 0.1, 0.8825, 0.1975, 0.98, 0.295, 1.0775, 0.3925, 1.1775, 0.49, 1.275, 0.59, 1.3725, 0.6875],
  "SoftwareVersions": "syngo_MR_E11",
  "SpacingBetweenSlices": 2,
  "StationName": "MRC35049",
  "TaskName": "things",
  "TotalReadoutTime": 0.0576811,
  "TxRefAmp": 246.117,
  "WipMemBlock": "95835a20-570b-427a-a6c7-cb521c721675||Sequence: R016 ve11c/master r/e634e98; Dec 19 2017 11:00:25 by eja",
  "dcmmeta_affine": [
    [-1.9915502071380615, -0.13542108237743378, 0.12405163049697876, 109.79293823242188],
    [-0.17503021657466888, 1.8086472749710083, -0.8355593085289001, -46.071861267089844],
    [0.055606648325920105, 0.8428856134414673, 1.8128572702407837, -72.25662231445312],
    [0.0, 0.0, 0.0, 1.0]
],
  "dcmmeta_reorient_transform": [
    [0.0, -1.0, 0.0, 103.0],
    [1.0, 0.0, 0.0, 0.0],
    [0.0, 0.0, 1.0, 0.0],
    [0.0, 0.0, 0.0, 1.0]
],
  "dcmmeta_shape": [104, 104, 60, 190],
  "dcmmeta_slice_dim": 2,
  "dcmmeta_version": 0.6,
  "global": {
    "const": {
      "AcquisitionMatrix": [104, 0, 0, 104],
      "AngioFlag": "N",
      "BitsAllocated": 16,
      "BitsStored": 16,
      "BodyPartExamined": "BRAIN",
      "Columns": 832,
      "EchoNumbers": 1,
      "EchoTime": 37.0,
      "EchoTrainLength": 104,
      "FlipAngle": 52.0,
      "HighBit": 15,
      "ImageOrientationPatient": [0.99577511565743, 0.08751510844955, 0.02780332409093, -0.0677105399064, 0.90432364094996, -0.4214428018185],
      "ImagePositionPatient": [-771.47557572351, -862.27741686245, 301.1301310406],
      "ImageType": [
        "ORIGINAL",
        "PRIMARY",
        "P",
        "MB",
        "ND",
        "MOSAIC"
],
      "ImagedNucleus": "1H",
      "ImagingFrequency": 123.25914,
      "InPlanePhaseEncodingDirection": "COL",
      "LargestImagePixelValue": 4095,
      "MRAcquisitionType": "2D",
      "MagneticFieldStrength": 3.0,
      "Manufacturer": "SIEMENS",
      "ManufacturerModelName": "Prisma_fit",
      "Modality": "MR",
      "NumberOfAverages": 1.0,
      "NumberOfPhaseEncodingSteps": 104,
      "PercentPhaseFieldOfView": 100.0,
      "PercentSampling": 100.0,
      "PerformedProcedureStepStartTime": "171701.656000",
      "PhotometricInterpretation": "MONOCHROME2",
      "PixelBandwidth": 2290.0,
      "PixelRepresentation": 0,
      "PixelSpacing": [2.0, 2.0],
      "ProtocolName": "func_task-things_run-4",
      "RepetitionTime": 1490.0,
      "RescaleIntercept": -4096.0,
      "RescaleSlope": 2.0,
      "RescaleType": "US",
      "Rows": 832,
      "SAR": 0.03406149802211,
      "SamplesPerPixel": 1,
      "ScanOptions": "FS",
      "ScanningSequence": "EP",
      "SequenceName": "epfid2d1_104",
      "SequenceVariant": [
        "SK",
        "SS"
],
      "SeriesDescription": "func_task-things_run-4",
      "SeriesNumber": 20,
      "SeriesTime": "180641.254000",
      "SliceLocation": -39.437593251238,
      "SliceThickness": 2.0,
      "SmallestImagePixelValue": 0,
      "SoftwareVersions": "syngo MR E11",
      "SpacingBetweenSlices": 1.9999999567898,
      "SpecificCharacterSet": "ISO_IR 100",
      "StudyID": "1",
      "StudyTime": "171701.544000",
      "TransmitCoilName": "Body",
      "VariableFlipAngleFlag": "N",
      "WindowCenterWidthExplanation": "Algo1",
      "dBdt": 0.0},
    "slices": {}
  },
  "time": {
    "samples": {
      "AcquisitionNumber": [1, 2, 3, 4, 5, 6, 7, 8, 9, 10, 11, 12, 13, 14, 15, 16, 17, 18, 19, 20, 21, 22, 23, 24, 25, 26, 27, 28, 29, 30, 31, 32, 33, 34, 35, 36, 37, 38, 39, 40, 41, 42, 43, 44, 45, 46, 47, 48, 49, 50, 51, 52, 53, 54, 55, 56, 57, 58, 59, 60, 61, 62, 63, 64, 65, 66, 67, 68, 69, 70, 71, 72, 73, 74, 75, 76, 77, 78, 79, 80, 81, 82, 83, 84, 85, 86, 87, 88, 89, 90, 91, 92, 93, 94, 95, 96, 97, 98, 99, 100, 101, 102, 103, 104, 105, 106, 107, 108, 109, 110, 111, 112, 113, 114, 115, 116, 117, 118, 119, 120, 121, 122, 123, 124, 125, 126, 127, 128, 129, 130, 131, 132, 133, 134, 135, 136, 137, 138, 139, 140, 141, 142, 143, 144, 145, 146, 147, 148, 149, 150, 151, 152, 153, 154, 155, 156, 157, 158, 159, 160, 161, 162, 163, 164, 165, 166, 167, 168, 169, 170, 171, 172, 173, 174, 175, 176, 177, 178, 179, 180, 181, 182, 183, 184, 185, 186, 187, 188, 189, 190],
      "AcquisitionTime": ["180531.125000", "180532.615000", "180534.105000", "180535.595000", "180537.085000", "180538.575000", "180540.065000", "180541.555000", "180543.045000", "180544.535000", "180546.025000", "180547.515000", "180549.005000", "180550.495000", "180551.985000", "180553.475000", "180554.965000", "180556.455000", "180557.945000", "180559.435000", "180600.925000", "180602.415000", "180603.905000", "180605.395000", "180606.885000", "180608.375000", "180609.865000", "180611.355000", "180612.845000", "180614.335000", "180615.825000", "180617.315000", "180618.805000", "180620.295000", "180621.785000", "180623.275000", "180624.765000", "180626.255000", "180627.745000", "180629.235000", "180630.725000", "180632.215000", "180633.705000", "180635.195000", "180636.685000", "180638.175000", "180639.665000", "180641.155000", "180642.645000", "180644.135000", "180645.625000", "180647.115000", "180648.605000", "180650.095000", "180651.585000", "180653.075000", "180654.565000", "180656.055000", "180657.545000", "180659.035000", "180700.525000", "180702.015000", "180703.505000", "180704.995000", "180706.485000", "180707.975000", "180709.465000", "180710.955000", "180712.445000", "180713.935000", "180715.425000", "180716.915000", "180718.405000", "180719.895000", "180721.385000", "180722.875000", "180724.365000", "180725.855000", "180727.345000", "180728.835000", "180730.325000", "180731.815000", "180733.305000", "180734.795000", "180736.285000", "180737.775000", "180739.265000", "180740.755000", "180742.245000", "180743.735000", "180745.225000", "180746.715000", "180748.205000", "180749.695000", "180751.185000", "180752.675000", "180754.165000", "180755.655000", "180757.145000", "180758.635000", "180800.125000", "180801.615000", "180803.105000", "180804.595000", "180806.085000", "180807.575000", "180809.065000", "180810.555000", "180812.045000", "180813.535000", "180815.025000", "180816.515000", "180818.005000", "180819.495000", "180820.985000", "180822.475000", "180823.965000", "180825.455000", "180826.945000", "180828.435000", "180829.925000", "180831.415000", "180832.905000", "180834.395000", "180835.885000", "180837.375000", "180838.865000", "180840.355000", "180841.845000", "180843.335000", "180844.825000", "180846.315000", "180847.805000", "180849.295000", "180850.785000", "180852.275000", "180853.765000", "180855.255000", "180856.745000", "180858.235000", "180859.725000", "180901.215000", "180902.705000", "180904.195000", "180905.685000", "180907.175000", "180908.665000", "180910.155000", "180911.645000", "180913.135000", "180914.625000", "180916.115000", "180917.605000", "180919.095000", "180920.585000", "180922.075000", "180923.565000", "180925.055000", "180926.545000", "180928.035000", "180929.525000", "180931.015000", "180932.505000", "180933.995000", "180935.485000", "180936.975000", "180938.465000", "180939.955000", "180941.445000", "180942.935000", "180944.425000", "180945.915000", "180947.405000", "180948.895000", "180950.385000", "180951.875000", "180953.365000", "180954.855000", "180956.345000", "180957.835000", "180959.325000", "181000.815000", "181002.305000", "181003.795000", "181005.285000", "181006.775000", "181008.265000", "181009.755000", "181011.245000", "181012.735000"],
      "ContentTime": ["180641.256000", "180641.259000", "180641.262000", "180641.264000", "180641.267000", "180641.269000", "180641.272000", "180641.275000", "180641.277000", "180641.280000", "180641.282000", "180641.285000", "180641.287000", "180641.290000", "180701.231000", "180701.234000", "180701.236000", "180701.239000", "180701.245000", "180701.247000", "180701.249000", "180701.252000", "180701.255000", "180701.257000", "180701.275000", "180701.278000", "180701.280000", "180701.283000", "180701.285000", "180701.288000", "180701.291000", "180701.293000", "180701.296000", "180701.298000", "180721.236000", "180721.238000", "180721.241000", "180721.244000", "180721.256000", "180721.258000", "180721.261000", "180721.264000", "180721.266000", "180721.269000", "180721.271000", "180721.291000", "180721.293000", "180721.296000", "180721.298000", "180721.301000", "180721.303000", "180721.306000", "180721.308000", "180721.311000", "180721.314000", "180741.223000", "180741.226000", "180741.238000", "180741.241000", "180741.244000", "180741.246000", "180741.249000", "180741.251000", "180741.254000", "180741.256000", "180741.259000", "180741.262000", "180741.264000", "180741.267000", "180741.269000", "180741.272000", "180741.274000", "180741.277000", "180741.280000", "180741.282000", "180801.222000", "180801.225000", "180801.228000", "180801.230000", "180801.233000", "180801.235000", "180801.238000", "180801.240000", "180801.243000", "180801.245000", "180801.248000", "180801.251000", "180801.253000", "180801.256000", "180801.258000", "180801.261000", "180801.263000", "180801.266000", "180801.268000", "180801.271000", "180841.276000", "180841.279000", "180841.282000", "180841.284000", "180841.287000", "180841.289000", "180841.292000", "180841.295000", "180841.297000", "180841.300000", "180841.303000", "180841.306000", "180841.308000", "180841.311000", "180841.313000", "180841.316000", "180841.319000", "180841.321000", "180841.324000", "180841.327000", "180841.329000", "180841.332000", "180841.334000", "180841.337000", "180841.339000", "180841.348000", "180841.350000", "180841.353000", "180841.356000", "180841.358000", "180841.361000", "180921.267000", "180921.270000", "180921.272000", "180921.275000", "180921.278000", "180921.280000", "180921.283000", "180921.285000", "180921.288000", "180921.291000", "180921.293000", "180921.296000", "180921.298000", "180921.301000", "180921.303000", "180921.306000", "180921.308000", "180921.311000", "180921.314000", "180921.316000", "180921.319000", "180921.321000", "180921.324000", "180921.327000", "180921.329000", "180921.332000", "180921.334000", "181001.258000", "181001.260000", "181001.263000", "181001.266000", "181001.268000", "181001.271000", "181001.273000", "181001.276000", "181001.279000", "181001.281000", "181001.284000", "181001.286000", "181001.289000", "181001.292000", "181001.294000", "181001.297000", "181001.299000", "181001.302000", "181001.305000", "181001.307000", "181001.310000", "181001.312000", "181001.315000", "181001.318000", "181001.320000", "181001.323000", "181001.325000", "181015.444000", "181015.447000", "181015.449000", "181015.452000", "181015.454000", "181015.457000", "181015.460000", "181015.462000", "181015.465000", "181015.467000"],
      "InstanceCreationTime": ["180641.256000", "180641.259000", "180641.262000", "180641.264000", "180641.267000", "180641.269000", "180641.272000", "180641.275000", "180641.277000", "180641.280000", "180641.282000", "180641.285000", "180641.287000", "180641.290000", "180701.231000", "180701.234000", "180701.236000", "180701.239000", "180701.245000", "180701.247000", "180701.249000", "180701.252000", "180701.255000", "180701.257000", "180701.275000", "180701.278000", "180701.280000", "180701.283000", "180701.285000", "180701.288000", "180701.291000", "180701.293000", "180701.296000", "180701.298000", "180721.236000", "180721.238000", "180721.241000", "180721.244000", "180721.256000", "180721.258000", "180721.261000", "180721.264000", "180721.266000", "180721.269000", "180721.271000", "180721.291000", "180721.293000", "180721.296000", "180721.298000", "180721.301000", "180721.303000", "180721.306000", "180721.308000", "180721.311000", "180721.314000", "180741.223000", "180741.226000", "180741.238000", "180741.241000", "180741.244000", "180741.246000", "180741.249000", "180741.251000", "180741.254000", "180741.256000", "180741.259000", "180741.262000", "180741.264000", "180741.267000", "180741.269000", "180741.272000", "180741.274000", "180741.277000", "180741.280000", "180741.282000", "180801.222000", "180801.225000", "180801.228000", "180801.230000", "180801.233000", "180801.235000", "180801.238000", "180801.240000", "180801.243000", "180801.245000", "180801.248000", "180801.251000", "180801.253000", "180801.256000", "180801.258000", "180801.261000", "180801.263000", "180801.266000", "180801.268000", "180801.271000", "180841.276000", "180841.279000", "180841.282000", "180841.284000", "180841.287000", "180841.289000", "180841.292000", "180841.295000", "180841.297000", "180841.300000", "180841.303000", "180841.306000", "180841.308000", "180841.311000", "180841.313000", "180841.316000", "180841.319000", "180841.321000", "180841.324000", "180841.327000", "180841.329000", "180841.332000", "180841.334000", "180841.337000", "180841.339000", "180841.348000", "180841.350000", "180841.353000", "180841.356000", "180841.358000", "180841.361000", "180921.267000", "180921.270000", "180921.272000", "180921.275000", "180921.278000", "180921.280000", "180921.283000", "180921.285000", "180921.288000", "180921.291000", "180921.293000", "180921.296000", "180921.298000", "180921.301000", "180921.303000", "180921.306000", "180921.308000", "180921.311000", "180921.314000", "180921.316000", "180921.319000", "180921.321000", "180921.324000", "180921.327000", "180921.329000", "180921.332000", "180921.334000", "181001.258000", "181001.260000", "181001.263000", "181001.266000", "181001.268000", "181001.271000", "181001.273000", "181001.276000", "181001.279000", "181001.281000", "181001.284000", "181001.286000", "181001.289000", "181001.292000", "181001.294000", "181001.297000", "181001.299000", "181001.302000", "181001.305000", "181001.307000", "181001.310000", "181001.312000", "181001.315000", "181001.318000", "181001.320000", "181001.323000", "181001.325000", "181015.444000", "181015.447000", "181015.449000", "181015.452000", "181015.454000", "181015.457000", "181015.460000", "181015.462000", "181015.465000", "181015.467000"],
      "InstanceNumber": [1, 2, 3, 4, 5, 6, 7, 8, 9, 10, 11, 12, 13, 14, 15, 16, 17, 18, 19, 20, 21, 22, 23, 24, 25, 26, 27, 28, 29, 30, 31, 32, 33, 34, 35, 36, 37, 38, 39, 40, 41, 42, 43, 44, 45, 46, 47, 48, 49, 50, 51, 52, 53, 54, 55, 56, 57, 58, 59, 60, 61, 62, 63, 64, 65, 66, 67, 68, 69, 70, 71, 72, 73, 74, 75, 76, 77, 78, 79, 80, 81, 82, 83, 84, 85, 86, 87, 88, 89, 90, 91, 92, 93, 94, 95, 96, 97, 98, 99, 100, 101, 102, 103, 104, 105, 106, 107, 108, 109, 110, 111, 112, 113, 114, 115, 116, 117, 118, 119, 120, 121, 122, 123, 124, 125, 126, 127, 128, 129, 130, 131, 132, 133, 134, 135, 136, 137, 138, 139, 140, 141, 142, 143, 144, 145, 146, 147, 148, 149, 150, 151, 152, 153, 154, 155, 156, 157, 158, 159, 160, 161, 162, 163, 164, 165, 166, 167, 168, 169, 170, 171, 172, 173, 174, 175, 176, 177, 178, 179, 180, 181, 182, 183, 184, 185, 186, 187, 188, 189, 190],
      "WindowCenter": [4884.0, 4880.0, 4884.0, 4880.0, 4878.0, 4878.0, 4874.0, 4880.0, 4856.0, 4854.0, 4902.0, 4864.0, 4864.0, 4882.0, 4856.0, 4854.0, 4902.0, 4862.0, 4834.0, 4866.0, 4880.0, 4826.0, 4790.0, 4822.0, 4850.0, 4880.0, 4864.0, 4796.0, 4796.0, 4876.0, 4882.0, 4852.0, 4856.0, 4904.0, 4878.0, 4866.0, 4872.0, 4882.0, 4828.0, 4798.0, 4798.0, 4856.0, 4900.0, 4832.0, 4834.0, 4878.0, 4880.0, 4856.0, 4880.0, 4902.0, 4874.0, 4862.0, 4840.0, 4870.0, 4858.0, 4796.0, 4792.0, 4800.0, 4854.0, 4904.0, 4828.0, 4826.0, 4876.0, 4908.0, 4884.0, 4856.0, 4878.0, 4882.0, 4880.0, 4880.0, 4880.0, 4908.0, 4906.0, 4900.0, 4906.0, 4884.0, 4880.0, 4878.0, 4882.0, 4882.0, 4880.0, 4882.0, 4884.0, 4906.0, 4904.0, 4906.0, 4884.0, 4906.0, 4882.0, 4880.0, 4884.0, 4884.0, 4906.0, 4904.0, 4884.0, 4882.0, 4880.0, 4882.0, 4882.0, 4884.0, 4908.0, 4906.0, 4880.0, 4858.0, 4884.0, 4904.0, 4906.0, 4882.0, 4860.0, 4858.0, 4880.0, 4904.0, 4876.0, 4868.0, 4828.0, 4828.0, 4870.0, 4882.0, 4796.0, 4784.0, 4792.0, 4830.0, 4906.0, 4804.0, 4772.0, 4804.0, 4900.0, 4886.0, 4860.0, 4856.0, 4856.0, 4852.0, 4880.0, 4904.0, 4906.0, 4904.0, 4904.0, 4908.0, 4906.0, 4884.0, 4880.0, 4880.0, 4858.0, 4884.0, 4904.0, 4910.0, 4908.0, 4906.0, 4906.0, 4898.0, 4870.0, 4870.0, 4904.0, 4884.0, 4824.0, 4798.0, 4826.0, 4860.0, 4910.0, 4856.0, 4832.0, 4868.0, 4906.0, 4910.0, 4882.0, 4858.0, 4832.0, 4884.0, 4908.0, 4908.0, 4902.0, 4906.0, 4900.0, 4876.0, 4910.0, 4882.0, 4860.0, 4880.0, 4884.0, 4906.0, 4884.0, 4910.0, 4908.0, 4904.0, 4904.0, 4908.0, 4906.0, 4884.0, 4904.0, 4904.0],
      "WindowWidth": [18678.0, 18672.0, 18674.0, 18678.0, 18688.0, 18698.0, 18690.0, 18678.0, 18634.0, 18632.0, 18716.0, 18694.0, 18684.0, 18690.0, 18634.0, 18632.0, 18718.0, 18680.0, 18644.0, 18684.0, 18682.0, 18586.0, 18546.0, 18580.0, 18620.0, 18676.0, 18686.0, 18594.0, 18592.0, 18686.0, 18680.0, 18624.0, 18634.0, 18718.0, 18696.0, 18692.0, 18686.0, 18672.0, 18588.0, 18548.0, 18552.0, 18626.0, 18718.0, 18640.0, 18638.0, 18682.0, 18676.0, 18630.0, 18668.0, 18714.0, 18694.0, 18678.0, 18648.0, 18684.0, 18636.0, 18544.0, 18548.0, 18550.0, 18626.0, 18714.0, 18636.0, 18628.0, 18690.0, 18718.0, 18670.0, 18634.0, 18670.0, 18676.0, 18664.0, 18662.0, 18672.0, 18716.0, 18730.0, 18724.0, 18722.0, 18674.0, 18668.0, 18670.0, 18676.0, 18680.0, 18672.0, 18670.0, 18680.0, 18710.0, 18718.0, 18722.0, 18682.0, 18710.0, 18672.0, 18672.0, 18676.0, 18682.0, 18722.0, 18714.0, 18680.0, 18680.0, 18676.0, 18676.0, 18674.0, 18684.0, 18724.0, 18712.0, 18672.0, 18636.0, 18678.0, 18716.0, 18710.0, 18674.0, 18634.0, 18640.0, 18670.0, 18714.0, 18692.0, 18688.0, 18636.0, 18634.0, 18688.0, 18684.0, 18544.0, 18554.0, 18540.0, 18588.0, 18714.0, 18598.0, 18560.0, 18592.0, 18718.0, 18674.0, 18626.0, 18622.0, 18622.0, 18624.0, 18672.0, 18720.0, 18728.0, 18718.0, 18720.0, 18728.0, 18714.0, 18680.0, 18674.0, 18664.0, 18634.0, 18670.0, 18708.0, 18722.0, 18716.0, 18710.0, 18720.0, 18726.0, 18692.0, 18690.0, 18730.0, 18670.0, 18572.0, 18532.0, 18576.0, 18628.0, 18724.0, 18674.0, 18644.0, 18684.0, 18728.0, 18722.0, 18668.0, 18620.0, 18586.0, 18664.0, 18712.0, 18716.0, 18706.0, 18724.0, 18728.0, 18692.0, 18720.0, 18670.0, 18632.0, 18672.0, 18676.0, 18706.0, 18678.0, 18710.0, 18722.0, 18716.0, 18724.0, 18716.0, 18712.0, 18672.0, 18706.0, 18714.0]
    },
    "slices": {}
  }
}