{
  "AcquisitionMatrixPE": 104,
  "AcquisitionNumber": 1,
  "AcquisitionTime": "15:34:20.747500",
  "BandwidthPerPixelPhaseEncode": 17.17,
  "BaseResolution": 104,
  "BodyPartExamined": "BRAIN",
  "CoilString": "HC1-7;NC1_2",
  "ConsistencyInfo": "N4_VE11C_LATEST_20160120",
  "ConversionSoftware": "dcm2niix",
  "ConversionSoftwareVersion": "v1.0.20190902",
  "DerivedVendorReportedEchoSpacing": 0.000560011,
  "DeviceSerialNumber": "167006",
  "DwellTime": 2.1e-06,
  "EchoTime": 0.037,
  "EchoTrainLength": 104,
  "EffectiveEchoSpacing": 0.000560011,
  "FlipAngle": 52,
  "ImageComments": "Unaliased_MB4_PE3_LB",
  "ImageOrientationPatientDICOM": [0.998053, -0.0620738, 0.00615982, 0.0610435, 0.951594, -0.301234],
  "ImageType": [
    "ORIGINAL",
    "PRIMARY",
    "M",
    "MB",
    "ND",
    "MOSAIC"
],
  "ImagingFrequency": 123.259,
  "InPlanePhaseEncodingDirectionDICOM": "COL",
  "InstitutionAddress": "Chemin_Queen-Mary_4565_Montreal_District_CA_H3W_1W5",
  "InstitutionName": "IUGM",
  "InstitutionalDepartmentName": "Department",
  "MRAcquisitionType": "2D",
  "MagneticFieldStrength": 3,
  "Manufacturer": "Siemens",
  "ManufacturersModelName": "Prisma_fit",
  "Modality": "MR",
  "MultibandAccelerationFactor": 4,
  "PartialFourier": 1,
  "PatientPosition": "HFS",
  "PercentPhaseFOV": 100,
  "PhaseEncodingDirection": "j",
  "PhaseEncodingSteps": 104,
  "PhaseResolution": 1,
  "PixelBandwidth": 2290,
  "ProcedureStepDescription": "memory_things",
  "ProtocolName": "func_task-things_run-1",
  "PulseSequenceDetails": "%CustomerSeq%_cmrr_mbep2d_bold",
  "ReceiveCoilActiveElements": "HC1-7;NC1,2",
  "ReceiveCoilName": "HeadNeck_64",
  "ReconMatrixPE": 104,
  "RepetitionTime": 1.49,
  "SAR": 0.0485574,
  "ScanOptions": "FS",
  "ScanningSequence": "EP",
  "SequenceName": "epfid2d1_104",
  "SequenceVariant": "SK_SS",
  "SeriesDescription": "func_task-things_run-1",
  "SeriesNumber": 10,
  "ShimSetting": [627, -7266, -8830, 610, -16, -242, 28, -16],
  "SliceThickness": 2,
  "SliceTiming": [0, 0.785, 0.0975, 0.8825, 0.195, 0.98, 0.295, 1.0775, 0.3925, 1.175, 0.49, 1.275, 0.5875, 1.3725, 0.685, 0, 0.785, 0.0975, 0.8825, 0.195, 0.98, 0.295, 1.0775, 0.3925, 1.175, 0.49, 1.275, 0.5875, 1.3725, 0.685, 0, 0.785, 0.0975, 0.8825, 0.195, 0.98, 0.295, 1.0775, 0.3925, 1.175, 0.49, 1.275, 0.5875, 1.3725, 0.685, 0, 0.785, 0.0975, 0.8825, 0.195, 0.98, 0.295, 1.0775, 0.3925, 1.175, 0.49, 1.275, 0.5875, 1.3725, 0.685],
  "SoftwareVersions": "syngo_MR_E11",
  "SpacingBetweenSlices": 2,
  "StationName": "MRC35049",
  "TaskName": "things",
  "TotalReadoutTime": 0.0576811,
  "TxRefAmp": 253.695,
  "WipMemBlock": "5fc4bda6-af6a-4839-9179-6ae9278ead21||Sequence: R016 ve11c/master r/e634e98; Dec 19 2017 11:00:25 by eja",
  "dcmmeta_affine": [
    [-1.9961050748825073, 0.12208699434995651, -0.025674207136034966, 100.77287292480469],
    [0.12414759397506714, 1.9031885862350464, -0.6020472049713135, -74.48480987548828],
    [0.012319637462496758, 0.6024684309959412, 1.9070606231689453, -64.40814208984375],
    [0.0, 0.0, 0.0, 1.0]
],
  "dcmmeta_reorient_transform": [
    [0.0, -1.0, 0.0, 103.0],
    [1.0, 0.0, 0.0, 0.0],
    [0.0, 0.0, 1.0, 0.0],
    [0.0, 0.0, 0.0, 1.0]
],
  "dcmmeta_shape": [104, 104, 60, 190],
  "dcmmeta_slice_dim": 2,
  "dcmmeta_version": 0.6,
  "global": {
    "const": {
      "AcquisitionMatrix": [104, 0, 0, 104],
      "AngioFlag": "N",
      "BitsAllocated": 16,
      "BitsStored": 16,
      "BodyPartExamined": "BRAIN",
      "Columns": 832,
      "EchoNumbers": 1,
      "EchoTime": 37.0,
      "EchoTrainLength": 104,
      "FlipAngle": 52.0,
      "HighBit": 15,
      "ImageOrientationPatient": [0.99805255387841, -0.0620737974434, 0.0061598188082, 0.06104349664093, 0.95159426368244, -0.3012342092866],
      "ImagePositionPatient": [-884.36976134693, -769.11451141614, 212.46026308677],
      "ImageType": [
        "ORIGINAL",
        "PRIMARY",
        "M",
        "MB",
        "ND",
        "MOSAIC"
],
      "ImagedNucleus": "1H",
      "ImagingFrequency": 123.258921,
      "InPlanePhaseEncodingDirection": "COL",
      "MRAcquisitionType": "2D",
      "MagneticFieldStrength": 3.0,
      "Manufacturer": "SIEMENS",
      "ManufacturerModelName": "Prisma_fit",
      "Modality": "MR",
      "NumberOfAverages": 1.0,
      "NumberOfPhaseEncodingSteps": 104,
      "PercentPhaseFieldOfView": 100.0,
      "PercentSampling": 100.0,
      "PerformedProcedureStepStartTime": "145852.389000",
      "PhotometricInterpretation": "MONOCHROME2",
      "PixelBandwidth": 2290.0,
      "PixelRepresentation": 0,
      "PixelSpacing": [2.0, 2.0],
      "ProtocolName": "func_task-things_run-1",
      "RepetitionTime": 1490.0,
      "Rows": 832,
      "SAR": 0.04855742421757,
      "SamplesPerPixel": 1,
      "ScanOptions": "FS",
      "ScanningSequence": "EP",
      "SequenceName": "epfid2d1_104",
      "SequenceVariant": [
        "SK",
        "SS"
],
      "SeriesDescription": "func_task-things_run-1",
      "SeriesNumber": 10,
      "SeriesTime": "153550.032000",
      "SliceLocation": -40.287060573455,
      "SliceThickness": 2.0,
      "SmallestImagePixelValue": 0,
      "SoftwareVersions": "syngo MR E11",
      "SpacingBetweenSlices": 2.0000000113153,
      "SpecificCharacterSet": "ISO_IR 100",
      "StudyID": "1",
      "StudyTime": "145852.325000",
      "TransmitCoilName": "Body",
      "VariableFlipAngleFlag": "N",
      "WindowCenterWidthExplanation": "Algo1",
      "dBdt": 0.0},
    "slices": {}
  },
  "time": {
    "samples": {
      "AcquisitionNumber": [1, 2, 3, 4, 5, 6, 7, 8, 9, 10, 11, 12, 13, 14, 15, 16, 17, 18, 19, 20, 21, 22, 23, 24, 25, 26, 27, 28, 29, 30, 31, 32, 33, 34, 35, 36, 37, 38, 39, 40, 41, 42, 43, 44, 45, 46, 47, 48, 49, 50, 51, 52, 53, 54, 55, 56, 57, 58, 59, 60, 61, 62, 63, 64, 65, 66, 67, 68, 69, 70, 71, 72, 73, 74, 75, 76, 77, 78, 79, 80, 81, 82, 83, 84, 85, 86, 87, 88, 89, 90, 91, 92, 93, 94, 95, 96, 97, 98, 99, 100, 101, 102, 103, 104, 105, 106, 107, 108, 109, 110, 111, 112, 113, 114, 115, 116, 117, 118, 119, 120, 121, 122, 123, 124, 125, 126, 127, 128, 129, 130, 131, 132, 133, 134, 135, 136, 137, 138, 139, 140, 141, 142, 143, 144, 145, 146, 147, 148, 149, 150, 151, 152, 153, 154, 155, 156, 157, 158, 159, 160, 161, 162, 163, 164, 165, 166, 167, 168, 169, 170, 171, 172, 173, 174, 175, 176, 177, 178, 179, 180, 181, 182, 183, 184, 185, 186, 187, 188, 189, 190],
      "AcquisitionTime": ["153420.747500", "153422.237500", "153423.727500", "153425.217500", "153426.707500", "153428.197500", "153429.687500", "153431.177500", "153432.667500", "153434.157500", "153435.647500", "153437.137500", "153438.627500", "153440.117500", "153441.607500", "153443.097500", "153444.587500", "153446.077500", "153447.567500", "153449.057500", "153450.547500", "153452.037500", "153453.527500", "153455.017500", "153456.507500", "153457.997500", "153459.487500", "153500.977500", "153502.467500", "153503.957500", "153505.447500", "153506.937500", "153508.427500", "153509.917500", "153511.407500", "153512.897500", "153514.387500", "153515.877500", "153517.367500", "153518.857500", "153520.347500", "153521.837500", "153523.327500", "153524.817500", "153526.307500", "153527.797500", "153529.287500", "153530.777500", "153532.267500", "153533.757500", "153535.247500", "153536.737500", "153538.227500", "153539.717500", "153541.207500", "153542.697500", "153544.187500", "153545.677500", "153547.167500", "153548.657500", "153550.147500", "153551.637500", "153553.127500", "153554.617500", "153556.107500", "153557.597500", "153559.087500", "153600.577500", "153602.067500", "153603.557500", "153605.047500", "153606.537500", "153608.027500", "153609.517500", "153611.007500", "153612.497500", "153613.987500", "153615.477500", "153616.967500", "153618.457500", "153619.947500", "153621.437500", "153622.927500", "153624.417500", "153625.907500", "153627.397500", "153628.887500", "153630.377500", "153631.867500", "153633.357500", "153634.847500", "153636.337500", "153637.827500", "153639.317500", "153640.807500", "153642.297500", "153643.787500", "153645.277500", "153646.767500", "153648.257500", "153649.747500", "153651.237500", "153652.727500", "153654.217500", "153655.707500", "153657.197500", "153658.687500", "153700.177500", "153701.667500", "153703.157500", "153704.647500", "153706.137500", "153707.627500", "153709.117500", "153710.607500", "153712.097500", "153713.587500", "153715.077500", "153716.567500", "153718.057500", "153719.547500", "153721.037500", "153722.527500", "153724.017500", "153725.507500", "153726.997500", "153728.487500", "153729.977500", "153731.467500", "153732.957500", "153734.447500", "153735.937500", "153737.427500", "153738.917500", "153740.407500", "153741.897500", "153743.387500", "153744.877500", "153746.367500", "153747.857500", "153749.347500", "153750.837500", "153752.327500", "153753.817500", "153755.307500", "153756.797500", "153758.287500", "153759.777500", "153801.267500", "153802.757500", "153804.247500", "153805.737500", "153807.227500", "153808.717500", "153810.207500", "153811.697500", "153813.187500", "153814.677500", "153816.167500", "153817.657500", "153819.147500", "153820.637500", "153822.127500", "153823.617500", "153825.107500", "153826.597500", "153828.087500", "153829.577500", "153831.067500", "153832.557500", "153834.047500", "153835.537500", "153837.027500", "153838.517500", "153840.007500", "153841.497500", "153842.987500", "153844.477500", "153845.967500", "153847.457500", "153848.947500", "153850.437500", "153851.927500", "153853.417500", "153854.907500", "153856.397500", "153857.887500", "153859.377500", "153900.867500", "153902.357500"],
      "ContentTime": ["153550.036000", "153550.040000", "153550.043000", "153550.046000", "153550.052000", "153550.055000", "153550.058000", "153550.062000", "153550.069000", "153550.073000", "153550.076000", "153550.080000", "153550.083000", "153550.086000", "153550.090000", "153550.093000", "153550.096000", "153550.100000", "153550.103000", "153550.106000", "153550.110000", "153550.113000", "153550.116000", "153550.119000", "153550.123000", "153550.126000", "153550.129000", "153550.132000", "153550.136000", "153550.139000", "153550.142000", "153550.145000", "153550.149000", "153550.152000", "153550.155000", "153610.007000", "153610.011000", "153610.014000", "153610.017000", "153610.031000", "153610.034000", "153610.038000", "153610.041000", "153610.044000", "153610.047000", "153610.051000", "153610.054000", "153610.057000", "153610.061000", "153610.064000", "153610.067000", "153610.070000", "153610.074000", "153610.077000", "153610.080000", "153630.007000", "153630.011000", "153630.014000", "153630.017000", "153630.021000", "153630.024000", "153630.027000", "153630.030000", "153630.034000", "153630.037000", "153630.040000", "153630.043000", "153630.047000", "153630.050000", "153630.053000", "153630.057000", "153630.060000", "153630.063000", "153630.066000", "153630.070000", "153650.007000", "153650.011000", "153650.014000", "153650.017000", "153650.021000", "153650.024000", "153650.027000", "153650.030000", "153650.034000", "153650.037000", "153650.040000", "153650.043000", "153650.047000", "153650.050000", "153650.053000", "153650.056000", "153650.060000", "153650.063000", "153650.066000", "153650.070000", "153730.007000", "153730.011000", "153730.014000", "153730.017000", "153730.021000", "153730.024000", "153730.027000", "153730.030000", "153730.034000", "153730.037000", "153730.040000", "153730.043000", "153730.047000", "153730.050000", "153730.053000", "153730.057000", "153730.060000", "153730.063000", "153730.066000", "153730.070000", "153730.073000", "153730.076000", "153730.079000", "153730.083000", "153730.086000", "153730.089000", "153730.092000", "153730.096000", "153730.099000", "153730.102000", "153730.106000", "153810.008000", "153810.012000", "153810.015000", "153810.019000", "153810.022000", "153810.025000", "153810.028000", "153810.032000", "153810.035000", "153810.038000", "153810.041000", "153810.045000", "153810.048000", "153810.051000", "153810.067000", "153810.070000", "153810.073000", "153810.077000", "153810.080000", "153810.083000", "153810.086000", "153810.090000", "153810.093000", "153810.096000", "153810.100000", "153810.103000", "153810.106000", "153850.007000", "153850.011000", "153850.014000", "153850.017000", "153850.021000", "153850.024000", "153850.027000", "153850.030000", "153850.034000", "153850.037000", "153850.040000", "153850.043000", "153850.047000", "153850.050000", "153850.053000", "153850.056000", "153850.060000", "153850.063000", "153850.066000", "153850.070000", "153850.073000", "153850.076000", "153850.079000", "153850.083000", "153850.086000", "153850.089000", "153850.092000", "153904.643000", "153904.647000", "153904.650000", "153904.654000", "153904.657000", "153904.660000", "153904.664000", "153904.667000", "153904.671000", "153904.674000"],
      "InstanceCreationTime": ["153550.036000", "153550.040000", "153550.043000", "153550.046000", "153550.052000", "153550.055000", "153550.058000", "153550.062000", "153550.069000", "153550.073000", "153550.076000", "153550.080000", "153550.083000", "153550.086000", "153550.090000", "153550.093000", "153550.096000", "153550.100000", "153550.103000", "153550.106000", "153550.110000", "153550.113000", "153550.116000", "153550.119000", "153550.123000", "153550.126000", "153550.129000", "153550.132000", "153550.136000", "153550.139000", "153550.142000", "153550.145000", "153550.149000", "153550.152000", "153550.155000", "153610.007000", "153610.011000", "153610.014000", "153610.017000", "153610.031000", "153610.034000", "153610.038000", "153610.041000", "153610.044000", "153610.047000", "153610.051000", "153610.054000", "153610.057000", "153610.061000", "153610.064000", "153610.067000", "153610.070000", "153610.074000", "153610.077000", "153610.080000", "153630.007000", "153630.011000", "153630.014000", "153630.017000", "153630.021000", "153630.024000", "153630.027000", "153630.030000", "153630.034000", "153630.037000", "153630.040000", "153630.043000", "153630.047000", "153630.050000", "153630.053000", "153630.057000", "153630.060000", "153630.063000", "153630.066000", "153630.070000", "153650.007000", "153650.011000", "153650.014000", "153650.017000", "153650.021000", "153650.024000", "153650.027000", "153650.030000", "153650.034000", "153650.037000", "153650.040000", "153650.043000", "153650.047000", "153650.050000", "153650.053000", "153650.056000", "153650.060000", "153650.063000", "153650.066000", "153650.070000", "153730.007000", "153730.011000", "153730.014000", "153730.017000", "153730.021000", "153730.024000", "153730.027000", "153730.030000", "153730.034000", "153730.037000", "153730.040000", "153730.043000", "153730.047000", "153730.050000", "153730.053000", "153730.057000", "153730.060000", "153730.063000", "153730.066000", "153730.070000", "153730.073000", "153730.076000", "153730.079000", "153730.083000", "153730.086000", "153730.089000", "153730.092000", "153730.096000", "153730.099000", "153730.102000", "153730.106000", "153810.008000", "153810.012000", "153810.015000", "153810.019000", "153810.022000", "153810.025000", "153810.028000", "153810.032000", "153810.035000", "153810.038000", "153810.041000", "153810.045000", "153810.048000", "153810.051000", "153810.067000", "153810.070000", "153810.073000", "153810.077000", "153810.080000", "153810.083000", "153810.086000", "153810.090000", "153810.093000", "153810.096000", "153810.100000", "153810.103000", "153810.106000", "153850.007000", "153850.011000", "153850.014000", "153850.017000", "153850.021000", "153850.024000", "153850.027000", "153850.030000", "153850.034000", "153850.037000", "153850.040000", "153850.043000", "153850.047000", "153850.050000", "153850.053000", "153850.056000", "153850.060000", "153850.063000", "153850.066000", "153850.070000", "153850.073000", "153850.076000", "153850.079000", "153850.083000", "153850.086000", "153850.089000", "153850.092000", "153904.643000", "153904.647000", "153904.650000", "153904.654000", "153904.657000", "153904.660000", "153904.664000", "153904.667000", "153904.671000", "153904.674000"],
      "InstanceNumber": [1, 2, 3, 4, 5, 6, 7, 8, 9, 10, 11, 12, 13, 14, 15, 16, 17, 18, 19, 20, 21, 22, 23, 24, 25, 26, 27, 28, 29, 30, 31, 32, 33, 34, 35, 36, 37, 38, 39, 40, 41, 42, 43, 44, 45, 46, 47, 48, 49, 50, 51, 52, 53, 54, 55, 56, 57, 58, 59, 60, 61, 62, 63, 64, 65, 66, 67, 68, 69, 70, 71, 72, 73, 74, 75, 76, 77, 78, 79, 80, 81, 82, 83, 84, 85, 86, 87, 88, 89, 90, 91, 92, 93, 94, 95, 96, 97, 98, 99, 100, 101, 102, 103, 104, 105, 106, 107, 108, 109, 110, 111, 112, 113, 114, 115, 116, 117, 118, 119, 120, 121, 122, 123, 124, 125, 126, 127, 128, 129, 130, 131, 132, 133, 134, 135, 136, 137, 138, 139, 140, 141, 142, 143, 144, 145, 146, 147, 148, 149, 150, 151, 152, 153, 154, 155, 156, 157, 158, 159, 160, 161, 162, 163, 164, 165, 166, 167, 168, 169, 170, 171, 172, 173, 174, 175, 176, 177, 178, 179, 180, 181, 182, 183, 184, 185, 186, 187, 188, 189, 190],
      "LargestImagePixelValue": [43250, 42323, 41512, 41626, 40939, 40555, 40782, 40682, 40698, 40866, 40843, 40318, 40419, 40501, 41375, 40225, 40526, 40819, 41014, 40137, 41230, 40779, 40777, 40704, 40561, 40473, 40715, 40792, 40783, 41057, 40549, 41088, 40621, 40626, 40794, 40494, 40727, 40823, 40697, 40633, 40756, 40447, 40754, 40854, 41095, 40766, 41212, 40223, 40312, 40970, 40724, 41165, 40678, 41310, 41063, 41446, 41980, 40934, 41602, 41775, 41468, 41618, 41008, 41695, 41455, 41671, 40815, 40941, 41295, 41168, 41245, 41565, 41359, 41649, 41362, 42026, 41708, 41869, 41397, 41630, 41559, 41822, 41659, 42009, 41551, 42018, 42246, 42100, 42102, 41953, 41492, 41763, 42011, 41722, 40928, 41398, 41959, 41804, 42163, 42043, 42109, 42070, 41610, 41085, 41877, 41501, 41568, 41837, 42393, 41894, 41757, 41909, 41632, 41987, 42257, 41656, 41911, 41454, 42092, 41782, 41906, 41502, 42088, 41520, 41769, 42073, 41528, 42097, 41595, 41475, 41829, 41633, 41329, 41401, 41351, 41329, 41081, 41882, 41488, 42120, 41351, 41406, 41476, 41374, 41768, 40822, 40797, 40726, 40550, 40794, 40701, 40750, 40697, 40822, 40208, 40194, 40489, 40606, 40195, 40768, 41108, 40762, 40823, 40565, 40506, 41236, 40948, 40735, 40762, 40533, 40490, 41225, 41108, 40305, 40273, 40529, 40308, 40365, 39969, 40662, 40333, 40441, 40478, 40517, 40815, 40563, 40851, 40152, 41375, 41011],
      "WindowCenter": [10531.0, 10473.0, 10450.0, 10485.0, 10453.0, 10459.0, 10453.0, 10450.0, 10449.0, 10492.0, 10458.0, 10445.0, 10433.0, 10439.0, 10408.0, 10417.0, 10407.0, 10406.0, 10442.0, 10396.0, 10421.0, 10392.0, 10389.0, 10415.0, 10409.0, 10396.0, 10386.0, 10395.0, 10391.0, 10423.0, 10422.0, 10428.0, 10417.0, 10403.0, 10398.0, 10436.0, 10455.0, 10442.0, 10417.0, 10417.0, 10418.0, 10428.0, 10447.0, 10439.0, 10409.0, 10384.0, 10379.0, 10403.0, 10415.0, 10398.0, 10383.0, 10393.0, 10397.0, 10420.0, 10420.0, 10427.0, 10433.0, 10412.0, 10443.0, 10473.0, 10464.0, 10429.0, 10423.0, 10451.0, 10450.0, 10450.0, 10442.0, 10431.0, 10418.0, 10419.0, 10419.0, 10443.0, 10422.0, 10407.0, 10405.0, 10416.0, 10429.0, 10432.0, 10431.0, 10441.0, 10464.0, 10453.0, 10441.0, 10414.0, 10412.0, 10435.0, 10438.0, 10411.0, 10422.0, 10425.0, 10443.0, 10465.0, 10470.0, 10441.0, 10435.0, 10423.0, 10436.0, 10414.0, 10423.0, 10422.0, 10419.0, 10420.0, 10411.0, 10408.0, 10444.0, 10429.0, 10422.0, 10426.0, 10424.0, 10438.0, 10459.0, 10476.0, 10455.0, 10464.0, 10437.0, 10422.0, 10423.0, 10389.0, 10396.0, 10400.0, 10409.0, 10421.0, 10428.0, 10399.0, 10377.0, 10416.0, 10455.0, 10428.0, 10389.0, 10381.0, 10420.0, 10418.0, 10438.0, 10432.0, 10404.0, 10392.0, 10398.0, 10434.0, 10454.0, 10460.0, 10401.0, 10380.0, 10397.0, 10399.0, 10435.0, 10425.0, 10450.0, 10432.0, 10419.0, 10398.0, 10393.0, 10428.0, 10433.0, 10422.0, 10387.0, 10390.0, 10410.0, 10398.0, 10397.0, 10395.0, 10408.0, 10426.0, 10428.0, 10434.0, 10437.0, 10433.0, 10425.0, 10426.0, 10441.0, 10450.0, 10431.0, 10425.0, 10416.0, 10400.0, 10404.0, 10399.0, 10398.0, 10373.0, 10351.0, 10360.0, 10366.0, 10378.0, 10371.0, 10363.0, 10353.0, 10369.0, 10406.0, 10413.0, 10439.0, 10448.0],
      "WindowWidth": [22814.0, 22635.0, 22557.0, 22629.0, 22546.0, 22553.0, 22537.0, 22526.0, 22525.0, 22628.0, 22548.0, 22517.0, 22490.0, 22507.0, 22428.0, 22448.0, 22423.0, 22420.0, 22514.0, 22407.0, 22457.0, 22391.0, 22383.0, 22445.0, 22432.0, 22405.0, 22380.0, 22406.0, 22392.0, 22464.0, 22463.0, 22474.0, 22451.0, 22421.0, 22406.0, 22494.0, 22540.0, 22510.0, 22452.0, 22455.0, 22460.0, 22478.0, 22523.0, 22503.0, 22432.0, 22374.0, 22361.0, 22422.0, 22454.0, 22408.0, 22374.0, 22396.0, 22408.0, 22459.0, 22460.0, 22473.0, 22487.0, 22443.0, 22514.0, 22581.0, 22566.0, 22479.0, 22467.0, 22532.0, 22528.0, 22529.0, 22517.0, 22488.0, 22455.0, 22458.0, 22459.0, 22511.0, 22463.0, 22425.0, 22422.0, 22445.0, 22479.0, 22485.0, 22483.0, 22505.0, 22561.0, 22532.0, 22508.0, 22442.0, 22438.0, 22491.0, 22498.0, 22433.0, 22460.0, 22470.0, 22516.0, 22565.0, 22574.0, 22510.0, 22498.0, 22467.0, 22494.0, 22445.0, 22460.0, 22460.0, 22453.0, 22458.0, 22441.0, 22435.0, 22514.0, 22479.0, 22464.0, 22470.0, 22467.0, 22500.0, 22548.0, 22588.0, 22539.0, 22560.0, 22495.0, 22461.0, 22466.0, 22386.0, 22397.0, 22406.0, 22433.0, 22461.0, 22474.0, 22410.0, 22355.0, 22447.0, 22542.0, 22473.0, 22383.0, 22365.0, 22460.0, 22452.0, 22499.0, 22484.0, 22422.0, 22394.0, 22408.0, 22489.0, 22538.0, 22557.0, 22416.0, 22363.0, 22402.0, 22410.0, 22497.0, 22477.0, 22533.0, 22494.0, 22462.0, 22413.0, 22402.0, 22485.0, 22493.0, 22471.0, 22389.0, 22399.0, 22443.0, 22416.0, 22415.0, 22409.0, 22437.0, 22481.0, 22486.0, 22497.0, 22504.0, 22492.0, 22476.0, 22482.0, 22513.0, 22536.0, 22491.0, 22478.0, 22459.0, 22413.0, 22424.0, 22411.0, 22413.0, 22356.0, 22306.0, 22323.0, 22343.0, 22369.0, 22352.0, 22331.0, 22306.0, 22345.0, 22428.0, 22450.0, 22506.0, 22527.0]
    },
    "slices": {}
  }
}