{
  "AcquisitionMatrixPE": 104,
  "AcquisitionNumber": 1,
  "AcquisitionTime": "15:59:32.430000",
  "BandwidthPerPixelPhaseEncode": 17.17,
  "BaseResolution": 104,
  "BodyPartExamined": "BRAIN",
  "CoilString": "HC1-7;NC1_2",
  "ConsistencyInfo": "N4_VE11C_LATEST_20160120",
  "ConversionSoftware": "dcm2niix",
  "ConversionSoftwareVersion": "v1.0.20190902",
  "DerivedVendorReportedEchoSpacing": 0.000560011,
  "DeviceSerialNumber": "167006",
  "DwellTime": 2.1e-06,
  "EchoTime": 0.037,
  "EchoTrainLength": 104,
  "EffectiveEchoSpacing": 0.000560011,
  "FlipAngle": 52,
  "ImageComments": "Unaliased_MB4_PE3_LB",
  "ImageOrientationPatientDICOM": [0.998053, -0.0620738, 0.00615982, 0.0610435, 0.951594, -0.301234],
  "ImageType": [
    "ORIGINAL",
    "PRIMARY",
    "M",
    "MB",
    "ND",
    "MOSAIC"
],
  "ImagingFrequency": 123.259,
  "InPlanePhaseEncodingDirectionDICOM": "COL",
  "InstitutionAddress": "Chemin_Queen-Mary_4565_Montreal_District_CA_H3W_1W5",
  "InstitutionName": "IUGM",
  "InstitutionalDepartmentName": "Department",
  "MRAcquisitionType": "2D",
  "MagneticFieldStrength": 3,
  "Manufacturer": "Siemens",
  "ManufacturersModelName": "Prisma_fit",
  "Modality": "MR",
  "MultibandAccelerationFactor": 4,
  "PartialFourier": 1,
  "PatientPosition": "HFS",
  "PercentPhaseFOV": 100,
  "PhaseEncodingDirection": "j",
  "PhaseEncodingSteps": 104,
  "PhaseResolution": 1,
  "PixelBandwidth": 2290,
  "ProcedureStepDescription": "memory_things",
  "ProtocolName": "func_task-things_run-5",
  "PulseSequenceDetails": "%CustomerSeq%_cmrr_mbep2d_bold",
  "ReceiveCoilActiveElements": "HC1-7;NC1,2",
  "ReceiveCoilName": "HeadNeck_64",
  "ReconMatrixPE": 104,
  "RepetitionTime": 1.49,
  "SAR": 0.0485574,
  "ScanOptions": "FS",
  "ScanningSequence": "EP",
  "SequenceName": "epfid2d1_104",
  "SequenceVariant": "SK_SS",
  "SeriesDescription": "func_task-things_run-5",
  "SeriesNumber": 22,
  "ShimSetting": [627, -7266, -8830, 610, -16, -242, 28, -16],
  "SliceThickness": 2,
  "SliceTiming": [0, 0.785, 0.0975, 0.8825, 0.1975, 0.98, 0.295, 1.0775, 0.3925, 1.1775, 0.49, 1.275, 0.5875, 1.3725, 0.6875, 0, 0.785, 0.0975, 0.8825, 0.1975, 0.98, 0.295, 1.0775, 0.3925, 1.1775, 0.49, 1.275, 0.5875, 1.3725, 0.6875, 0, 0.785, 0.0975, 0.8825, 0.1975, 0.98, 0.295, 1.0775, 0.3925, 1.1775, 0.49, 1.275, 0.5875, 1.3725, 0.6875, 0, 0.785, 0.0975, 0.8825, 0.1975, 0.98, 0.295, 1.0775, 0.3925, 1.1775, 0.49, 1.275, 0.5875, 1.3725, 0.6875],
  "SoftwareVersions": "syngo_MR_E11",
  "SpacingBetweenSlices": 2,
  "StationName": "MRC35049",
  "TaskName": "things",
  "TotalReadoutTime": 0.0576811,
  "TxRefAmp": 253.695,
  "WipMemBlock": "1161832a-9dfe-4156-83a3-5ce278fc135a||Sequence: R016 ve11c/master r/e634e98; Dec 19 2017 11:00:25 by eja",
  "dcmmeta_affine": [
    [-1.9961050748825073, 0.12208699434995651, -0.025674207136034966, 100.77287292480469],
    [0.12414759397506714, 1.9031885862350464, -0.6020472049713135, -74.48480987548828],
    [0.012319637462496758, 0.6024684309959412, 1.9070606231689453, -64.40814208984375],
    [0.0, 0.0, 0.0, 1.0]
],
  "dcmmeta_reorient_transform": [
    [0.0, -1.0, 0.0, 103.0],
    [1.0, 0.0, 0.0, 0.0],
    [0.0, 0.0, 1.0, 0.0],
    [0.0, 0.0, 0.0, 1.0]
],
  "dcmmeta_shape": [104, 104, 60, 190],
  "dcmmeta_slice_dim": 2,
  "dcmmeta_version": 0.6,
  "global": {
    "const": {
      "AcquisitionMatrix": [104, 0, 0, 104],
      "AngioFlag": "N",
      "BitsAllocated": 16,
      "BitsStored": 16,
      "BodyPartExamined": "BRAIN",
      "Columns": 832,
      "EchoNumbers": 1,
      "EchoTime": 37.0,
      "EchoTrainLength": 104,
      "FlipAngle": 52.0,
      "HighBit": 15,
      "ImageOrientationPatient": [0.99805255387841, -0.0620737974434, 0.0061598188082, 0.06104349664093, 0.95159426368244, -0.3012342092866],
      "ImagePositionPatient": [-884.36976134693, -769.11451141614, 212.46026308677],
      "ImageType": [
        "ORIGINAL",
        "PRIMARY",
        "M",
        "MB",
        "ND",
        "MOSAIC"
],
      "ImagedNucleus": "1H",
      "ImagingFrequency": 123.258935,
      "InPlanePhaseEncodingDirection": "COL",
      "MRAcquisitionType": "2D",
      "MagneticFieldStrength": 3.0,
      "Manufacturer": "SIEMENS",
      "ManufacturerModelName": "Prisma_fit",
      "Modality": "MR",
      "NumberOfAverages": 1.0,
      "NumberOfPhaseEncodingSteps": 104,
      "PercentPhaseFieldOfView": 100.0,
      "PercentSampling": 100.0,
      "PerformedProcedureStepStartTime": "145852.389000",
      "PhotometricInterpretation": "MONOCHROME2",
      "PixelBandwidth": 2290.0,
      "PixelRepresentation": 0,
      "PixelSpacing": [2.0, 2.0],
      "ProtocolName": "func_task-things_run-5",
      "RepetitionTime": 1490.0,
      "Rows": 832,
      "SAR": 0.04855742421757,
      "SamplesPerPixel": 1,
      "ScanOptions": "FS",
      "ScanningSequence": "EP",
      "SequenceName": "epfid2d1_104",
      "SequenceVariant": [
        "SK",
        "SS"
],
      "SeriesDescription": "func_task-things_run-5",
      "SeriesNumber": 22,
      "SeriesTime": "160048.963000",
      "SliceLocation": -40.287060573455,
      "SliceThickness": 2.0,
      "SmallestImagePixelValue": 0,
      "SoftwareVersions": "syngo MR E11",
      "SpacingBetweenSlices": 2.0000000113153,
      "SpecificCharacterSet": "ISO_IR 100",
      "StudyID": "1",
      "StudyTime": "145852.325000",
      "TransmitCoilName": "Body",
      "VariableFlipAngleFlag": "N",
      "WindowCenterWidthExplanation": "Algo1",
      "dBdt": 0.0},
    "slices": {}
  },
  "time": {
    "samples": {
      "AcquisitionNumber": [1, 2, 3, 4, 5, 6, 7, 8, 9, 10, 11, 12, 13, 14, 15, 16, 17, 18, 19, 20, 21, 22, 23, 24, 25, 26, 27, 28, 29, 30, 31, 32, 33, 34, 35, 36, 37, 38, 39, 40, 41, 42, 43, 44, 45, 46, 47, 48, 49, 50, 51, 52, 53, 54, 55, 56, 57, 58, 59, 60, 61, 62, 63, 64, 65, 66, 67, 68, 69, 70, 71, 72, 73, 74, 75, 76, 77, 78, 79, 80, 81, 82, 83, 84, 85, 86, 87, 88, 89, 90, 91, 92, 93, 94, 95, 96, 97, 98, 99, 100, 101, 102, 103, 104, 105, 106, 107, 108, 109, 110, 111, 112, 113, 114, 115, 116, 117, 118, 119, 120, 121, 122, 123, 124, 125, 126, 127, 128, 129, 130, 131, 132, 133, 134, 135, 136, 137, 138, 139, 140, 141, 142, 143, 144, 145, 146, 147, 148, 149, 150, 151, 152, 153, 154, 155, 156, 157, 158, 159, 160, 161, 162, 163, 164, 165, 166, 167, 168, 169, 170, 171, 172, 173, 174, 175, 176, 177, 178, 179, 180, 181, 182, 183, 184, 185, 186, 187, 188, 189, 190],
      "AcquisitionTime": ["155932.430000", "155933.920000", "155935.410000", "155936.900000", "155938.390000", "155939.880000", "155941.370000", "155942.860000", "155944.350000", "155945.840000", "155947.330000", "155948.820000", "155950.310000", "155951.800000", "155953.290000", "155954.780000", "155956.270000", "155957.760000", "155959.250000", "160000.740000", "160002.230000", "160003.720000", "160005.210000", "160006.700000", "160008.190000", "160009.680000", "160011.170000", "160012.660000", "160014.150000", "160015.640000", "160017.130000", "160018.620000", "160020.110000", "160021.600000", "160023.090000", "160024.580000", "160026.070000", "160027.560000", "160029.050000", "160030.540000", "160032.030000", "160033.520000", "160035.010000", "160036.500000", "160037.990000", "160039.480000", "160040.970000", "160042.460000", "160043.950000", "160045.440000", "160046.930000", "160048.420000", "160049.910000", "160051.400000", "160052.890000", "160054.380000", "160055.870000", "160057.360000", "160058.850000", "160100.340000", "160101.830000", "160103.320000", "160104.810000", "160106.300000", "160107.790000", "160109.280000", "160110.770000", "160112.260000", "160113.750000", "160115.240000", "160116.730000", "160118.220000", "160119.710000", "160121.200000", "160122.690000", "160124.180000", "160125.670000", "160127.160000", "160128.650000", "160130.140000", "160131.630000", "160133.120000", "160134.610000", "160136.100000", "160137.590000", "160139.080000", "160140.570000", "160142.060000", "160143.550000", "160145.040000", "160146.530000", "160148.020000", "160149.510000", "160151.000000", "160152.490000", "160153.980000", "160155.470000", "160156.960000", "160158.450000", "160159.940000", "160201.430000", "160202.920000", "160204.410000", "160205.900000", "160207.390000", "160208.880000", "160210.370000", "160211.860000", "160213.350000", "160214.840000", "160216.330000", "160217.820000", "160219.310000", "160220.800000", "160222.290000", "160223.780000", "160225.270000", "160226.760000", "160228.250000", "160229.740000", "160231.230000", "160232.720000", "160234.210000", "160235.700000", "160237.190000", "160238.680000", "160240.170000", "160241.660000", "160243.150000", "160244.640000", "160246.130000", "160247.620000", "160249.110000", "160250.600000", "160252.090000", "160253.580000", "160255.070000", "160256.560000", "160258.050000", "160259.540000", "160301.030000", "160302.520000", "160304.010000", "160305.500000", "160306.990000", "160308.480000", "160309.970000", "160311.460000", "160312.950000", "160314.440000", "160315.930000", "160317.420000", "160318.910000", "160320.400000", "160321.890000", "160323.380000", "160324.870000", "160326.360000", "160327.850000", "160329.340000", "160330.830000", "160332.320000", "160333.810000", "160335.300000", "160336.790000", "160338.280000", "160339.770000", "160341.260000", "160342.750000", "160344.240000", "160345.730000", "160347.220000", "160348.710000", "160350.200000", "160351.690000", "160353.180000", "160354.670000", "160356.160000", "160357.650000", "160359.140000", "160400.630000", "160402.120000", "160403.610000", "160405.100000", "160406.590000", "160408.080000", "160409.570000", "160411.060000", "160412.550000", "160414.040000"],
      "ContentTime": ["160048.966000", "160048.970000", "160048.973000", "160048.977000", "160048.980000", "160048.983000", "160048.987000", "160048.990000", "160049.003000", "160049.007000", "160049.012000", "160049.022000", "160049.026000", "160049.030000", "160049.033000", "160049.037000", "160049.040000", "160049.044000", "160049.047000", "160049.050000", "160049.054000", "160049.057000", "160108.926000", "160108.930000", "160108.933000", "160108.948000", "160108.951000", "160108.954000", "160108.958000", "160108.961000", "160108.964000", "160108.968000", "160108.971000", "160108.974000", "160108.978000", "160108.981000", "160108.984000", "160108.987000", "160108.991000", "160108.994000", "160108.997000", "160109.002000", "160109.005000", "160128.927000", "160128.931000", "160128.934000", "160128.937000", "160128.941000", "160128.944000", "160128.947000", "160128.950000", "160128.954000", "160128.957000", "160128.961000", "160128.964000", "160128.967000", "160128.970000", "160128.974000", "160128.977000", "160128.980000", "160128.984000", "160128.987000", "160128.990000", "160148.927000", "160148.931000", "160148.934000", "160148.937000", "160148.941000", "160148.944000", "160148.947000", "160148.950000", "160148.954000", "160148.957000", "160148.960000", "160148.963000", "160148.967000", "160148.970000", "160148.973000", "160148.976000", "160148.980000", "160148.983000", "160148.986000", "160148.990000", "160208.927000", "160208.931000", "160208.934000", "160208.937000", "160208.941000", "160208.945000", "160208.948000", "160208.953000", "160208.957000", "160208.961000", "160208.967000", "160208.971000", "160208.975000", "160208.979000", "160208.982000", "160208.986000", "160208.989000", "160208.993000", "160208.996000", "160209.000000", "160248.927000", "160248.931000", "160248.934000", "160248.937000", "160248.941000", "160248.944000", "160248.947000", "160248.951000", "160248.954000", "160248.957000", "160248.961000", "160248.964000", "160248.967000", "160248.970000", "160248.974000", "160248.977000", "160248.980000", "160248.984000", "160248.987000", "160248.990000", "160248.993000", "160248.997000", "160249.001000", "160249.004000", "160249.007000", "160249.027000", "160249.030000", "160249.033000", "160328.926000", "160328.930000", "160328.933000", "160328.936000", "160328.940000", "160328.943000", "160328.946000", "160328.950000", "160328.953000", "160328.957000", "160328.960000", "160328.963000", "160328.966000", "160328.970000", "160328.973000", "160328.976000", "160328.980000", "160328.983000", "160328.986000", "160328.990000", "160328.993000", "160328.996000", "160329.001000", "160329.004000", "160329.007000", "160329.011000", "160329.014000", "160408.927000", "160408.931000", "160408.934000", "160408.937000", "160408.941000", "160408.944000", "160408.947000", "160408.951000", "160408.954000", "160408.957000", "160408.961000", "160408.964000", "160408.967000", "160408.971000", "160408.974000", "160408.977000", "160408.981000", "160408.984000", "160408.987000", "160408.990000", "160408.994000", "160408.997000", "160409.001000", "160409.005000", "160409.008000", "160409.011000", "160409.015000", "160416.138000", "160416.141000", "160416.144000", "160416.148000", "160416.151000"],
      "InstanceCreationTime": ["160048.966000", "160048.970000", "160048.973000", "160048.977000", "160048.980000", "160048.983000", "160048.987000", "160048.990000", "160049.003000", "160049.007000", "160049.012000", "160049.022000", "160049.026000", "160049.030000", "160049.033000", "160049.037000", "160049.040000", "160049.044000", "160049.047000", "160049.050000", "160049.054000", "160049.057000", "160108.926000", "160108.930000", "160108.933000", "160108.948000", "160108.951000", "160108.954000", "160108.958000", "160108.961000", "160108.964000", "160108.968000", "160108.971000", "160108.974000", "160108.978000", "160108.981000", "160108.984000", "160108.987000", "160108.991000", "160108.994000", "160108.997000", "160109.002000", "160109.005000", "160128.927000", "160128.931000", "160128.934000", "160128.937000", "160128.941000", "160128.944000", "160128.947000", "160128.950000", "160128.954000", "160128.957000", "160128.961000", "160128.964000", "160128.967000", "160128.970000", "160128.974000", "160128.977000", "160128.980000", "160128.984000", "160128.987000", "160128.990000", "160148.927000", "160148.931000", "160148.934000", "160148.937000", "160148.941000", "160148.944000", "160148.947000", "160148.950000", "160148.954000", "160148.957000", "160148.960000", "160148.963000", "160148.967000", "160148.970000", "160148.973000", "160148.976000", "160148.980000", "160148.983000", "160148.986000", "160148.990000", "160208.927000", "160208.931000", "160208.934000", "160208.937000", "160208.941000", "160208.945000", "160208.948000", "160208.953000", "160208.957000", "160208.961000", "160208.967000", "160208.971000", "160208.975000", "160208.979000", "160208.982000", "160208.986000", "160208.989000", "160208.993000", "160208.996000", "160209.000000", "160248.927000", "160248.931000", "160248.934000", "160248.937000", "160248.941000", "160248.944000", "160248.947000", "160248.951000", "160248.954000", "160248.957000", "160248.961000", "160248.964000", "160248.967000", "160248.970000", "160248.974000", "160248.977000", "160248.980000", "160248.984000", "160248.987000", "160248.990000", "160248.993000", "160248.997000", "160249.001000", "160249.004000", "160249.007000", "160249.027000", "160249.030000", "160249.033000", "160328.926000", "160328.930000", "160328.933000", "160328.936000", "160328.940000", "160328.943000", "160328.946000", "160328.950000", "160328.953000", "160328.957000", "160328.960000", "160328.963000", "160328.966000", "160328.970000", "160328.973000", "160328.976000", "160328.980000", "160328.983000", "160328.986000", "160328.990000", "160328.993000", "160328.996000", "160329.001000", "160329.004000", "160329.007000", "160329.011000", "160329.014000", "160408.927000", "160408.931000", "160408.934000", "160408.937000", "160408.941000", "160408.944000", "160408.947000", "160408.951000", "160408.954000", "160408.957000", "160408.961000", "160408.964000", "160408.967000", "160408.971000", "160408.974000", "160408.977000", "160408.981000", "160408.984000", "160408.987000", "160408.990000", "160408.994000", "160408.997000", "160409.001000", "160409.005000", "160409.008000", "160409.011000", "160409.015000", "160416.138000", "160416.141000", "160416.144000", "160416.148000", "160416.151000"],
      "InstanceNumber": [1, 2, 3, 4, 5, 6, 7, 8, 9, 10, 11, 12, 13, 14, 15, 16, 17, 18, 19, 20, 21, 22, 23, 24, 25, 26, 27, 28, 29, 30, 31, 32, 33, 34, 35, 36, 37, 38, 39, 40, 41, 42, 43, 44, 45, 46, 47, 48, 49, 50, 51, 52, 53, 54, 55, 56, 57, 58, 59, 60, 61, 62, 63, 64, 65, 66, 67, 68, 69, 70, 71, 72, 73, 74, 75, 76, 77, 78, 79, 80, 81, 82, 83, 84, 85, 86, 87, 88, 89, 90, 91, 92, 93, 94, 95, 96, 97, 98, 99, 100, 101, 102, 103, 104, 105, 106, 107, 108, 109, 110, 111, 112, 113, 114, 115, 116, 117, 118, 119, 120, 121, 122, 123, 124, 125, 126, 127, 128, 129, 130, 131, 132, 133, 134, 135, 136, 137, 138, 139, 140, 141, 142, 143, 144, 145, 146, 147, 148, 149, 150, 151, 152, 153, 154, 155, 156, 157, 158, 159, 160, 161, 162, 163, 164, 165, 166, 167, 168, 169, 170, 171, 172, 173, 174, 175, 176, 177, 178, 179, 180, 181, 182, 183, 184, 185, 186, 187, 188, 189, 190],
      "LargestImagePixelValue": [42678, 40892, 41656, 41143, 40655, 41479, 40805, 40986, 40858, 41050, 40158, 41066, 40544, 39917, 40782, 40225, 39002, 39768, 40798, 40898, 40420, 41208, 40284, 40153, 41069, 40473, 40695, 41302, 40195, 41174, 40549, 41704, 39868, 40636, 41010, 40504, 41353, 40322, 40270, 40495, 40675, 41567, 40790, 41703, 40687, 40510, 40582, 40566, 40819, 41404, 40208, 39968, 41331, 40760, 40527, 40606, 40853, 41025, 40744, 40425, 40508, 39192, 41467, 42434, 40151, 39143, 39403, 40039, 41091, 41695, 40558, 41037, 41934, 40435, 39209, 40115, 40204, 39601, 39938, 41890, 41203, 39983, 39614, 39245, 39418, 39852, 41696, 39968, 40477, 40275, 40187, 38848, 41048, 39183, 38999, 39355, 41146, 41309, 41987, 41963, 39686, 39603, 40238, 41265, 41447, 41883, 41551, 41147, 42301, 41659, 42686, 41931, 41016, 42430, 39969, 39297, 40935, 41544, 41655, 40879, 42042, 41127, 41250, 41113, 41211, 39801, 40252, 40573, 41084, 41223, 41932, 42692, 42236, 41279, 41464, 41831, 42119, 41191, 41545, 41621, 41976, 41803, 41226, 41838, 41963, 41173, 40605, 41036, 41032, 41236, 40658, 41631, 41056, 41720, 40412, 40829, 40768, 40127, 40566, 40856, 41013, 40904, 39797, 40339, 40963, 40603, 40976, 41352, 41511, 41498, 41203, 41576, 40513, 40371, 39860, 40221, 40919, 41051, 40613, 41379, 40380, 41071, 40815, 40075, 41191, 40748, 40048, 40938, 40356, 41513],
      "WindowCenter": [10450.0, 10379.0, 10334.0, 10324.0, 10294.0, 10312.0, 10357.0, 10346.0, 10359.0, 10359.0, 10353.0, 10349.0, 10346.0, 10332.0, 10319.0, 10296.0, 10280.0, 10288.0, 10313.0, 10290.0, 10288.0, 10283.0, 10267.0, 10285.0, 10313.0, 10305.0, 10304.0, 10361.0, 10308.0, 10339.0, 10331.0, 10342.0, 10294.0, 10317.0, 10336.0, 10341.0, 10347.0, 10344.0, 10312.0, 10321.0, 10299.0, 10329.0, 10311.0, 10306.0, 10287.0, 10289.0, 10259.0, 10279.0, 10305.0, 10334.0, 10327.0, 10332.0, 10308.0, 10305.0, 10329.0, 10319.0, 10307.0, 10316.0, 10305.0, 10341.0, 10342.0, 10306.0, 10294.0, 10357.0, 10386.0, 10318.0, 10320.0, 10270.0, 10288.0, 10298.0, 10300.0, 10310.0, 10346.0, 10377.0, 10296.0, 10275.0, 10283.0, 10270.0, 10305.0, 10355.0, 10302.0, 10324.0, 10332.0, 10278.0, 10265.0, 10252.0, 10266.0, 10254.0, 10278.0, 10266.0, 10260.0, 10253.0, 10290.0, 10286.0, 10262.0, 10261.0, 10284.0, 10314.0, 10332.0, 10349.0, 10316.0, 10298.0, 10298.0, 10302.0, 10295.0, 10307.0, 10266.0, 10277.0, 10274.0, 10285.0, 10324.0, 10302.0, 10315.0, 10341.0, 10318.0, 10283.0, 10299.0, 10272.0, 10280.0, 10286.0, 10306.0, 10266.0, 10252.0, 10286.0, 10324.0, 10291.0, 10290.0, 10258.0, 10262.0, 10284.0, 10319.0, 10337.0, 10350.0, 10350.0, 10346.0, 10326.0, 10321.0, 10326.0, 10337.0, 10326.0, 10315.0, 10334.0, 10339.0, 10309.0, 10335.0, 10364.0, 10381.0, 10302.0, 10289.0, 10340.0, 10320.0, 10313.0, 10297.0, 10332.0, 10344.0, 10325.0, 10311.0, 10291.0, 10286.0, 10268.0, 10280.0, 10311.0, 10303.0, 10273.0, 10267.0, 10266.0, 10296.0, 10321.0, 10316.0, 10301.0, 10302.0, 10320.0, 10350.0, 10371.0, 10346.0, 10323.0, 10332.0, 10330.0, 10335.0, 10354.0, 10338.0, 10340.0, 10325.0, 10294.0, 10298.0, 10293.0, 10299.0, 10320.0, 10313.0, 10311.0],
      "WindowWidth": [22617.0, 22412.0, 22279.0, 22243.0, 22164.0, 22196.0, 22306.0, 22276.0, 22307.0, 22302.0, 22290.0, 22267.0, 22260.0, 22228.0, 22195.0, 22147.0, 22117.0, 22132.0, 22189.0, 22131.0, 22132.0, 22116.0, 22081.0, 22123.0, 22187.0, 22171.0, 22170.0, 22306.0, 22174.0, 22243.0, 22229.0, 22255.0, 22143.0, 22193.0, 22235.0, 22250.0, 22265.0, 22262.0, 22187.0, 22209.0, 22153.0, 22220.0, 22183.0, 22168.0, 22130.0, 22138.0, 22066.0, 22106.0, 22170.0, 22236.0, 22224.0, 22237.0, 22176.0, 22168.0, 22225.0, 22204.0, 22175.0, 22198.0, 22172.0, 22254.0, 22258.0, 22184.0, 22138.0, 22287.0, 22371.0, 22210.0, 22216.0, 22092.0, 22129.0, 22145.0, 22156.0, 22179.0, 22263.0, 22349.0, 22161.0, 22110.0, 22130.0, 22094.0, 22175.0, 22286.0, 22161.0, 22217.0, 22246.0, 22115.0, 22086.0, 22050.0, 22074.0, 22059.0, 22122.0, 22085.0, 22068.0, 22053.0, 22128.0, 22132.0, 22074.0, 22069.0, 22109.0, 22179.0, 22219.0, 22265.0, 22198.0, 22151.0, 22147.0, 22149.0, 22134.0, 22167.0, 22065.0, 22093.0, 22086.0, 22113.0, 22199.0, 22154.0, 22189.0, 22241.0, 22197.0, 22122.0, 22150.0, 22082.0, 22097.0, 22117.0, 22166.0, 22076.0, 22035.0, 22120.0, 22205.0, 22139.0, 22137.0, 22062.0, 22064.0, 22113.0, 22186.0, 22227.0, 22264.0, 22269.0, 22256.0, 22208.0, 22189.0, 22206.0, 22238.0, 22208.0, 22181.0, 22225.0, 22244.0, 22167.0, 22231.0, 22308.0, 22351.0, 22160.0, 22125.0, 22249.0, 22208.0, 22183.0, 22148.0, 22225.0, 22258.0, 22212.0, 22182.0, 22138.0, 22126.0, 22084.0, 22106.0, 22176.0, 22173.0, 22098.0, 22077.0, 22076.0, 22143.0, 22201.0, 22190.0, 22157.0, 22161.0, 22201.0, 22274.0, 22326.0, 22274.0, 22217.0, 22232.0, 22225.0, 22238.0, 22278.0, 22245.0, 22245.0, 22213.0, 22147.0, 22151.0, 22140.0, 22161.0, 22206.0, 22188.0, 22178.0]
    },
    "slices": {}
  }
}