{
  "AcquisitionMatrixPE": 104,
  "AcquisitionNumber": 1,
  "AcquisitionTime": "15:40:38.175000",
  "BandwidthPerPixelPhaseEncode": 17.17,
  "BaseResolution": 104,
  "BodyPartExamined": "BRAIN",
  "CoilString": "HC1-7;NC1_2",
  "ConsistencyInfo": "N4_VE11C_LATEST_20160120",
  "ConversionSoftware": "dcm2niix",
  "ConversionSoftwareVersion": "v1.0.20190902",
  "DerivedVendorReportedEchoSpacing": 0.000560011,
  "DeviceSerialNumber": "167006",
  "DwellTime": 2.1e-06,
  "EchoTime": 0.037,
  "EchoTrainLength": 104,
  "EffectiveEchoSpacing": 0.000560011,
  "FlipAngle": 52,
  "ImageComments": "Unaliased_MB4_PE3_LB",
  "ImageOrientationPatientDICOM": [0.998053, -0.0620738, 0.00615982, 0.0610435, 0.951594, -0.301234],
  "ImageType": [
    "ORIGINAL",
    "PRIMARY",
    "P",
    "MB",
    "ND",
    "MOSAIC"
],
  "ImagingFrequency": 123.259,
  "InPlanePhaseEncodingDirectionDICOM": "COL",
  "InstitutionAddress": "Chemin_Queen-Mary_4565_Montreal_District_CA_H3W_1W5",
  "InstitutionName": "IUGM",
  "InstitutionalDepartmentName": "Department",
  "MRAcquisitionType": "2D",
  "MagneticFieldStrength": 3,
  "Manufacturer": "Siemens",
  "ManufacturersModelName": "Prisma_fit",
  "Modality": "MR",
  "MultibandAccelerationFactor": 4,
  "PartialFourier": 1,
  "PatientPosition": "HFS",
  "PercentPhaseFOV": 100,
  "PhaseEncodingDirection": "j",
  "PhaseEncodingSteps": 104,
  "PhaseResolution": 1,
  "PixelBandwidth": 2290,
  "ProcedureStepDescription": "memory_things",
  "ProtocolName": "func_task-things_run-2",
  "PulseSequenceDetails": "%CustomerSeq%_cmrr_mbep2d_bold",
  "ReceiveCoilActiveElements": "HC1-7;NC1,2",
  "ReceiveCoilName": "HeadNeck_64",
  "ReconMatrixPE": 104,
  "RepetitionTime": 1.49,
  "SAR": 0.0485574,
  "ScanOptions": "FS",
  "ScanningSequence": "EP",
  "SequenceName": "epfid2d1_104",
  "SequenceVariant": "SK_SS",
  "SeriesDescription": "func_task-things_run-2",
  "SeriesNumber": 14,
  "ShimSetting": [627, -7266, -8830, 610, -16, -242, 28, -16],
  "SliceThickness": 2,
  "SliceTiming": [0, 0.785, 0.1, 0.8825, 0.1975, 0.98, 0.295, 1.08, 0.3925, 1.1775, 0.49, 1.275, 0.59, 1.3725, 0.6875, 0, 0.785, 0.1, 0.8825, 0.1975, 0.98, 0.295, 1.08, 0.3925, 1.1775, 0.49, 1.275, 0.59, 1.3725, 0.6875, 0, 0.785, 0.1, 0.8825, 0.1975, 0.98, 0.295, 1.08, 0.3925, 1.1775, 0.49, 1.275, 0.59, 1.3725, 0.6875, 0, 0.785, 0.1, 0.8825, 0.1975, 0.98, 0.295, 1.08, 0.3925, 1.1775, 0.49, 1.275, 0.59, 1.3725, 0.6875],
  "SoftwareVersions": "syngo_MR_E11",
  "SpacingBetweenSlices": 2,
  "StationName": "MRC35049",
  "TaskName": "things",
  "TotalReadoutTime": 0.0576811,
  "TxRefAmp": 253.695,
  "WipMemBlock": "9b3b68c6-7f20-4886-8876-15fec6127d5e||Sequence: R016 ve11c/master r/e634e98; Dec 19 2017 11:00:25 by eja",
  "dcmmeta_affine": [
    [-1.9961050748825073, 0.12208699434995651, -0.025674207136034966, 100.77287292480469],
    [0.12414759397506714, 1.9031885862350464, -0.6020472049713135, -74.48480987548828],
    [0.012319637462496758, 0.6024684309959412, 1.9070606231689453, -64.40814208984375],
    [0.0, 0.0, 0.0, 1.0]
],
  "dcmmeta_reorient_transform": [
    [0.0, -1.0, 0.0, 103.0],
    [1.0, 0.0, 0.0, 0.0],
    [0.0, 0.0, 1.0, 0.0],
    [0.0, 0.0, 0.0, 1.0]
],
  "dcmmeta_shape": [104, 104, 60, 190],
  "dcmmeta_slice_dim": 2,
  "dcmmeta_version": 0.6,
  "global": {
    "const": {
      "AcquisitionMatrix": [104, 0, 0, 104],
      "AngioFlag": "N",
      "BitsAllocated": 16,
      "BitsStored": 16,
      "BodyPartExamined": "BRAIN",
      "Columns": 832,
      "EchoNumbers": 1,
      "EchoTime": 37.0,
      "EchoTrainLength": 104,
      "FlipAngle": 52.0,
      "HighBit": 15,
      "ImageOrientationPatient": [0.99805255387841, -0.0620737974434, 0.0061598188082, 0.06104349664093, 0.95159426368244, -0.3012342092866],
      "ImagePositionPatient": [-884.36976134693, -769.11451141614, 212.46026308677],
      "ImageType": [
        "ORIGINAL",
        "PRIMARY",
        "P",
        "MB",
        "ND",
        "MOSAIC"
],
      "ImagedNucleus": "1H",
      "ImagingFrequency": 123.258926,
      "InPlanePhaseEncodingDirection": "COL",
      "LargestImagePixelValue": 4095,
      "MRAcquisitionType": "2D",
      "MagneticFieldStrength": 3.0,
      "Manufacturer": "SIEMENS",
      "ManufacturerModelName": "Prisma_fit",
      "Modality": "MR",
      "NumberOfAverages": 1.0,
      "NumberOfPhaseEncodingSteps": 104,
      "PercentPhaseFieldOfView": 100.0,
      "PercentSampling": 100.0,
      "PerformedProcedureStepStartTime": "145852.389000",
      "PhotometricInterpretation": "MONOCHROME2",
      "PixelBandwidth": 2290.0,
      "PixelRepresentation": 0,
      "PixelSpacing": [2.0, 2.0],
      "ProtocolName": "func_task-things_run-2",
      "RepetitionTime": 1490.0,
      "RescaleIntercept": -4096.0,
      "RescaleSlope": 2.0,
      "RescaleType": "US",
      "Rows": 832,
      "SAR": 0.04855742421757,
      "SamplesPerPixel": 1,
      "ScanOptions": "FS",
      "ScanningSequence": "EP",
      "SequenceName": "epfid2d1_104",
      "SequenceVariant": [
        "SK",
        "SS"
],
      "SeriesDescription": "func_task-things_run-2",
      "SeriesNumber": 14,
      "SeriesTime": "154149.063000",
      "SliceLocation": -40.287060573455,
      "SliceThickness": 2.0,
      "SmallestImagePixelValue": 0,
      "SoftwareVersions": "syngo MR E11",
      "SpacingBetweenSlices": 2.0000000113153,
      "SpecificCharacterSet": "ISO_IR 100",
      "StudyID": "1",
      "StudyTime": "145852.325000",
      "TransmitCoilName": "Body",
      "VariableFlipAngleFlag": "N",
      "WindowCenterWidthExplanation": "Algo1",
      "dBdt": 0.0},
    "slices": {}
  },
  "time": {
    "samples": {
      "AcquisitionNumber": [1, 2, 3, 4, 5, 6, 7, 8, 9, 10, 11, 12, 13, 14, 15, 16, 17, 18, 19, 20, 21, 22, 23, 24, 25, 26, 27, 28, 29, 30, 31, 32, 33, 34, 35, 36, 37, 38, 39, 40, 41, 42, 43, 44, 45, 46, 47, 48, 49, 50, 51, 52, 53, 54, 55, 56, 57, 58, 59, 60, 61, 62, 63, 64, 65, 66, 67, 68, 69, 70, 71, 72, 73, 74, 75, 76, 77, 78, 79, 80, 81, 82, 83, 84, 85, 86, 87, 88, 89, 90, 91, 92, 93, 94, 95, 96, 97, 98, 99, 100, 101, 102, 103, 104, 105, 106, 107, 108, 109, 110, 111, 112, 113, 114, 115, 116, 117, 118, 119, 120, 121, 122, 123, 124, 125, 126, 127, 128, 129, 130, 131, 132, 133, 134, 135, 136, 137, 138, 139, 140, 141, 142, 143, 144, 145, 146, 147, 148, 149, 150, 151, 152, 153, 154, 155, 156, 157, 158, 159, 160, 161, 162, 163, 164, 165, 166, 167, 168, 169, 170, 171, 172, 173, 174, 175, 176, 177, 178, 179, 180, 181, 182, 183, 184, 185, 186, 187, 188, 189, 190],
      "AcquisitionTime": ["154038.175000", "154039.665000", "154041.155000", "154042.645000", "154044.135000", "154045.625000", "154047.115000", "154048.605000", "154050.095000", "154051.585000", "154053.075000", "154054.565000", "154056.055000", "154057.545000", "154059.035000", "154100.525000", "154102.015000", "154103.505000", "154104.995000", "154106.485000", "154107.975000", "154109.465000", "154110.955000", "154112.445000", "154113.935000", "154115.425000", "154116.915000", "154118.405000", "154119.895000", "154121.385000", "154122.875000", "154124.365000", "154125.855000", "154127.345000", "154128.835000", "154130.325000", "154131.815000", "154133.305000", "154134.795000", "154136.285000", "154137.775000", "154139.265000", "154140.755000", "154142.245000", "154143.735000", "154145.225000", "154146.715000", "154148.205000", "154149.695000", "154151.185000", "154152.675000", "154154.165000", "154155.655000", "154157.145000", "154158.635000", "154200.125000", "154201.615000", "154203.105000", "154204.595000", "154206.085000", "154207.575000", "154209.065000", "154210.555000", "154212.045000", "154213.535000", "154215.025000", "154216.515000", "154218.005000", "154219.495000", "154220.985000", "154222.475000", "154223.965000", "154225.455000", "154226.945000", "154228.435000", "154229.925000", "154231.415000", "154232.905000", "154234.395000", "154235.885000", "154237.375000", "154238.865000", "154240.355000", "154241.845000", "154243.335000", "154244.825000", "154246.315000", "154247.805000", "154249.295000", "154250.785000", "154252.275000", "154253.765000", "154255.255000", "154256.745000", "154258.235000", "154259.725000", "154301.215000", "154302.705000", "154304.195000", "154305.685000", "154307.175000", "154308.665000", "154310.155000", "154311.645000", "154313.135000", "154314.625000", "154316.115000", "154317.605000", "154319.095000", "154320.585000", "154322.075000", "154323.565000", "154325.055000", "154326.545000", "154328.035000", "154329.525000", "154331.015000", "154332.505000", "154333.995000", "154335.485000", "154336.975000", "154338.465000", "154339.955000", "154341.445000", "154342.935000", "154344.425000", "154345.915000", "154347.405000", "154348.895000", "154350.385000", "154351.875000", "154353.365000", "154354.855000", "154356.345000", "154357.835000", "154359.325000", "154400.815000", "154402.305000", "154403.795000", "154405.285000", "154406.775000", "154408.265000", "154409.755000", "154411.245000", "154412.735000", "154414.225000", "154415.715000", "154417.205000", "154418.695000", "154420.185000", "154421.675000", "154423.165000", "154424.655000", "154426.145000", "154427.635000", "154429.125000", "154430.615000", "154432.105000", "154433.595000", "154435.085000", "154436.575000", "154438.065000", "154439.555000", "154441.045000", "154442.535000", "154444.025000", "154445.515000", "154447.005000", "154448.495000", "154449.985000", "154451.475000", "154452.965000", "154454.455000", "154455.945000", "154457.435000", "154458.925000", "154500.415000", "154501.905000", "154503.395000", "154504.885000", "154506.375000", "154507.865000", "154509.355000", "154510.845000", "154512.335000", "154513.825000", "154515.315000", "154516.805000", "154518.295000", "154519.785000"],
      "ContentTime": ["154149.065000", "154149.067000", "154149.070000", "154149.072000", "154149.075000", "154149.077000", "154149.080000", "154149.082000", "154149.085000", "154149.087000", "154149.090000", "154149.092000", "154149.095000", "154149.097000", "154149.108000", "154149.111000", "154149.113000", "154209.027000", "154209.030000", "154209.033000", "154209.035000", "154209.038000", "154209.040000", "154209.043000", "154209.045000", "154209.047000", "154209.050000", "154209.052000", "154209.055000", "154209.057000", "154209.060000", "154209.062000", "154209.065000", "154209.067000", "154209.069000", "154209.072000", "154209.074000", "154229.048000", "154229.051000", "154229.053000", "154229.056000", "154229.058000", "154229.061000", "154229.063000", "154229.066000", "154229.068000", "154229.070000", "154229.073000", "154229.075000", "154229.078000", "154229.080000", "154229.083000", "154229.085000", "154229.088000", "154229.090000", "154229.093000", "154229.096000", "154249.047000", "154249.050000", "154249.052000", "154249.055000", "154249.057000", "154249.060000", "154249.062000", "154249.065000", "154249.067000", "154249.070000", "154249.072000", "154249.074000", "154249.077000", "154249.080000", "154249.082000", "154249.084000", "154249.087000", "154249.090000", "154249.092000", "154249.094000", "154309.047000", "154309.050000", "154309.052000", "154309.055000", "154309.057000", "154309.060000", "154309.063000", "154309.065000", "154309.068000", "154309.077000", "154309.080000", "154309.082000", "154309.085000", "154309.087000", "154309.090000", "154309.092000", "154309.095000", "154309.097000", "154309.100000", "154309.102000", "154309.105000", "154349.084000", "154349.086000", "154349.089000", "154349.091000", "154349.094000", "154349.096000", "154349.099000", "154349.101000", "154349.104000", "154349.106000", "154349.109000", "154349.111000", "154349.114000", "154349.116000", "154349.118000", "154349.121000", "154349.124000", "154349.126000", "154349.128000", "154349.131000", "154349.133000", "154349.136000", "154349.138000", "154349.141000", "154349.143000", "154349.146000", "154349.148000", "154349.151000", "154349.153000", "154429.056000", "154429.059000", "154429.062000", "154429.064000", "154429.067000", "154429.069000", "154429.072000", "154429.074000", "154429.077000", "154429.079000", "154429.082000", "154429.084000", "154429.087000", "154429.100000", "154429.103000", "154429.105000", "154429.108000", "154429.110000", "154429.113000", "154429.115000", "154429.118000", "154429.120000", "154429.123000", "154429.125000", "154429.128000", "154429.130000", "154429.133000", "154509.514000", "154509.517000", "154509.519000", "154509.522000", "154509.524000", "154509.527000", "154509.529000", "154509.532000", "154509.534000", "154509.537000", "154509.539000", "154509.542000", "154509.544000", "154509.548000", "154509.550000", "154509.553000", "154509.555000", "154509.558000", "154509.560000", "154509.563000", "154509.565000", "154509.568000", "154509.570000", "154509.573000", "154509.575000", "154509.578000", "154509.580000", "154522.360000", "154522.363000", "154522.365000", "154522.368000", "154522.370000", "154522.373000", "154522.375000", "154522.378000", "154522.380000"],
      "InstanceCreationTime": ["154149.065000", "154149.067000", "154149.070000", "154149.072000", "154149.075000", "154149.077000", "154149.080000", "154149.082000", "154149.085000", "154149.087000", "154149.090000", "154149.092000", "154149.095000", "154149.097000", "154149.108000", "154149.111000", "154149.113000", "154209.027000", "154209.030000", "154209.033000", "154209.035000", "154209.038000", "154209.040000", "154209.043000", "154209.045000", "154209.047000", "154209.050000", "154209.052000", "154209.055000", "154209.057000", "154209.060000", "154209.062000", "154209.065000", "154209.067000", "154209.069000", "154209.072000", "154209.074000", "154229.048000", "154229.051000", "154229.053000", "154229.056000", "154229.058000", "154229.061000", "154229.063000", "154229.066000", "154229.068000", "154229.070000", "154229.073000", "154229.075000", "154229.078000", "154229.080000", "154229.083000", "154229.085000", "154229.088000", "154229.090000", "154229.093000", "154229.096000", "154249.047000", "154249.050000", "154249.052000", "154249.055000", "154249.057000", "154249.060000", "154249.062000", "154249.065000", "154249.067000", "154249.070000", "154249.072000", "154249.074000", "154249.077000", "154249.080000", "154249.082000", "154249.084000", "154249.087000", "154249.090000", "154249.092000", "154249.094000", "154309.047000", "154309.050000", "154309.052000", "154309.055000", "154309.057000", "154309.060000", "154309.063000", "154309.065000", "154309.068000", "154309.077000", "154309.080000", "154309.082000", "154309.085000", "154309.087000", "154309.090000", "154309.092000", "154309.095000", "154309.097000", "154309.100000", "154309.102000", "154309.105000", "154349.084000", "154349.086000", "154349.089000", "154349.091000", "154349.094000", "154349.096000", "154349.099000", "154349.101000", "154349.104000", "154349.106000", "154349.109000", "154349.111000", "154349.114000", "154349.116000", "154349.118000", "154349.121000", "154349.124000", "154349.126000", "154349.128000", "154349.131000", "154349.133000", "154349.136000", "154349.138000", "154349.141000", "154349.143000", "154349.146000", "154349.148000", "154349.151000", "154349.153000", "154429.056000", "154429.059000", "154429.062000", "154429.064000", "154429.067000", "154429.069000", "154429.072000", "154429.074000", "154429.077000", "154429.079000", "154429.082000", "154429.084000", "154429.087000", "154429.100000", "154429.103000", "154429.105000", "154429.108000", "154429.110000", "154429.113000", "154429.115000", "154429.118000", "154429.120000", "154429.123000", "154429.125000", "154429.128000", "154429.130000", "154429.133000", "154509.514000", "154509.517000", "154509.519000", "154509.522000", "154509.524000", "154509.527000", "154509.529000", "154509.532000", "154509.534000", "154509.537000", "154509.539000", "154509.542000", "154509.544000", "154509.548000", "154509.550000", "154509.553000", "154509.555000", "154509.558000", "154509.560000", "154509.563000", "154509.565000", "154509.568000", "154509.570000", "154509.573000", "154509.575000", "154509.578000", "154509.580000", "154522.360000", "154522.363000", "154522.365000", "154522.368000", "154522.370000", "154522.373000", "154522.375000", "154522.378000", "154522.380000"],
      "InstanceNumber": [1, 2, 3, 4, 5, 6, 7, 8, 9, 10, 11, 12, 13, 14, 15, 16, 17, 18, 19, 20, 21, 22, 23, 24, 25, 26, 27, 28, 29, 30, 31, 32, 33, 34, 35, 36, 37, 38, 39, 40, 41, 42, 43, 44, 45, 46, 47, 48, 49, 50, 51, 52, 53, 54, 55, 56, 57, 58, 59, 60, 61, 62, 63, 64, 65, 66, 67, 68, 69, 70, 71, 72, 73, 74, 75, 76, 77, 78, 79, 80, 81, 82, 83, 84, 85, 86, 87, 88, 89, 90, 91, 92, 93, 94, 95, 96, 97, 98, 99, 100, 101, 102, 103, 104, 105, 106, 107, 108, 109, 110, 111, 112, 113, 114, 115, 116, 117, 118, 119, 120, 121, 122, 123, 124, 125, 126, 127, 128, 129, 130, 131, 132, 133, 134, 135, 136, 137, 138, 139, 140, 141, 142, 143, 144, 145, 146, 147, 148, 149, 150, 151, 152, 153, 154, 155, 156, 157, 158, 159, 160, 161, 162, 163, 164, 165, 166, 167, 168, 169, 170, 171, 172, 173, 174, 175, 176, 177, 178, 179, 180, 181, 182, 183, 184, 185, 186, 187, 188, 189, 190],
      "WindowCenter": [4792.0, 4794.0, 4784.0, 4784.0, 4820.0, 4816.0, 4786.0, 4784.0, 4796.0, 4822.0, 4796.0, 4790.0, 4784.0, 4782.0, 4786.0, 4786.0, 4782.0, 4788.0, 4796.0, 4826.0, 4792.0, 4788.0, 4784.0, 4788.0, 4784.0, 4784.0, 4782.0, 4788.0, 4790.0, 4792.0, 4790.0, 4794.0, 4798.0, 4790.0, 4790.0, 4784.0, 4790.0, 4792.0, 4788.0, 4786.0, 4768.0, 4786.0, 4788.0, 4790.0, 4792.0, 4794.0, 4796.0, 4788.0, 4796.0, 4790.0, 4790.0, 4792.0, 4854.0, 4830.0, 4788.0, 4788.0, 4786.0, 4786.0, 4786.0, 4786.0, 4790.0, 4802.0, 4826.0, 4798.0, 4792.0, 4762.0, 4788.0, 4782.0, 4786.0, 4784.0, 4790.0, 4784.0, 4788.0, 4800.0, 4790.0, 4794.0, 4796.0, 4786.0, 4786.0, 4788.0, 4788.0, 4790.0, 4794.0, 4794.0, 4796.0, 4796.0, 4788.0, 4792.0, 4784.0, 4788.0, 4784.0, 4792.0, 4762.0, 4788.0, 4794.0, 4788.0, 4786.0, 4792.0, 4788.0, 4790.0, 4790.0, 4788.0, 4790.0, 4790.0, 4790.0, 4796.0, 4786.0, 4794.0, 4788.0, 4786.0, 4796.0, 4792.0, 4786.0, 4782.0, 4794.0, 4790.0, 4788.0, 4794.0, 4796.0, 4788.0, 4790.0, 4786.0, 4790.0, 4794.0, 4784.0, 4784.0, 4788.0, 4788.0, 4790.0, 4786.0, 4794.0, 4796.0, 4792.0, 4786.0, 4790.0, 4790.0, 4784.0, 4786.0, 4786.0, 4798.0, 4796.0, 4786.0, 4784.0, 4786.0, 4786.0, 4786.0, 4786.0, 4792.0, 4794.0, 4790.0, 4792.0, 4784.0, 4786.0, 4786.0, 4760.0, 4784.0, 4786.0, 4792.0, 4768.0, 4826.0, 4794.0, 4786.0, 4786.0, 4784.0, 4784.0, 4784.0, 4786.0, 4790.0, 4764.0, 4792.0, 4794.0, 4788.0, 4786.0, 4792.0, 4796.0, 4762.0, 4786.0, 4760.0, 4784.0, 4784.0, 4790.0, 4792.0, 4790.0, 4796.0, 4792.0, 4792.0, 4788.0, 4762.0, 4784.0, 4762.0],
      "WindowWidth": [18548.0, 18542.0, 18548.0, 18558.0, 18584.0, 18590.0, 18554.0, 18560.0, 18548.0, 18580.0, 18540.0, 18544.0, 18546.0, 18554.0, 18550.0, 18550.0, 18540.0, 18542.0, 18544.0, 18584.0, 18544.0, 18546.0, 18550.0, 18544.0, 18548.0, 18552.0, 18544.0, 18546.0, 18540.0, 18542.0, 18538.0, 18536.0, 18546.0, 18542.0, 18544.0, 18546.0, 18554.0, 18546.0, 18542.0, 18550.0, 18508.0, 18544.0, 18538.0, 18552.0, 18548.0, 18538.0, 18546.0, 18534.0, 18544.0, 18542.0, 18546.0, 18542.0, 18612.0, 18588.0, 18536.0, 18558.0, 18566.0, 18552.0, 18552.0, 18538.0, 18542.0, 18548.0, 18586.0, 18540.0, 18538.0, 18508.0, 18536.0, 18554.0, 18566.0, 18538.0, 18540.0, 18538.0, 18544.0, 18546.0, 18540.0, 18540.0, 18550.0, 18544.0, 18552.0, 18544.0, 18542.0, 18540.0, 18546.0, 18546.0, 18546.0, 18544.0, 18544.0, 18542.0, 18542.0, 18546.0, 18542.0, 18542.0, 18506.0, 18542.0, 18544.0, 18540.0, 18544.0, 18544.0, 18546.0, 18542.0, 18546.0, 18550.0, 18544.0, 18546.0, 18542.0, 18542.0, 18536.0, 18536.0, 18550.0, 18542.0, 18536.0, 18540.0, 18550.0, 18548.0, 18542.0, 18542.0, 18546.0, 18544.0, 18548.0, 18542.0, 18540.0, 18542.0, 18540.0, 18542.0, 18542.0, 18550.0, 18546.0, 18540.0, 18544.0, 18540.0, 18544.0, 18546.0, 18546.0, 18542.0, 18538.0, 18546.0, 18542.0, 18546.0, 18546.0, 18544.0, 18546.0, 18542.0, 18546.0, 18552.0, 18540.0, 18542.0, 18538.0, 18538.0, 18544.0, 18542.0, 18544.0, 18546.0, 18544.0, 18538.0, 18518.0, 18548.0, 18548.0, 18542.0, 18510.0, 18586.0, 18546.0, 18540.0, 18546.0, 18548.0, 18542.0, 18552.0, 18542.0, 18546.0, 18512.0, 18544.0, 18540.0, 18536.0, 18540.0, 18544.0, 18544.0, 18508.0, 18548.0, 18514.0, 18544.0, 18546.0, 18548.0, 18544.0, 18544.0, 18546.0, 18540.0, 18546.0, 18544.0, 18516.0, 18548.0, 18516.0]
    },
    "slices": {}
  }
}