{
  "AcquisitionMatrixPE": 104,
  "AcquisitionNumber": 1,
  "AcquisitionTime": "15:53:3.427500",
  "BandwidthPerPixelPhaseEncode": 17.17,
  "BaseResolution": 104,
  "BodyPartExamined": "BRAIN",
  "CoilString": "HC1-7;NC1_2",
  "ConsistencyInfo": "N4_VE11C_LATEST_20160120",
  "ConversionSoftware": "dcm2niix",
  "ConversionSoftwareVersion": "v1.0.20190902",
  "DerivedVendorReportedEchoSpacing": 0.000560011,
  "DeviceSerialNumber": "167006",
  "DwellTime": 2.1e-06,
  "EchoTime": 0.037,
  "EchoTrainLength": 104,
  "EffectiveEchoSpacing": 0.000560011,
  "FlipAngle": 52,
  "ImageComments": "Unaliased_MB4_PE3_LB",
  "ImageOrientationPatientDICOM": [0.998053, -0.0620738, 0.00615982, 0.0610435, 0.951594, -0.301234],
  "ImageType": [
    "ORIGINAL",
    "PRIMARY",
    "P",
    "MB",
    "ND",
    "MOSAIC"
],
  "ImagingFrequency": 123.259,
  "InPlanePhaseEncodingDirectionDICOM": "COL",
  "InstitutionAddress": "Chemin_Queen-Mary_4565_Montreal_District_CA_H3W_1W5",
  "InstitutionName": "IUGM",
  "InstitutionalDepartmentName": "Department",
  "MRAcquisitionType": "2D",
  "MagneticFieldStrength": 3,
  "Manufacturer": "Siemens",
  "ManufacturersModelName": "Prisma_fit",
  "Modality": "MR",
  "MultibandAccelerationFactor": 4,
  "PartialFourier": 1,
  "PatientPosition": "HFS",
  "PercentPhaseFOV": 100,
  "PhaseEncodingDirection": "j",
  "PhaseEncodingSteps": 104,
  "PhaseResolution": 1,
  "PixelBandwidth": 2290,
  "ProcedureStepDescription": "memory_things",
  "ProtocolName": "func_task-things_run-4",
  "PulseSequenceDetails": "%CustomerSeq%_cmrr_mbep2d_bold",
  "ReceiveCoilActiveElements": "HC1-7;NC1,2",
  "ReceiveCoilName": "HeadNeck_64",
  "ReconMatrixPE": 104,
  "RepetitionTime": 1.49,
  "SAR": 0.0485574,
  "ScanOptions": "FS",
  "ScanningSequence": "EP",
  "SequenceName": "epfid2d1_104",
  "SequenceVariant": "SK_SS",
  "SeriesDescription": "func_task-things_run-4",
  "SeriesNumber": 20,
  "ShimSetting": [627, -7266, -8830, 610, -16, -242, 28, -16],
  "SliceThickness": 2,
  "SliceTiming": [0, 0.7825, 0.0975, 0.88, 0.195, 0.98, 0.2925, 1.0775, 0.39, 1.175, 0.49, 1.2725, 0.5875, 1.37, 0.685, 0, 0.7825, 0.0975, 0.88, 0.195, 0.98, 0.2925, 1.0775, 0.39, 1.175, 0.49, 1.2725, 0.5875, 1.37, 0.685, 0, 0.7825, 0.0975, 0.88, 0.195, 0.98, 0.2925, 1.0775, 0.39, 1.175, 0.49, 1.2725, 0.5875, 1.37, 0.685, 0, 0.7825, 0.0975, 0.88, 0.195, 0.98, 0.2925, 1.0775, 0.39, 1.175, 0.49, 1.2725, 0.5875, 1.37, 0.685],
  "SoftwareVersions": "syngo_MR_E11",
  "SpacingBetweenSlices": 2,
  "StationName": "MRC35049",
  "TaskName": "things",
  "TotalReadoutTime": 0.0576811,
  "TxRefAmp": 253.695,
  "WipMemBlock": "78e207a9-5421-4d4e-ab27-9930bc260509||Sequence: R016 ve11c/master r/e634e98; Dec 19 2017 11:00:25 by eja",
  "dcmmeta_affine": [
    [-1.9961050748825073, 0.12208699434995651, -0.025674207136034966, 100.77287292480469],
    [0.12414759397506714, 1.9031885862350464, -0.6020472049713135, -74.48480987548828],
    [0.012319637462496758, 0.6024684309959412, 1.9070606231689453, -64.40814208984375],
    [0.0, 0.0, 0.0, 1.0]
],
  "dcmmeta_reorient_transform": [
    [0.0, -1.0, 0.0, 103.0],
    [1.0, 0.0, 0.0, 0.0],
    [0.0, 0.0, 1.0, 0.0],
    [0.0, 0.0, 0.0, 1.0]
],
  "dcmmeta_shape": [104, 104, 60, 190],
  "dcmmeta_slice_dim": 2,
  "dcmmeta_version": 0.6,
  "global": {
    "const": {
      "AcquisitionMatrix": [104, 0, 0, 104],
      "AngioFlag": "N",
      "BitsAllocated": 16,
      "BitsStored": 16,
      "BodyPartExamined": "BRAIN",
      "Columns": 832,
      "EchoNumbers": 1,
      "EchoTime": 37.0,
      "EchoTrainLength": 104,
      "FlipAngle": 52.0,
      "HighBit": 15,
      "ImageOrientationPatient": [0.99805255387841, -0.0620737974434, 0.0061598188082, 0.06104349664093, 0.95159426368244, -0.3012342092866],
      "ImagePositionPatient": [-884.36976134693, -769.11451141614, 212.46026308677],
      "ImageType": [
        "ORIGINAL",
        "PRIMARY",
        "P",
        "MB",
        "ND",
        "MOSAIC"
],
      "ImagedNucleus": "1H",
      "ImagingFrequency": 123.258933,
      "InPlanePhaseEncodingDirection": "COL",
      "LargestImagePixelValue": 4095,
      "MRAcquisitionType": "2D",
      "MagneticFieldStrength": 3.0,
      "Manufacturer": "SIEMENS",
      "ManufacturerModelName": "Prisma_fit",
      "Modality": "MR",
      "NumberOfAverages": 1.0,
      "NumberOfPhaseEncodingSteps": 104,
      "PercentPhaseFieldOfView": 100.0,
      "PercentSampling": 100.0,
      "PerformedProcedureStepStartTime": "145852.389000",
      "PhotometricInterpretation": "MONOCHROME2",
      "PixelBandwidth": 2290.0,
      "PixelRepresentation": 0,
      "PixelSpacing": [2.0, 2.0],
      "ProtocolName": "func_task-things_run-4",
      "RepetitionTime": 1490.0,
      "RescaleIntercept": -4096.0,
      "RescaleSlope": 2.0,
      "RescaleType": "US",
      "Rows": 832,
      "SAR": 0.04855742421757,
      "SamplesPerPixel": 1,
      "ScanOptions": "FS",
      "ScanningSequence": "EP",
      "SequenceName": "epfid2d1_104",
      "SequenceVariant": [
        "SK",
        "SS"
],
      "SeriesDescription": "func_task-things_run-4",
      "SeriesNumber": 20,
      "SeriesTime": "155430.218000",
      "SliceLocation": -40.287060573455,
      "SliceThickness": 2.0,
      "SmallestImagePixelValue": 0,
      "SoftwareVersions": "syngo MR E11",
      "SpacingBetweenSlices": 2.0000000113153,
      "SpecificCharacterSet": "ISO_IR 100",
      "StudyID": "1",
      "StudyTime": "145852.325000",
      "TransmitCoilName": "Body",
      "VariableFlipAngleFlag": "N",
      "WindowCenterWidthExplanation": "Algo1",
      "dBdt": 0.0},
    "slices": {}
  },
  "time": {
    "samples": {
      "AcquisitionNumber": [1, 2, 3, 4, 5, 6, 7, 8, 9, 10, 11, 12, 13, 14, 15, 16, 17, 18, 19, 20, 21, 22, 23, 24, 25, 26, 27, 28, 29, 30, 31, 32, 33, 34, 35, 36, 37, 38, 39, 40, 41, 42, 43, 44, 45, 46, 47, 48, 49, 50, 51, 52, 53, 54, 55, 56, 57, 58, 59, 60, 61, 62, 63, 64, 65, 66, 67, 68, 69, 70, 71, 72, 73, 74, 75, 76, 77, 78, 79, 80, 81, 82, 83, 84, 85, 86, 87, 88, 89, 90, 91, 92, 93, 94, 95, 96, 97, 98, 99, 100, 101, 102, 103, 104, 105, 106, 107, 108, 109, 110, 111, 112, 113, 114, 115, 116, 117, 118, 119, 120, 121, 122, 123, 124, 125, 126, 127, 128, 129, 130, 131, 132, 133, 134, 135, 136, 137, 138, 139, 140, 141, 142, 143, 144, 145, 146, 147, 148, 149, 150, 151, 152, 153, 154, 155, 156, 157, 158, 159, 160, 161, 162, 163, 164, 165, 166, 167, 168, 169, 170, 171, 172, 173, 174, 175, 176, 177, 178, 179, 180, 181, 182, 183, 184, 185, 186, 187, 188, 189, 190],
      "AcquisitionTime": ["155303.427500", "155304.917500", "155306.407500", "155307.897500", "155309.387500", "155310.877500", "155312.367500", "155313.857500", "155315.347500", "155316.837500", "155318.327500", "155319.817500", "155321.307500", "155322.797500", "155324.287500", "155325.777500", "155327.267500", "155328.757500", "155330.247500", "155331.737500", "155333.227500", "155334.717500", "155336.207500", "155337.697500", "155339.187500", "155340.677500", "155342.167500", "155343.657500", "155345.147500", "155346.637500", "155348.127500", "155349.617500", "155351.107500", "155352.597500", "155354.087500", "155355.577500", "155357.067500", "155358.557500", "155400.047500", "155401.537500", "155403.027500", "155404.517500", "155406.007500", "155407.497500", "155408.987500", "155410.477500", "155411.967500", "155413.457500", "155414.947500", "155416.437500", "155417.927500", "155419.417500", "155420.907500", "155422.397500", "155423.887500", "155425.377500", "155426.867500", "155428.357500", "155429.847500", "155431.337500", "155432.827500", "155434.317500", "155435.807500", "155437.297500", "155438.787500", "155440.277500", "155441.767500", "155443.257500", "155444.747500", "155446.237500", "155447.727500", "155449.217500", "155450.707500", "155452.197500", "155453.687500", "155455.177500", "155456.667500", "155458.157500", "155459.647500", "155501.137500", "155502.627500", "155504.117500", "155505.607500", "155507.097500", "155508.587500", "155510.077500", "155511.567500", "155513.057500", "155514.547500", "155516.037500", "155517.527500", "155519.017500", "155520.507500", "155521.997500", "155523.487500", "155524.977500", "155526.467500", "155527.957500", "155529.447500", "155530.937500", "155532.427500", "155533.917500", "155535.407500", "155536.897500", "155538.387500", "155539.877500", "155541.367500", "155542.857500", "155544.347500", "155545.837500", "155547.327500", "155548.817500", "155550.307500", "155551.797500", "155553.287500", "155554.777500", "155556.267500", "155557.757500", "155559.247500", "155600.737500", "155602.227500", "155603.717500", "155605.207500", "155606.697500", "155608.187500", "155609.677500", "155611.167500", "155612.657500", "155614.147500", "155615.637500", "155617.127500", "155618.617500", "155620.107500", "155621.597500", "155623.087500", "155624.577500", "155626.067500", "155627.557500", "155629.047500", "155630.537500", "155632.027500", "155633.517500", "155635.007500", "155636.497500", "155637.987500", "155639.477500", "155640.967500", "155642.457500", "155643.947500", "155645.437500", "155646.927500", "155648.417500", "155649.907500", "155651.397500", "155652.887500", "155654.377500", "155655.867500", "155657.357500", "155658.847500", "155700.337500", "155701.827500", "155703.317500", "155704.807500", "155706.297500", "155707.787500", "155709.277500", "155710.767500", "155712.257500", "155713.747500", "155715.237500", "155716.727500", "155718.217500", "155719.707500", "155721.197500", "155722.687500", "155724.177500", "155725.667500", "155727.157500", "155728.647500", "155730.137500", "155731.627500", "155733.117500", "155734.607500", "155736.097500", "155737.587500", "155739.077500", "155740.567500", "155742.057500", "155743.547500", "155745.037500"],
      "ContentTime": ["155430.220000", "155430.223000", "155430.225000", "155430.228000", "155430.237000", "155430.240000", "155430.242000", "155430.245000", "155430.247000", "155430.250000", "155430.252000", "155430.255000", "155430.257000", "155430.260000", "155430.262000", "155430.265000", "155430.267000", "155430.276000", "155430.279000", "155430.281000", "155430.284000", "155430.286000", "155430.289000", "155430.291000", "155430.294000", "155430.296000", "155430.298000", "155430.301000", "155430.303000", "155430.306000", "155430.308000", "155430.311000", "155430.313000", "155450.115000", "155450.118000", "155450.120000", "155450.123000", "155450.125000", "155450.128000", "155450.130000", "155450.133000", "155450.135000", "155450.137000", "155450.140000", "155450.143000", "155450.145000", "155450.148000", "155450.150000", "155450.153000", "155450.155000", "155450.158000", "155450.160000", "155450.163000", "155510.115000", "155510.118000", "155510.121000", "155510.124000", "155510.127000", "155510.129000", "155510.132000", "155510.134000", "155510.137000", "155510.139000", "155510.142000", "155510.144000", "155510.147000", "155510.149000", "155510.152000", "155510.154000", "155510.157000", "155510.159000", "155510.162000", "155510.164000", "155530.113000", "155530.116000", "155530.118000", "155530.120000", "155530.123000", "155530.125000", "155530.128000", "155530.130000", "155530.133000", "155530.136000", "155530.138000", "155530.140000", "155530.143000", "155530.145000", "155530.148000", "155530.150000", "155530.153000", "155530.155000", "155530.158000", "155530.160000", "155530.163000", "155610.155000", "155610.158000", "155610.161000", "155610.163000", "155610.166000", "155610.168000", "155610.171000", "155610.173000", "155610.176000", "155610.178000", "155610.181000", "155610.183000", "155610.186000", "155610.188000", "155610.191000", "155610.193000", "155610.196000", "155610.198000", "155610.201000", "155610.204000", "155610.206000", "155610.208000", "155610.211000", "155610.214000", "155610.216000", "155610.218000", "155610.221000", "155610.223000", "155610.226000", "155610.228000", "155650.141000", "155650.144000", "155650.146000", "155650.149000", "155650.151000", "155650.154000", "155650.156000", "155650.159000", "155650.161000", "155650.164000", "155650.166000", "155650.169000", "155650.171000", "155650.174000", "155650.176000", "155650.179000", "155650.181000", "155650.184000", "155650.186000", "155650.189000", "155650.191000", "155650.207000", "155650.210000", "155650.212000", "155650.215000", "155650.218000", "155650.220000", "155730.142000", "155730.145000", "155730.147000", "155730.150000", "155730.153000", "155730.155000", "155730.157000", "155730.214000", "155730.217000", "155730.219000", "155730.222000", "155730.224000", "155730.227000", "155730.229000", "155730.232000", "155730.234000", "155730.237000", "155730.239000", "155730.242000", "155730.244000", "155730.247000", "155730.249000", "155730.251000", "155730.254000", "155730.257000", "155730.259000", "155730.261000", "155747.255000", "155747.258000", "155747.261000", "155747.263000", "155747.281000", "155747.283000", "155747.285000", "155747.288000", "155747.291000", "155747.293000", "155747.295000", "155747.298000"],
      "InstanceCreationTime": ["155430.220000", "155430.223000", "155430.225000", "155430.228000", "155430.237000", "155430.240000", "155430.242000", "155430.245000", "155430.247000", "155430.250000", "155430.252000", "155430.255000", "155430.257000", "155430.260000", "155430.262000", "155430.265000", "155430.267000", "155430.276000", "155430.279000", "155430.281000", "155430.284000", "155430.286000", "155430.289000", "155430.291000", "155430.294000", "155430.296000", "155430.298000", "155430.301000", "155430.303000", "155430.306000", "155430.308000", "155430.311000", "155430.313000", "155450.115000", "155450.118000", "155450.120000", "155450.123000", "155450.125000", "155450.128000", "155450.130000", "155450.133000", "155450.135000", "155450.137000", "155450.140000", "155450.143000", "155450.145000", "155450.148000", "155450.150000", "155450.153000", "155450.155000", "155450.158000", "155450.160000", "155450.163000", "155510.115000", "155510.118000", "155510.121000", "155510.124000", "155510.127000", "155510.129000", "155510.132000", "155510.134000", "155510.137000", "155510.139000", "155510.142000", "155510.144000", "155510.147000", "155510.149000", "155510.152000", "155510.154000", "155510.157000", "155510.159000", "155510.162000", "155510.164000", "155530.113000", "155530.116000", "155530.118000", "155530.120000", "155530.123000", "155530.125000", "155530.128000", "155530.130000", "155530.133000", "155530.136000", "155530.138000", "155530.140000", "155530.143000", "155530.145000", "155530.148000", "155530.150000", "155530.153000", "155530.155000", "155530.158000", "155530.160000", "155530.163000", "155610.155000", "155610.158000", "155610.161000", "155610.163000", "155610.166000", "155610.168000", "155610.171000", "155610.173000", "155610.176000", "155610.178000", "155610.181000", "155610.183000", "155610.186000", "155610.188000", "155610.191000", "155610.193000", "155610.196000", "155610.198000", "155610.201000", "155610.204000", "155610.206000", "155610.208000", "155610.211000", "155610.214000", "155610.216000", "155610.218000", "155610.221000", "155610.223000", "155610.226000", "155610.228000", "155650.141000", "155650.144000", "155650.146000", "155650.149000", "155650.151000", "155650.154000", "155650.156000", "155650.159000", "155650.161000", "155650.164000", "155650.166000", "155650.169000", "155650.171000", "155650.174000", "155650.176000", "155650.179000", "155650.181000", "155650.184000", "155650.186000", "155650.189000", "155650.191000", "155650.207000", "155650.210000", "155650.212000", "155650.215000", "155650.218000", "155650.220000", "155730.142000", "155730.145000", "155730.147000", "155730.150000", "155730.153000", "155730.155000", "155730.157000", "155730.214000", "155730.217000", "155730.219000", "155730.222000", "155730.224000", "155730.227000", "155730.229000", "155730.232000", "155730.234000", "155730.237000", "155730.239000", "155730.242000", "155730.244000", "155730.247000", "155730.249000", "155730.251000", "155730.254000", "155730.257000", "155730.259000", "155730.261000", "155747.255000", "155747.258000", "155747.261000", "155747.263000", "155747.281000", "155747.283000", "155747.285000", "155747.288000", "155747.291000", "155747.293000", "155747.295000", "155747.298000"],
      "InstanceNumber": [1, 2, 3, 4, 5, 6, 7, 8, 9, 10, 11, 12, 13, 14, 15, 16, 17, 18, 19, 20, 21, 22, 23, 24, 25, 26, 27, 28, 29, 30, 31, 32, 33, 34, 35, 36, 37, 38, 39, 40, 41, 42, 43, 44, 45, 46, 47, 48, 49, 50, 51, 52, 53, 54, 55, 56, 57, 58, 59, 60, 61, 62, 63, 64, 65, 66, 67, 68, 69, 70, 71, 72, 73, 74, 75, 76, 77, 78, 79, 80, 81, 82, 83, 84, 85, 86, 87, 88, 89, 90, 91, 92, 93, 94, 95, 96, 97, 98, 99, 100, 101, 102, 103, 104, 105, 106, 107, 108, 109, 110, 111, 112, 113, 114, 115, 116, 117, 118, 119, 120, 121, 122, 123, 124, 125, 126, 127, 128, 129, 130, 131, 132, 133, 134, 135, 136, 137, 138, 139, 140, 141, 142, 143, 144, 145, 146, 147, 148, 149, 150, 151, 152, 153, 154, 155, 156, 157, 158, 159, 160, 161, 162, 163, 164, 165, 166, 167, 168, 169, 170, 171, 172, 173, 174, 175, 176, 177, 178, 179, 180, 181, 182, 183, 184, 185, 186, 187, 188, 189, 190],
      "WindowCenter": [4786.0, 4790.0, 4788.0, 4786.0, 4784.0, 4784.0, 4784.0, 4782.0, 4784.0, 4784.0, 4784.0, 4784.0, 4782.0, 4788.0, 4780.0, 4786.0, 4812.0, 4814.0, 4810.0, 4812.0, 4788.0, 4786.0, 4788.0, 4788.0, 4786.0, 4784.0, 4812.0, 4788.0, 4790.0, 4792.0, 4792.0, 4812.0, 4840.0, 4838.0, 4810.0, 4814.0, 4786.0, 4784.0, 4798.0, 4788.0, 4760.0, 4784.0, 4806.0, 4814.0, 4814.0, 4810.0, 4786.0, 4790.0, 4780.0, 4784.0, 4786.0, 4782.0, 4784.0, 4778.0, 4782.0, 4784.0, 4784.0, 4784.0, 4784.0, 4784.0, 4782.0, 4782.0, 4784.0, 4786.0, 4782.0, 4786.0, 4784.0, 4788.0, 4786.0, 4786.0, 4784.0, 4810.0, 4806.0, 4786.0, 4782.0, 4784.0, 4786.0, 4782.0, 4782.0, 4782.0, 4782.0, 4780.0, 4782.0, 4784.0, 4788.0, 4788.0, 4782.0, 4786.0, 4780.0, 4786.0, 4778.0, 4784.0, 4784.0, 4784.0, 4780.0, 4786.0, 4788.0, 4808.0, 4810.0, 4784.0, 4786.0, 4788.0, 4784.0, 4760.0, 4784.0, 4784.0, 4782.0, 4782.0, 4786.0, 4810.0, 4782.0, 4786.0, 4786.0, 4786.0, 4786.0, 4784.0, 4784.0, 4786.0, 4784.0, 4786.0, 4788.0, 4784.0, 4784.0, 4780.0, 4784.0, 4780.0, 4782.0, 4784.0, 4782.0, 4786.0, 4782.0, 4778.0, 4810.0, 4788.0, 4810.0, 4810.0, 4780.0, 4786.0, 4782.0, 4784.0, 4788.0, 4782.0, 4782.0, 4786.0, 4784.0, 4788.0, 4812.0, 4782.0, 4784.0, 4786.0, 4786.0, 4784.0, 4786.0, 4784.0, 4782.0, 4782.0, 4784.0, 4784.0, 4784.0, 4782.0, 4786.0, 4782.0, 4784.0, 4782.0, 4786.0, 4784.0, 4784.0, 4784.0, 4780.0, 4780.0, 4782.0, 4780.0, 4782.0, 4782.0, 4782.0, 4788.0, 4784.0, 4782.0, 4782.0, 4784.0, 4782.0, 4782.0, 4782.0, 4784.0, 4780.0, 4786.0, 4786.0, 4786.0, 4786.0, 4786.0],
      "WindowWidth": [18556.0, 18556.0, 18560.0, 18560.0, 18560.0, 18556.0, 18556.0, 18574.0, 18560.0, 18574.0, 18568.0, 18566.0, 18562.0, 18550.0, 18548.0, 18538.0, 18598.0, 18612.0, 18610.0, 18604.0, 18570.0, 18556.0, 18554.0, 18546.0, 18540.0, 18562.0, 18608.0, 18576.0, 18550.0, 18546.0, 18546.0, 18598.0, 18660.0, 18652.0, 18626.0, 18614.0, 18564.0, 18544.0, 18556.0, 18542.0, 18516.0, 18548.0, 18596.0, 18628.0, 18614.0, 18614.0, 18568.0, 18552.0, 18554.0, 18552.0, 18546.0, 18552.0, 18560.0, 18566.0, 18568.0, 18552.0, 18562.0, 18560.0, 18550.0, 18550.0, 18560.0, 18560.0, 18570.0, 18572.0, 18566.0, 18552.0, 18556.0, 18550.0, 18550.0, 18542.0, 18564.0, 18608.0, 18604.0, 18578.0, 18576.0, 18558.0, 18546.0, 18544.0, 18554.0, 18554.0, 18546.0, 18554.0, 18568.0, 18580.0, 18576.0, 18574.0, 18568.0, 18556.0, 18554.0, 18554.0, 18550.0, 18540.0, 18552.0, 18556.0, 18560.0, 18580.0, 18574.0, 18604.0, 18596.0, 18566.0, 18556.0, 18550.0, 18550.0, 18520.0, 18560.0, 18556.0, 18552.0, 18558.0, 18570.0, 18606.0, 18560.0, 18574.0, 18564.0, 18566.0, 18554.0, 18552.0, 18550.0, 18544.0, 18562.0, 18572.0, 18578.0, 18562.0, 18566.0, 18556.0, 18556.0, 18556.0, 18548.0, 18554.0, 18554.0, 18544.0, 18562.0, 18552.0, 18608.0, 18570.0, 18614.0, 18600.0, 18562.0, 18558.0, 18558.0, 18548.0, 18546.0, 18550.0, 18554.0, 18568.0, 18564.0, 18570.0, 18596.0, 18552.0, 18556.0, 18552.0, 18560.0, 18556.0, 18562.0, 18562.0, 18556.0, 18564.0, 18560.0, 18550.0, 18556.0, 18544.0, 18570.0, 18556.0, 18566.0, 18566.0, 18568.0, 18548.0, 18558.0, 18550.0, 18554.0, 18554.0, 18562.0, 18558.0, 18542.0, 18562.0, 18550.0, 18568.0, 18560.0, 18564.0, 18560.0, 18564.0, 18554.0, 18556.0, 18558.0, 18558.0, 18556.0, 18564.0, 18562.0, 18564.0, 18550.0, 18548.0]
    },
    "slices": {}
  }
}