{
  "AcquisitionMatrixPE": 104,
  "AcquisitionNumber": 1,
  "AcquisitionTime": "15:59:32.430000",
  "BandwidthPerPixelPhaseEncode": 17.17,
  "BaseResolution": 104,
  "BodyPartExamined": "BRAIN",
  "CoilString": "HC1-7;NC1_2",
  "ConsistencyInfo": "N4_VE11C_LATEST_20160120",
  "ConversionSoftware": "dcm2niix",
  "ConversionSoftwareVersion": "v1.0.20190902",
  "DerivedVendorReportedEchoSpacing": 0.000560011,
  "DeviceSerialNumber": "167006",
  "DwellTime": 2.1e-06,
  "EchoTime": 0.037,
  "EchoTrainLength": 104,
  "EffectiveEchoSpacing": 0.000560011,
  "FlipAngle": 52,
  "ImageComments": "Unaliased_MB4_PE3_LB",
  "ImageOrientationPatientDICOM": [0.998053, -0.0620738, 0.00615982, 0.0610435, 0.951594, -0.301234],
  "ImageType": [
    "ORIGINAL",
    "PRIMARY",
    "P",
    "MB",
    "ND",
    "MOSAIC"
],
  "ImagingFrequency": 123.259,
  "InPlanePhaseEncodingDirectionDICOM": "COL",
  "InstitutionAddress": "Chemin_Queen-Mary_4565_Montreal_District_CA_H3W_1W5",
  "InstitutionName": "IUGM",
  "InstitutionalDepartmentName": "Department",
  "MRAcquisitionType": "2D",
  "MagneticFieldStrength": 3,
  "Manufacturer": "Siemens",
  "ManufacturersModelName": "Prisma_fit",
  "Modality": "MR",
  "MultibandAccelerationFactor": 4,
  "PartialFourier": 1,
  "PatientPosition": "HFS",
  "PercentPhaseFOV": 100,
  "PhaseEncodingDirection": "j",
  "PhaseEncodingSteps": 104,
  "PhaseResolution": 1,
  "PixelBandwidth": 2290,
  "ProcedureStepDescription": "memory_things",
  "ProtocolName": "func_task-things_run-5",
  "PulseSequenceDetails": "%CustomerSeq%_cmrr_mbep2d_bold",
  "ReceiveCoilActiveElements": "HC1-7;NC1,2",
  "ReceiveCoilName": "HeadNeck_64",
  "ReconMatrixPE": 104,
  "RepetitionTime": 1.49,
  "SAR": 0.0485574,
  "ScanOptions": "FS",
  "ScanningSequence": "EP",
  "SequenceName": "epfid2d1_104",
  "SequenceVariant": "SK_SS",
  "SeriesDescription": "func_task-things_run-5",
  "SeriesNumber": 23,
  "ShimSetting": [627, -7266, -8830, 610, -16, -242, 28, -16],
  "SliceThickness": 2,
  "SliceTiming": [0, 0.785, 0.0975, 0.8825, 0.1975, 0.98, 0.295, 1.0775, 0.3925, 1.1775, 0.49, 1.275, 0.5875, 1.3725, 0.6875, 0, 0.785, 0.0975, 0.8825, 0.1975, 0.98, 0.295, 1.0775, 0.3925, 1.1775, 0.49, 1.275, 0.5875, 1.3725, 0.6875, 0, 0.785, 0.0975, 0.8825, 0.1975, 0.98, 0.295, 1.0775, 0.3925, 1.1775, 0.49, 1.275, 0.5875, 1.3725, 0.6875, 0, 0.785, 0.0975, 0.8825, 0.1975, 0.98, 0.295, 1.0775, 0.3925, 1.1775, 0.49, 1.275, 0.5875, 1.3725, 0.6875],
  "SoftwareVersions": "syngo_MR_E11",
  "SpacingBetweenSlices": 2,
  "StationName": "MRC35049",
  "TaskName": "things",
  "TotalReadoutTime": 0.0576811,
  "TxRefAmp": 253.695,
  "WipMemBlock": "1161832a-9dfe-4156-83a3-5ce278fc135a||Sequence: R016 ve11c/master r/e634e98; Dec 19 2017 11:00:25 by eja",
  "dcmmeta_affine": [
    [-1.9961050748825073, 0.12208699434995651, -0.025674207136034966, 100.77287292480469],
    [0.12414759397506714, 1.9031885862350464, -0.6020472049713135, -74.48480987548828],
    [0.012319637462496758, 0.6024684309959412, 1.9070606231689453, -64.40814208984375],
    [0.0, 0.0, 0.0, 1.0]
],
  "dcmmeta_reorient_transform": [
    [0.0, -1.0, 0.0, 103.0],
    [1.0, 0.0, 0.0, 0.0],
    [0.0, 0.0, 1.0, 0.0],
    [0.0, 0.0, 0.0, 1.0]
],
  "dcmmeta_shape": [104, 104, 60, 190],
  "dcmmeta_slice_dim": 2,
  "dcmmeta_version": 0.6,
  "global": {
    "const": {
      "AcquisitionMatrix": [104, 0, 0, 104],
      "AngioFlag": "N",
      "BitsAllocated": 16,
      "BitsStored": 16,
      "BodyPartExamined": "BRAIN",
      "Columns": 832,
      "EchoNumbers": 1,
      "EchoTime": 37.0,
      "EchoTrainLength": 104,
      "FlipAngle": 52.0,
      "HighBit": 15,
      "ImageOrientationPatient": [0.99805255387841, -0.0620737974434, 0.0061598188082, 0.06104349664093, 0.95159426368244, -0.3012342092866],
      "ImagePositionPatient": [-884.36976134693, -769.11451141614, 212.46026308677],
      "ImageType": [
        "ORIGINAL",
        "PRIMARY",
        "P",
        "MB",
        "ND",
        "MOSAIC"
],
      "ImagedNucleus": "1H",
      "ImagingFrequency": 123.258935,
      "InPlanePhaseEncodingDirection": "COL",
      "LargestImagePixelValue": 4095,
      "MRAcquisitionType": "2D",
      "MagneticFieldStrength": 3.0,
      "Manufacturer": "SIEMENS",
      "ManufacturerModelName": "Prisma_fit",
      "Modality": "MR",
      "NumberOfAverages": 1.0,
      "NumberOfPhaseEncodingSteps": 104,
      "PercentPhaseFieldOfView": 100.0,
      "PercentSampling": 100.0,
      "PerformedProcedureStepStartTime": "145852.389000",
      "PhotometricInterpretation": "MONOCHROME2",
      "PixelBandwidth": 2290.0,
      "PixelRepresentation": 0,
      "PixelSpacing": [2.0, 2.0],
      "ProtocolName": "func_task-things_run-5",
      "RepetitionTime": 1490.0,
      "RescaleIntercept": -4096.0,
      "RescaleSlope": 2.0,
      "RescaleType": "US",
      "Rows": 832,
      "SAR": 0.04855742421757,
      "SamplesPerPixel": 1,
      "ScanOptions": "FS",
      "ScanningSequence": "EP",
      "SequenceName": "epfid2d1_104",
      "SequenceVariant": [
        "SK",
        "SS"
],
      "SeriesDescription": "func_task-things_run-5",
      "SeriesNumber": 23,
      "SeriesTime": "160049.092000",
      "SliceLocation": -40.287060573455,
      "SliceThickness": 2.0,
      "SmallestImagePixelValue": 0,
      "SoftwareVersions": "syngo MR E11",
      "SpacingBetweenSlices": 2.0000000113153,
      "SpecificCharacterSet": "ISO_IR 100",
      "StudyID": "1",
      "StudyTime": "145852.325000",
      "TransmitCoilName": "Body",
      "VariableFlipAngleFlag": "N",
      "WindowCenterWidthExplanation": "Algo1",
      "dBdt": 0.0},
    "slices": {}
  },
  "time": {
    "samples": {
      "AcquisitionNumber": [1, 2, 3, 4, 5, 6, 7, 8, 9, 10, 11, 12, 13, 14, 15, 16, 17, 18, 19, 20, 21, 22, 23, 24, 25, 26, 27, 28, 29, 30, 31, 32, 33, 34, 35, 36, 37, 38, 39, 40, 41, 42, 43, 44, 45, 46, 47, 48, 49, 50, 51, 52, 53, 54, 55, 56, 57, 58, 59, 60, 61, 62, 63, 64, 65, 66, 67, 68, 69, 70, 71, 72, 73, 74, 75, 76, 77, 78, 79, 80, 81, 82, 83, 84, 85, 86, 87, 88, 89, 90, 91, 92, 93, 94, 95, 96, 97, 98, 99, 100, 101, 102, 103, 104, 105, 106, 107, 108, 109, 110, 111, 112, 113, 114, 115, 116, 117, 118, 119, 120, 121, 122, 123, 124, 125, 126, 127, 128, 129, 130, 131, 132, 133, 134, 135, 136, 137, 138, 139, 140, 141, 142, 143, 144, 145, 146, 147, 148, 149, 150, 151, 152, 153, 154, 155, 156, 157, 158, 159, 160, 161, 162, 163, 164, 165, 166, 167, 168, 169, 170, 171, 172, 173, 174, 175, 176, 177, 178, 179, 180, 181, 182, 183, 184, 185, 186, 187, 188, 189, 190],
      "AcquisitionTime": ["155932.430000", "155933.920000", "155935.410000", "155936.900000", "155938.390000", "155939.880000", "155941.370000", "155942.860000", "155944.350000", "155945.840000", "155947.330000", "155948.820000", "155950.310000", "155951.800000", "155953.290000", "155954.780000", "155956.270000", "155957.760000", "155959.250000", "160000.740000", "160002.230000", "160003.720000", "160005.210000", "160006.700000", "160008.190000", "160009.680000", "160011.170000", "160012.660000", "160014.150000", "160015.640000", "160017.130000", "160018.620000", "160020.110000", "160021.600000", "160023.090000", "160024.580000", "160026.070000", "160027.560000", "160029.050000", "160030.540000", "160032.030000", "160033.520000", "160035.010000", "160036.500000", "160037.990000", "160039.480000", "160040.970000", "160042.460000", "160043.950000", "160045.440000", "160046.930000", "160048.420000", "160049.910000", "160051.400000", "160052.890000", "160054.380000", "160055.870000", "160057.360000", "160058.850000", "160100.340000", "160101.830000", "160103.320000", "160104.810000", "160106.300000", "160107.790000", "160109.280000", "160110.770000", "160112.260000", "160113.750000", "160115.240000", "160116.730000", "160118.220000", "160119.710000", "160121.200000", "160122.690000", "160124.180000", "160125.670000", "160127.160000", "160128.650000", "160130.140000", "160131.630000", "160133.120000", "160134.610000", "160136.100000", "160137.590000", "160139.080000", "160140.570000", "160142.060000", "160143.550000", "160145.040000", "160146.530000", "160148.020000", "160149.510000", "160151.000000", "160152.490000", "160153.980000", "160155.470000", "160156.960000", "160158.450000", "160159.940000", "160201.430000", "160202.920000", "160204.410000", "160205.900000", "160207.390000", "160208.880000", "160210.370000", "160211.860000", "160213.350000", "160214.840000", "160216.330000", "160217.820000", "160219.310000", "160220.800000", "160222.290000", "160223.780000", "160225.270000", "160226.760000", "160228.250000", "160229.740000", "160231.230000", "160232.720000", "160234.210000", "160235.700000", "160237.190000", "160238.680000", "160240.170000", "160241.660000", "160243.150000", "160244.640000", "160246.130000", "160247.620000", "160249.110000", "160250.600000", "160252.090000", "160253.580000", "160255.070000", "160256.560000", "160258.050000", "160259.540000", "160301.030000", "160302.520000", "160304.010000", "160305.500000", "160306.990000", "160308.480000", "160309.970000", "160311.460000", "160312.950000", "160314.440000", "160315.930000", "160317.420000", "160318.910000", "160320.400000", "160321.890000", "160323.380000", "160324.870000", "160326.360000", "160327.850000", "160329.340000", "160330.830000", "160332.320000", "160333.810000", "160335.300000", "160336.790000", "160338.280000", "160339.770000", "160341.260000", "160342.750000", "160344.240000", "160345.730000", "160347.220000", "160348.710000", "160350.200000", "160351.690000", "160353.180000", "160354.670000", "160356.160000", "160357.650000", "160359.140000", "160400.630000", "160402.120000", "160403.610000", "160405.100000", "160406.590000", "160408.080000", "160409.570000", "160411.060000", "160412.550000", "160414.040000"],
      "ContentTime": ["160049.094000", "160049.096000", "160049.099000", "160049.101000", "160049.104000", "160049.106000", "160049.109000", "160049.111000", "160049.113000", "160049.116000", "160049.119000", "160049.121000", "160049.123000", "160049.126000", "160049.129000", "160049.131000", "160049.133000", "160049.136000", "160049.139000", "160049.141000", "160049.144000", "160049.146000", "160109.051000", "160109.054000", "160109.057000", "160109.059000", "160109.061000", "160109.064000", "160109.066000", "160109.069000", "160109.071000", "160109.074000", "160109.076000", "160109.079000", "160109.081000", "160109.084000", "160109.090000", "160109.093000", "160109.095000", "160109.098000", "160109.100000", "160109.103000", "160109.105000", "160129.034000", "160129.037000", "160129.039000", "160129.042000", "160129.044000", "160129.047000", "160129.049000", "160129.052000", "160129.054000", "160129.057000", "160129.059000", "160129.062000", "160129.064000", "160129.067000", "160129.071000", "160129.073000", "160129.076000", "160129.078000", "160129.081000", "160129.083000", "160149.033000", "160149.036000", "160149.038000", "160149.041000", "160149.043000", "160149.046000", "160149.048000", "160149.051000", "160149.053000", "160149.056000", "160149.058000", "160149.061000", "160149.063000", "160149.066000", "160149.075000", "160149.077000", "160149.080000", "160149.082000", "160149.085000", "160149.087000", "160209.055000", "160209.057000", "160209.060000", "160209.062000", "160209.073000", "160209.076000", "160209.078000", "160209.081000", "160209.083000", "160209.086000", "160209.088000", "160209.090000", "160209.093000", "160209.095000", "160209.098000", "160209.100000", "160209.103000", "160209.105000", "160209.108000", "160209.110000", "160249.085000", "160249.088000", "160249.091000", "160249.093000", "160249.096000", "160249.098000", "160249.101000", "160249.103000", "160249.106000", "160249.108000", "160249.117000", "160249.119000", "160249.122000", "160249.125000", "160249.127000", "160249.130000", "160249.132000", "160249.135000", "160249.137000", "160249.139000", "160249.142000", "160249.145000", "160249.147000", "160249.150000", "160249.152000", "160249.155000", "160249.157000", "160249.160000", "160329.069000", "160329.071000", "160329.074000", "160329.076000", "160329.079000", "160329.081000", "160329.084000", "160329.086000", "160329.089000", "160329.091000", "160329.094000", "160329.096000", "160329.099000", "160329.101000", "160329.104000", "160329.106000", "160329.109000", "160329.111000", "160329.114000", "160329.116000", "160329.119000", "160329.121000", "160329.124000", "160329.126000", "160329.129000", "160329.131000", "160329.134000", "160409.071000", "160409.074000", "160409.077000", "160409.079000", "160409.082000", "160409.084000", "160409.087000", "160409.089000", "160409.092000", "160409.094000", "160409.096000", "160409.099000", "160409.101000", "160409.104000", "160409.106000", "160409.109000", "160409.111000", "160409.114000", "160409.116000", "160409.119000", "160409.121000", "160409.124000", "160409.126000", "160409.129000", "160409.131000", "160409.134000", "160409.136000", "160416.185000", "160416.188000", "160416.191000", "160416.193000", "160416.196000"],
      "InstanceCreationTime": ["160049.094000", "160049.096000", "160049.099000", "160049.101000", "160049.104000", "160049.106000", "160049.109000", "160049.111000", "160049.113000", "160049.116000", "160049.119000", "160049.121000", "160049.123000", "160049.126000", "160049.129000", "160049.131000", "160049.133000", "160049.136000", "160049.139000", "160049.141000", "160049.144000", "160049.146000", "160109.051000", "160109.054000", "160109.057000", "160109.059000", "160109.061000", "160109.064000", "160109.066000", "160109.069000", "160109.071000", "160109.074000", "160109.076000", "160109.079000", "160109.081000", "160109.084000", "160109.090000", "160109.093000", "160109.095000", "160109.098000", "160109.100000", "160109.103000", "160109.105000", "160129.034000", "160129.037000", "160129.039000", "160129.042000", "160129.044000", "160129.047000", "160129.049000", "160129.052000", "160129.054000", "160129.057000", "160129.059000", "160129.062000", "160129.064000", "160129.067000", "160129.071000", "160129.073000", "160129.076000", "160129.078000", "160129.081000", "160129.083000", "160149.033000", "160149.036000", "160149.038000", "160149.041000", "160149.043000", "160149.046000", "160149.048000", "160149.051000", "160149.053000", "160149.056000", "160149.058000", "160149.061000", "160149.063000", "160149.066000", "160149.075000", "160149.077000", "160149.080000", "160149.082000", "160149.085000", "160149.087000", "160209.055000", "160209.057000", "160209.060000", "160209.062000", "160209.073000", "160209.076000", "160209.078000", "160209.081000", "160209.083000", "160209.086000", "160209.088000", "160209.090000", "160209.093000", "160209.095000", "160209.098000", "160209.100000", "160209.103000", "160209.105000", "160209.108000", "160209.110000", "160249.085000", "160249.088000", "160249.091000", "160249.093000", "160249.096000", "160249.098000", "160249.101000", "160249.103000", "160249.106000", "160249.108000", "160249.117000", "160249.119000", "160249.122000", "160249.125000", "160249.127000", "160249.130000", "160249.132000", "160249.135000", "160249.137000", "160249.139000", "160249.142000", "160249.145000", "160249.147000", "160249.150000", "160249.152000", "160249.155000", "160249.157000", "160249.160000", "160329.069000", "160329.071000", "160329.074000", "160329.076000", "160329.079000", "160329.081000", "160329.084000", "160329.086000", "160329.089000", "160329.091000", "160329.094000", "160329.096000", "160329.099000", "160329.101000", "160329.104000", "160329.106000", "160329.109000", "160329.111000", "160329.114000", "160329.116000", "160329.119000", "160329.121000", "160329.124000", "160329.126000", "160329.129000", "160329.131000", "160329.134000", "160409.071000", "160409.074000", "160409.077000", "160409.079000", "160409.082000", "160409.084000", "160409.087000", "160409.089000", "160409.092000", "160409.094000", "160409.096000", "160409.099000", "160409.101000", "160409.104000", "160409.106000", "160409.109000", "160409.111000", "160409.114000", "160409.116000", "160409.119000", "160409.121000", "160409.124000", "160409.126000", "160409.129000", "160409.131000", "160409.134000", "160409.136000", "160416.185000", "160416.188000", "160416.191000", "160416.193000", "160416.196000"],
      "InstanceNumber": [1, 2, 3, 4, 5, 6, 7, 8, 9, 10, 11, 12, 13, 14, 15, 16, 17, 18, 19, 20, 21, 22, 23, 24, 25, 26, 27, 28, 29, 30, 31, 32, 33, 34, 35, 36, 37, 38, 39, 40, 41, 42, 43, 44, 45, 46, 47, 48, 49, 50, 51, 52, 53, 54, 55, 56, 57, 58, 59, 60, 61, 62, 63, 64, 65, 66, 67, 68, 69, 70, 71, 72, 73, 74, 75, 76, 77, 78, 79, 80, 81, 82, 83, 84, 85, 86, 87, 88, 89, 90, 91, 92, 93, 94, 95, 96, 97, 98, 99, 100, 101, 102, 103, 104, 105, 106, 107, 108, 109, 110, 111, 112, 113, 114, 115, 116, 117, 118, 119, 120, 121, 122, 123, 124, 125, 126, 127, 128, 129, 130, 131, 132, 133, 134, 135, 136, 137, 138, 139, 140, 141, 142, 143, 144, 145, 146, 147, 148, 149, 150, 151, 152, 153, 154, 155, 156, 157, 158, 159, 160, 161, 162, 163, 164, 165, 166, 167, 168, 169, 170, 171, 172, 173, 174, 175, 176, 177, 178, 179, 180, 181, 182, 183, 184, 185, 186, 187, 188, 189, 190],
      "WindowCenter": [4786.0, 4760.0, 4786.0, 4784.0, 4786.0, 4794.0, 4788.0, 4784.0, 4782.0, 4786.0, 4786.0, 4786.0, 4788.0, 4786.0, 4792.0, 4790.0, 4758.0, 4782.0, 4788.0, 4784.0, 4784.0, 4790.0, 4790.0, 4764.0, 4788.0, 4786.0, 4786.0, 4786.0, 4782.0, 4788.0, 4782.0, 4788.0, 4784.0, 4786.0, 4792.0, 4784.0, 4792.0, 4784.0, 4782.0, 4782.0, 4782.0, 4784.0, 4786.0, 4792.0, 4792.0, 4788.0, 4788.0, 4784.0, 4786.0, 4788.0, 4788.0, 4788.0, 4786.0, 4792.0, 4784.0, 4786.0, 4788.0, 4786.0, 4788.0, 4786.0, 4790.0, 4784.0, 4794.0, 4824.0, 4794.0, 4788.0, 4788.0, 4790.0, 4788.0, 4812.0, 4760.0, 4768.0, 4824.0, 4826.0, 4788.0, 4782.0, 4786.0, 4784.0, 4780.0, 4782.0, 4824.0, 4850.0, 4796.0, 4786.0, 4780.0, 4782.0, 4784.0, 4792.0, 4792.0, 4766.0, 4792.0, 4794.0, 4824.0, 4790.0, 4786.0, 4786.0, 4788.0, 4786.0, 4784.0, 4800.0, 4796.0, 4788.0, 4788.0, 4784.0, 4788.0, 4790.0, 4786.0, 4790.0, 4790.0, 4790.0, 4794.0, 4798.0, 4796.0, 4828.0, 4792.0, 4786.0, 4812.0, 4788.0, 4786.0, 4788.0, 4784.0, 4788.0, 4794.0, 4800.0, 4826.0, 4790.0, 4784.0, 4786.0, 4784.0, 4786.0, 4786.0, 4788.0, 4824.0, 4796.0, 4766.0, 4784.0, 4792.0, 4784.0, 4784.0, 4782.0, 4788.0, 4782.0, 4786.0, 4792.0, 4830.0, 4792.0, 4788.0, 4788.0, 4784.0, 4790.0, 4784.0, 4784.0, 4784.0, 4796.0, 4792.0, 4792.0, 4790.0, 4786.0, 4784.0, 4786.0, 4788.0, 4798.0, 4788.0, 4784.0, 4788.0, 4784.0, 4784.0, 4786.0, 4788.0, 4790.0, 4790.0, 4826.0, 4800.0, 4788.0, 4782.0, 4788.0, 4786.0, 4790.0, 4786.0, 4790.0, 4792.0, 4788.0, 4796.0, 4788.0, 4786.0, 4790.0, 4788.0, 4780.0, 4782.0, 4792.0],
      "WindowWidth": [18550.0, 18522.0, 18554.0, 18546.0, 18548.0, 18542.0, 18542.0, 18542.0, 18544.0, 18556.0, 18548.0, 18544.0, 18538.0, 18540.0, 18538.0, 18538.0, 18516.0, 18554.0, 18556.0, 18542.0, 18548.0, 18546.0, 18546.0, 18510.0, 18542.0, 18542.0, 18544.0, 18544.0, 18544.0, 18546.0, 18546.0, 18544.0, 18542.0, 18540.0, 18550.0, 18544.0, 18542.0, 18542.0, 18542.0, 18544.0, 18552.0, 18546.0, 18546.0, 18538.0, 18542.0, 18542.0, 18548.0, 18544.0, 18544.0, 18544.0, 18546.0, 18548.0, 18542.0, 18544.0, 18542.0, 18544.0, 18548.0, 18540.0, 18546.0, 18540.0, 18546.0, 18544.0, 18542.0, 18588.0, 18550.0, 18544.0, 18562.0, 18568.0, 18556.0, 18586.0, 18508.0, 18510.0, 18584.0, 18588.0, 18542.0, 18552.0, 18556.0, 18556.0, 18554.0, 18548.0, 18586.0, 18630.0, 18552.0, 18546.0, 18556.0, 18564.0, 18568.0, 18550.0, 18542.0, 18514.0, 18542.0, 18540.0, 18582.0, 18544.0, 18544.0, 18564.0, 18548.0, 18548.0, 18542.0, 18544.0, 18550.0, 18548.0, 18544.0, 18546.0, 18548.0, 18542.0, 18540.0, 18546.0, 18544.0, 18540.0, 18542.0, 18538.0, 18542.0, 18592.0, 18546.0, 18562.0, 18606.0, 18562.0, 18556.0, 18546.0, 18538.0, 18544.0, 18544.0, 18546.0, 18586.0, 18540.0, 18546.0, 18566.0, 18568.0, 18560.0, 18550.0, 18544.0, 18578.0, 18544.0, 18506.0, 18542.0, 18540.0, 18544.0, 18564.0, 18556.0, 18554.0, 18548.0, 18546.0, 18540.0, 18582.0, 18546.0, 18542.0, 18542.0, 18550.0, 18546.0, 18554.0, 18544.0, 18540.0, 18546.0, 18536.0, 18544.0, 18542.0, 18544.0, 18548.0, 18552.0, 18546.0, 18548.0, 18548.0, 18550.0, 18560.0, 18550.0, 18544.0, 18542.0, 18540.0, 18540.0, 18544.0, 18576.0, 18548.0, 18550.0, 18550.0, 18562.0, 18556.0, 18542.0, 18548.0, 18544.0, 18542.0, 18536.0, 18538.0, 18542.0, 18542.0, 18540.0, 18550.0, 18544.0, 18550.0, 18546.0]
    },
    "slices": {}
  }
}