{
  "AcquisitionMatrixPE": 104,
  "AcquisitionNumber": 1,
  "AcquisitionTime": "15:34:20.747500",
  "BandwidthPerPixelPhaseEncode": 17.17,
  "BaseResolution": 104,
  "BodyPartExamined": "BRAIN",
  "CoilString": "HC1-7;NC1_2",
  "ConsistencyInfo": "N4_VE11C_LATEST_20160120",
  "ConversionSoftware": "dcm2niix",
  "ConversionSoftwareVersion": "v1.0.20190902",
  "DerivedVendorReportedEchoSpacing": 0.000560011,
  "DeviceSerialNumber": "167006",
  "DwellTime": 2.1e-06,
  "EchoTime": 0.037,
  "EchoTrainLength": 104,
  "EffectiveEchoSpacing": 0.000560011,
  "FlipAngle": 52,
  "ImageComments": "Unaliased_MB4_PE3_LB",
  "ImageOrientationPatientDICOM": [0.998053, -0.0620738, 0.00615982, 0.0610435, 0.951594, -0.301234],
  "ImageType": [
    "ORIGINAL",
    "PRIMARY",
    "P",
    "MB",
    "ND",
    "MOSAIC"
],
  "ImagingFrequency": 123.259,
  "InPlanePhaseEncodingDirectionDICOM": "COL",
  "InstitutionAddress": "Chemin_Queen-Mary_4565_Montreal_District_CA_H3W_1W5",
  "InstitutionName": "IUGM",
  "InstitutionalDepartmentName": "Department",
  "MRAcquisitionType": "2D",
  "MagneticFieldStrength": 3,
  "Manufacturer": "Siemens",
  "ManufacturersModelName": "Prisma_fit",
  "Modality": "MR",
  "MultibandAccelerationFactor": 4,
  "PartialFourier": 1,
  "PatientPosition": "HFS",
  "PercentPhaseFOV": 100,
  "PhaseEncodingDirection": "j",
  "PhaseEncodingSteps": 104,
  "PhaseResolution": 1,
  "PixelBandwidth": 2290,
  "ProcedureStepDescription": "memory_things",
  "ProtocolName": "func_task-things_run-1",
  "PulseSequenceDetails": "%CustomerSeq%_cmrr_mbep2d_bold",
  "ReceiveCoilActiveElements": "HC1-7;NC1,2",
  "ReceiveCoilName": "HeadNeck_64",
  "ReconMatrixPE": 104,
  "RepetitionTime": 1.49,
  "SAR": 0.0485574,
  "ScanOptions": "FS",
  "ScanningSequence": "EP",
  "SequenceName": "epfid2d1_104",
  "SequenceVariant": "SK_SS",
  "SeriesDescription": "func_task-things_run-1",
  "SeriesNumber": 11,
  "ShimSetting": [627, -7266, -8830, 610, -16, -242, 28, -16],
  "SliceThickness": 2,
  "SliceTiming": [0, 0.785, 0.0975, 0.8825, 0.195, 0.98, 0.295, 1.0775, 0.3925, 1.175, 0.49, 1.275, 0.5875, 1.3725, 0.685, 0, 0.785, 0.0975, 0.8825, 0.195, 0.98, 0.295, 1.0775, 0.3925, 1.175, 0.49, 1.275, 0.5875, 1.3725, 0.685, 0, 0.785, 0.0975, 0.8825, 0.195, 0.98, 0.295, 1.0775, 0.3925, 1.175, 0.49, 1.275, 0.5875, 1.3725, 0.685, 0, 0.785, 0.0975, 0.8825, 0.195, 0.98, 0.295, 1.0775, 0.3925, 1.175, 0.49, 1.275, 0.5875, 1.3725, 0.685],
  "SoftwareVersions": "syngo_MR_E11",
  "SpacingBetweenSlices": 2,
  "StationName": "MRC35049",
  "TaskName": "things",
  "TotalReadoutTime": 0.0576811,
  "TxRefAmp": 253.695,
  "WipMemBlock": "5fc4bda6-af6a-4839-9179-6ae9278ead21||Sequence: R016 ve11c/master r/e634e98; Dec 19 2017 11:00:25 by eja",
  "dcmmeta_affine": [
    [-1.9961050748825073, 0.12208699434995651, -0.025674207136034966, 100.77287292480469],
    [0.12414759397506714, 1.9031885862350464, -0.6020472049713135, -74.48480987548828],
    [0.012319637462496758, 0.6024684309959412, 1.9070606231689453, -64.40814208984375],
    [0.0, 0.0, 0.0, 1.0]
],
  "dcmmeta_reorient_transform": [
    [0.0, -1.0, 0.0, 103.0],
    [1.0, 0.0, 0.0, 0.0],
    [0.0, 0.0, 1.0, 0.0],
    [0.0, 0.0, 0.0, 1.0]
],
  "dcmmeta_shape": [104, 104, 60, 190],
  "dcmmeta_slice_dim": 2,
  "dcmmeta_version": 0.6,
  "global": {
    "const": {
      "AcquisitionMatrix": [104, 0, 0, 104],
      "AngioFlag": "N",
      "BitsAllocated": 16,
      "BitsStored": 16,
      "BodyPartExamined": "BRAIN",
      "Columns": 832,
      "EchoNumbers": 1,
      "EchoTime": 37.0,
      "EchoTrainLength": 104,
      "FlipAngle": 52.0,
      "HighBit": 15,
      "ImageOrientationPatient": [0.99805255387841, -0.0620737974434, 0.0061598188082, 0.06104349664093, 0.95159426368244, -0.3012342092866],
      "ImagePositionPatient": [-884.36976134693, -769.11451141614, 212.46026308677],
      "ImageType": [
        "ORIGINAL",
        "PRIMARY",
        "P",
        "MB",
        "ND",
        "MOSAIC"
],
      "ImagedNucleus": "1H",
      "ImagingFrequency": 123.258921,
      "InPlanePhaseEncodingDirection": "COL",
      "LargestImagePixelValue": 4095,
      "MRAcquisitionType": "2D",
      "MagneticFieldStrength": 3.0,
      "Manufacturer": "SIEMENS",
      "ManufacturerModelName": "Prisma_fit",
      "Modality": "MR",
      "NumberOfAverages": 1.0,
      "NumberOfPhaseEncodingSteps": 104,
      "PercentPhaseFieldOfView": 100.0,
      "PercentSampling": 100.0,
      "PerformedProcedureStepStartTime": "145852.389000",
      "PhotometricInterpretation": "MONOCHROME2",
      "PixelBandwidth": 2290.0,
      "PixelRepresentation": 0,
      "PixelSpacing": [2.0, 2.0],
      "ProtocolName": "func_task-things_run-1",
      "RepetitionTime": 1490.0,
      "RescaleIntercept": -4096.0,
      "RescaleSlope": 2.0,
      "RescaleType": "US",
      "Rows": 832,
      "SAR": 0.04855742421757,
      "SamplesPerPixel": 1,
      "ScanOptions": "FS",
      "ScanningSequence": "EP",
      "SequenceName": "epfid2d1_104",
      "SequenceVariant": [
        "SK",
        "SS"
],
      "SeriesDescription": "func_task-things_run-1",
      "SeriesNumber": 11,
      "SeriesTime": "153550.209000",
      "SliceLocation": -40.287060573455,
      "SliceThickness": 2.0,
      "SmallestImagePixelValue": 0,
      "SoftwareVersions": "syngo MR E11",
      "SpacingBetweenSlices": 2.0000000113153,
      "SpecificCharacterSet": "ISO_IR 100",
      "StudyID": "1",
      "StudyTime": "145852.325000",
      "TransmitCoilName": "Body",
      "VariableFlipAngleFlag": "N",
      "WindowCenterWidthExplanation": "Algo1",
      "dBdt": 0.0},
    "slices": {}
  },
  "time": {
    "samples": {
      "AcquisitionNumber": [1, 2, 3, 4, 5, 6, 7, 8, 9, 10, 11, 12, 13, 14, 15, 16, 17, 18, 19, 20, 21, 22, 23, 24, 25, 26, 27, 28, 29, 30, 31, 32, 33, 34, 35, 36, 37, 38, 39, 40, 41, 42, 43, 44, 45, 46, 47, 48, 49, 50, 51, 52, 53, 54, 55, 56, 57, 58, 59, 60, 61, 62, 63, 64, 65, 66, 67, 68, 69, 70, 71, 72, 73, 74, 75, 76, 77, 78, 79, 80, 81, 82, 83, 84, 85, 86, 87, 88, 89, 90, 91, 92, 93, 94, 95, 96, 97, 98, 99, 100, 101, 102, 103, 104, 105, 106, 107, 108, 109, 110, 111, 112, 113, 114, 115, 116, 117, 118, 119, 120, 121, 122, 123, 124, 125, 126, 127, 128, 129, 130, 131, 132, 133, 134, 135, 136, 137, 138, 139, 140, 141, 142, 143, 144, 145, 146, 147, 148, 149, 150, 151, 152, 153, 154, 155, 156, 157, 158, 159, 160, 161, 162, 163, 164, 165, 166, 167, 168, 169, 170, 171, 172, 173, 174, 175, 176, 177, 178, 179, 180, 181, 182, 183, 184, 185, 186, 187, 188, 189, 190],
      "AcquisitionTime": ["153420.747500", "153422.237500", "153423.727500", "153425.217500", "153426.707500", "153428.197500", "153429.687500", "153431.177500", "153432.667500", "153434.157500", "153435.647500", "153437.137500", "153438.627500", "153440.117500", "153441.607500", "153443.097500", "153444.587500", "153446.077500", "153447.567500", "153449.057500", "153450.547500", "153452.037500", "153453.527500", "153455.017500", "153456.507500", "153457.997500", "153459.487500", "153500.977500", "153502.467500", "153503.957500", "153505.447500", "153506.937500", "153508.427500", "153509.917500", "153511.407500", "153512.897500", "153514.387500", "153515.877500", "153517.367500", "153518.857500", "153520.347500", "153521.837500", "153523.327500", "153524.817500", "153526.307500", "153527.797500", "153529.287500", "153530.777500", "153532.267500", "153533.757500", "153535.247500", "153536.737500", "153538.227500", "153539.717500", "153541.207500", "153542.697500", "153544.187500", "153545.677500", "153547.167500", "153548.657500", "153550.147500", "153551.637500", "153553.127500", "153554.617500", "153556.107500", "153557.597500", "153559.087500", "153600.577500", "153602.067500", "153603.557500", "153605.047500", "153606.537500", "153608.027500", "153609.517500", "153611.007500", "153612.497500", "153613.987500", "153615.477500", "153616.967500", "153618.457500", "153619.947500", "153621.437500", "153622.927500", "153624.417500", "153625.907500", "153627.397500", "153628.887500", "153630.377500", "153631.867500", "153633.357500", "153634.847500", "153636.337500", "153637.827500", "153639.317500", "153640.807500", "153642.297500", "153643.787500", "153645.277500", "153646.767500", "153648.257500", "153649.747500", "153651.237500", "153652.727500", "153654.217500", "153655.707500", "153657.197500", "153658.687500", "153700.177500", "153701.667500", "153703.157500", "153704.647500", "153706.137500", "153707.627500", "153709.117500", "153710.607500", "153712.097500", "153713.587500", "153715.077500", "153716.567500", "153718.057500", "153719.547500", "153721.037500", "153722.527500", "153724.017500", "153725.507500", "153726.997500", "153728.487500", "153729.977500", "153731.467500", "153732.957500", "153734.447500", "153735.937500", "153737.427500", "153738.917500", "153740.407500", "153741.897500", "153743.387500", "153744.877500", "153746.367500", "153747.857500", "153749.347500", "153750.837500", "153752.327500", "153753.817500", "153755.307500", "153756.797500", "153758.287500", "153759.777500", "153801.267500", "153802.757500", "153804.247500", "153805.737500", "153807.227500", "153808.717500", "153810.207500", "153811.697500", "153813.187500", "153814.677500", "153816.167500", "153817.657500", "153819.147500", "153820.637500", "153822.127500", "153823.617500", "153825.107500", "153826.597500", "153828.087500", "153829.577500", "153831.067500", "153832.557500", "153834.047500", "153835.537500", "153837.027500", "153838.517500", "153840.007500", "153841.497500", "153842.987500", "153844.477500", "153845.967500", "153847.457500", "153848.947500", "153850.437500", "153851.927500", "153853.417500", "153854.907500", "153856.397500", "153857.887500", "153859.377500", "153900.867500", "153902.357500"],
      "ContentTime": ["153550.211000", "153550.214000", "153550.217000", "153550.223000", "153550.226000", "153550.228000", "153550.231000", "153550.233000", "153550.236000", "153550.238000", "153550.241000", "153550.243000", "153550.246000", "153550.248000", "153550.251000", "153550.253000", "153550.256000", "153550.258000", "153550.260000", "153550.263000", "153550.265000", "153550.268000", "153550.276000", "153550.279000", "153550.281000", "153550.284000", "153550.286000", "153550.289000", "153550.291000", "153550.294000", "153550.296000", "153550.298000", "153550.301000", "153550.304000", "153550.306000", "153610.123000", "153610.126000", "153610.128000", "153610.131000", "153610.133000", "153610.136000", "153610.138000", "153610.140000", "153610.143000", "153610.145000", "153610.148000", "153610.150000", "153610.153000", "153610.155000", "153610.158000", "153610.160000", "153610.163000", "153610.166000", "153610.168000", "153610.170000", "153630.116000", "153630.119000", "153630.121000", "153630.124000", "153630.126000", "153630.129000", "153630.131000", "153630.134000", "153630.136000", "153630.138000", "153630.141000", "153630.143000", "153630.146000", "153630.148000", "153630.151000", "153630.153000", "153630.156000", "153630.158000", "153630.161000", "153630.163000", "153650.109000", "153650.112000", "153650.114000", "153650.117000", "153650.119000", "153650.122000", "153650.124000", "153650.127000", "153650.129000", "153650.132000", "153650.134000", "153650.137000", "153650.143000", "153650.145000", "153650.148000", "153650.150000", "153650.153000", "153650.155000", "153650.158000", "153650.160000", "153730.158000", "153730.160000", "153730.163000", "153730.165000", "153730.168000", "153730.170000", "153730.173000", "153730.175000", "153730.177000", "153730.180000", "153730.182000", "153730.185000", "153730.187000", "153730.190000", "153730.192000", "153730.201000", "153730.203000", "153730.206000", "153730.208000", "153730.211000", "153730.213000", "153730.216000", "153730.218000", "153730.221000", "153730.223000", "153730.226000", "153730.228000", "153730.231000", "153730.233000", "153730.236000", "153730.238000", "153810.160000", "153810.162000", "153810.165000", "153810.168000", "153810.170000", "153810.172000", "153810.175000", "153810.177000", "153810.180000", "153810.182000", "153810.185000", "153810.187000", "153810.190000", "153810.192000", "153810.194000", "153810.197000", "153810.200000", "153810.202000", "153810.204000", "153810.207000", "153810.209000", "153810.212000", "153810.214000", "153810.217000", "153810.219000", "153810.222000", "153810.224000", "153850.150000", "153850.153000", "153850.155000", "153850.158000", "153850.160000", "153850.163000", "153850.166000", "153850.168000", "153850.170000", "153850.173000", "153850.176000", "153850.178000", "153850.180000", "153850.183000", "153850.185000", "153850.188000", "153850.190000", "153850.193000", "153850.195000", "153850.198000", "153850.200000", "153850.203000", "153850.205000", "153850.208000", "153850.210000", "153850.213000", "153850.215000", "153904.713000", "153904.716000", "153904.718000", "153904.721000", "153904.730000", "153904.732000", "153904.735000", "153904.738000", "153904.741000", "153904.744000"],
      "InstanceCreationTime": ["153550.211000", "153550.214000", "153550.217000", "153550.223000", "153550.226000", "153550.228000", "153550.231000", "153550.233000", "153550.236000", "153550.238000", "153550.241000", "153550.243000", "153550.246000", "153550.248000", "153550.251000", "153550.253000", "153550.256000", "153550.258000", "153550.260000", "153550.263000", "153550.265000", "153550.268000", "153550.276000", "153550.279000", "153550.281000", "153550.284000", "153550.286000", "153550.289000", "153550.291000", "153550.294000", "153550.296000", "153550.298000", "153550.301000", "153550.304000", "153550.306000", "153610.123000", "153610.126000", "153610.128000", "153610.131000", "153610.133000", "153610.136000", "153610.138000", "153610.140000", "153610.143000", "153610.145000", "153610.148000", "153610.150000", "153610.153000", "153610.155000", "153610.158000", "153610.160000", "153610.163000", "153610.166000", "153610.168000", "153610.170000", "153630.116000", "153630.119000", "153630.121000", "153630.124000", "153630.126000", "153630.129000", "153630.131000", "153630.134000", "153630.136000", "153630.138000", "153630.141000", "153630.143000", "153630.146000", "153630.148000", "153630.151000", "153630.153000", "153630.156000", "153630.158000", "153630.161000", "153630.163000", "153650.109000", "153650.112000", "153650.114000", "153650.117000", "153650.119000", "153650.122000", "153650.124000", "153650.127000", "153650.129000", "153650.132000", "153650.134000", "153650.137000", "153650.143000", "153650.145000", "153650.148000", "153650.150000", "153650.153000", "153650.155000", "153650.158000", "153650.160000", "153730.158000", "153730.160000", "153730.163000", "153730.165000", "153730.168000", "153730.170000", "153730.173000", "153730.175000", "153730.177000", "153730.180000", "153730.182000", "153730.185000", "153730.187000", "153730.190000", "153730.192000", "153730.201000", "153730.203000", "153730.206000", "153730.208000", "153730.211000", "153730.213000", "153730.216000", "153730.218000", "153730.221000", "153730.223000", "153730.226000", "153730.228000", "153730.231000", "153730.233000", "153730.236000", "153730.238000", "153810.160000", "153810.162000", "153810.165000", "153810.168000", "153810.170000", "153810.172000", "153810.175000", "153810.177000", "153810.180000", "153810.182000", "153810.185000", "153810.187000", "153810.190000", "153810.192000", "153810.194000", "153810.197000", "153810.200000", "153810.202000", "153810.204000", "153810.207000", "153810.209000", "153810.212000", "153810.214000", "153810.217000", "153810.219000", "153810.222000", "153810.224000", "153850.150000", "153850.153000", "153850.155000", "153850.158000", "153850.160000", "153850.163000", "153850.166000", "153850.168000", "153850.170000", "153850.173000", "153850.176000", "153850.178000", "153850.180000", "153850.183000", "153850.185000", "153850.188000", "153850.190000", "153850.193000", "153850.195000", "153850.198000", "153850.200000", "153850.203000", "153850.205000", "153850.208000", "153850.210000", "153850.213000", "153850.215000", "153904.713000", "153904.716000", "153904.718000", "153904.721000", "153904.730000", "153904.732000", "153904.735000", "153904.738000", "153904.741000", "153904.744000"],
      "InstanceNumber": [1, 2, 3, 4, 5, 6, 7, 8, 9, 10, 11, 12, 13, 14, 15, 16, 17, 18, 19, 20, 21, 22, 23, 24, 25, 26, 27, 28, 29, 30, 31, 32, 33, 34, 35, 36, 37, 38, 39, 40, 41, 42, 43, 44, 45, 46, 47, 48, 49, 50, 51, 52, 53, 54, 55, 56, 57, 58, 59, 60, 61, 62, 63, 64, 65, 66, 67, 68, 69, 70, 71, 72, 73, 74, 75, 76, 77, 78, 79, 80, 81, 82, 83, 84, 85, 86, 87, 88, 89, 90, 91, 92, 93, 94, 95, 96, 97, 98, 99, 100, 101, 102, 103, 104, 105, 106, 107, 108, 109, 110, 111, 112, 113, 114, 115, 116, 117, 118, 119, 120, 121, 122, 123, 124, 125, 126, 127, 128, 129, 130, 131, 132, 133, 134, 135, 136, 137, 138, 139, 140, 141, 142, 143, 144, 145, 146, 147, 148, 149, 150, 151, 152, 153, 154, 155, 156, 157, 158, 159, 160, 161, 162, 163, 164, 165, 166, 167, 168, 169, 170, 171, 172, 173, 174, 175, 176, 177, 178, 179, 180, 181, 182, 183, 184, 185, 186, 187, 188, 189, 190],
      "WindowCenter": [4760.0, 4786.0, 4786.0, 4788.0, 4790.0, 4788.0, 4790.0, 4786.0, 4784.0, 4784.0, 4784.0, 4786.0, 4784.0, 4788.0, 4788.0, 4784.0, 4766.0, 4788.0, 4792.0, 4766.0, 4760.0, 4784.0, 4782.0, 4786.0, 4786.0, 4786.0, 4786.0, 4768.0, 4762.0, 4758.0, 4788.0, 4786.0, 4760.0, 4786.0, 4790.0, 4766.0, 4764.0, 4790.0, 4786.0, 4788.0, 4762.0, 4788.0, 4770.0, 4788.0, 4784.0, 4784.0, 4764.0, 4784.0, 4784.0, 4786.0, 4792.0, 4764.0, 4788.0, 4766.0, 4760.0, 4784.0, 4760.0, 4764.0, 4786.0, 4764.0, 4786.0, 4766.0, 4786.0, 4786.0, 4766.0, 4788.0, 4792.0, 4758.0, 4784.0, 4790.0, 4786.0, 4762.0, 4764.0, 4760.0, 4766.0, 4766.0, 4788.0, 4760.0, 4796.0, 4766.0, 4760.0, 4784.0, 4782.0, 4762.0, 4762.0, 4764.0, 4768.0, 4762.0, 4768.0, 4764.0, 4792.0, 4794.0, 4760.0, 4766.0, 4780.0, 4784.0, 4784.0, 4784.0, 4768.0, 4792.0, 4794.0, 4792.0, 4792.0, 4760.0, 4766.0, 4762.0, 4784.0, 4764.0, 4764.0, 4764.0, 4792.0, 4798.0, 4768.0, 4758.0, 4764.0, 4758.0, 4762.0, 4758.0, 4764.0, 4762.0, 4796.0, 4766.0, 4762.0, 4766.0, 4768.0, 4766.0, 4760.0, 4786.0, 4762.0, 4768.0, 4764.0, 4796.0, 4766.0, 4790.0, 4762.0, 4794.0, 4764.0, 4766.0, 4762.0, 4762.0, 4764.0, 4764.0, 4766.0, 4766.0, 4772.0, 4764.0, 4770.0, 4762.0, 4764.0, 4758.0, 4764.0, 4762.0, 4762.0, 4764.0, 4768.0, 4766.0, 4768.0, 4766.0, 4762.0, 4766.0, 4762.0, 4764.0, 4764.0, 4768.0, 4762.0, 4790.0, 4762.0, 4768.0, 4786.0, 4766.0, 4764.0, 4794.0, 4786.0, 4764.0, 4766.0, 4768.0, 4764.0, 4768.0, 4766.0, 4766.0, 4764.0, 4766.0, 4762.0, 4762.0, 4784.0, 4784.0, 4768.0, 4790.0, 4798.0, 4832.0],
      "WindowWidth": [18510.0, 18546.0, 18556.0, 18542.0, 18542.0, 18550.0, 18540.0, 18548.0, 18544.0, 18550.0, 18546.0, 18546.0, 18552.0, 18544.0, 18546.0, 18544.0, 18512.0, 18552.0, 18540.0, 18510.0, 18510.0, 18548.0, 18544.0, 18546.0, 18548.0, 18546.0, 18544.0, 18512.0, 18514.0, 18510.0, 18538.0, 18552.0, 18518.0, 18550.0, 18536.0, 18516.0, 18510.0, 18544.0, 18550.0, 18546.0, 18514.0, 18542.0, 18512.0, 18542.0, 18552.0, 18550.0, 18508.0, 18546.0, 18550.0, 18544.0, 18536.0, 18518.0, 18544.0, 18504.0, 18516.0, 18550.0, 18514.0, 18510.0, 18548.0, 18512.0, 18544.0, 18510.0, 18540.0, 18546.0, 18516.0, 18546.0, 18544.0, 18512.0, 18546.0, 18540.0, 18544.0, 18514.0, 18514.0, 18512.0, 18510.0, 18514.0, 18546.0, 18512.0, 18540.0, 18510.0, 18514.0, 18546.0, 18548.0, 18516.0, 18512.0, 18512.0, 18510.0, 18508.0, 18514.0, 18512.0, 18538.0, 18536.0, 18516.0, 18516.0, 18552.0, 18546.0, 18550.0, 18540.0, 18510.0, 18542.0, 18540.0, 18544.0, 18544.0, 18510.0, 18516.0, 18520.0, 18548.0, 18518.0, 18514.0, 18512.0, 18546.0, 18538.0, 18512.0, 18506.0, 18504.0, 18512.0, 18510.0, 18516.0, 18514.0, 18512.0, 18540.0, 18512.0, 18516.0, 18516.0, 18512.0, 18512.0, 18514.0, 18548.0, 18512.0, 18514.0, 18518.0, 18544.0, 18510.0, 18542.0, 18510.0, 18540.0, 18516.0, 18514.0, 18518.0, 18514.0, 18514.0, 18516.0, 18516.0, 18510.0, 18512.0, 18510.0, 18510.0, 18508.0, 18514.0, 18516.0, 18512.0, 18514.0, 18512.0, 18512.0, 18510.0, 18510.0, 18514.0, 18512.0, 18514.0, 18518.0, 18518.0, 18510.0, 18514.0, 18512.0, 18514.0, 18542.0, 18510.0, 18510.0, 18544.0, 18510.0, 18512.0, 18544.0, 18546.0, 18514.0, 18518.0, 18502.0, 18510.0, 18510.0, 18518.0, 18514.0, 18510.0, 18516.0, 18506.0, 18514.0, 18546.0, 18546.0, 18510.0, 18540.0, 18540.0, 18586.0]
    },
    "slices": {}
  }
}