{
  "AcquisitionMatrixPE": 104,
  "AcquisitionNumber": 1,
  "AcquisitionTime": "15:53:3.427500",
  "BandwidthPerPixelPhaseEncode": 17.17,
  "BaseResolution": 104,
  "BodyPartExamined": "BRAIN",
  "CoilString": "HC1-7;NC1_2",
  "ConsistencyInfo": "N4_VE11C_LATEST_20160120",
  "ConversionSoftware": "dcm2niix",
  "ConversionSoftwareVersion": "v1.0.20190902",
  "DerivedVendorReportedEchoSpacing": 0.000560011,
  "DeviceSerialNumber": "167006",
  "DwellTime": 2.1e-06,
  "EchoTime": 0.037,
  "EchoTrainLength": 104,
  "EffectiveEchoSpacing": 0.000560011,
  "FlipAngle": 52,
  "ImageComments": "Unaliased_MB4_PE3_LB",
  "ImageOrientationPatientDICOM": [0.998053, -0.0620738, 0.00615982, 0.0610435, 0.951594, -0.301234],
  "ImageType": [
    "ORIGINAL",
    "PRIMARY",
    "M",
    "MB",
    "ND",
    "MOSAIC"
],
  "ImagingFrequency": 123.259,
  "InPlanePhaseEncodingDirectionDICOM": "COL",
  "InstitutionAddress": "Chemin_Queen-Mary_4565_Montreal_District_CA_H3W_1W5",
  "InstitutionName": "IUGM",
  "InstitutionalDepartmentName": "Department",
  "MRAcquisitionType": "2D",
  "MagneticFieldStrength": 3,
  "Manufacturer": "Siemens",
  "ManufacturersModelName": "Prisma_fit",
  "Modality": "MR",
  "MultibandAccelerationFactor": 4,
  "PartialFourier": 1,
  "PatientPosition": "HFS",
  "PercentPhaseFOV": 100,
  "PhaseEncodingDirection": "j",
  "PhaseEncodingSteps": 104,
  "PhaseResolution": 1,
  "PixelBandwidth": 2290,
  "ProcedureStepDescription": "memory_things",
  "ProtocolName": "func_task-things_run-4",
  "PulseSequenceDetails": "%CustomerSeq%_cmrr_mbep2d_bold",
  "ReceiveCoilActiveElements": "HC1-7;NC1,2",
  "ReceiveCoilName": "HeadNeck_64",
  "ReconMatrixPE": 104,
  "RepetitionTime": 1.49,
  "SAR": 0.0485574,
  "ScanOptions": "FS",
  "ScanningSequence": "EP",
  "SequenceName": "epfid2d1_104",
  "SequenceVariant": "SK_SS",
  "SeriesDescription": "func_task-things_run-4",
  "SeriesNumber": 19,
  "ShimSetting": [627, -7266, -8830, 610, -16, -242, 28, -16],
  "SliceThickness": 2,
  "SliceTiming": [0, 0.7825, 0.0975, 0.88, 0.195, 0.98, 0.2925, 1.0775, 0.39, 1.175, 0.49, 1.2725, 0.5875, 1.37, 0.685, 0, 0.7825, 0.0975, 0.88, 0.195, 0.98, 0.2925, 1.0775, 0.39, 1.175, 0.49, 1.2725, 0.5875, 1.37, 0.685, 0, 0.7825, 0.0975, 0.88, 0.195, 0.98, 0.2925, 1.0775, 0.39, 1.175, 0.49, 1.2725, 0.5875, 1.37, 0.685, 0, 0.7825, 0.0975, 0.88, 0.195, 0.98, 0.2925, 1.0775, 0.39, 1.175, 0.49, 1.2725, 0.5875, 1.37, 0.685],
  "SoftwareVersions": "syngo_MR_E11",
  "SpacingBetweenSlices": 2,
  "StationName": "MRC35049",
  "TaskName": "things",
  "TotalReadoutTime": 0.0576811,
  "TxRefAmp": 253.695,
  "WipMemBlock": "78e207a9-5421-4d4e-ab27-9930bc260509||Sequence: R016 ve11c/master r/e634e98; Dec 19 2017 11:00:25 by eja",
  "dcmmeta_affine": [
    [-1.9961050748825073, 0.12208699434995651, -0.025674207136034966, 100.77287292480469],
    [0.12414759397506714, 1.9031885862350464, -0.6020472049713135, -74.48480987548828],
    [0.012319637462496758, 0.6024684309959412, 1.9070606231689453, -64.40814208984375],
    [0.0, 0.0, 0.0, 1.0]
],
  "dcmmeta_reorient_transform": [
    [0.0, -1.0, 0.0, 103.0],
    [1.0, 0.0, 0.0, 0.0],
    [0.0, 0.0, 1.0, 0.0],
    [0.0, 0.0, 0.0, 1.0]
],
  "dcmmeta_shape": [104, 104, 60, 190],
  "dcmmeta_slice_dim": 2,
  "dcmmeta_version": 0.6,
  "global": {
    "const": {
      "AcquisitionMatrix": [104, 0, 0, 104],
      "AngioFlag": "N",
      "BitsAllocated": 16,
      "BitsStored": 16,
      "BodyPartExamined": "BRAIN",
      "Columns": 832,
      "EchoNumbers": 1,
      "EchoTime": 37.0,
      "EchoTrainLength": 104,
      "FlipAngle": 52.0,
      "HighBit": 15,
      "ImageOrientationPatient": [0.99805255387841, -0.0620737974434, 0.0061598188082, 0.06104349664093, 0.95159426368244, -0.3012342092866],
      "ImagePositionPatient": [-884.36976134693, -769.11451141614, 212.46026308677],
      "ImageType": [
        "ORIGINAL",
        "PRIMARY",
        "M",
        "MB",
        "ND",
        "MOSAIC"
],
      "ImagedNucleus": "1H",
      "ImagingFrequency": 123.258933,
      "InPlanePhaseEncodingDirection": "COL",
      "MRAcquisitionType": "2D",
      "MagneticFieldStrength": 3.0,
      "Manufacturer": "SIEMENS",
      "ManufacturerModelName": "Prisma_fit",
      "Modality": "MR",
      "NumberOfAverages": 1.0,
      "NumberOfPhaseEncodingSteps": 104,
      "PercentPhaseFieldOfView": 100.0,
      "PercentSampling": 100.0,
      "PerformedProcedureStepStartTime": "145852.389000",
      "PhotometricInterpretation": "MONOCHROME2",
      "PixelBandwidth": 2290.0,
      "PixelRepresentation": 0,
      "PixelSpacing": [2.0, 2.0],
      "ProtocolName": "func_task-things_run-4",
      "RepetitionTime": 1490.0,
      "Rows": 832,
      "SAR": 0.04855742421757,
      "SamplesPerPixel": 1,
      "ScanOptions": "FS",
      "ScanningSequence": "EP",
      "SequenceName": "epfid2d1_104",
      "SequenceVariant": [
        "SK",
        "SS"
],
      "SeriesDescription": "func_task-things_run-4",
      "SeriesNumber": 19,
      "SeriesTime": "155430.036000",
      "SliceLocation": -40.287060573455,
      "SliceThickness": 2.0,
      "SmallestImagePixelValue": 0,
      "SoftwareVersions": "syngo MR E11",
      "SpacingBetweenSlices": 2.0000000113153,
      "SpecificCharacterSet": "ISO_IR 100",
      "StudyID": "1",
      "StudyTime": "145852.325000",
      "TransmitCoilName": "Body",
      "VariableFlipAngleFlag": "N",
      "WindowCenterWidthExplanation": "Algo1",
      "dBdt": 0.0},
    "slices": {}
  },
  "time": {
    "samples": {
      "AcquisitionNumber": [1, 2, 3, 4, 5, 6, 7, 8, 9, 10, 11, 12, 13, 14, 15, 16, 17, 18, 19, 20, 21, 22, 23, 24, 25, 26, 27, 28, 29, 30, 31, 32, 33, 34, 35, 36, 37, 38, 39, 40, 41, 42, 43, 44, 45, 46, 47, 48, 49, 50, 51, 52, 53, 54, 55, 56, 57, 58, 59, 60, 61, 62, 63, 64, 65, 66, 67, 68, 69, 70, 71, 72, 73, 74, 75, 76, 77, 78, 79, 80, 81, 82, 83, 84, 85, 86, 87, 88, 89, 90, 91, 92, 93, 94, 95, 96, 97, 98, 99, 100, 101, 102, 103, 104, 105, 106, 107, 108, 109, 110, 111, 112, 113, 114, 115, 116, 117, 118, 119, 120, 121, 122, 123, 124, 125, 126, 127, 128, 129, 130, 131, 132, 133, 134, 135, 136, 137, 138, 139, 140, 141, 142, 143, 144, 145, 146, 147, 148, 149, 150, 151, 152, 153, 154, 155, 156, 157, 158, 159, 160, 161, 162, 163, 164, 165, 166, 167, 168, 169, 170, 171, 172, 173, 174, 175, 176, 177, 178, 179, 180, 181, 182, 183, 184, 185, 186, 187, 188, 189, 190],
      "AcquisitionTime": ["155303.427500", "155304.917500", "155306.407500", "155307.897500", "155309.387500", "155310.877500", "155312.367500", "155313.857500", "155315.347500", "155316.837500", "155318.327500", "155319.817500", "155321.307500", "155322.797500", "155324.287500", "155325.777500", "155327.267500", "155328.757500", "155330.247500", "155331.737500", "155333.227500", "155334.717500", "155336.207500", "155337.697500", "155339.187500", "155340.677500", "155342.167500", "155343.657500", "155345.147500", "155346.637500", "155348.127500", "155349.617500", "155351.107500", "155352.597500", "155354.087500", "155355.577500", "155357.067500", "155358.557500", "155400.047500", "155401.537500", "155403.027500", "155404.517500", "155406.007500", "155407.497500", "155408.987500", "155410.477500", "155411.967500", "155413.457500", "155414.947500", "155416.437500", "155417.927500", "155419.417500", "155420.907500", "155422.397500", "155423.887500", "155425.377500", "155426.867500", "155428.357500", "155429.847500", "155431.337500", "155432.827500", "155434.317500", "155435.807500", "155437.297500", "155438.787500", "155440.277500", "155441.767500", "155443.257500", "155444.747500", "155446.237500", "155447.727500", "155449.217500", "155450.707500", "155452.197500", "155453.687500", "155455.177500", "155456.667500", "155458.157500", "155459.647500", "155501.137500", "155502.627500", "155504.117500", "155505.607500", "155507.097500", "155508.587500", "155510.077500", "155511.567500", "155513.057500", "155514.547500", "155516.037500", "155517.527500", "155519.017500", "155520.507500", "155521.997500", "155523.487500", "155524.977500", "155526.467500", "155527.957500", "155529.447500", "155530.937500", "155532.427500", "155533.917500", "155535.407500", "155536.897500", "155538.387500", "155539.877500", "155541.367500", "155542.857500", "155544.347500", "155545.837500", "155547.327500", "155548.817500", "155550.307500", "155551.797500", "155553.287500", "155554.777500", "155556.267500", "155557.757500", "155559.247500", "155600.737500", "155602.227500", "155603.717500", "155605.207500", "155606.697500", "155608.187500", "155609.677500", "155611.167500", "155612.657500", "155614.147500", "155615.637500", "155617.127500", "155618.617500", "155620.107500", "155621.597500", "155623.087500", "155624.577500", "155626.067500", "155627.557500", "155629.047500", "155630.537500", "155632.027500", "155633.517500", "155635.007500", "155636.497500", "155637.987500", "155639.477500", "155640.967500", "155642.457500", "155643.947500", "155645.437500", "155646.927500", "155648.417500", "155649.907500", "155651.397500", "155652.887500", "155654.377500", "155655.867500", "155657.357500", "155658.847500", "155700.337500", "155701.827500", "155703.317500", "155704.807500", "155706.297500", "155707.787500", "155709.277500", "155710.767500", "155712.257500", "155713.747500", "155715.237500", "155716.727500", "155718.217500", "155719.707500", "155721.197500", "155722.687500", "155724.177500", "155725.667500", "155727.157500", "155728.647500", "155730.137500", "155731.627500", "155733.117500", "155734.607500", "155736.097500", "155737.587500", "155739.077500", "155740.567500", "155742.057500", "155743.547500", "155745.037500"],
      "ContentTime": ["155430.039000", "155430.043000", "155430.047000", "155430.055000", "155430.058000", "155430.061000", "155430.065000", "155430.068000", "155430.071000", "155430.075000", "155430.078000", "155430.081000", "155430.084000", "155430.088000", "155430.091000", "155430.094000", "155430.098000", "155430.101000", "155430.104000", "155430.107000", "155430.111000", "155430.114000", "155430.117000", "155430.120000", "155430.124000", "155430.127000", "155430.130000", "155430.134000", "155430.137000", "155430.149000", "155430.158000", "155430.162000", "155430.165000", "155450.007000", "155450.011000", "155450.014000", "155450.017000", "155450.021000", "155450.024000", "155450.027000", "155450.030000", "155450.034000", "155450.037000", "155450.040000", "155450.044000", "155450.047000", "155450.050000", "155450.053000", "155450.057000", "155450.060000", "155450.063000", "155450.066000", "155450.070000", "155510.007000", "155510.011000", "155510.014000", "155510.017000", "155510.021000", "155510.024000", "155510.027000", "155510.031000", "155510.034000", "155510.037000", "155510.040000", "155510.044000", "155510.047000", "155510.050000", "155510.053000", "155510.057000", "155510.060000", "155510.063000", "155510.066000", "155510.070000", "155530.007000", "155530.011000", "155530.014000", "155530.017000", "155530.021000", "155530.024000", "155530.027000", "155530.031000", "155530.034000", "155530.037000", "155530.040000", "155530.044000", "155530.047000", "155530.050000", "155530.054000", "155530.057000", "155530.060000", "155530.063000", "155530.067000", "155530.070000", "155530.073000", "155610.007000", "155610.011000", "155610.014000", "155610.017000", "155610.021000", "155610.024000", "155610.027000", "155610.031000", "155610.034000", "155610.037000", "155610.041000", "155610.044000", "155610.047000", "155610.050000", "155610.054000", "155610.057000", "155610.060000", "155610.063000", "155610.067000", "155610.070000", "155610.073000", "155610.077000", "155610.080000", "155610.083000", "155610.086000", "155610.090000", "155610.093000", "155610.096000", "155610.099000", "155610.103000", "155650.007000", "155650.011000", "155650.014000", "155650.017000", "155650.021000", "155650.024000", "155650.028000", "155650.031000", "155650.034000", "155650.038000", "155650.041000", "155650.044000", "155650.047000", "155650.051000", "155650.054000", "155650.057000", "155650.061000", "155650.064000", "155650.067000", "155650.070000", "155650.074000", "155650.077000", "155650.080000", "155650.083000", "155650.087000", "155650.090000", "155650.093000", "155730.007000", "155730.011000", "155730.014000", "155730.017000", "155730.021000", "155730.024000", "155730.028000", "155730.031000", "155730.034000", "155730.038000", "155730.041000", "155730.044000", "155730.047000", "155730.051000", "155730.054000", "155730.057000", "155730.061000", "155730.064000", "155730.067000", "155730.071000", "155730.074000", "155730.077000", "155730.080000", "155730.084000", "155730.087000", "155730.090000", "155730.094000", "155747.184000", "155747.188000", "155747.191000", "155747.194000", "155747.198000", "155747.201000", "155747.204000", "155747.207000", "155747.211000", "155747.214000", "155747.217000", "155747.221000"],
      "InstanceCreationTime": ["155430.039000", "155430.043000", "155430.047000", "155430.055000", "155430.058000", "155430.061000", "155430.065000", "155430.068000", "155430.071000", "155430.075000", "155430.078000", "155430.081000", "155430.084000", "155430.088000", "155430.091000", "155430.094000", "155430.098000", "155430.101000", "155430.104000", "155430.107000", "155430.111000", "155430.114000", "155430.117000", "155430.120000", "155430.124000", "155430.127000", "155430.130000", "155430.134000", "155430.137000", "155430.149000", "155430.158000", "155430.162000", "155430.165000", "155450.007000", "155450.011000", "155450.014000", "155450.017000", "155450.021000", "155450.024000", "155450.027000", "155450.030000", "155450.034000", "155450.037000", "155450.040000", "155450.044000", "155450.047000", "155450.050000", "155450.053000", "155450.057000", "155450.060000", "155450.063000", "155450.066000", "155450.070000", "155510.007000", "155510.011000", "155510.014000", "155510.017000", "155510.021000", "155510.024000", "155510.027000", "155510.031000", "155510.034000", "155510.037000", "155510.040000", "155510.044000", "155510.047000", "155510.050000", "155510.053000", "155510.057000", "155510.060000", "155510.063000", "155510.066000", "155510.070000", "155530.007000", "155530.011000", "155530.014000", "155530.017000", "155530.021000", "155530.024000", "155530.027000", "155530.031000", "155530.034000", "155530.037000", "155530.040000", "155530.044000", "155530.047000", "155530.050000", "155530.054000", "155530.057000", "155530.060000", "155530.063000", "155530.067000", "155530.070000", "155530.073000", "155610.007000", "155610.011000", "155610.014000", "155610.017000", "155610.021000", "155610.024000", "155610.027000", "155610.031000", "155610.034000", "155610.037000", "155610.041000", "155610.044000", "155610.047000", "155610.050000", "155610.054000", "155610.057000", "155610.060000", "155610.063000", "155610.067000", "155610.070000", "155610.073000", "155610.077000", "155610.080000", "155610.083000", "155610.086000", "155610.090000", "155610.093000", "155610.096000", "155610.099000", "155610.103000", "155650.007000", "155650.011000", "155650.014000", "155650.017000", "155650.021000", "155650.024000", "155650.028000", "155650.031000", "155650.034000", "155650.038000", "155650.041000", "155650.044000", "155650.047000", "155650.051000", "155650.054000", "155650.057000", "155650.061000", "155650.064000", "155650.067000", "155650.070000", "155650.074000", "155650.077000", "155650.080000", "155650.083000", "155650.087000", "155650.090000", "155650.093000", "155730.007000", "155730.011000", "155730.014000", "155730.017000", "155730.021000", "155730.024000", "155730.028000", "155730.031000", "155730.034000", "155730.038000", "155730.041000", "155730.044000", "155730.047000", "155730.051000", "155730.054000", "155730.057000", "155730.061000", "155730.064000", "155730.067000", "155730.071000", "155730.074000", "155730.077000", "155730.080000", "155730.084000", "155730.087000", "155730.090000", "155730.094000", "155747.184000", "155747.188000", "155747.191000", "155747.194000", "155747.198000", "155747.201000", "155747.204000", "155747.207000", "155747.211000", "155747.214000", "155747.217000", "155747.221000"],
      "InstanceNumber": [1, 2, 3, 4, 5, 6, 7, 8, 9, 10, 11, 12, 13, 14, 15, 16, 17, 18, 19, 20, 21, 22, 23, 24, 25, 26, 27, 28, 29, 30, 31, 32, 33, 34, 35, 36, 37, 38, 39, 40, 41, 42, 43, 44, 45, 46, 47, 48, 49, 50, 51, 52, 53, 54, 55, 56, 57, 58, 59, 60, 61, 62, 63, 64, 65, 66, 67, 68, 69, 70, 71, 72, 73, 74, 75, 76, 77, 78, 79, 80, 81, 82, 83, 84, 85, 86, 87, 88, 89, 90, 91, 92, 93, 94, 95, 96, 97, 98, 99, 100, 101, 102, 103, 104, 105, 106, 107, 108, 109, 110, 111, 112, 113, 114, 115, 116, 117, 118, 119, 120, 121, 122, 123, 124, 125, 126, 127, 128, 129, 130, 131, 132, 133, 134, 135, 136, 137, 138, 139, 140, 141, 142, 143, 144, 145, 146, 147, 148, 149, 150, 151, 152, 153, 154, 155, 156, 157, 158, 159, 160, 161, 162, 163, 164, 165, 166, 167, 168, 169, 170, 171, 172, 173, 174, 175, 176, 177, 178, 179, 180, 181, 182, 183, 184, 185, 186, 187, 188, 189, 190],
      "LargestImagePixelValue": [44407, 42693, 42638, 42027, 40478, 41107, 40437, 40042, 40724, 40967, 40599, 41136, 41016, 40707, 39842, 42110, 39207, 39896, 40871, 41057, 41654, 40948, 41198, 41830, 40777, 40068, 40249, 42180, 41937, 40768, 41421, 41986, 39167, 39469, 40020, 39126, 39063, 40510, 40980, 39459, 40305, 41023, 39491, 39837, 41607, 41380, 41427, 41814, 39840, 41249, 42093, 40267, 41530, 40082, 40001, 40646, 40121, 40321, 41154, 40312, 40657, 40285, 40421, 40176, 40294, 41327, 40580, 41427, 40955, 40638, 40783, 39936, 40693, 40216, 41006, 40509, 40773, 40524, 40543, 40403, 40946, 41156, 40670, 40510, 40887, 40469, 39807, 40659, 40197, 40585, 40295, 41222, 40949, 40697, 39894, 40246, 39831, 40646, 40394, 39954, 40722, 39824, 40504, 39839, 40350, 40847, 40953, 40996, 40699, 40242, 40410, 40209, 39654, 39661, 40363, 40702, 40636, 40506, 41939, 40124, 39668, 39956, 39810, 39971, 40046, 40142, 40261, 40031, 40177, 40938, 41858, 40495, 40193, 40944, 40388, 40410, 40308, 39729, 40271, 40409, 39929, 41415, 40295, 40659, 40292, 39487, 39701, 40589, 39745, 40187, 39764, 39825, 39853, 39623, 40202, 39675, 40376, 41509, 40140, 40385, 40265, 40401, 40326, 40057, 39951, 40700, 40226, 41077, 39883, 40463, 40124, 40903, 40197, 40804, 40433, 40358, 40649, 40575, 40137, 39898, 40071, 39969, 40518, 40085, 40208, 40405, 40149, 39944, 42199, 41858],
      "WindowCenter": [10452.0, 10404.0, 10394.0, 10410.0, 10372.0, 10345.0, 10418.0, 10348.0, 10347.0, 10384.0, 10339.0, 10353.0, 10376.0, 10387.0, 10349.0, 10394.0, 10327.0, 10302.0, 10301.0, 10292.0, 10311.0, 10325.0, 10318.0, 10355.0, 10334.0, 10334.0, 10325.0, 10365.0, 10320.0, 10379.0, 10425.0, 10420.0, 10338.0, 10340.0, 10349.0, 10257.0, 10257.0, 10271.0, 10291.0, 10333.0, 10357.0, 10347.0, 10334.0, 10353.0, 10374.0, 10424.0, 10391.0, 10410.0, 10379.0, 10323.0, 10334.0, 10315.0, 10350.0, 10337.0, 10310.0, 10311.0, 10330.0, 10349.0, 10396.0, 10331.0, 10370.0, 10348.0, 10332.0, 10310.0, 10315.0, 10324.0, 10340.0, 10376.0, 10383.0, 10356.0, 10342.0, 10320.0, 10302.0, 10295.0, 10309.0, 10320.0, 10321.0, 10328.0, 10330.0, 10327.0, 10330.0, 10357.0, 10371.0, 10367.0, 10321.0, 10287.0, 10277.0, 10288.0, 10303.0, 10359.0, 10361.0, 10413.0, 10369.0, 10374.0, 10370.0, 10358.0, 10330.0, 10327.0, 10290.0, 10297.0, 10355.0, 10267.0, 10296.0, 10286.0, 10284.0, 10294.0, 10314.0, 10358.0, 10370.0, 10347.0, 10327.0, 10311.0, 10302.0, 10288.0, 10284.0, 10322.0, 10321.0, 10353.0, 10369.0, 10310.0, 10279.0, 10275.0, 10283.0, 10293.0, 10278.0, 10297.0, 10307.0, 10303.0, 10315.0, 10357.0, 10403.0, 10386.0, 10378.0, 10355.0, 10335.0, 10318.0, 10319.0, 10297.0, 10315.0, 10325.0, 10303.0, 10338.0, 10344.0, 10332.0, 10311.0, 10267.0, 10284.0, 10288.0, 10309.0, 10339.0, 10317.0, 10281.0, 10284.0, 10292.0, 10352.0, 10318.0, 10323.0, 10397.0, 10338.0, 10354.0, 10372.0, 10351.0, 10318.0, 10307.0, 10309.0, 10322.0, 10315.0, 10314.0, 10286.0, 10298.0, 10293.0, 10296.0, 10308.0, 10360.0, 10372.0, 10353.0, 10312.0, 10292.0, 10284.0, 10283.0, 10304.0, 10323.0, 10330.0, 10308.0, 10292.0, 10293.0, 10308.0, 10331.0, 10359.0, 10382.0],
      "WindowWidth": [22607.0, 22460.0, 22412.0, 22440.0, 22354.0, 22275.0, 22456.0, 22282.0, 22278.0, 22372.0, 22262.0, 22293.0, 22345.0, 22373.0, 22284.0, 22381.0, 22237.0, 22177.0, 22169.0, 22147.0, 22189.0, 22226.0, 22209.0, 22292.0, 22249.0, 22253.0, 22232.0, 22326.0, 22213.0, 22362.0, 22475.0, 22465.0, 22272.0, 22268.0, 22294.0, 22075.0, 22076.0, 22101.0, 22142.0, 22247.0, 22301.0, 22279.0, 22257.0, 22300.0, 22336.0, 22456.0, 22373.0, 22414.0, 22352.0, 22215.0, 22239.0, 22203.0, 22278.0, 22258.0, 22201.0, 22194.0, 22240.0, 22282.0, 22396.0, 22245.0, 22332.0, 22278.0, 22240.0, 22195.0, 22207.0, 22222.0, 22259.0, 22343.0, 22364.0, 22301.0, 22270.0, 22221.0, 22181.0, 22160.0, 22190.0, 22217.0, 22222.0, 22235.0, 22240.0, 22237.0, 22241.0, 22299.0, 22336.0, 22326.0, 22219.0, 22142.0, 22125.0, 22148.0, 22179.0, 22304.0, 22314.0, 22442.0, 22337.0, 22340.0, 22338.0, 22307.0, 22246.0, 22240.0, 22150.0, 22164.0, 22308.0, 22096.0, 22161.0, 22143.0, 22140.0, 22163.0, 22205.0, 22306.0, 22335.0, 22286.0, 22235.0, 22200.0, 22177.0, 22150.0, 22141.0, 22236.0, 22225.0, 22301.0, 22336.0, 22200.0, 22128.0, 22113.0, 22135.0, 22161.0, 22126.0, 22166.0, 22190.0, 22187.0, 22214.0, 22310.0, 22414.0, 22373.0, 22360.0, 22300.0, 22257.0, 22218.0, 22221.0, 22168.0, 22209.0, 22238.0, 22185.0, 22260.0, 22277.0, 22251.0, 22207.0, 22106.0, 22141.0, 22147.0, 22197.0, 22264.0, 22222.0, 22134.0, 22140.0, 22163.0, 22304.0, 22222.0, 22227.0, 22408.0, 22265.0, 22300.0, 22342.0, 22292.0, 22217.0, 22191.0, 22198.0, 22228.0, 22210.0, 22207.0, 22145.0, 22172.0, 22162.0, 22170.0, 22195.0, 22315.0, 22344.0, 22300.0, 22204.0, 22158.0, 22142.0, 22140.0, 22184.0, 22230.0, 22242.0, 22195.0, 22161.0, 22163.0, 22200.0, 22251.0, 22301.0, 22359.0]
    },
    "slices": {}
  }
}