{
  "AcquisitionMatrixPE": 104,
  "AcquisitionNumber": 1,
  "AcquisitionTime": "11:37:1.970000",
  "BandwidthPerPixelPhaseEncode": 17.17,
  "BaseResolution": 104,
  "BodyPartExamined": "BRAIN",
  "CoilString": "HC1-7;NC1_2",
  "ConsistencyInfo": "N4_VE11C_LATEST_20160120",
  "ConversionSoftware": "dcm2niix",
  "ConversionSoftwareVersion": "v1.0.20190902",
  "DerivedVendorReportedEchoSpacing": 0.000560011,
  "DeviceSerialNumber": "167006",
  "DwellTime": 2.1e-06,
  "EchoTime": 0.037,
  "EchoTrainLength": 104,
  "EffectiveEchoSpacing": 0.000560011,
  "FlipAngle": 52,
  "ImageComments": "Unaliased_MB4_PE3_LB",
  "ImageOrientationPatientDICOM": [0.999953, -0.00379326, 0.00890943, 0.00610847, 0.961016, -0.276426],
  "ImageType": [
    "ORIGINAL",
    "PRIMARY",
    "P",
    "MB",
    "ND",
    "MOSAIC"
],
  "ImagingFrequency": 123.259,
  "InPlanePhaseEncodingDirectionDICOM": "COL",
  "InstitutionAddress": "Chemin_Queen-Mary_4565_Montreal_District_CA_H3W_1W5",
  "InstitutionName": "IUGM",
  "InstitutionalDepartmentName": "Department",
  "MRAcquisitionType": "2D",
  "MagneticFieldStrength": 3,
  "Manufacturer": "Siemens",
  "ManufacturersModelName": "Prisma_fit",
  "Modality": "MR",
  "MultibandAccelerationFactor": 4,
  "PartialFourier": 1,
  "PatientPosition": "HFS",
  "PercentPhaseFOV": 100,
  "PhaseEncodingDirection": "j",
  "PhaseEncodingSteps": 104,
  "PhaseResolution": 1,
  "PixelBandwidth": 2290,
  "ProcedureStepDescription": "memory_things",
  "ProtocolName": "func_task-things_run-1",
  "PulseSequenceDetails": "%CustomerSeq%_cmrr_mbep2d_bold",
  "ReceiveCoilActiveElements": "HC1-7;NC1,2",
  "ReceiveCoilName": "HeadNeck_64",
  "ReconMatrixPE": 104,
  "RepetitionTime": 1.49,
  "SAR": 0.0394319,
  "ScanOptions": "FS",
  "ScanningSequence": "EP",
  "SequenceName": "epfid2d1_104",
  "SequenceVariant": "SK_SS",
  "SeriesDescription": "func_task-things_run-1",
  "SeriesNumber": 11,
  "ShimSetting": [632, -7218, -8795, 665, 50, -2, 42, -12],
  "SliceThickness": 2,
  "SliceTiming": [0, 0.785, 0.0975, 0.8825, 0.1975, 0.98, 0.295, 1.0775, 0.3925, 1.1775, 0.49, 1.275, 0.5875, 1.3725, 0.6875, 0, 0.785, 0.0975, 0.8825, 0.1975, 0.98, 0.295, 1.0775, 0.3925, 1.1775, 0.49, 1.275, 0.5875, 1.3725, 0.6875, 0, 0.785, 0.0975, 0.8825, 0.1975, 0.98, 0.295, 1.0775, 0.3925, 1.1775, 0.49, 1.275, 0.5875, 1.3725, 0.6875, 0, 0.785, 0.0975, 0.8825, 0.1975, 0.98, 0.295, 1.0775, 0.3925, 1.1775, 0.49, 1.275, 0.5875, 1.3725, 0.6875],
  "SoftwareVersions": "syngo_MR_E11",
  "SpacingBetweenSlices": 2,
  "StationName": "MRC35049",
  "TaskName": "things",
  "TotalReadoutTime": 0.0576811,
  "TxRefAmp": 219.304,
  "WipMemBlock": "ac3cf31d-c78f-47d0-bc17-dc029c302c26||Sequence: R016 ve11c/master r/e634e98; Dec 19 2017 11:00:25 by eja",
  "dcmmeta_affine": [
    [-1.9999061822891235, 0.012216947972774506, 0.015027094632387161, 108.6772232055664],
    [0.007586524821817875, 1.922031283378601, -0.552935779094696, -74.061767578125],
    [0.017818868160247803, 0.5528528690338135, 1.921987533569336, -63.06194305419922],
    [0.0, 0.0, 0.0, 1.0]
],
  "dcmmeta_reorient_transform": [
    [0.0, -1.0, 0.0, 103.0],
    [1.0, 0.0, 0.0, 0.0],
    [0.0, 0.0, 1.0, 0.0],
    [0.0, 0.0, 0.0, 1.0]
],
  "dcmmeta_shape": [104, 104, 60, 190],
  "dcmmeta_slice_dim": 2,
  "dcmmeta_version": 0.6,
  "global": {
    "const": {
      "AcquisitionMatrix": [104, 0, 0, 104],
      "AngioFlag": "N",
      "BitsAllocated": 16,
      "BitsStored": 16,
      "BodyPartExamined": "BRAIN",
      "Columns": 832,
      "EchoNumbers": 1,
      "EchoTime": 37.0,
      "EchoTrainLength": 104,
      "FlipAngle": 52.0,
      "HighBit": 15,
      "ImageOrientationPatient": [0.9999531154761, -0.0037932625004, 0.00890943372216, 0.00610847402388, 0.96101566951614, -0.2764264269015],
      "ImagePositionPatient": [-842.3484063243, -820.76537541605, 188.63427321292],
      "ImageType": [
        "ORIGINAL",
        "PRIMARY",
        "P",
        "MB",
        "ND",
        "MOSAIC"
],
      "ImagedNucleus": "1H",
      "ImagingFrequency": 123.258976,
      "InPlanePhaseEncodingDirection": "COL",
      "LargestImagePixelValue": 4095,
      "MRAcquisitionType": "2D",
      "MagneticFieldStrength": 3.0,
      "Manufacturer": "SIEMENS",
      "ManufacturerModelName": "Prisma_fit",
      "Modality": "MR",
      "NumberOfAverages": 1.0,
      "NumberOfPhaseEncodingSteps": 104,
      "PercentPhaseFieldOfView": 100.0,
      "PercentSampling": 100.0,
      "PerformedProcedureStepStartTime": "105240.316000",
      "PhotometricInterpretation": "MONOCHROME2",
      "PixelBandwidth": 2290.0,
      "PixelRepresentation": 0,
      "PixelSpacing": [2.0, 2.0],
      "ProtocolName": "func_task-things_run-1",
      "RepetitionTime": 1490.0,
      "RescaleIntercept": -4096.0,
      "RescaleSlope": 2.0,
      "RescaleType": "US",
      "Rows": 832,
      "SAR": 0.03943190814887,
      "SamplesPerPixel": 1,
      "ScanOptions": "FS",
      "ScanningSequence": "EP",
      "SequenceName": "epfid2d1_104",
      "SequenceVariant": [
        "SK",
        "SS"
],
      "SeriesDescription": "func_task-things_run-1",
      "SeriesNumber": 11,
      "SeriesTime": "113807.355000",
      "SliceLocation": -39.309882722968,
      "SliceThickness": 2.0,
      "SmallestImagePixelValue": 0,
      "SoftwareVersions": "syngo MR E11",
      "SpacingBetweenSlices": 1.9999999359187,
      "SpecificCharacterSet": "ISO_IR 100",
      "StudyID": "1",
      "StudyTime": "105240.263000",
      "TransmitCoilName": "Body",
      "VariableFlipAngleFlag": "N",
      "WindowCenterWidthExplanation": "Algo1",
      "dBdt": 0.0},
    "slices": {}
  },
  "time": {
    "samples": {
      "AcquisitionNumber": [1, 2, 3, 4, 5, 6, 7, 8, 9, 10, 11, 12, 13, 14, 15, 16, 17, 18, 19, 20, 21, 22, 23, 24, 25, 26, 27, 28, 29, 30, 31, 32, 33, 34, 35, 36, 37, 38, 39, 40, 41, 42, 43, 44, 45, 46, 47, 48, 49, 50, 51, 52, 53, 54, 55, 56, 57, 58, 59, 60, 61, 62, 63, 64, 65, 66, 67, 68, 69, 70, 71, 72, 73, 74, 75, 76, 77, 78, 79, 80, 81, 82, 83, 84, 85, 86, 87, 88, 89, 90, 91, 92, 93, 94, 95, 96, 97, 98, 99, 100, 101, 102, 103, 104, 105, 106, 107, 108, 109, 110, 111, 112, 113, 114, 115, 116, 117, 118, 119, 120, 121, 122, 123, 124, 125, 126, 127, 128, 129, 130, 131, 132, 133, 134, 135, 136, 137, 138, 139, 140, 141, 142, 143, 144, 145, 146, 147, 148, 149, 150, 151, 152, 153, 154, 155, 156, 157, 158, 159, 160, 161, 162, 163, 164, 165, 166, 167, 168, 169, 170, 171, 172, 173, 174, 175, 176, 177, 178, 179, 180, 181, 182, 183, 184, 185, 186, 187, 188, 189, 190],
      "AcquisitionTime": ["113701.970000", "113703.460000", "113704.950000", "113706.440000", "113707.930000", "113709.420000", "113710.910000", "113712.400000", "113713.890000", "113715.380000", "113716.870000", "113718.360000", "113719.850000", "113721.340000", "113722.830000", "113724.320000", "113725.810000", "113727.300000", "113728.790000", "113730.280000", "113731.770000", "113733.260000", "113734.750000", "113736.240000", "113737.730000", "113739.220000", "113740.710000", "113742.200000", "113743.690000", "113745.180000", "113746.670000", "113748.160000", "113749.650000", "113751.140000", "113752.630000", "113754.120000", "113755.610000", "113757.100000", "113758.590000", "113800.080000", "113801.570000", "113803.060000", "113804.550000", "113806.040000", "113807.530000", "113809.020000", "113810.510000", "113812.000000", "113813.490000", "113814.980000", "113816.470000", "113817.960000", "113819.450000", "113820.940000", "113822.430000", "113823.920000", "113825.410000", "113826.900000", "113828.390000", "113829.880000", "113831.370000", "113832.860000", "113834.350000", "113835.840000", "113837.330000", "113838.820000", "113840.310000", "113841.800000", "113843.290000", "113844.780000", "113846.270000", "113847.760000", "113849.250000", "113850.740000", "113852.230000", "113853.720000", "113855.210000", "113856.700000", "113858.190000", "113859.680000", "113901.170000", "113902.660000", "113904.150000", "113905.640000", "113907.130000", "113908.620000", "113910.110000", "113911.600000", "113913.090000", "113914.580000", "113916.070000", "113917.560000", "113919.050000", "113920.540000", "113922.030000", "113923.520000", "113925.010000", "113926.500000", "113927.990000", "113929.480000", "113930.970000", "113932.460000", "113933.950000", "113935.440000", "113936.930000", "113938.420000", "113939.910000", "113941.400000", "113942.890000", "113944.380000", "113945.870000", "113947.360000", "113948.850000", "113950.340000", "113951.830000", "113953.320000", "113954.810000", "113956.300000", "113957.790000", "113959.280000", "114000.770000", "114002.260000", "114003.750000", "114005.240000", "114006.730000", "114008.220000", "114009.710000", "114011.200000", "114012.690000", "114014.180000", "114015.670000", "114017.160000", "114018.650000", "114020.140000", "114021.630000", "114023.120000", "114024.610000", "114026.100000", "114027.590000", "114029.080000", "114030.570000", "114032.060000", "114033.550000", "114035.040000", "114036.530000", "114038.020000", "114039.510000", "114041.000000", "114042.490000", "114043.980000", "114045.470000", "114046.960000", "114048.450000", "114049.940000", "114051.430000", "114052.920000", "114054.410000", "114055.900000", "114057.390000", "114058.880000", "114100.370000", "114101.860000", "114103.350000", "114104.840000", "114106.330000", "114107.820000", "114109.310000", "114110.800000", "114112.290000", "114113.780000", "114115.270000", "114116.760000", "114118.250000", "114119.740000", "114121.230000", "114122.720000", "114124.210000", "114125.700000", "114127.190000", "114128.680000", "114130.170000", "114131.660000", "114133.150000", "114134.640000", "114136.130000", "114137.620000", "114139.110000", "114140.600000", "114142.090000", "114143.580000"],
      "ContentTime": ["113807.357000", "113807.360000", "113807.369000", "113807.371000", "113807.374000", "113807.376000", "113827.382000", "113827.384000", "113827.387000", "113827.390000", "113827.393000", "113827.395000", "113827.398000", "113827.400000", "113827.403000", "113827.405000", "113827.408000", "113827.410000", "113827.413000", "113827.415000", "113827.418000", "113827.421000", "113827.423000", "113827.426000", "113827.428000", "113827.431000", "113907.489000", "113907.491000", "113907.494000", "113907.497000", "113907.499000", "113907.502000", "113907.504000", "113907.507000", "113907.509000", "113907.512000", "113907.515000", "113907.517000", "113907.520000", "113907.522000", "113907.525000", "113907.530000", "113907.532000", "113907.535000", "113907.537000", "113907.540000", "113907.542000", "113907.545000", "113907.548000", "113907.550000", "113907.553000", "113907.555000", "113907.558000", "113907.561000", "113907.563000", "113907.566000", "113907.568000", "113907.571000", "113907.573000", "113907.576000", "113907.579000", "113907.581000", "113907.584000", "113907.586000", "113907.589000", "113927.379000", "113927.382000", "113927.385000", "113927.387000", "113927.390000", "113927.392000", "113927.395000", "113927.398000", "113927.400000", "113927.403000", "113927.405000", "113927.408000", "113927.411000", "113927.413000", "113927.416000", "113927.419000", "113927.421000", "113927.424000", "113927.426000", "113927.432000", "113927.435000", "113947.384000", "113947.387000", "113947.389000", "113947.397000", "113947.399000", "113947.402000", "113947.405000", "113947.407000", "113947.410000", "113947.412000", "113947.415000", "113947.417000", "113947.420000", "113947.422000", "113947.425000", "113947.427000", "113947.430000", "113947.432000", "113947.435000", "113947.437000", "114027.444000", "114027.447000", "114027.450000", "114027.452000", "114027.455000", "114027.457000", "114027.460000", "114027.463000", "114027.465000", "114027.468000", "114027.470000", "114027.473000", "114027.475000", "114027.478000", "114027.480000", "114027.483000", "114027.486000", "114027.488000", "114027.491000", "114027.493000", "114027.496000", "114027.498000", "114027.501000", "114027.503000", "114027.506000", "114027.509000", "114027.511000", "114027.514000", "114027.516000", "114027.519000", "114027.521000", "114107.429000", "114107.431000", "114107.434000", "114107.436000", "114107.439000", "114107.442000", "114107.444000", "114107.447000", "114107.449000", "114107.452000", "114107.454000", "114107.457000", "114107.459000", "114107.462000", "114107.465000", "114107.467000", "114107.470000", "114107.472000", "114107.475000", "114107.478000", "114107.480000", "114107.483000", "114107.485000", "114107.488000", "114107.490000", "114107.493000", "114107.495000", "114145.611000", "114145.614000", "114145.616000", "114145.619000", "114145.631000", "114145.633000", "114145.636000", "114145.639000", "114145.641000", "114145.644000", "114145.646000", "114145.649000", "114145.652000", "114145.654000", "114145.657000", "114145.659000", "114145.662000", "114145.665000", "114145.667000", "114145.670000", "114145.673000", "114145.675000", "114145.678000", "114145.680000", "114145.683000", "114145.685000"],
      "InstanceCreationTime": ["113807.357000", "113807.360000", "113807.369000", "113807.371000", "113807.374000", "113807.376000", "113827.382000", "113827.384000", "113827.387000", "113827.390000", "113827.393000", "113827.395000", "113827.398000", "113827.400000", "113827.403000", "113827.405000", "113827.408000", "113827.410000", "113827.413000", "113827.415000", "113827.418000", "113827.421000", "113827.423000", "113827.426000", "113827.428000", "113827.431000", "113907.489000", "113907.491000", "113907.494000", "113907.497000", "113907.499000", "113907.502000", "113907.504000", "113907.507000", "113907.509000", "113907.512000", "113907.515000", "113907.517000", "113907.520000", "113907.522000", "113907.525000", "113907.530000", "113907.532000", "113907.535000", "113907.537000", "113907.540000", "113907.542000", "113907.545000", "113907.548000", "113907.550000", "113907.553000", "113907.555000", "113907.558000", "113907.561000", "113907.563000", "113907.566000", "113907.568000", "113907.571000", "113907.573000", "113907.576000", "113907.579000", "113907.581000", "113907.584000", "113907.586000", "113907.589000", "113927.379000", "113927.382000", "113927.385000", "113927.387000", "113927.390000", "113927.392000", "113927.395000", "113927.398000", "113927.400000", "113927.403000", "113927.405000", "113927.408000", "113927.411000", "113927.413000", "113927.416000", "113927.419000", "113927.421000", "113927.424000", "113927.426000", "113927.432000", "113927.435000", "113947.384000", "113947.387000", "113947.389000", "113947.397000", "113947.399000", "113947.402000", "113947.405000", "113947.407000", "113947.410000", "113947.412000", "113947.415000", "113947.417000", "113947.420000", "113947.422000", "113947.425000", "113947.427000", "113947.430000", "113947.432000", "113947.435000", "113947.437000", "114027.444000", "114027.447000", "114027.450000", "114027.452000", "114027.455000", "114027.457000", "114027.460000", "114027.463000", "114027.465000", "114027.468000", "114027.470000", "114027.473000", "114027.475000", "114027.478000", "114027.480000", "114027.483000", "114027.486000", "114027.488000", "114027.491000", "114027.493000", "114027.496000", "114027.498000", "114027.501000", "114027.503000", "114027.506000", "114027.509000", "114027.511000", "114027.514000", "114027.516000", "114027.519000", "114027.521000", "114107.429000", "114107.431000", "114107.434000", "114107.436000", "114107.439000", "114107.442000", "114107.444000", "114107.447000", "114107.449000", "114107.452000", "114107.454000", "114107.457000", "114107.459000", "114107.462000", "114107.465000", "114107.467000", "114107.470000", "114107.472000", "114107.475000", "114107.478000", "114107.480000", "114107.483000", "114107.485000", "114107.488000", "114107.490000", "114107.493000", "114107.495000", "114145.611000", "114145.614000", "114145.616000", "114145.619000", "114145.631000", "114145.633000", "114145.636000", "114145.639000", "114145.641000", "114145.644000", "114145.646000", "114145.649000", "114145.652000", "114145.654000", "114145.657000", "114145.659000", "114145.662000", "114145.665000", "114145.667000", "114145.670000", "114145.673000", "114145.675000", "114145.678000", "114145.680000", "114145.683000", "114145.685000"],
      "InstanceNumber": [1, 2, 3, 4, 5, 6, 7, 8, 9, 10, 11, 12, 13, 14, 15, 16, 17, 18, 19, 20, 21, 22, 23, 24, 25, 26, 27, 28, 29, 30, 31, 32, 33, 34, 35, 36, 37, 38, 39, 40, 41, 42, 43, 44, 45, 46, 47, 48, 49, 50, 51, 52, 53, 54, 55, 56, 57, 58, 59, 60, 61, 62, 63, 64, 65, 66, 67, 68, 69, 70, 71, 72, 73, 74, 75, 76, 77, 78, 79, 80, 81, 82, 83, 84, 85, 86, 87, 88, 89, 90, 91, 92, 93, 94, 95, 96, 97, 98, 99, 100, 101, 102, 103, 104, 105, 106, 107, 108, 109, 110, 111, 112, 113, 114, 115, 116, 117, 118, 119, 120, 121, 122, 123, 124, 125, 126, 127, 128, 129, 130, 131, 132, 133, 134, 135, 136, 137, 138, 139, 140, 141, 142, 143, 144, 145, 146, 147, 148, 149, 150, 151, 152, 153, 154, 155, 156, 157, 158, 159, 160, 161, 162, 163, 164, 165, 166, 167, 168, 169, 170, 171, 172, 173, 174, 175, 176, 177, 178, 179, 180, 181, 182, 183, 184, 185, 186, 187, 188, 189, 190],
      "WindowCenter": [4884.0, 4886.0, 4888.0, 4888.0, 4888.0, 4890.0, 4886.0, 4884.0, 4888.0, 4884.0, 4886.0, 4888.0, 4888.0, 4884.0, 4888.0, 4888.0, 4910.0, 4886.0, 4886.0, 4886.0, 4902.0, 4886.0, 4890.0, 4886.0, 4886.0, 4888.0, 4884.0, 4906.0, 4886.0, 4882.0, 4884.0, 4886.0, 4886.0, 4888.0, 4886.0, 4884.0, 4886.0, 4884.0, 4884.0, 4888.0, 4884.0, 4886.0, 4886.0, 4882.0, 4884.0, 4884.0, 4906.0, 4884.0, 4886.0, 4886.0, 4886.0, 4888.0, 4888.0, 4886.0, 4886.0, 4886.0, 4884.0, 4884.0, 4882.0, 4906.0, 4908.0, 4884.0, 4888.0, 4886.0, 4888.0, 4908.0, 4884.0, 4886.0, 4904.0, 4884.0, 4890.0, 4884.0, 4890.0, 4886.0, 4884.0, 4884.0, 4882.0, 4884.0, 4882.0, 4884.0, 4886.0, 4908.0, 4886.0, 4886.0, 4884.0, 4888.0, 4908.0, 4886.0, 4888.0, 4884.0, 4886.0, 4886.0, 4904.0, 4884.0, 4884.0, 4888.0, 4884.0, 4906.0, 4886.0, 4884.0, 4886.0, 4886.0, 4880.0, 4882.0, 4882.0, 4886.0, 4886.0, 4904.0, 4886.0, 4886.0, 4888.0, 4884.0, 4884.0, 4908.0, 4884.0, 4906.0, 4908.0, 4886.0, 4908.0, 4884.0, 4886.0, 4886.0, 4882.0, 4906.0, 4886.0, 4884.0, 4884.0, 4906.0, 4904.0, 4906.0, 4906.0, 4908.0, 4884.0, 4908.0, 4886.0, 4884.0, 4884.0, 4908.0, 4882.0, 4882.0, 4880.0, 4884.0, 4886.0, 4886.0, 4888.0, 4886.0, 4884.0, 4902.0, 4906.0, 4906.0, 4904.0, 4906.0, 4884.0, 4888.0, 4906.0, 4906.0, 4886.0, 4886.0, 4884.0, 4908.0, 4910.0, 4904.0, 4906.0, 4886.0, 4904.0, 4882.0, 4886.0, 4906.0, 4884.0, 4886.0, 4904.0, 4882.0, 4882.0, 4904.0, 4908.0, 4888.0, 4886.0, 4884.0, 4906.0, 4884.0, 4884.0, 4904.0, 4884.0, 4910.0, 4904.0, 4884.0, 4880.0, 4886.0, 4884.0, 4908.0],
      "WindowWidth": [18640.0, 18644.0, 18646.0, 18642.0, 18644.0, 18644.0, 18648.0, 18644.0, 18646.0, 18642.0, 18644.0, 18646.0, 18646.0, 18638.0, 18648.0, 18644.0, 18674.0, 18646.0, 18646.0, 18650.0, 18682.0, 18644.0, 18642.0, 18638.0, 18640.0, 18642.0, 18638.0, 18678.0, 18644.0, 18648.0, 18644.0, 18644.0, 18648.0, 18640.0, 18638.0, 18642.0, 18644.0, 18636.0, 18646.0, 18652.0, 18648.0, 18642.0, 18640.0, 18644.0, 18644.0, 18642.0, 18676.0, 18644.0, 18646.0, 18642.0, 18638.0, 18642.0, 18644.0, 18638.0, 18650.0, 18650.0, 18648.0, 18644.0, 18648.0, 18682.0, 18678.0, 18640.0, 18646.0, 18636.0, 18640.0, 18674.0, 18644.0, 18648.0, 18684.0, 18648.0, 18648.0, 18646.0, 18640.0, 18640.0, 18642.0, 18644.0, 18644.0, 18646.0, 18648.0, 18644.0, 18646.0, 18678.0, 18642.0, 18644.0, 18642.0, 18644.0, 18676.0, 18646.0, 18652.0, 18646.0, 18648.0, 18650.0, 18688.0, 18648.0, 18640.0, 18648.0, 18650.0, 18680.0, 18648.0, 18648.0, 18644.0, 18644.0, 18652.0, 18646.0, 18646.0, 18650.0, 18652.0, 18680.0, 18644.0, 18642.0, 18644.0, 18646.0, 18644.0, 18684.0, 18650.0, 18682.0, 18680.0, 18642.0, 18678.0, 18644.0, 18642.0, 18650.0, 18646.0, 18678.0, 18648.0, 18648.0, 18650.0, 18678.0, 18682.0, 18676.0, 18678.0, 18678.0, 18648.0, 18680.0, 18646.0, 18652.0, 18646.0, 18682.0, 18642.0, 18650.0, 18650.0, 18644.0, 18646.0, 18646.0, 18640.0, 18642.0, 18646.0, 18680.0, 18680.0, 18684.0, 18678.0, 18678.0, 18648.0, 18642.0, 18684.0, 18686.0, 18648.0, 18646.0, 18642.0, 18680.0, 18680.0, 18678.0, 18684.0, 18654.0, 18682.0, 18650.0, 18650.0, 18680.0, 18648.0, 18646.0, 18682.0, 18648.0, 18642.0, 18682.0, 18678.0, 18646.0, 18654.0, 18652.0, 18684.0, 18650.0, 18646.0, 18680.0, 18650.0, 18676.0, 18682.0, 18648.0, 18648.0, 18648.0, 18648.0, 18682.0]
    },
    "slices": {}
  }
}