{
  "AcquisitionMatrixPE": 104,
  "AcquisitionNumber": 1,
  "AcquisitionTime": "12:07:25.677500",
  "BandwidthPerPixelPhaseEncode": 17.17,
  "BaseResolution": 104,
  "BodyPartExamined": "BRAIN",
  "CoilString": "HC1-7;NC1_2",
  "ConsistencyInfo": "N4_VE11C_LATEST_20160120",
  "ConversionSoftware": "dcm2niix",
  "ConversionSoftwareVersion": "v1.0.20190902",
  "DerivedVendorReportedEchoSpacing": 0.000560011,
  "DeviceSerialNumber": "167006",
  "DwellTime": 2.1e-06,
  "EchoTime": 0.037,
  "EchoTrainLength": 104,
  "EffectiveEchoSpacing": 0.000560011,
  "FlipAngle": 52,
  "ImageComments": "Unaliased_MB4_PE3_LB",
  "ImageOrientationPatientDICOM": [0.999953, -0.00379326, 0.00890943, 0.00610847, 0.961016, -0.276426],
  "ImageType": [
    "ORIGINAL",
    "PRIMARY",
    "P",
    "MB",
    "ND",
    "MOSAIC"
],
  "ImagingFrequency": 123.259,
  "InPlanePhaseEncodingDirectionDICOM": "COL",
  "InstitutionAddress": "Chemin_Queen-Mary_4565_Montreal_District_CA_H3W_1W5",
  "InstitutionName": "IUGM",
  "InstitutionalDepartmentName": "Department",
  "MRAcquisitionType": "2D",
  "MagneticFieldStrength": 3,
  "Manufacturer": "Siemens",
  "ManufacturersModelName": "Prisma_fit",
  "Modality": "MR",
  "MultibandAccelerationFactor": 4,
  "PartialFourier": 1,
  "PatientPosition": "HFS",
  "PercentPhaseFOV": 100,
  "PhaseEncodingDirection": "j",
  "PhaseEncodingSteps": 104,
  "PhaseResolution": 1,
  "PixelBandwidth": 2290,
  "ProcedureStepDescription": "memory_things",
  "ProtocolName": "func_task-things_run-6",
  "PulseSequenceDetails": "%CustomerSeq%_cmrr_mbep2d_bold",
  "ReceiveCoilActiveElements": "HC1-7;NC1,2",
  "ReceiveCoilName": "HeadNeck_64",
  "ReconMatrixPE": 104,
  "RepetitionTime": 1.49,
  "SAR": 0.0394319,
  "ScanOptions": "FS",
  "ScanningSequence": "EP",
  "SequenceName": "epfid2d1_104",
  "SequenceVariant": "SK_SS",
  "SeriesDescription": "func_task-things_run-6",
  "SeriesNumber": 26,
  "ShimSetting": [632, -7218, -8795, 665, 50, -2, 42, -12],
  "SliceThickness": 2,
  "SliceTiming": [0, 0.785, 0.0975, 0.8825, 0.195, 0.98, 0.295, 1.0775, 0.3925, 1.175, 0.49, 1.275, 0.5875, 1.3725, 0.685, 0, 0.785, 0.0975, 0.8825, 0.195, 0.98, 0.295, 1.0775, 0.3925, 1.175, 0.49, 1.275, 0.5875, 1.3725, 0.685, 0, 0.785, 0.0975, 0.8825, 0.195, 0.98, 0.295, 1.0775, 0.3925, 1.175, 0.49, 1.275, 0.5875, 1.3725, 0.685, 0, 0.785, 0.0975, 0.8825, 0.195, 0.98, 0.295, 1.0775, 0.3925, 1.175, 0.49, 1.275, 0.5875, 1.3725, 0.685],
  "SoftwareVersions": "syngo_MR_E11",
  "SpacingBetweenSlices": 2,
  "StationName": "MRC35049",
  "TaskName": "things",
  "TotalReadoutTime": 0.0576811,
  "TxRefAmp": 219.304,
  "WipMemBlock": "02b6cb85-16ab-41bf-a33b-e89cb25d8dbb||Sequence: R016 ve11c/master r/e634e98; Dec 19 2017 11:00:25 by eja",
  "dcmmeta_affine": [
    [-1.9999061822891235, 0.012216947972774506, 0.015027094632387161, 108.6772232055664],
    [0.007586524821817875, 1.922031283378601, -0.552935779094696, -74.061767578125],
    [0.017818868160247803, 0.5528528690338135, 1.921987533569336, -63.06194305419922],
    [0.0, 0.0, 0.0, 1.0]
],
  "dcmmeta_reorient_transform": [
    [0.0, -1.0, 0.0, 103.0],
    [1.0, 0.0, 0.0, 0.0],
    [0.0, 0.0, 1.0, 0.0],
    [0.0, 0.0, 0.0, 1.0]
],
  "dcmmeta_shape": [104, 104, 60, 190],
  "dcmmeta_slice_dim": 2,
  "dcmmeta_version": 0.6,
  "global": {
    "const": {
      "AcquisitionMatrix": [104, 0, 0, 104],
      "AngioFlag": "N",
      "BitsAllocated": 16,
      "BitsStored": 16,
      "BodyPartExamined": "BRAIN",
      "Columns": 832,
      "EchoNumbers": 1,
      "EchoTime": 37.0,
      "EchoTrainLength": 104,
      "FlipAngle": 52.0,
      "HighBit": 15,
      "ImageOrientationPatient": [0.9999531154761, -0.0037932625004, 0.00890943372216, 0.00610847402388, 0.96101566951614, -0.2764264269015],
      "ImagePositionPatient": [-842.3484063243, -820.76537541605, 188.63427321292],
      "ImageType": [
        "ORIGINAL",
        "PRIMARY",
        "P",
        "MB",
        "ND",
        "MOSAIC"
],
      "ImagedNucleus": "1H",
      "ImagingFrequency": 123.258995,
      "InPlanePhaseEncodingDirection": "COL",
      "LargestImagePixelValue": 4095,
      "MRAcquisitionType": "2D",
      "MagneticFieldStrength": 3.0,
      "Manufacturer": "SIEMENS",
      "ManufacturerModelName": "Prisma_fit",
      "Modality": "MR",
      "NumberOfAverages": 1.0,
      "NumberOfPhaseEncodingSteps": 104,
      "PercentPhaseFieldOfView": 100.0,
      "PercentSampling": 100.0,
      "PerformedProcedureStepStartTime": "105240.316000",
      "PhotometricInterpretation": "MONOCHROME2",
      "PixelBandwidth": 2290.0,
      "PixelRepresentation": 0,
      "PixelSpacing": [2.0, 2.0],
      "ProtocolName": "func_task-things_run-6",
      "RepetitionTime": 1490.0,
      "RescaleIntercept": -4096.0,
      "RescaleSlope": 2.0,
      "RescaleType": "US",
      "Rows": 832,
      "SAR": 0.03943190814887,
      "SamplesPerPixel": 1,
      "ScanOptions": "FS",
      "ScanningSequence": "EP",
      "SequenceName": "epfid2d1_104",
      "SequenceVariant": [
        "SK",
        "SS"
],
      "SeriesDescription": "func_task-things_run-6",
      "SeriesNumber": 26,
      "SeriesTime": "120841.919000",
      "SliceLocation": -39.309882722968,
      "SliceThickness": 2.0,
      "SmallestImagePixelValue": 0,
      "SoftwareVersions": "syngo MR E11",
      "SpacingBetweenSlices": 1.9999999359187,
      "SpecificCharacterSet": "ISO_IR 100",
      "StudyID": "1",
      "StudyTime": "105240.263000",
      "TransmitCoilName": "Body",
      "VariableFlipAngleFlag": "N",
      "WindowCenterWidthExplanation": "Algo1",
      "dBdt": 0.0},
    "slices": {}
  },
  "time": {
    "samples": {
      "AcquisitionNumber": [1, 2, 3, 4, 5, 6, 7, 8, 9, 10, 11, 12, 13, 14, 15, 16, 17, 18, 19, 20, 21, 22, 23, 24, 25, 26, 27, 28, 29, 30, 31, 32, 33, 34, 35, 36, 37, 38, 39, 40, 41, 42, 43, 44, 45, 46, 47, 48, 49, 50, 51, 52, 53, 54, 55, 56, 57, 58, 59, 60, 61, 62, 63, 64, 65, 66, 67, 68, 69, 70, 71, 72, 73, 74, 75, 76, 77, 78, 79, 80, 81, 82, 83, 84, 85, 86, 87, 88, 89, 90, 91, 92, 93, 94, 95, 96, 97, 98, 99, 100, 101, 102, 103, 104, 105, 106, 107, 108, 109, 110, 111, 112, 113, 114, 115, 116, 117, 118, 119, 120, 121, 122, 123, 124, 125, 126, 127, 128, 129, 130, 131, 132, 133, 134, 135, 136, 137, 138, 139, 140, 141, 142, 143, 144, 145, 146, 147, 148, 149, 150, 151, 152, 153, 154, 155, 156, 157, 158, 159, 160, 161, 162, 163, 164, 165, 166, 167, 168, 169, 170, 171, 172, 173, 174, 175, 176, 177, 178, 179, 180, 181, 182, 183, 184, 185, 186, 187, 188, 189, 190],
      "AcquisitionTime": ["120725.677500", "120727.167500", "120728.657500", "120730.147500", "120731.637500", "120733.127500", "120734.617500", "120736.107500", "120737.597500", "120739.087500", "120740.577500", "120742.067500", "120743.557500", "120745.047500", "120746.537500", "120748.027500", "120749.517500", "120751.007500", "120752.497500", "120753.987500", "120755.477500", "120756.967500", "120758.457500", "120759.947500", "120801.437500", "120802.927500", "120804.417500", "120805.907500", "120807.397500", "120808.887500", "120810.377500", "120811.867500", "120813.357500", "120814.847500", "120816.337500", "120817.827500", "120819.317500", "120820.807500", "120822.297500", "120823.787500", "120825.277500", "120826.767500", "120828.257500", "120829.747500", "120831.237500", "120832.727500", "120834.217500", "120835.707500", "120837.197500", "120838.687500", "120840.177500", "120841.667500", "120843.157500", "120844.647500", "120846.137500", "120847.627500", "120849.117500", "120850.607500", "120852.097500", "120853.587500", "120855.077500", "120856.567500", "120858.057500", "120859.547500", "120901.037500", "120902.527500", "120904.017500", "120905.507500", "120906.997500", "120908.487500", "120909.977500", "120911.467500", "120912.957500", "120914.447500", "120915.937500", "120917.427500", "120918.917500", "120920.407500", "120921.897500", "120923.387500", "120924.877500", "120926.367500", "120927.857500", "120929.347500", "120930.837500", "120932.327500", "120933.817500", "120935.307500", "120936.797500", "120938.287500", "120939.777500", "120941.267500", "120942.757500", "120944.247500", "120945.737500", "120947.227500", "120948.717500", "120950.207500", "120951.697500", "120953.187500", "120954.677500", "120956.167500", "120957.657500", "120959.147500", "121000.637500", "121002.127500", "121003.617500", "121005.107500", "121006.597500", "121008.087500", "121009.577500", "121011.067500", "121012.557500", "121014.047500", "121015.537500", "121017.027500", "121018.517500", "121020.007500", "121021.497500", "121022.987500", "121024.477500", "121025.967500", "121027.457500", "121028.947500", "121030.437500", "121031.927500", "121033.417500", "121034.907500", "121036.397500", "121037.887500", "121039.377500", "121040.867500", "121042.357500", "121043.847500", "121045.337500", "121046.827500", "121048.317500", "121049.807500", "121051.297500", "121052.787500", "121054.277500", "121055.767500", "121057.257500", "121058.747500", "121100.237500", "121101.727500", "121103.217500", "121104.707500", "121106.197500", "121107.687500", "121109.177500", "121110.667500", "121112.157500", "121113.647500", "121115.137500", "121116.627500", "121118.117500", "121119.607500", "121121.097500", "121122.587500", "121124.077500", "121125.567500", "121127.057500", "121128.547500", "121130.037500", "121131.527500", "121133.017500", "121134.507500", "121135.997500", "121137.487500", "121138.977500", "121140.467500", "121141.957500", "121143.447500", "121144.937500", "121146.427500", "121147.917500", "121149.407500", "121150.897500", "121152.387500", "121153.877500", "121155.367500", "121156.857500", "121158.347500", "121159.837500", "121201.327500", "121202.817500", "121204.307500", "121205.797500", "121207.287500"],
      "ContentTime": ["120841.921000", "120841.924000", "120841.926000", "120841.929000", "120841.932000", "120841.934000", "120841.937000", "120841.939000", "120841.942000", "120841.944000", "120841.947000", "120841.949000", "120841.952000", "120841.954000", "120841.957000", "120841.959000", "120841.962000", "120841.965000", "120841.967000", "120841.970000", "120841.972000", "120901.886000", "120901.889000", "120901.891000", "120901.894000", "120901.897000", "120901.900000", "120901.903000", "120901.905000", "120901.908000", "120901.910000", "120901.913000", "120901.915000", "120901.918000", "120901.920000", "120901.923000", "120901.926000", "120901.928000", "120901.931000", "120901.933000", "120901.936000", "120921.895000", "120921.897000", "120921.900000", "120921.902000", "120921.905000", "120921.908000", "120921.910000", "120921.912000", "120921.915000", "120921.918000", "120921.920000", "120921.923000", "120921.925000", "120921.928000", "120921.930000", "120921.933000", "120921.935000", "120921.938000", "120921.941000", "120921.943000", "120921.945000", "120941.887000", "120941.890000", "120941.893000", "120941.895000", "120941.898000", "120941.900000", "120941.903000", "120941.905000", "120941.908000", "120941.910000", "120941.913000", "120941.915000", "120941.918000", "120941.920000", "120941.923000", "120941.925000", "120941.928000", "120941.931000", "120941.933000", "120941.936000", "121001.881000", "121001.884000", "121001.886000", "121001.889000", "121001.891000", "121001.894000", "121001.896000", "121001.899000", "121001.902000", "121001.904000", "121001.907000", "121001.909000", "121001.912000", "121001.914000", "121001.917000", "121001.919000", "121001.922000", "121001.924000", "121001.927000", "121001.929000", "121041.918000", "121041.921000", "121041.923000", "121041.926000", "121041.929000", "121041.931000", "121041.934000", "121041.936000", "121041.939000", "121041.941000", "121041.944000", "121041.946000", "121041.949000", "121041.958000", "121041.960000", "121041.963000", "121041.965000", "121041.968000", "121041.971000", "121041.973000", "121041.976000", "121041.978000", "121041.981000", "121041.983000", "121041.986000", "121041.988000", "121041.991000", "121041.994000", "121041.996000", "121121.926000", "121121.928000", "121121.931000", "121121.934000", "121121.936000", "121121.939000", "121121.941000", "121121.944000", "121121.946000", "121121.949000", "121121.951000", "121121.954000", "121121.957000", "121121.959000", "121121.962000", "121121.964000", "121121.967000", "121121.969000", "121121.972000", "121121.975000", "121121.977000", "121121.980000", "121121.982000", "121121.985000", "121121.987000", "121121.990000", "121121.992000", "121201.933000", "121201.936000", "121201.938000", "121201.941000", "121201.943000", "121201.946000", "121201.949000", "121201.951000", "121201.954000", "121201.956000", "121201.959000", "121201.961000", "121201.964000", "121201.967000", "121201.969000", "121201.972000", "121201.974000", "121201.977000", "121201.979000", "121201.982000", "121201.984000", "121201.987000", "121201.989000", "121201.992000", "121201.994000", "121201.997000", "121202.000000", "121209.173000", "121209.175000", "121209.178000", "121209.180000", "121209.183000"],
      "InstanceCreationTime": ["120841.921000", "120841.924000", "120841.926000", "120841.929000", "120841.932000", "120841.934000", "120841.937000", "120841.939000", "120841.942000", "120841.944000", "120841.947000", "120841.949000", "120841.952000", "120841.954000", "120841.957000", "120841.959000", "120841.962000", "120841.965000", "120841.967000", "120841.970000", "120841.972000", "120901.886000", "120901.889000", "120901.891000", "120901.894000", "120901.897000", "120901.900000", "120901.903000", "120901.905000", "120901.908000", "120901.910000", "120901.913000", "120901.915000", "120901.918000", "120901.920000", "120901.923000", "120901.926000", "120901.928000", "120901.931000", "120901.933000", "120901.936000", "120921.895000", "120921.897000", "120921.900000", "120921.902000", "120921.905000", "120921.908000", "120921.910000", "120921.912000", "120921.915000", "120921.918000", "120921.920000", "120921.923000", "120921.925000", "120921.928000", "120921.930000", "120921.933000", "120921.935000", "120921.938000", "120921.941000", "120921.943000", "120921.945000", "120941.887000", "120941.890000", "120941.893000", "120941.895000", "120941.898000", "120941.900000", "120941.903000", "120941.905000", "120941.908000", "120941.910000", "120941.913000", "120941.915000", "120941.918000", "120941.920000", "120941.923000", "120941.925000", "120941.928000", "120941.931000", "120941.933000", "120941.936000", "121001.881000", "121001.884000", "121001.886000", "121001.889000", "121001.891000", "121001.894000", "121001.896000", "121001.899000", "121001.902000", "121001.904000", "121001.907000", "121001.909000", "121001.912000", "121001.914000", "121001.917000", "121001.919000", "121001.922000", "121001.924000", "121001.927000", "121001.929000", "121041.918000", "121041.921000", "121041.923000", "121041.926000", "121041.929000", "121041.931000", "121041.934000", "121041.936000", "121041.939000", "121041.941000", "121041.944000", "121041.946000", "121041.949000", "121041.958000", "121041.960000", "121041.963000", "121041.965000", "121041.968000", "121041.971000", "121041.973000", "121041.976000", "121041.978000", "121041.981000", "121041.983000", "121041.986000", "121041.988000", "121041.991000", "121041.994000", "121041.996000", "121121.926000", "121121.928000", "121121.931000", "121121.934000", "121121.936000", "121121.939000", "121121.941000", "121121.944000", "121121.946000", "121121.949000", "121121.951000", "121121.954000", "121121.957000", "121121.959000", "121121.962000", "121121.964000", "121121.967000", "121121.969000", "121121.972000", "121121.975000", "121121.977000", "121121.980000", "121121.982000", "121121.985000", "121121.987000", "121121.990000", "121121.992000", "121201.933000", "121201.936000", "121201.938000", "121201.941000", "121201.943000", "121201.946000", "121201.949000", "121201.951000", "121201.954000", "121201.956000", "121201.959000", "121201.961000", "121201.964000", "121201.967000", "121201.969000", "121201.972000", "121201.974000", "121201.977000", "121201.979000", "121201.982000", "121201.984000", "121201.987000", "121201.989000", "121201.992000", "121201.994000", "121201.997000", "121202.000000", "121209.173000", "121209.175000", "121209.178000", "121209.180000", "121209.183000"],
      "InstanceNumber": [1, 2, 3, 4, 5, 6, 7, 8, 9, 10, 11, 12, 13, 14, 15, 16, 17, 18, 19, 20, 21, 22, 23, 24, 25, 26, 27, 28, 29, 30, 31, 32, 33, 34, 35, 36, 37, 38, 39, 40, 41, 42, 43, 44, 45, 46, 47, 48, 49, 50, 51, 52, 53, 54, 55, 56, 57, 58, 59, 60, 61, 62, 63, 64, 65, 66, 67, 68, 69, 70, 71, 72, 73, 74, 75, 76, 77, 78, 79, 80, 81, 82, 83, 84, 85, 86, 87, 88, 89, 90, 91, 92, 93, 94, 95, 96, 97, 98, 99, 100, 101, 102, 103, 104, 105, 106, 107, 108, 109, 110, 111, 112, 113, 114, 115, 116, 117, 118, 119, 120, 121, 122, 123, 124, 125, 126, 127, 128, 129, 130, 131, 132, 133, 134, 135, 136, 137, 138, 139, 140, 141, 142, 143, 144, 145, 146, 147, 148, 149, 150, 151, 152, 153, 154, 155, 156, 157, 158, 159, 160, 161, 162, 163, 164, 165, 166, 167, 168, 169, 170, 171, 172, 173, 174, 175, 176, 177, 178, 179, 180, 181, 182, 183, 184, 185, 186, 187, 188, 189, 190],
      "WindowCenter": [4864.0, 4864.0, 4866.0, 4864.0, 4862.0, 4866.0, 4862.0, 4862.0, 4868.0, 4866.0, 4862.0, 4864.0, 4864.0, 4868.0, 4866.0, 4866.0, 4862.0, 4864.0, 4862.0, 4868.0, 4864.0, 4864.0, 4866.0, 4864.0, 4864.0, 4864.0, 4864.0, 4868.0, 4864.0, 4862.0, 4860.0, 4860.0, 4866.0, 4866.0, 4868.0, 4866.0, 4864.0, 4864.0, 4864.0, 4864.0, 4862.0, 4864.0, 4866.0, 4864.0, 4862.0, 4864.0, 4866.0, 4864.0, 4866.0, 4864.0, 4862.0, 4862.0, 4864.0, 4862.0, 4866.0, 4864.0, 4866.0, 4866.0, 4866.0, 4864.0, 4864.0, 4864.0, 4860.0, 4866.0, 4864.0, 4862.0, 4864.0, 4866.0, 4866.0, 4862.0, 4866.0, 4864.0, 4868.0, 4868.0, 4862.0, 4862.0, 4860.0, 4862.0, 4866.0, 4864.0, 4866.0, 4866.0, 4866.0, 4866.0, 4866.0, 4866.0, 4866.0, 4862.0, 4866.0, 4864.0, 4868.0, 4864.0, 4870.0, 4864.0, 4866.0, 4866.0, 4864.0, 4862.0, 4866.0, 4866.0, 4866.0, 4866.0, 4864.0, 4864.0, 4868.0, 4864.0, 4864.0, 4868.0, 4864.0, 4866.0, 4864.0, 4868.0, 4862.0, 4868.0, 4866.0, 4866.0, 4866.0, 4868.0, 4862.0, 4866.0, 4866.0, 4866.0, 4866.0, 4866.0, 4864.0, 4862.0, 4864.0, 4866.0, 4892.0, 4866.0, 4868.0, 4864.0, 4864.0, 4864.0, 4864.0, 4864.0, 4864.0, 4864.0, 4868.0, 4866.0, 4868.0, 4868.0, 4864.0, 4866.0, 4862.0, 4868.0, 4866.0, 4864.0, 4864.0, 4866.0, 4868.0, 4866.0, 4894.0, 4868.0, 4866.0, 4866.0, 4864.0, 4862.0, 4866.0, 4866.0, 4888.0, 4866.0, 4864.0, 4866.0, 4868.0, 4868.0, 4864.0, 4864.0, 4866.0, 4864.0, 4868.0, 4868.0, 4866.0, 4868.0, 4866.0, 4866.0, 4866.0, 4892.0, 4866.0, 4864.0, 4864.0, 4864.0, 4866.0, 4862.0, 4866.0, 4862.0, 4862.0, 4866.0, 4868.0, 4862.0],
      "WindowWidth": [18596.0, 18600.0, 18596.0, 18602.0, 18594.0, 18600.0, 18600.0, 18598.0, 18600.0, 18598.0, 18596.0, 18598.0, 18602.0, 18600.0, 18598.0, 18596.0, 18598.0, 18598.0, 18592.0, 18602.0, 18600.0, 18602.0, 18592.0, 18594.0, 18602.0, 18598.0, 18600.0, 18602.0, 18592.0, 18594.0, 18596.0, 18594.0, 18600.0, 18604.0, 18604.0, 18602.0, 18594.0, 18600.0, 18604.0, 18598.0, 18600.0, 18596.0, 18602.0, 18592.0, 18600.0, 18600.0, 18602.0, 18598.0, 18602.0, 18594.0, 18594.0, 18596.0, 18600.0, 18600.0, 18598.0, 18600.0, 18602.0, 18602.0, 18598.0, 18600.0, 18604.0, 18602.0, 18600.0, 18600.0, 18600.0, 18598.0, 18596.0, 18606.0, 18604.0, 18598.0, 18600.0, 18606.0, 18604.0, 18610.0, 18596.0, 18594.0, 18594.0, 18602.0, 18606.0, 18604.0, 18602.0, 18606.0, 18608.0, 18606.0, 18600.0, 18600.0, 18602.0, 18598.0, 18602.0, 18598.0, 18606.0, 18596.0, 18604.0, 18600.0, 18602.0, 18604.0, 18596.0, 18598.0, 18602.0, 18608.0, 18604.0, 18602.0, 18602.0, 18600.0, 18604.0, 18600.0, 18596.0, 18600.0, 18598.0, 18602.0, 18600.0, 18600.0, 18604.0, 18604.0, 18602.0, 18602.0, 18604.0, 18600.0, 18596.0, 18602.0, 18598.0, 18600.0, 18600.0, 18604.0, 18604.0, 18596.0, 18594.0, 18604.0, 18632.0, 18600.0, 18604.0, 18598.0, 18598.0, 18606.0, 18600.0, 18598.0, 18602.0, 18596.0, 18604.0, 18602.0, 18606.0, 18602.0, 18594.0, 18600.0, 18592.0, 18604.0, 18604.0, 18600.0, 18596.0, 18598.0, 18606.0, 18604.0, 18638.0, 18602.0, 18598.0, 18602.0, 18598.0, 18598.0, 18598.0, 18598.0, 18634.0, 18602.0, 18604.0, 18600.0, 18598.0, 18604.0, 18598.0, 18598.0, 18598.0, 18598.0, 18600.0, 18600.0, 18602.0, 18600.0, 18602.0, 18598.0, 18602.0, 18638.0, 18598.0, 18602.0, 18596.0, 18598.0, 18596.0, 18600.0, 18604.0, 18602.0, 18602.0, 18598.0, 18602.0, 18592.0]
    },
    "slices": {}
  }
}