{
  "AcquisitionMatrixPE": 104,
  "AcquisitionNumber": 1,
  "AcquisitionTime": "11:49:14.880000",
  "BandwidthPerPixelPhaseEncode": 17.17,
  "BaseResolution": 104,
  "BodyPartExamined": "BRAIN",
  "CoilString": "HC1-7;NC1_2",
  "ConsistencyInfo": "N4_VE11C_LATEST_20160120",
  "ConversionSoftware": "dcm2niix",
  "ConversionSoftwareVersion": "v1.0.20190902",
  "DerivedVendorReportedEchoSpacing": 0.000560011,
  "DeviceSerialNumber": "167006",
  "DwellTime": 2.1e-06,
  "EchoTime": 0.037,
  "EchoTrainLength": 104,
  "EffectiveEchoSpacing": 0.000560011,
  "FlipAngle": 52,
  "ImageComments": "Unaliased_MB4_PE3_LB",
  "ImageOrientationPatientDICOM": [0.999953, -0.00379326, 0.00890943, 0.00610847, 0.961016, -0.276426],
  "ImageType": [
    "ORIGINAL",
    "PRIMARY",
    "M",
    "MB",
    "ND",
    "MOSAIC"
],
  "ImagingFrequency": 123.259,
  "InPlanePhaseEncodingDirectionDICOM": "COL",
  "InstitutionAddress": "Chemin_Queen-Mary_4565_Montreal_District_CA_H3W_1W5",
  "InstitutionName": "IUGM",
  "InstitutionalDepartmentName": "Department",
  "MRAcquisitionType": "2D",
  "MagneticFieldStrength": 3,
  "Manufacturer": "Siemens",
  "ManufacturersModelName": "Prisma_fit",
  "Modality": "MR",
  "MultibandAccelerationFactor": 4,
  "PartialFourier": 1,
  "PatientPosition": "HFS",
  "PercentPhaseFOV": 100,
  "PhaseEncodingDirection": "j",
  "PhaseEncodingSteps": 104,
  "PhaseResolution": 1,
  "PixelBandwidth": 2290,
  "ProcedureStepDescription": "memory_things",
  "ProtocolName": "func_task-things_run-3",
  "PulseSequenceDetails": "%CustomerSeq%_cmrr_mbep2d_bold",
  "ReceiveCoilActiveElements": "HC1-7;NC1,2",
  "ReceiveCoilName": "HeadNeck_64",
  "ReconMatrixPE": 104,
  "RepetitionTime": 1.49,
  "SAR": 0.0394319,
  "ScanOptions": "FS",
  "ScanningSequence": "EP",
  "SequenceName": "epfid2d1_104",
  "SequenceVariant": "SK_SS",
  "SeriesDescription": "func_task-things_run-3",
  "SeriesNumber": 16,
  "ShimSetting": [632, -7218, -8795, 665, 50, -2, 42, -12],
  "SliceThickness": 2,
  "SliceTiming": [0, 0.785, 0.0975, 0.8825, 0.1975, 0.98, 0.295, 1.0775, 0.3925, 1.175, 0.49, 1.275, 0.5875, 1.3725, 0.6875, 0, 0.785, 0.0975, 0.8825, 0.1975, 0.98, 0.295, 1.0775, 0.3925, 1.175, 0.49, 1.275, 0.5875, 1.3725, 0.6875, 0, 0.785, 0.0975, 0.8825, 0.1975, 0.98, 0.295, 1.0775, 0.3925, 1.175, 0.49, 1.275, 0.5875, 1.3725, 0.6875, 0, 0.785, 0.0975, 0.8825, 0.1975, 0.98, 0.295, 1.0775, 0.3925, 1.175, 0.49, 1.275, 0.5875, 1.3725, 0.6875],
  "SoftwareVersions": "syngo_MR_E11",
  "SpacingBetweenSlices": 2,
  "StationName": "MRC35049",
  "TaskName": "things",
  "TotalReadoutTime": 0.0576811,
  "TxRefAmp": 219.304,
  "WipMemBlock": "dc6bbd45-59d7-4236-9e14-63bfdb092eb1||Sequence: R016 ve11c/master r/e634e98; Dec 19 2017 11:00:25 by eja",
  "dcmmeta_affine": [
    [-1.9999061822891235, 0.012216947972774506, 0.015027094632387161, 108.6772232055664],
    [0.007586524821817875, 1.922031283378601, -0.552935779094696, -74.061767578125],
    [0.017818868160247803, 0.5528528690338135, 1.921987533569336, -63.06194305419922],
    [0.0, 0.0, 0.0, 1.0]
],
  "dcmmeta_reorient_transform": [
    [0.0, -1.0, 0.0, 103.0],
    [1.0, 0.0, 0.0, 0.0],
    [0.0, 0.0, 1.0, 0.0],
    [0.0, 0.0, 0.0, 1.0]
],
  "dcmmeta_shape": [104, 104, 60, 190],
  "dcmmeta_slice_dim": 2,
  "dcmmeta_version": 0.6,
  "global": {
    "const": {
      "AcquisitionMatrix": [104, 0, 0, 104],
      "AngioFlag": "N",
      "BitsAllocated": 16,
      "BitsStored": 16,
      "BodyPartExamined": "BRAIN",
      "Columns": 832,
      "EchoNumbers": 1,
      "EchoTime": 37.0,
      "EchoTrainLength": 104,
      "FlipAngle": 52.0,
      "HighBit": 15,
      "ImageOrientationPatient": [0.9999531154761, -0.0037932625004, 0.00890943372216, 0.00610847402388, 0.96101566951614, -0.2764264269015],
      "ImagePositionPatient": [-842.3484063243, -820.76537541605, 188.63427321292],
      "ImageType": [
        "ORIGINAL",
        "PRIMARY",
        "M",
        "MB",
        "ND",
        "MOSAIC"
],
      "ImagedNucleus": "1H",
      "ImagingFrequency": 123.258988,
      "InPlanePhaseEncodingDirection": "COL",
      "MRAcquisitionType": "2D",
      "MagneticFieldStrength": 3.0,
      "Manufacturer": "SIEMENS",
      "ManufacturerModelName": "Prisma_fit",
      "Modality": "MR",
      "NumberOfAverages": 1.0,
      "NumberOfPhaseEncodingSteps": 104,
      "PercentPhaseFieldOfView": 100.0,
      "PercentSampling": 100.0,
      "PerformedProcedureStepStartTime": "105240.316000",
      "PhotometricInterpretation": "MONOCHROME2",
      "PixelBandwidth": 2290.0,
      "PixelRepresentation": 0,
      "PixelSpacing": [2.0, 2.0],
      "ProtocolName": "func_task-things_run-3",
      "RepetitionTime": 1490.0,
      "Rows": 832,
      "SAR": 0.03943190814887,
      "SamplesPerPixel": 1,
      "ScanOptions": "FS",
      "ScanningSequence": "EP",
      "SequenceName": "epfid2d1_104",
      "SequenceVariant": [
        "SK",
        "SS"
],
      "SeriesDescription": "func_task-things_run-3",
      "SeriesNumber": 16,
      "SeriesTime": "115041.798000",
      "SliceLocation": -39.309882722968,
      "SliceThickness": 2.0,
      "SmallestImagePixelValue": 0,
      "SoftwareVersions": "syngo MR E11",
      "SpacingBetweenSlices": 1.9999999359187,
      "SpecificCharacterSet": "ISO_IR 100",
      "StudyID": "1",
      "StudyTime": "105240.263000",
      "TransmitCoilName": "Body",
      "VariableFlipAngleFlag": "N",
      "WindowCenterWidthExplanation": "Algo1",
      "dBdt": 0.0},
    "slices": {}
  },
  "time": {
    "samples": {
      "AcquisitionNumber": [1, 2, 3, 4, 5, 6, 7, 8, 9, 10, 11, 12, 13, 14, 15, 16, 17, 18, 19, 20, 21, 22, 23, 24, 25, 26, 27, 28, 29, 30, 31, 32, 33, 34, 35, 36, 37, 38, 39, 40, 41, 42, 43, 44, 45, 46, 47, 48, 49, 50, 51, 52, 53, 54, 55, 56, 57, 58, 59, 60, 61, 62, 63, 64, 65, 66, 67, 68, 69, 70, 71, 72, 73, 74, 75, 76, 77, 78, 79, 80, 81, 82, 83, 84, 85, 86, 87, 88, 89, 90, 91, 92, 93, 94, 95, 96, 97, 98, 99, 100, 101, 102, 103, 104, 105, 106, 107, 108, 109, 110, 111, 112, 113, 114, 115, 116, 117, 118, 119, 120, 121, 122, 123, 124, 125, 126, 127, 128, 129, 130, 131, 132, 133, 134, 135, 136, 137, 138, 139, 140, 141, 142, 143, 144, 145, 146, 147, 148, 149, 150, 151, 152, 153, 154, 155, 156, 157, 158, 159, 160, 161, 162, 163, 164, 165, 166, 167, 168, 169, 170, 171, 172, 173, 174, 175, 176, 177, 178, 179, 180, 181, 182, 183, 184, 185, 186, 187, 188, 189, 190],
      "AcquisitionTime": ["114914.880000", "114916.370000", "114917.860000", "114919.350000", "114920.840000", "114922.330000", "114923.820000", "114925.310000", "114926.800000", "114928.290000", "114929.780000", "114931.270000", "114932.760000", "114934.250000", "114935.740000", "114937.230000", "114938.720000", "114940.210000", "114941.700000", "114943.190000", "114944.680000", "114946.170000", "114947.660000", "114949.150000", "114950.640000", "114952.130000", "114953.620000", "114955.110000", "114956.600000", "114958.090000", "114959.580000", "115001.070000", "115002.560000", "115004.050000", "115005.540000", "115007.030000", "115008.520000", "115010.010000", "115011.500000", "115012.990000", "115014.480000", "115015.970000", "115017.460000", "115018.950000", "115020.440000", "115021.930000", "115023.420000", "115024.910000", "115026.400000", "115027.890000", "115029.380000", "115030.870000", "115032.360000", "115033.850000", "115035.340000", "115036.830000", "115038.320000", "115039.810000", "115041.300000", "115042.790000", "115044.280000", "115045.770000", "115047.260000", "115048.750000", "115050.240000", "115051.730000", "115053.220000", "115054.710000", "115056.200000", "115057.690000", "115059.180000", "115100.670000", "115102.160000", "115103.650000", "115105.140000", "115106.630000", "115108.120000", "115109.610000", "115111.100000", "115112.590000", "115114.080000", "115115.570000", "115117.060000", "115118.550000", "115120.040000", "115121.530000", "115123.020000", "115124.510000", "115126.000000", "115127.490000", "115128.980000", "115130.470000", "115131.960000", "115133.450000", "115134.940000", "115136.430000", "115137.920000", "115139.410000", "115140.900000", "115142.390000", "115143.880000", "115145.370000", "115146.860000", "115148.350000", "115149.840000", "115151.330000", "115152.820000", "115154.310000", "115155.800000", "115157.290000", "115158.780000", "115200.270000", "115201.760000", "115203.250000", "115204.740000", "115206.230000", "115207.720000", "115209.210000", "115210.700000", "115212.190000", "115213.680000", "115215.170000", "115216.660000", "115218.150000", "115219.640000", "115221.130000", "115222.620000", "115224.110000", "115225.600000", "115227.090000", "115228.580000", "115230.070000", "115231.560000", "115233.050000", "115234.540000", "115236.030000", "115237.520000", "115239.010000", "115240.500000", "115241.990000", "115243.480000", "115244.970000", "115246.460000", "115247.950000", "115249.440000", "115250.930000", "115252.420000", "115253.910000", "115255.400000", "115256.890000", "115258.380000", "115259.870000", "115301.360000", "115302.850000", "115304.340000", "115305.830000", "115307.320000", "115308.810000", "115310.300000", "115311.790000", "115313.280000", "115314.770000", "115316.260000", "115317.750000", "115319.240000", "115320.730000", "115322.220000", "115323.710000", "115325.200000", "115326.690000", "115328.180000", "115329.670000", "115331.160000", "115332.650000", "115334.140000", "115335.630000", "115337.120000", "115338.610000", "115340.100000", "115341.590000", "115343.080000", "115344.570000", "115346.060000", "115347.550000", "115349.040000", "115350.530000", "115352.020000", "115353.510000", "115355.000000", "115356.490000"],
      "ContentTime": ["115041.802000", "115041.805000", "115041.809000", "115041.813000", "115041.816000", "115041.820000", "115041.823000", "115041.826000", "115041.830000", "115041.833000", "115041.837000", "115041.840000", "115041.844000", "115041.847000", "115041.850000", "115041.854000", "115041.857000", "115041.861000", "115041.864000", "115041.867000", "115041.871000", "115041.874000", "115041.877000", "115041.881000", "115041.884000", "115041.888000", "115041.891000", "115041.894000", "115041.904000", "115041.907000", "115041.910000", "115041.914000", "115041.917000", "115101.770000", "115101.774000", "115101.777000", "115101.780000", "115101.784000", "115101.787000", "115101.791000", "115101.794000", "115101.798000", "115101.801000", "115101.805000", "115101.808000", "115101.811000", "115101.815000", "115101.818000", "115101.822000", "115101.825000", "115101.828000", "115101.832000", "115101.835000", "115121.770000", "115121.774000", "115121.777000", "115121.781000", "115121.784000", "115121.788000", "115121.791000", "115121.794000", "115121.798000", "115121.801000", "115121.805000", "115121.808000", "115121.812000", "115121.815000", "115121.825000", "115121.828000", "115121.832000", "115121.835000", "115121.838000", "115121.842000", "115141.771000", "115141.775000", "115141.778000", "115141.789000", "115141.792000", "115141.796000", "115141.799000", "115141.803000", "115141.806000", "115141.809000", "115141.813000", "115141.816000", "115141.819000", "115141.823000", "115141.826000", "115141.830000", "115141.833000", "115141.837000", "115141.840000", "115141.844000", "115221.771000", "115221.775000", "115221.778000", "115221.782000", "115221.785000", "115221.789000", "115221.792000", "115221.796000", "115221.799000", "115221.802000", "115221.806000", "115221.809000", "115221.813000", "115221.816000", "115221.819000", "115221.823000", "115221.826000", "115221.830000", "115221.833000", "115221.836000", "115221.840000", "115221.843000", "115221.847000", "115221.850000", "115221.854000", "115221.857000", "115221.860000", "115221.864000", "115221.867000", "115221.871000", "115221.874000", "115221.877000", "115301.770000", "115301.774000", "115301.777000", "115301.781000", "115301.784000", "115301.788000", "115301.791000", "115301.794000", "115301.798000", "115301.802000", "115301.805000", "115301.808000", "115301.812000", "115301.815000", "115301.819000", "115301.822000", "115301.826000", "115301.829000", "115301.832000", "115301.836000", "115301.839000", "115301.843000", "115301.846000", "115301.850000", "115301.853000", "115301.857000", "115301.860000", "115341.770000", "115341.774000", "115341.778000", "115341.781000", "115341.784000", "115341.788000", "115341.791000", "115341.795000", "115341.798000", "115341.802000", "115341.805000", "115341.809000", "115341.812000", "115341.816000", "115341.819000", "115341.845000", "115341.848000", "115341.851000", "115341.855000", "115341.858000", "115341.861000", "115341.865000", "115341.868000", "115341.872000", "115341.876000", "115341.879000", "115358.335000", "115358.339000", "115358.342000", "115358.346000", "115358.349000", "115358.353000", "115358.356000", "115358.359000", "115358.363000", "115358.366000", "115358.370000", "115358.373000"],
      "InstanceCreationTime": ["115041.802000", "115041.805000", "115041.809000", "115041.813000", "115041.816000", "115041.820000", "115041.823000", "115041.826000", "115041.830000", "115041.833000", "115041.837000", "115041.840000", "115041.844000", "115041.847000", "115041.850000", "115041.854000", "115041.857000", "115041.861000", "115041.864000", "115041.867000", "115041.871000", "115041.874000", "115041.877000", "115041.881000", "115041.884000", "115041.888000", "115041.891000", "115041.894000", "115041.904000", "115041.907000", "115041.910000", "115041.914000", "115041.917000", "115101.770000", "115101.774000", "115101.777000", "115101.780000", "115101.784000", "115101.787000", "115101.791000", "115101.794000", "115101.798000", "115101.801000", "115101.805000", "115101.808000", "115101.811000", "115101.815000", "115101.818000", "115101.822000", "115101.825000", "115101.828000", "115101.832000", "115101.835000", "115121.770000", "115121.774000", "115121.777000", "115121.781000", "115121.784000", "115121.788000", "115121.791000", "115121.794000", "115121.798000", "115121.801000", "115121.805000", "115121.808000", "115121.812000", "115121.815000", "115121.825000", "115121.828000", "115121.832000", "115121.835000", "115121.838000", "115121.842000", "115141.771000", "115141.775000", "115141.778000", "115141.789000", "115141.792000", "115141.796000", "115141.799000", "115141.803000", "115141.806000", "115141.809000", "115141.813000", "115141.816000", "115141.819000", "115141.823000", "115141.826000", "115141.830000", "115141.833000", "115141.837000", "115141.840000", "115141.844000", "115221.771000", "115221.775000", "115221.778000", "115221.782000", "115221.785000", "115221.789000", "115221.792000", "115221.796000", "115221.799000", "115221.802000", "115221.806000", "115221.809000", "115221.813000", "115221.816000", "115221.819000", "115221.823000", "115221.826000", "115221.830000", "115221.833000", "115221.836000", "115221.840000", "115221.843000", "115221.847000", "115221.850000", "115221.854000", "115221.857000", "115221.860000", "115221.864000", "115221.867000", "115221.871000", "115221.874000", "115221.877000", "115301.770000", "115301.774000", "115301.777000", "115301.781000", "115301.784000", "115301.788000", "115301.791000", "115301.794000", "115301.798000", "115301.802000", "115301.805000", "115301.808000", "115301.812000", "115301.815000", "115301.819000", "115301.822000", "115301.826000", "115301.829000", "115301.832000", "115301.836000", "115301.839000", "115301.843000", "115301.846000", "115301.850000", "115301.853000", "115301.857000", "115301.860000", "115341.770000", "115341.774000", "115341.778000", "115341.781000", "115341.784000", "115341.788000", "115341.791000", "115341.795000", "115341.798000", "115341.802000", "115341.805000", "115341.809000", "115341.812000", "115341.816000", "115341.819000", "115341.845000", "115341.848000", "115341.851000", "115341.855000", "115341.858000", "115341.861000", "115341.865000", "115341.868000", "115341.872000", "115341.876000", "115341.879000", "115358.335000", "115358.339000", "115358.342000", "115358.346000", "115358.349000", "115358.353000", "115358.356000", "115358.359000", "115358.363000", "115358.366000", "115358.370000", "115358.373000"],
      "InstanceNumber": [1, 2, 3, 4, 5, 6, 7, 8, 9, 10, 11, 12, 13, 14, 15, 16, 17, 18, 19, 20, 21, 22, 23, 24, 25, 26, 27, 28, 29, 30, 31, 32, 33, 34, 35, 36, 37, 38, 39, 40, 41, 42, 43, 44, 45, 46, 47, 48, 49, 50, 51, 52, 53, 54, 55, 56, 57, 58, 59, 60, 61, 62, 63, 64, 65, 66, 67, 68, 69, 70, 71, 72, 73, 74, 75, 76, 77, 78, 79, 80, 81, 82, 83, 84, 85, 86, 87, 88, 89, 90, 91, 92, 93, 94, 95, 96, 97, 98, 99, 100, 101, 102, 103, 104, 105, 106, 107, 108, 109, 110, 111, 112, 113, 114, 115, 116, 117, 118, 119, 120, 121, 122, 123, 124, 125, 126, 127, 128, 129, 130, 131, 132, 133, 134, 135, 136, 137, 138, 139, 140, 141, 142, 143, 144, 145, 146, 147, 148, 149, 150, 151, 152, 153, 154, 155, 156, 157, 158, 159, 160, 161, 162, 163, 164, 165, 166, 167, 168, 169, 170, 171, 172, 173, 174, 175, 176, 177, 178, 179, 180, 181, 182, 183, 184, 185, 186, 187, 188, 189, 190],
      "LargestImagePixelValue": [38796, 37821, 37363, 36888, 36888, 36562, 36426, 36445, 36628, 36795, 36361, 36714, 36373, 36720, 36404, 36542, 35833, 35994, 36279, 35997, 36204, 36026, 36476, 36458, 36597, 36525, 36525, 36956, 35817, 36606, 36358, 36627, 36597, 36280, 36094, 36349, 36242, 36438, 36847, 36155, 36333, 36745, 36761, 36612, 36141, 36621, 36413, 36287, 37050, 36773, 36751, 36399, 36490, 37227, 36261, 36888, 36560, 36398, 36594, 36326, 36322, 36510, 36636, 37030, 36996, 36587, 36265, 36480, 36332, 35823, 36521, 35762, 35963, 36068, 35527, 36139, 36182, 36313, 36107, 36378, 36280, 36340, 36219, 35982, 35895, 36129, 36108, 36006, 36098, 35805, 35881, 35797, 36162, 35816, 35833, 36023, 35629, 35871, 35672, 35976, 35997, 35747, 35604, 35876, 35662, 35783, 35868, 35820, 35838, 35993, 35981, 36054, 35869, 35451, 35615, 35517, 35976, 35499, 35775, 36034, 35998, 36212, 35679, 36211, 35632, 36362, 35803, 35937, 35616, 35933, 36038, 36386, 35872, 35884, 36040, 35593, 35817, 36013, 36588, 35879, 35882, 36260, 36111, 35855, 35903, 35860, 35947, 35885, 35999, 35979, 35570, 35430, 35169, 35557, 35357, 35563, 35557, 35914, 35894, 35935, 35687, 35836, 35547, 35619, 36056, 35968, 35773, 35978, 35952, 36107, 35912, 35386, 35477, 35525, 35809, 35799, 35761, 36053, 35749, 35743, 35793, 36018, 35710, 35766, 35427, 36162, 35572, 35961, 35629, 35809],
      "WindowCenter": [10019.0, 9988.0, 9979.0, 9948.0, 9936.0, 9921.0, 9920.0, 9942.0, 9960.0, 9968.0, 9964.0, 9970.0, 9969.0, 9977.0, 9978.0, 9995.0, 9993.0, 9986.0, 9985.0, 9977.0, 9966.0, 9932.0, 9920.0, 9918.0, 9942.0, 9962.0, 9971.0, 9987.0, 9960.0, 9963.0, 9943.0, 9952.0, 9952.0, 9962.0, 9965.0, 9970.0, 9958.0, 9955.0, 9944.0, 9944.0, 9951.0, 9959.0, 9966.0, 9953.0, 9947.0, 9945.0, 9952.0, 9962.0, 9975.0, 9951.0, 9935.0, 9941.0, 9935.0, 9924.0, 9923.0, 9950.0, 9933.0, 9906.0, 9915.0, 9909.0, 9897.0, 9917.0, 9908.0, 9923.0, 9938.0, 9926.0, 9921.0, 9919.0, 9926.0, 9930.0, 9937.0, 9939.0, 9939.0, 9955.0, 9942.0, 9905.0, 9894.0, 9890.0, 9899.0, 9907.0, 9910.0, 9890.0, 9913.0, 9893.0, 9918.0, 9934.0, 9935.0, 9944.0, 9929.0, 9904.0, 9917.0, 9928.0, 9943.0, 9949.0, 9964.0, 9972.0, 9951.0, 9932.0, 9920.0, 9929.0, 9937.0, 9956.0, 9945.0, 9941.0, 9939.0, 9902.0, 9921.0, 9936.0, 9944.0, 9956.0, 9947.0, 9954.0, 9931.0, 9912.0, 9930.0, 9913.0, 9920.0, 9893.0, 9898.0, 9896.0, 9926.0, 9946.0, 9907.0, 9893.0, 9884.0, 9906.0, 9891.0, 9901.0, 9895.0, 9919.0, 9919.0, 9909.0, 9891.0, 9899.0, 9935.0, 9930.0, 9929.0, 9903.0, 9917.0, 9892.0, 9891.0, 9925.0, 9903.0, 9893.0, 9879.0, 9889.0, 9893.0, 9890.0, 9890.0, 9882.0, 9899.0, 9940.0, 9927.0, 9910.0, 9892.0, 9878.0, 9883.0, 9919.0, 9905.0, 9923.0, 9904.0, 9870.0, 9843.0, 9839.0, 9846.0, 9873.0, 9879.0, 9885.0, 9906.0, 9899.0, 9895.0, 9895.0, 9886.0, 9894.0, 9902.0, 9921.0, 9913.0, 9935.0, 9929.0, 9920.0, 9893.0, 9916.0, 9919.0, 9962.0, 9967.0, 9938.0, 9914.0, 9901.0, 9901.0, 9901.0],
      "WindowWidth": [21327.0, 21235.0, 21204.0, 21134.0, 21099.0, 21066.0, 21062.0, 21108.0, 21150.0, 21169.0, 21166.0, 21175.0, 21171.0, 21191.0, 21194.0, 21233.0, 21233.0, 21216.0, 21211.0, 21193.0, 21166.0, 21090.0, 21059.0, 21055.0, 21109.0, 21156.0, 21179.0, 21215.0, 21160.0, 21161.0, 21110.0, 21132.0, 21134.0, 21156.0, 21165.0, 21175.0, 21149.0, 21137.0, 21112.0, 21114.0, 21128.0, 21147.0, 21164.0, 21135.0, 21122.0, 21114.0, 21130.0, 21155.0, 21179.0, 21125.0, 21088.0, 21102.0, 21091.0, 21066.0, 21063.0, 21124.0, 21087.0, 21024.0, 21043.0, 21032.0, 21005.0, 21050.0, 21029.0, 21060.0, 21093.0, 21070.0, 21064.0, 21057.0, 21073.0, 21085.0, 21099.0, 21105.0, 21102.0, 21137.0, 21110.0, 21024.0, 20998.0, 20987.0, 21011.0, 21029.0, 21039.0, 20991.0, 21045.0, 21000.0, 21055.0, 21092.0, 21094.0, 21113.0, 21079.0, 21024.0, 21050.0, 21079.0, 21112.0, 21130.0, 21163.0, 21179.0, 21135.0, 21089.0, 21063.0, 21084.0, 21104.0, 21147.0, 21125.0, 21110.0, 21107.0, 21020.0, 21064.0, 21100.0, 21114.0, 21144.0, 21124.0, 21140.0, 21089.0, 21044.0, 21086.0, 21046.0, 21059.0, 21000.0, 21007.0, 21003.0, 21074.0, 21122.0, 21036.0, 20998.0, 20979.0, 21026.0, 20997.0, 21019.0, 21008.0, 21057.0, 21059.0, 21035.0, 20993.0, 21009.0, 21092.0, 21083.0, 21077.0, 21018.0, 21048.0, 20994.0, 20995.0, 21071.0, 21023.0, 20995.0, 20961.0, 20985.0, 20996.0, 20990.0, 20990.0, 20971.0, 21013.0, 21109.0, 21081.0, 21044.0, 20999.0, 20966.0, 20974.0, 21057.0, 21026.0, 21066.0, 21022.0, 20947.0, 20886.0, 20875.0, 20890.0, 20951.0, 20973.0, 20984.0, 21034.0, 21010.0, 21004.0, 21005.0, 20984.0, 21002.0, 21020.0, 21062.0, 21045.0, 21092.0, 21080.0, 21058.0, 20997.0, 21049.0, 21059.0, 21155.0, 21169.0, 21097.0, 21042.0, 21010.0, 21009.0, 21011.0]
    },
    "slices": {}
  }
}