{
  "AcquisitionMatrixPE": 104,
  "AcquisitionNumber": 1,
  "AcquisitionTime": "11:49:14.880000",
  "BandwidthPerPixelPhaseEncode": 17.17,
  "BaseResolution": 104,
  "BodyPartExamined": "BRAIN",
  "CoilString": "HC1-7;NC1_2",
  "ConsistencyInfo": "N4_VE11C_LATEST_20160120",
  "ConversionSoftware": "dcm2niix",
  "ConversionSoftwareVersion": "v1.0.20190902",
  "DerivedVendorReportedEchoSpacing": 0.000560011,
  "DeviceSerialNumber": "167006",
  "DwellTime": 2.1e-06,
  "EchoTime": 0.037,
  "EchoTrainLength": 104,
  "EffectiveEchoSpacing": 0.000560011,
  "FlipAngle": 52,
  "ImageComments": "Unaliased_MB4_PE3_LB",
  "ImageOrientationPatientDICOM": [0.999953, -0.00379326, 0.00890943, 0.00610847, 0.961016, -0.276426],
  "ImageType": [
    "ORIGINAL",
    "PRIMARY",
    "P",
    "MB",
    "ND",
    "MOSAIC"
],
  "ImagingFrequency": 123.259,
  "InPlanePhaseEncodingDirectionDICOM": "COL",
  "InstitutionAddress": "Chemin_Queen-Mary_4565_Montreal_District_CA_H3W_1W5",
  "InstitutionName": "IUGM",
  "InstitutionalDepartmentName": "Department",
  "MRAcquisitionType": "2D",
  "MagneticFieldStrength": 3,
  "Manufacturer": "Siemens",
  "ManufacturersModelName": "Prisma_fit",
  "Modality": "MR",
  "MultibandAccelerationFactor": 4,
  "PartialFourier": 1,
  "PatientPosition": "HFS",
  "PercentPhaseFOV": 100,
  "PhaseEncodingDirection": "j",
  "PhaseEncodingSteps": 104,
  "PhaseResolution": 1,
  "PixelBandwidth": 2290,
  "ProcedureStepDescription": "memory_things",
  "ProtocolName": "func_task-things_run-3",
  "PulseSequenceDetails": "%CustomerSeq%_cmrr_mbep2d_bold",
  "ReceiveCoilActiveElements": "HC1-7;NC1,2",
  "ReceiveCoilName": "HeadNeck_64",
  "ReconMatrixPE": 104,
  "RepetitionTime": 1.49,
  "SAR": 0.0394319,
  "ScanOptions": "FS",
  "ScanningSequence": "EP",
  "SequenceName": "epfid2d1_104",
  "SequenceVariant": "SK_SS",
  "SeriesDescription": "func_task-things_run-3",
  "SeriesNumber": 17,
  "ShimSetting": [632, -7218, -8795, 665, 50, -2, 42, -12],
  "SliceThickness": 2,
  "SliceTiming": [0, 0.785, 0.0975, 0.8825, 0.1975, 0.98, 0.295, 1.0775, 0.3925, 1.175, 0.49, 1.275, 0.5875, 1.3725, 0.6875, 0, 0.785, 0.0975, 0.8825, 0.1975, 0.98, 0.295, 1.0775, 0.3925, 1.175, 0.49, 1.275, 0.5875, 1.3725, 0.6875, 0, 0.785, 0.0975, 0.8825, 0.1975, 0.98, 0.295, 1.0775, 0.3925, 1.175, 0.49, 1.275, 0.5875, 1.3725, 0.6875, 0, 0.785, 0.0975, 0.8825, 0.1975, 0.98, 0.295, 1.0775, 0.3925, 1.175, 0.49, 1.275, 0.5875, 1.3725, 0.6875],
  "SoftwareVersions": "syngo_MR_E11",
  "SpacingBetweenSlices": 2,
  "StationName": "MRC35049",
  "TaskName": "things",
  "TotalReadoutTime": 0.0576811,
  "TxRefAmp": 219.304,
  "WipMemBlock": "dc6bbd45-59d7-4236-9e14-63bfdb092eb1||Sequence: R016 ve11c/master r/e634e98; Dec 19 2017 11:00:25 by eja",
  "dcmmeta_affine": [
    [-1.9999061822891235, 0.012216947972774506, 0.015027094632387161, 108.6772232055664],
    [0.007586524821817875, 1.922031283378601, -0.552935779094696, -74.061767578125],
    [0.017818868160247803, 0.5528528690338135, 1.921987533569336, -63.06194305419922],
    [0.0, 0.0, 0.0, 1.0]
],
  "dcmmeta_reorient_transform": [
    [0.0, -1.0, 0.0, 103.0],
    [1.0, 0.0, 0.0, 0.0],
    [0.0, 0.0, 1.0, 0.0],
    [0.0, 0.0, 0.0, 1.0]
],
  "dcmmeta_shape": [104, 104, 60, 190],
  "dcmmeta_slice_dim": 2,
  "dcmmeta_version": 0.6,
  "global": {
    "const": {
      "AcquisitionMatrix": [104, 0, 0, 104],
      "AngioFlag": "N",
      "BitsAllocated": 16,
      "BitsStored": 16,
      "BodyPartExamined": "BRAIN",
      "Columns": 832,
      "EchoNumbers": 1,
      "EchoTime": 37.0,
      "EchoTrainLength": 104,
      "FlipAngle": 52.0,
      "HighBit": 15,
      "ImageOrientationPatient": [0.9999531154761, -0.0037932625004, 0.00890943372216, 0.00610847402388, 0.96101566951614, -0.2764264269015],
      "ImagePositionPatient": [-842.3484063243, -820.76537541605, 188.63427321292],
      "ImageType": [
        "ORIGINAL",
        "PRIMARY",
        "P",
        "MB",
        "ND",
        "MOSAIC"
],
      "ImagedNucleus": "1H",
      "ImagingFrequency": 123.258988,
      "InPlanePhaseEncodingDirection": "COL",
      "LargestImagePixelValue": 4095,
      "MRAcquisitionType": "2D",
      "MagneticFieldStrength": 3.0,
      "Manufacturer": "SIEMENS",
      "ManufacturerModelName": "Prisma_fit",
      "Modality": "MR",
      "NumberOfAverages": 1.0,
      "NumberOfPhaseEncodingSteps": 104,
      "PercentPhaseFieldOfView": 100.0,
      "PercentSampling": 100.0,
      "PerformedProcedureStepStartTime": "105240.316000",
      "PhotometricInterpretation": "MONOCHROME2",
      "PixelBandwidth": 2290.0,
      "PixelRepresentation": 0,
      "PixelSpacing": [2.0, 2.0],
      "ProtocolName": "func_task-things_run-3",
      "RepetitionTime": 1490.0,
      "RescaleIntercept": -4096.0,
      "RescaleSlope": 2.0,
      "RescaleType": "US",
      "Rows": 832,
      "SAR": 0.03943190814887,
      "SamplesPerPixel": 1,
      "ScanOptions": "FS",
      "ScanningSequence": "EP",
      "SequenceName": "epfid2d1_104",
      "SequenceVariant": [
        "SK",
        "SS"
],
      "SeriesDescription": "func_task-things_run-3",
      "SeriesNumber": 17,
      "SeriesTime": "115041.969000",
      "SliceLocation": -39.309882722968,
      "SliceThickness": 2.0,
      "SmallestImagePixelValue": 0,
      "SoftwareVersions": "syngo MR E11",
      "SpacingBetweenSlices": 1.9999999359187,
      "SpecificCharacterSet": "ISO_IR 100",
      "StudyID": "1",
      "StudyTime": "105240.263000",
      "TransmitCoilName": "Body",
      "VariableFlipAngleFlag": "N",
      "WindowCenterWidthExplanation": "Algo1",
      "dBdt": 0.0},
    "slices": {}
  },
  "time": {
    "samples": {
      "AcquisitionNumber": [1, 2, 3, 4, 5, 6, 7, 8, 9, 10, 11, 12, 13, 14, 15, 16, 17, 18, 19, 20, 21, 22, 23, 24, 25, 26, 27, 28, 29, 30, 31, 32, 33, 34, 35, 36, 37, 38, 39, 40, 41, 42, 43, 44, 45, 46, 47, 48, 49, 50, 51, 52, 53, 54, 55, 56, 57, 58, 59, 60, 61, 62, 63, 64, 65, 66, 67, 68, 69, 70, 71, 72, 73, 74, 75, 76, 77, 78, 79, 80, 81, 82, 83, 84, 85, 86, 87, 88, 89, 90, 91, 92, 93, 94, 95, 96, 97, 98, 99, 100, 101, 102, 103, 104, 105, 106, 107, 108, 109, 110, 111, 112, 113, 114, 115, 116, 117, 118, 119, 120, 121, 122, 123, 124, 125, 126, 127, 128, 129, 130, 131, 132, 133, 134, 135, 136, 137, 138, 139, 140, 141, 142, 143, 144, 145, 146, 147, 148, 149, 150, 151, 152, 153, 154, 155, 156, 157, 158, 159, 160, 161, 162, 163, 164, 165, 166, 167, 168, 169, 170, 171, 172, 173, 174, 175, 176, 177, 178, 179, 180, 181, 182, 183, 184, 185, 186, 187, 188, 189, 190],
      "AcquisitionTime": ["114914.880000", "114916.370000", "114917.860000", "114919.350000", "114920.840000", "114922.330000", "114923.820000", "114925.310000", "114926.800000", "114928.290000", "114929.780000", "114931.270000", "114932.760000", "114934.250000", "114935.740000", "114937.230000", "114938.720000", "114940.210000", "114941.700000", "114943.190000", "114944.680000", "114946.170000", "114947.660000", "114949.150000", "114950.640000", "114952.130000", "114953.620000", "114955.110000", "114956.600000", "114958.090000", "114959.580000", "115001.070000", "115002.560000", "115004.050000", "115005.540000", "115007.030000", "115008.520000", "115010.010000", "115011.500000", "115012.990000", "115014.480000", "115015.970000", "115017.460000", "115018.950000", "115020.440000", "115021.930000", "115023.420000", "115024.910000", "115026.400000", "115027.890000", "115029.380000", "115030.870000", "115032.360000", "115033.850000", "115035.340000", "115036.830000", "115038.320000", "115039.810000", "115041.300000", "115042.790000", "115044.280000", "115045.770000", "115047.260000", "115048.750000", "115050.240000", "115051.730000", "115053.220000", "115054.710000", "115056.200000", "115057.690000", "115059.180000", "115100.670000", "115102.160000", "115103.650000", "115105.140000", "115106.630000", "115108.120000", "115109.610000", "115111.100000", "115112.590000", "115114.080000", "115115.570000", "115117.060000", "115118.550000", "115120.040000", "115121.530000", "115123.020000", "115124.510000", "115126.000000", "115127.490000", "115128.980000", "115130.470000", "115131.960000", "115133.450000", "115134.940000", "115136.430000", "115137.920000", "115139.410000", "115140.900000", "115142.390000", "115143.880000", "115145.370000", "115146.860000", "115148.350000", "115149.840000", "115151.330000", "115152.820000", "115154.310000", "115155.800000", "115157.290000", "115158.780000", "115200.270000", "115201.760000", "115203.250000", "115204.740000", "115206.230000", "115207.720000", "115209.210000", "115210.700000", "115212.190000", "115213.680000", "115215.170000", "115216.660000", "115218.150000", "115219.640000", "115221.130000", "115222.620000", "115224.110000", "115225.600000", "115227.090000", "115228.580000", "115230.070000", "115231.560000", "115233.050000", "115234.540000", "115236.030000", "115237.520000", "115239.010000", "115240.500000", "115241.990000", "115243.480000", "115244.970000", "115246.460000", "115247.950000", "115249.440000", "115250.930000", "115252.420000", "115253.910000", "115255.400000", "115256.890000", "115258.380000", "115259.870000", "115301.360000", "115302.850000", "115304.340000", "115305.830000", "115307.320000", "115308.810000", "115310.300000", "115311.790000", "115313.280000", "115314.770000", "115316.260000", "115317.750000", "115319.240000", "115320.730000", "115322.220000", "115323.710000", "115325.200000", "115326.690000", "115328.180000", "115329.670000", "115331.160000", "115332.650000", "115334.140000", "115335.630000", "115337.120000", "115338.610000", "115340.100000", "115341.590000", "115343.080000", "115344.570000", "115346.060000", "115347.550000", "115349.040000", "115350.530000", "115352.020000", "115353.510000", "115355.000000", "115356.490000"],
      "ContentTime": ["115041.971000", "115041.974000", "115041.976000", "115041.979000", "115041.981000", "115041.984000", "115041.986000", "115041.989000", "115041.991000", "115041.994000", "115041.996000", "115041.999000", "115042.001000", "115042.004000", "115042.006000", "115042.009000", "115042.011000", "115042.014000", "115042.017000", "115042.019000", "115042.022000", "115042.024000", "115042.027000", "115042.029000", "115042.032000", "115042.034000", "115042.037000", "115042.040000", "115042.042000", "115042.045000", "115042.048000", "115042.050000", "115042.052000", "115101.876000", "115101.879000", "115101.882000", "115101.885000", "115101.887000", "115101.890000", "115101.892000", "115101.895000", "115101.897000", "115101.900000", "115101.902000", "115101.905000", "115101.908000", "115101.910000", "115101.913000", "115101.915000", "115101.918000", "115101.920000", "115101.923000", "115101.925000", "115121.882000", "115121.885000", "115121.887000", "115121.890000", "115121.892000", "115121.895000", "115121.897000", "115121.900000", "115121.903000", "115121.905000", "115121.908000", "115121.910000", "115121.913000", "115121.915000", "115121.918000", "115121.921000", "115121.923000", "115121.926000", "115121.928000", "115121.931000", "115141.899000", "115141.902000", "115141.904000", "115141.907000", "115141.909000", "115141.912000", "115141.914000", "115141.917000", "115141.919000", "115141.922000", "115141.924000", "115141.927000", "115141.929000", "115141.932000", "115141.934000", "115141.937000", "115141.939000", "115141.942000", "115141.944000", "115141.947000", "115221.935000", "115221.937000", "115221.940000", "115221.943000", "115221.945000", "115221.948000", "115221.950000", "115221.953000", "115221.956000", "115221.958000", "115221.961000", "115221.963000", "115221.966000", "115221.968000", "115221.971000", "115221.973000", "115221.976000", "115221.979000", "115221.981000", "115221.984000", "115221.986000", "115221.989000", "115221.992000", "115221.994000", "115221.997000", "115221.999000", "115222.002000", "115222.004000", "115222.007000", "115222.010000", "115222.012000", "115222.017000", "115301.902000", "115301.904000", "115301.907000", "115301.910000", "115301.912000", "115301.915000", "115301.917000", "115301.920000", "115301.922000", "115301.925000", "115301.927000", "115301.930000", "115301.932000", "115301.935000", "115301.938000", "115301.940000", "115301.943000", "115301.945000", "115301.948000", "115301.950000", "115301.953000", "115301.955000", "115301.958000", "115301.960000", "115301.963000", "115301.966000", "115301.968000", "115341.937000", "115341.940000", "115341.943000", "115341.945000", "115341.948000", "115341.950000", "115341.953000", "115341.955000", "115341.958000", "115341.961000", "115341.963000", "115341.966000", "115341.968000", "115341.971000", "115341.973000", "115341.976000", "115341.978000", "115341.981000", "115341.983000", "115341.986000", "115341.988000", "115341.991000", "115341.994000", "115341.996000", "115342.000000", "115342.002000", "115358.417000", "115358.419000", "115358.425000", "115358.427000", "115358.430000", "115358.432000", "115358.435000", "115358.437000", "115358.440000", "115358.442000", "115358.445000", "115358.448000"],
      "InstanceCreationTime": ["115041.971000", "115041.974000", "115041.976000", "115041.979000", "115041.981000", "115041.984000", "115041.986000", "115041.989000", "115041.991000", "115041.994000", "115041.996000", "115041.999000", "115042.001000", "115042.004000", "115042.006000", "115042.009000", "115042.011000", "115042.014000", "115042.017000", "115042.019000", "115042.022000", "115042.024000", "115042.027000", "115042.029000", "115042.032000", "115042.034000", "115042.037000", "115042.040000", "115042.042000", "115042.045000", "115042.048000", "115042.050000", "115042.052000", "115101.876000", "115101.879000", "115101.882000", "115101.885000", "115101.887000", "115101.890000", "115101.892000", "115101.895000", "115101.897000", "115101.900000", "115101.902000", "115101.905000", "115101.908000", "115101.910000", "115101.913000", "115101.915000", "115101.918000", "115101.920000", "115101.923000", "115101.925000", "115121.882000", "115121.885000", "115121.887000", "115121.890000", "115121.892000", "115121.895000", "115121.897000", "115121.900000", "115121.903000", "115121.905000", "115121.908000", "115121.910000", "115121.913000", "115121.915000", "115121.918000", "115121.921000", "115121.923000", "115121.926000", "115121.928000", "115121.931000", "115141.899000", "115141.902000", "115141.904000", "115141.907000", "115141.909000", "115141.912000", "115141.914000", "115141.917000", "115141.919000", "115141.922000", "115141.924000", "115141.927000", "115141.929000", "115141.932000", "115141.934000", "115141.937000", "115141.939000", "115141.942000", "115141.944000", "115141.947000", "115221.935000", "115221.937000", "115221.940000", "115221.943000", "115221.945000", "115221.948000", "115221.950000", "115221.953000", "115221.956000", "115221.958000", "115221.961000", "115221.963000", "115221.966000", "115221.968000", "115221.971000", "115221.973000", "115221.976000", "115221.979000", "115221.981000", "115221.984000", "115221.986000", "115221.989000", "115221.992000", "115221.994000", "115221.997000", "115221.999000", "115222.002000", "115222.004000", "115222.007000", "115222.010000", "115222.012000", "115222.017000", "115301.902000", "115301.904000", "115301.907000", "115301.910000", "115301.912000", "115301.915000", "115301.917000", "115301.920000", "115301.922000", "115301.925000", "115301.927000", "115301.930000", "115301.932000", "115301.935000", "115301.938000", "115301.940000", "115301.943000", "115301.945000", "115301.948000", "115301.950000", "115301.953000", "115301.955000", "115301.958000", "115301.960000", "115301.963000", "115301.966000", "115301.968000", "115341.937000", "115341.940000", "115341.943000", "115341.945000", "115341.948000", "115341.950000", "115341.953000", "115341.955000", "115341.958000", "115341.961000", "115341.963000", "115341.966000", "115341.968000", "115341.971000", "115341.973000", "115341.976000", "115341.978000", "115341.981000", "115341.983000", "115341.986000", "115341.988000", "115341.991000", "115341.994000", "115341.996000", "115342.000000", "115342.002000", "115358.417000", "115358.419000", "115358.425000", "115358.427000", "115358.430000", "115358.432000", "115358.435000", "115358.437000", "115358.440000", "115358.442000", "115358.445000", "115358.448000"],
      "InstanceNumber": [1, 2, 3, 4, 5, 6, 7, 8, 9, 10, 11, 12, 13, 14, 15, 16, 17, 18, 19, 20, 21, 22, 23, 24, 25, 26, 27, 28, 29, 30, 31, 32, 33, 34, 35, 36, 37, 38, 39, 40, 41, 42, 43, 44, 45, 46, 47, 48, 49, 50, 51, 52, 53, 54, 55, 56, 57, 58, 59, 60, 61, 62, 63, 64, 65, 66, 67, 68, 69, 70, 71, 72, 73, 74, 75, 76, 77, 78, 79, 80, 81, 82, 83, 84, 85, 86, 87, 88, 89, 90, 91, 92, 93, 94, 95, 96, 97, 98, 99, 100, 101, 102, 103, 104, 105, 106, 107, 108, 109, 110, 111, 112, 113, 114, 115, 116, 117, 118, 119, 120, 121, 122, 123, 124, 125, 126, 127, 128, 129, 130, 131, 132, 133, 134, 135, 136, 137, 138, 139, 140, 141, 142, 143, 144, 145, 146, 147, 148, 149, 150, 151, 152, 153, 154, 155, 156, 157, 158, 159, 160, 161, 162, 163, 164, 165, 166, 167, 168, 169, 170, 171, 172, 173, 174, 175, 176, 177, 178, 179, 180, 181, 182, 183, 184, 185, 186, 187, 188, 189, 190],
      "WindowCenter": [4866.0, 4872.0, 4864.0, 4866.0, 4868.0, 4864.0, 4864.0, 4866.0, 4866.0, 4892.0, 4864.0, 4868.0, 4868.0, 4866.0, 4868.0, 4864.0, 4866.0, 4868.0, 4862.0, 4868.0, 4866.0, 4868.0, 4866.0, 4870.0, 4866.0, 4868.0, 4870.0, 4866.0, 4864.0, 4868.0, 4868.0, 4864.0, 4868.0, 4866.0, 4870.0, 4866.0, 4868.0, 4866.0, 4866.0, 4866.0, 4868.0, 4868.0, 4866.0, 4868.0, 4864.0, 4866.0, 4866.0, 4868.0, 4866.0, 4864.0, 4866.0, 4868.0, 4866.0, 4868.0, 4890.0, 4866.0, 4864.0, 4866.0, 4864.0, 4870.0, 4870.0, 4870.0, 4868.0, 4868.0, 4868.0, 4866.0, 4868.0, 4864.0, 4866.0, 4866.0, 4866.0, 4870.0, 4892.0, 4866.0, 4864.0, 4866.0, 4864.0, 4866.0, 4864.0, 4862.0, 4864.0, 4862.0, 4866.0, 4866.0, 4866.0, 4864.0, 4868.0, 4866.0, 4864.0, 4864.0, 4864.0, 4866.0, 4868.0, 4868.0, 4868.0, 4866.0, 4866.0, 4868.0, 4870.0, 4866.0, 4868.0, 4862.0, 4866.0, 4866.0, 4866.0, 4868.0, 4868.0, 4868.0, 4870.0, 4866.0, 4864.0, 4864.0, 4866.0, 4868.0, 4868.0, 4868.0, 4866.0, 4866.0, 4868.0, 4870.0, 4868.0, 4866.0, 4866.0, 4864.0, 4866.0, 4862.0, 4866.0, 4866.0, 4868.0, 4868.0, 4890.0, 4868.0, 4866.0, 4890.0, 4866.0, 4866.0, 4864.0, 4866.0, 4868.0, 4868.0, 4870.0, 4868.0, 4864.0, 4868.0, 4868.0, 4870.0, 4866.0, 4868.0, 4864.0, 4866.0, 4868.0, 4870.0, 4866.0, 4866.0, 4866.0, 4866.0, 4868.0, 4866.0, 4890.0, 4890.0, 4866.0, 4840.0, 4862.0, 4862.0, 4890.0, 4868.0, 4892.0, 4890.0, 4892.0, 4868.0, 4870.0, 4864.0, 4866.0, 4864.0, 4862.0, 4868.0, 4868.0, 4866.0, 4866.0, 4870.0, 4864.0, 4868.0, 4890.0, 4868.0, 4864.0, 4866.0, 4864.0, 4862.0, 4864.0, 4868.0],
      "WindowWidth": [18600.0, 18598.0, 18600.0, 18596.0, 18604.0, 18598.0, 18594.0, 18596.0, 18600.0, 18630.0, 18598.0, 18600.0, 18598.0, 18602.0, 18600.0, 18602.0, 18602.0, 18602.0, 18596.0, 18602.0, 18600.0, 18606.0, 18604.0, 18600.0, 18600.0, 18604.0, 18600.0, 18604.0, 18594.0, 18602.0, 18604.0, 18606.0, 18604.0, 18602.0, 18604.0, 18606.0, 18606.0, 18598.0, 18604.0, 18598.0, 18600.0, 18602.0, 18596.0, 18606.0, 18600.0, 18602.0, 18598.0, 18600.0, 18598.0, 18602.0, 18596.0, 18602.0, 18596.0, 18604.0, 18632.0, 18598.0, 18602.0, 18596.0, 18594.0, 18600.0, 18596.0, 18606.0, 18600.0, 18600.0, 18600.0, 18602.0, 18600.0, 18604.0, 18602.0, 18600.0, 18602.0, 18606.0, 18632.0, 18604.0, 18602.0, 18600.0, 18592.0, 18600.0, 18598.0, 18606.0, 18600.0, 18604.0, 18600.0, 18598.0, 18600.0, 18604.0, 18602.0, 18596.0, 18596.0, 18598.0, 18604.0, 18600.0, 18604.0, 18602.0, 18596.0, 18602.0, 18598.0, 18604.0, 18608.0, 18598.0, 18604.0, 18596.0, 18600.0, 18596.0, 18596.0, 18604.0, 18600.0, 18604.0, 18606.0, 18596.0, 18600.0, 18600.0, 18602.0, 18602.0, 18604.0, 18604.0, 18600.0, 18604.0, 18600.0, 18602.0, 18602.0, 18598.0, 18600.0, 18600.0, 18598.0, 18596.0, 18598.0, 18602.0, 18600.0, 18598.0, 18632.0, 18600.0, 18600.0, 18634.0, 18596.0, 18602.0, 18598.0, 18600.0, 18604.0, 18598.0, 18602.0, 18604.0, 18602.0, 18602.0, 18602.0, 18602.0, 18604.0, 18600.0, 18600.0, 18604.0, 18600.0, 18600.0, 18602.0, 18602.0, 18604.0, 18602.0, 18602.0, 18604.0, 18634.0, 18638.0, 18594.0, 18570.0, 18596.0, 18592.0, 18632.0, 18602.0, 18634.0, 18636.0, 18638.0, 18606.0, 18608.0, 18594.0, 18606.0, 18598.0, 18600.0, 18600.0, 18602.0, 18600.0, 18606.0, 18602.0, 18598.0, 18602.0, 18636.0, 18606.0, 18596.0, 18596.0, 18600.0, 18594.0, 18596.0, 18598.0]
    },
    "slices": {}
  }
}