{
  "AcquisitionMatrixPE": 104,
  "AcquisitionNumber": 1,
  "AcquisitionTime": "11:37:1.970000",
  "BandwidthPerPixelPhaseEncode": 17.17,
  "BaseResolution": 104,
  "BodyPartExamined": "BRAIN",
  "CoilString": "HC1-7;NC1_2",
  "ConsistencyInfo": "N4_VE11C_LATEST_20160120",
  "ConversionSoftware": "dcm2niix",
  "ConversionSoftwareVersion": "v1.0.20190902",
  "DerivedVendorReportedEchoSpacing": 0.000560011,
  "DeviceSerialNumber": "167006",
  "DwellTime": 2.1e-06,
  "EchoTime": 0.037,
  "EchoTrainLength": 104,
  "EffectiveEchoSpacing": 0.000560011,
  "FlipAngle": 52,
  "ImageComments": "Unaliased_MB4_PE3_LB",
  "ImageOrientationPatientDICOM": [0.999953, -0.00379326, 0.00890943, 0.00610847, 0.961016, -0.276426],
  "ImageType": [
    "ORIGINAL",
    "PRIMARY",
    "M",
    "MB",
    "ND",
    "MOSAIC"
],
  "ImagingFrequency": 123.259,
  "InPlanePhaseEncodingDirectionDICOM": "COL",
  "InstitutionAddress": "Chemin_Queen-Mary_4565_Montreal_District_CA_H3W_1W5",
  "InstitutionName": "IUGM",
  "InstitutionalDepartmentName": "Department",
  "MRAcquisitionType": "2D",
  "MagneticFieldStrength": 3,
  "Manufacturer": "Siemens",
  "ManufacturersModelName": "Prisma_fit",
  "Modality": "MR",
  "MultibandAccelerationFactor": 4,
  "PartialFourier": 1,
  "PatientPosition": "HFS",
  "PercentPhaseFOV": 100,
  "PhaseEncodingDirection": "j",
  "PhaseEncodingSteps": 104,
  "PhaseResolution": 1,
  "PixelBandwidth": 2290,
  "ProcedureStepDescription": "memory_things",
  "ProtocolName": "func_task-things_run-1",
  "PulseSequenceDetails": "%CustomerSeq%_cmrr_mbep2d_bold",
  "ReceiveCoilActiveElements": "HC1-7;NC1,2",
  "ReceiveCoilName": "HeadNeck_64",
  "ReconMatrixPE": 104,
  "RepetitionTime": 1.49,
  "SAR": 0.0394319,
  "ScanOptions": "FS",
  "ScanningSequence": "EP",
  "SequenceName": "epfid2d1_104",
  "SequenceVariant": "SK_SS",
  "SeriesDescription": "func_task-things_run-1",
  "SeriesNumber": 10,
  "ShimSetting": [632, -7218, -8795, 665, 50, -2, 42, -12],
  "SliceThickness": 2,
  "SliceTiming": [0, 0.785, 0.0975, 0.8825, 0.1975, 0.98, 0.295, 1.0775, 0.3925, 1.1775, 0.49, 1.275, 0.5875, 1.3725, 0.6875, 0, 0.785, 0.0975, 0.8825, 0.1975, 0.98, 0.295, 1.0775, 0.3925, 1.1775, 0.49, 1.275, 0.5875, 1.3725, 0.6875, 0, 0.785, 0.0975, 0.8825, 0.1975, 0.98, 0.295, 1.0775, 0.3925, 1.1775, 0.49, 1.275, 0.5875, 1.3725, 0.6875, 0, 0.785, 0.0975, 0.8825, 0.1975, 0.98, 0.295, 1.0775, 0.3925, 1.1775, 0.49, 1.275, 0.5875, 1.3725, 0.6875],
  "SoftwareVersions": "syngo_MR_E11",
  "SpacingBetweenSlices": 2,
  "StationName": "MRC35049",
  "TaskName": "things",
  "TotalReadoutTime": 0.0576811,
  "TxRefAmp": 219.304,
  "WipMemBlock": "ac3cf31d-c78f-47d0-bc17-dc029c302c26||Sequence: R016 ve11c/master r/e634e98; Dec 19 2017 11:00:25 by eja",
  "dcmmeta_affine": [
    [-1.9999061822891235, 0.012216947972774506, 0.015027094632387161, 108.6772232055664],
    [0.007586524821817875, 1.922031283378601, -0.552935779094696, -74.061767578125],
    [0.017818868160247803, 0.5528528690338135, 1.921987533569336, -63.06194305419922],
    [0.0, 0.0, 0.0, 1.0]
],
  "dcmmeta_reorient_transform": [
    [0.0, -1.0, 0.0, 103.0],
    [1.0, 0.0, 0.0, 0.0],
    [0.0, 0.0, 1.0, 0.0],
    [0.0, 0.0, 0.0, 1.0]
],
  "dcmmeta_shape": [104, 104, 60, 190],
  "dcmmeta_slice_dim": 2,
  "dcmmeta_version": 0.6,
  "global": {
    "const": {
      "AcquisitionMatrix": [104, 0, 0, 104],
      "AngioFlag": "N",
      "BitsAllocated": 16,
      "BitsStored": 16,
      "BodyPartExamined": "BRAIN",
      "Columns": 832,
      "EchoNumbers": 1,
      "EchoTime": 37.0,
      "EchoTrainLength": 104,
      "FlipAngle": 52.0,
      "HighBit": 15,
      "ImageOrientationPatient": [0.9999531154761, -0.0037932625004, 0.00890943372216, 0.00610847402388, 0.96101566951614, -0.2764264269015],
      "ImagePositionPatient": [-842.3484063243, -820.76537541605, 188.63427321292],
      "ImageType": [
        "ORIGINAL",
        "PRIMARY",
        "M",
        "MB",
        "ND",
        "MOSAIC"
],
      "ImagedNucleus": "1H",
      "ImagingFrequency": 123.258976,
      "InPlanePhaseEncodingDirection": "COL",
      "MRAcquisitionType": "2D",
      "MagneticFieldStrength": 3.0,
      "Manufacturer": "SIEMENS",
      "ManufacturerModelName": "Prisma_fit",
      "Modality": "MR",
      "NumberOfAverages": 1.0,
      "NumberOfPhaseEncodingSteps": 104,
      "PercentPhaseFieldOfView": 100.0,
      "PercentSampling": 100.0,
      "PerformedProcedureStepStartTime": "105240.316000",
      "PhotometricInterpretation": "MONOCHROME2",
      "PixelBandwidth": 2290.0,
      "PixelRepresentation": 0,
      "PixelSpacing": [2.0, 2.0],
      "ProtocolName": "func_task-things_run-1",
      "RepetitionTime": 1490.0,
      "Rows": 832,
      "SAR": 0.03943190814887,
      "SamplesPerPixel": 1,
      "ScanOptions": "FS",
      "ScanningSequence": "EP",
      "SequenceName": "epfid2d1_104",
      "SequenceVariant": [
        "SK",
        "SS"
],
      "SeriesDescription": "func_task-things_run-1",
      "SeriesNumber": 10,
      "SeriesTime": "113807.298000",
      "SliceLocation": -39.309882722968,
      "SliceThickness": 2.0,
      "SmallestImagePixelValue": 0,
      "SoftwareVersions": "syngo MR E11",
      "SpacingBetweenSlices": 1.9999999359187,
      "SpecificCharacterSet": "ISO_IR 100",
      "StudyID": "1",
      "StudyTime": "105240.263000",
      "TransmitCoilName": "Body",
      "VariableFlipAngleFlag": "N",
      "WindowCenterWidthExplanation": "Algo1",
      "dBdt": 0.0},
    "slices": {}
  },
  "time": {
    "samples": {
      "AcquisitionNumber": [1, 2, 3, 4, 5, 6, 7, 8, 9, 10, 11, 12, 13, 14, 15, 16, 17, 18, 19, 20, 21, 22, 23, 24, 25, 26, 27, 28, 29, 30, 31, 32, 33, 34, 35, 36, 37, 38, 39, 40, 41, 42, 43, 44, 45, 46, 47, 48, 49, 50, 51, 52, 53, 54, 55, 56, 57, 58, 59, 60, 61, 62, 63, 64, 65, 66, 67, 68, 69, 70, 71, 72, 73, 74, 75, 76, 77, 78, 79, 80, 81, 82, 83, 84, 85, 86, 87, 88, 89, 90, 91, 92, 93, 94, 95, 96, 97, 98, 99, 100, 101, 102, 103, 104, 105, 106, 107, 108, 109, 110, 111, 112, 113, 114, 115, 116, 117, 118, 119, 120, 121, 122, 123, 124, 125, 126, 127, 128, 129, 130, 131, 132, 133, 134, 135, 136, 137, 138, 139, 140, 141, 142, 143, 144, 145, 146, 147, 148, 149, 150, 151, 152, 153, 154, 155, 156, 157, 158, 159, 160, 161, 162, 163, 164, 165, 166, 167, 168, 169, 170, 171, 172, 173, 174, 175, 176, 177, 178, 179, 180, 181, 182, 183, 184, 185, 186, 187, 188, 189, 190],
      "AcquisitionTime": ["113701.970000", "113703.460000", "113704.950000", "113706.440000", "113707.930000", "113709.420000", "113710.910000", "113712.400000", "113713.890000", "113715.380000", "113716.870000", "113718.360000", "113719.850000", "113721.340000", "113722.830000", "113724.320000", "113725.810000", "113727.300000", "113728.790000", "113730.280000", "113731.770000", "113733.260000", "113734.750000", "113736.240000", "113737.730000", "113739.220000", "113740.710000", "113742.200000", "113743.690000", "113745.180000", "113746.670000", "113748.160000", "113749.650000", "113751.140000", "113752.630000", "113754.120000", "113755.610000", "113757.100000", "113758.590000", "113800.080000", "113801.570000", "113803.060000", "113804.550000", "113806.040000", "113807.530000", "113809.020000", "113810.510000", "113812.000000", "113813.490000", "113814.980000", "113816.470000", "113817.960000", "113819.450000", "113820.940000", "113822.430000", "113823.920000", "113825.410000", "113826.900000", "113828.390000", "113829.880000", "113831.370000", "113832.860000", "113834.350000", "113835.840000", "113837.330000", "113838.820000", "113840.310000", "113841.800000", "113843.290000", "113844.780000", "113846.270000", "113847.760000", "113849.250000", "113850.740000", "113852.230000", "113853.720000", "113855.210000", "113856.700000", "113858.190000", "113859.680000", "113901.170000", "113902.660000", "113904.150000", "113905.640000", "113907.130000", "113908.620000", "113910.110000", "113911.600000", "113913.090000", "113914.580000", "113916.070000", "113917.560000", "113919.050000", "113920.540000", "113922.030000", "113923.520000", "113925.010000", "113926.500000", "113927.990000", "113929.480000", "113930.970000", "113932.460000", "113933.950000", "113935.440000", "113936.930000", "113938.420000", "113939.910000", "113941.400000", "113942.890000", "113944.380000", "113945.870000", "113947.360000", "113948.850000", "113950.340000", "113951.830000", "113953.320000", "113954.810000", "113956.300000", "113957.790000", "113959.280000", "114000.770000", "114002.260000", "114003.750000", "114005.240000", "114006.730000", "114008.220000", "114009.710000", "114011.200000", "114012.690000", "114014.180000", "114015.670000", "114017.160000", "114018.650000", "114020.140000", "114021.630000", "114023.120000", "114024.610000", "114026.100000", "114027.590000", "114029.080000", "114030.570000", "114032.060000", "114033.550000", "114035.040000", "114036.530000", "114038.020000", "114039.510000", "114041.000000", "114042.490000", "114043.980000", "114045.470000", "114046.960000", "114048.450000", "114049.940000", "114051.430000", "114052.920000", "114054.410000", "114055.900000", "114057.390000", "114058.880000", "114100.370000", "114101.860000", "114103.350000", "114104.840000", "114106.330000", "114107.820000", "114109.310000", "114110.800000", "114112.290000", "114113.780000", "114115.270000", "114116.760000", "114118.250000", "114119.740000", "114121.230000", "114122.720000", "114124.210000", "114125.700000", "114127.190000", "114128.680000", "114130.170000", "114131.660000", "114133.150000", "114134.640000", "114136.130000", "114137.620000", "114139.110000", "114140.600000", "114142.090000", "114143.580000"],
      "ContentTime": ["113807.301000", "113807.305000", "113807.308000", "113807.328000", "113807.332000", "113807.335000", "113827.269000", "113827.273000", "113827.277000", "113827.280000", "113827.283000", "113827.292000", "113827.296000", "113827.299000", "113827.302000", "113827.306000", "113827.309000", "113827.313000", "113827.316000", "113827.319000", "113827.323000", "113827.326000", "113827.330000", "113827.333000", "113827.337000", "113827.340000", "113907.269000", "113907.273000", "113907.277000", "113907.280000", "113907.284000", "113907.287000", "113907.291000", "113907.294000", "113907.298000", "113907.301000", "113907.304000", "113907.308000", "113907.311000", "113907.314000", "113907.318000", "113907.325000", "113907.328000", "113907.332000", "113907.335000", "113907.340000", "113907.343000", "113907.346000", "113907.350000", "113907.354000", "113907.357000", "113907.360000", "113907.364000", "113907.367000", "113907.371000", "113907.374000", "113907.378000", "113907.381000", "113907.384000", "113907.388000", "113907.391000", "113907.395000", "113907.398000", "113907.402000", "113907.405000", "113907.409000", "113927.269000", "113927.273000", "113927.276000", "113927.280000", "113927.283000", "113927.287000", "113927.290000", "113927.294000", "113927.297000", "113927.300000", "113927.304000", "113927.307000", "113927.311000", "113927.314000", "113927.318000", "113927.321000", "113927.325000", "113927.328000", "113927.331000", "113927.335000", "113947.269000", "113947.273000", "113947.277000", "113947.280000", "113947.283000", "113947.287000", "113947.290000", "113947.294000", "113947.297000", "113947.301000", "113947.304000", "113947.308000", "113947.311000", "113947.314000", "113947.318000", "113947.321000", "113947.325000", "113947.328000", "113947.332000", "113947.335000", "114027.269000", "114027.273000", "114027.277000", "114027.280000", "114027.283000", "114027.287000", "114027.290000", "114027.294000", "114027.297000", "114027.300000", "114027.304000", "114027.308000", "114027.311000", "114027.314000", "114027.318000", "114027.321000", "114027.325000", "114027.328000", "114027.332000", "114027.335000", "114027.338000", "114027.342000", "114027.345000", "114027.349000", "114027.352000", "114027.355000", "114027.359000", "114027.363000", "114027.366000", "114027.370000", "114027.373000", "114107.269000", "114107.273000", "114107.276000", "114107.280000", "114107.284000", "114107.287000", "114107.290000", "114107.294000", "114107.297000", "114107.301000", "114107.304000", "114107.308000", "114107.318000", "114107.321000", "114107.324000", "114107.328000", "114107.331000", "114107.335000", "114107.338000", "114107.341000", "114107.345000", "114107.348000", "114107.352000", "114107.355000", "114107.359000", "114107.362000", "114107.365000", "114145.464000", "114145.468000", "114145.480000", "114145.484000", "114145.487000", "114145.491000", "114145.494000", "114145.498000", "114145.501000", "114145.505000", "114145.508000", "114145.512000", "114145.515000", "114145.519000", "114145.522000", "114145.525000", "114145.529000", "114145.532000", "114145.536000", "114145.540000", "114145.543000", "114145.546000", "114145.550000", "114145.553000", "114145.557000", "114145.560000"],
      "InstanceCreationTime": ["113807.301000", "113807.305000", "113807.308000", "113807.328000", "113807.332000", "113807.335000", "113827.269000", "113827.273000", "113827.277000", "113827.280000", "113827.283000", "113827.292000", "113827.296000", "113827.299000", "113827.302000", "113827.306000", "113827.309000", "113827.313000", "113827.316000", "113827.319000", "113827.323000", "113827.326000", "113827.330000", "113827.333000", "113827.337000", "113827.340000", "113907.269000", "113907.273000", "113907.277000", "113907.280000", "113907.284000", "113907.287000", "113907.291000", "113907.294000", "113907.298000", "113907.301000", "113907.304000", "113907.308000", "113907.311000", "113907.314000", "113907.318000", "113907.325000", "113907.328000", "113907.332000", "113907.335000", "113907.340000", "113907.343000", "113907.346000", "113907.350000", "113907.354000", "113907.357000", "113907.360000", "113907.364000", "113907.367000", "113907.371000", "113907.374000", "113907.378000", "113907.381000", "113907.384000", "113907.388000", "113907.391000", "113907.395000", "113907.398000", "113907.402000", "113907.405000", "113907.409000", "113927.269000", "113927.273000", "113927.276000", "113927.280000", "113927.283000", "113927.287000", "113927.290000", "113927.294000", "113927.297000", "113927.300000", "113927.304000", "113927.307000", "113927.311000", "113927.314000", "113927.318000", "113927.321000", "113927.325000", "113927.328000", "113927.331000", "113927.335000", "113947.269000", "113947.273000", "113947.277000", "113947.280000", "113947.283000", "113947.287000", "113947.290000", "113947.294000", "113947.297000", "113947.301000", "113947.304000", "113947.308000", "113947.311000", "113947.314000", "113947.318000", "113947.321000", "113947.325000", "113947.328000", "113947.332000", "113947.335000", "114027.269000", "114027.273000", "114027.277000", "114027.280000", "114027.283000", "114027.287000", "114027.290000", "114027.294000", "114027.297000", "114027.300000", "114027.304000", "114027.308000", "114027.311000", "114027.314000", "114027.318000", "114027.321000", "114027.325000", "114027.328000", "114027.332000", "114027.335000", "114027.338000", "114027.342000", "114027.345000", "114027.349000", "114027.352000", "114027.355000", "114027.359000", "114027.363000", "114027.366000", "114027.370000", "114027.373000", "114107.269000", "114107.273000", "114107.276000", "114107.280000", "114107.284000", "114107.287000", "114107.290000", "114107.294000", "114107.297000", "114107.301000", "114107.304000", "114107.308000", "114107.318000", "114107.321000", "114107.324000", "114107.328000", "114107.331000", "114107.335000", "114107.338000", "114107.341000", "114107.345000", "114107.348000", "114107.352000", "114107.355000", "114107.359000", "114107.362000", "114107.365000", "114145.464000", "114145.468000", "114145.480000", "114145.484000", "114145.487000", "114145.491000", "114145.494000", "114145.498000", "114145.501000", "114145.505000", "114145.508000", "114145.512000", "114145.515000", "114145.519000", "114145.522000", "114145.525000", "114145.529000", "114145.532000", "114145.536000", "114145.540000", "114145.543000", "114145.546000", "114145.550000", "114145.553000", "114145.557000", "114145.560000"],
      "InstanceNumber": [1, 2, 3, 4, 5, 6, 7, 8, 9, 10, 11, 12, 13, 14, 15, 16, 17, 18, 19, 20, 21, 22, 23, 24, 25, 26, 27, 28, 29, 30, 31, 32, 33, 34, 35, 36, 37, 38, 39, 40, 41, 42, 43, 44, 45, 46, 47, 48, 49, 50, 51, 52, 53, 54, 55, 56, 57, 58, 59, 60, 61, 62, 63, 64, 65, 66, 67, 68, 69, 70, 71, 72, 73, 74, 75, 76, 77, 78, 79, 80, 81, 82, 83, 84, 85, 86, 87, 88, 89, 90, 91, 92, 93, 94, 95, 96, 97, 98, 99, 100, 101, 102, 103, 104, 105, 106, 107, 108, 109, 110, 111, 112, 113, 114, 115, 116, 117, 118, 119, 120, 121, 122, 123, 124, 125, 126, 127, 128, 129, 130, 131, 132, 133, 134, 135, 136, 137, 138, 139, 140, 141, 142, 143, 144, 145, 146, 147, 148, 149, 150, 151, 152, 153, 154, 155, 156, 157, 158, 159, 160, 161, 162, 163, 164, 165, 166, 167, 168, 169, 170, 171, 172, 173, 174, 175, 176, 177, 178, 179, 180, 181, 182, 183, 184, 185, 186, 187, 188, 189, 190],
      "LargestImagePixelValue": [39460, 38564, 37564, 37851, 37629, 37144, 37365, 37177, 37169, 37054, 37546, 37081, 37077, 36903, 37047, 37051, 36846, 36756, 36575, 36731, 36928, 36672, 37082, 37016, 36860, 36662, 36671, 36986, 36705, 36445, 37093, 37230, 36955, 36643, 37421, 37196, 36786, 36857, 36530, 36695, 36997, 36784, 36463, 36432, 36900, 36488, 36587, 36590, 36855, 36625, 36648, 36667, 36622, 36483, 36282, 36509, 36508, 36248, 37062, 36744, 36712, 36776, 36351, 36381, 36359, 36716, 36524, 36312, 36418, 36826, 36632, 36353, 36424, 36550, 36462, 36487, 36478, 36394, 36491, 36170, 35764, 36422, 36524, 36672, 36631, 36734, 36595, 36545, 36806, 36612, 36644, 36396, 36474, 36511, 36817, 36697, 36412, 36434, 36262, 36538, 36218, 36155, 36454, 36970, 36381, 36219, 36175, 36160, 36773, 36302, 36144, 36102, 36607, 36491, 36279, 36209, 36343, 36587, 36032, 36426, 36396, 36529, 36622, 36509, 36692, 36090, 36543, 36630, 36302, 36855, 36269, 36112, 36215, 36103, 36461, 36389, 36380, 36564, 36324, 36227, 36643, 36727, 36207, 35961, 35938, 36185, 36114, 35997, 36491, 36104, 36442, 36506, 36693, 36738, 36267, 36077, 36640, 36268, 35848, 36460, 36822, 36355, 35974, 36233, 36070, 36226, 36909, 36186, 36642, 36624, 36359, 36407, 36675, 36438, 36532, 36298, 36035, 35977, 36131, 36435, 36439, 36359, 36204, 36643, 36122, 36322, 36128, 36121, 36188, 36213],
      "WindowCenter": [10132.0, 10087.0, 10057.0, 10074.0, 10065.0, 10042.0, 10054.0, 10068.0, 10059.0, 10036.0, 10013.0, 10012.0, 10013.0, 10022.0, 10031.0, 10048.0, 10052.0, 10059.0, 10059.0, 10068.0, 10070.0, 10078.0, 10079.0, 10052.0, 10034.0, 10034.0, 10043.0, 10049.0, 10041.0, 10034.0, 10032.0, 10048.0, 10057.0, 10051.0, 10047.0, 10039.0, 10056.0, 10056.0, 10026.0, 10026.0, 10012.0, 10012.0, 10008.0, 10016.0, 10022.0, 10017.0, 10016.0, 10040.0, 10075.0, 10079.0, 10054.0, 10033.0, 10018.0, 10017.0, 10011.0, 10007.0, 9991.0, 9990.0, 10009.0, 10011.0, 10021.0, 10036.0, 10015.0, 10004.0, 10013.0, 10022.0, 10026.0, 10034.0, 10025.0, 10031.0, 10024.0, 10009.0, 10003.0, 10023.0, 10031.0, 10024.0, 10018.0, 10015.0, 10022.0, 10033.0, 10021.0, 10016.0, 9990.0, 9981.0, 9987.0, 10011.0, 10023.0, 10033.0, 10049.0, 10022.0, 10018.0, 10016.0, 10013.0, 9992.0, 10030.0, 10004.0, 9996.0, 10016.0, 10042.0, 10044.0, 10020.0, 10001.0, 9989.0, 10009.0, 10005.0, 10000.0, 9989.0, 9980.0, 10017.0, 10025.0, 10019.0, 10018.0, 10008.0, 9999.0, 9999.0, 9991.0, 10011.0, 10032.0, 10027.0, 10025.0, 10006.0, 9989.0, 9978.0, 9970.0, 9985.0, 9980.0, 9992.0, 10005.0, 10006.0, 10018.0, 10010.0, 10018.0, 10036.0, 10035.0, 10018.0, 9991.0, 9981.0, 9962.0, 9969.0, 9970.0, 9992.0, 10004.0, 9983.0, 9962.0, 9961.0, 9978.0, 9989.0, 9985.0, 9983.0, 9966.0, 9962.0, 9968.0, 9959.0, 10002.0, 10005.0, 10017.0, 10023.0, 9984.0, 9950.0, 9967.0, 9993.0, 9999.0, 9995.0, 9976.0, 9946.0, 9944.0, 9972.0, 9980.0, 10001.0, 10006.0, 9999.0, 10021.0, 10025.0, 10009.0, 9973.0, 9980.0, 9971.0, 9964.0, 9987.0, 10015.0, 10007.0, 9972.0, 9963.0, 9983.0, 9970.0, 10003.0, 9996.0, 9998.0, 9990.0, 9963.0],
      "WindowWidth": [21594.0, 21473.0, 21397.0, 21424.0, 21397.0, 21345.0, 21368.0, 21403.0, 21383.0, 21330.0, 21276.0, 21274.0, 21279.0, 21299.0, 21319.0, 21359.0, 21373.0, 21387.0, 21388.0, 21407.0, 21411.0, 21431.0, 21429.0, 21365.0, 21324.0, 21326.0, 21348.0, 21358.0, 21341.0, 21325.0, 21320.0, 21359.0, 21378.0, 21368.0, 21355.0, 21336.0, 21373.0, 21371.0, 21307.0, 21304.0, 21272.0, 21272.0, 21265.0, 21285.0, 21297.0, 21287.0, 21285.0, 21338.0, 21421.0, 21428.0, 21371.0, 21320.0, 21288.0, 21287.0, 21276.0, 21262.0, 21229.0, 21224.0, 21263.0, 21270.0, 21295.0, 21327.0, 21283.0, 21257.0, 21277.0, 21300.0, 21310.0, 21328.0, 21307.0, 21318.0, 21302.0, 21268.0, 21251.0, 21301.0, 21317.0, 21303.0, 21290.0, 21281.0, 21294.0, 21324.0, 21298.0, 21284.0, 21225.0, 21204.0, 21218.0, 21272.0, 21300.0, 21326.0, 21360.0, 21303.0, 21289.0, 21284.0, 21277.0, 21226.0, 21313.0, 21253.0, 21237.0, 21286.0, 21348.0, 21351.0, 21296.0, 21250.0, 21220.0, 21261.0, 21260.0, 21251.0, 21222.0, 21203.0, 21282.0, 21307.0, 21294.0, 21288.0, 21266.0, 21246.0, 21246.0, 21228.0, 21269.0, 21321.0, 21310.0, 21304.0, 21257.0, 21220.0, 21192.0, 21176.0, 21210.0, 21204.0, 21230.0, 21257.0, 21258.0, 21283.0, 21272.0, 21291.0, 21333.0, 21327.0, 21286.0, 21223.0, 21202.0, 21157.0, 21172.0, 21177.0, 21225.0, 21254.0, 21210.0, 21160.0, 21158.0, 21197.0, 21222.0, 21215.0, 21208.0, 21168.0, 21157.0, 21170.0, 21148.0, 21247.0, 21258.0, 21284.0, 21296.0, 21209.0, 21132.0, 21168.0, 21228.0, 21246.0, 21240.0, 21193.0, 21124.0, 21118.0, 21178.0, 21204.0, 21248.0, 21263.0, 21247.0, 21293.0, 21306.0, 21270.0, 21187.0, 21199.0, 21181.0, 21169.0, 21216.0, 21283.0, 21262.0, 21181.0, 21159.0, 21203.0, 21180.0, 21250.0, 21237.0, 21239.0, 21221.0, 21158.0]
    },
    "slices": {}
  }
}