{
  "AcquisitionMatrixPE": 104,
  "AcquisitionNumber": 1,
  "AcquisitionTime": "11:43:10.945000",
  "BandwidthPerPixelPhaseEncode": 17.17,
  "BaseResolution": 104,
  "BodyPartExamined": "BRAIN",
  "CoilString": "HC1-7;NC1_2",
  "ConsistencyInfo": "N4_VE11C_LATEST_20160120",
  "ConversionSoftware": "dcm2niix",
  "ConversionSoftwareVersion": "v1.0.20190902",
  "DerivedVendorReportedEchoSpacing": 0.000560011,
  "DeviceSerialNumber": "167006",
  "DwellTime": 2.1e-06,
  "EchoTime": 0.037,
  "EchoTrainLength": 104,
  "EffectiveEchoSpacing": 0.000560011,
  "FlipAngle": 52,
  "ImageComments": "Unaliased_MB4_PE3_LB",
  "ImageOrientationPatientDICOM": [0.999953, -0.00379326, 0.00890943, 0.00610847, 0.961016, -0.276426],
  "ImageType": [
    "ORIGINAL",
    "PRIMARY",
    "M",
    "MB",
    "ND",
    "MOSAIC"
],
  "ImagingFrequency": 123.259,
  "InPlanePhaseEncodingDirectionDICOM": "COL",
  "InstitutionAddress": "Chemin_Queen-Mary_4565_Montreal_District_CA_H3W_1W5",
  "InstitutionName": "IUGM",
  "InstitutionalDepartmentName": "Department",
  "MRAcquisitionType": "2D",
  "MagneticFieldStrength": 3,
  "Manufacturer": "Siemens",
  "ManufacturersModelName": "Prisma_fit",
  "Modality": "MR",
  "MultibandAccelerationFactor": 4,
  "PartialFourier": 1,
  "PatientPosition": "HFS",
  "PercentPhaseFOV": 100,
  "PhaseEncodingDirection": "j",
  "PhaseEncodingSteps": 104,
  "PhaseResolution": 1,
  "PixelBandwidth": 2290,
  "ProcedureStepDescription": "memory_things",
  "ProtocolName": "func_task-things_run-2",
  "PulseSequenceDetails": "%CustomerSeq%_cmrr_mbep2d_bold",
  "ReceiveCoilActiveElements": "HC1-7;NC1,2",
  "ReceiveCoilName": "HeadNeck_64",
  "ReconMatrixPE": 104,
  "RepetitionTime": 1.49,
  "SAR": 0.0394319,
  "ScanOptions": "FS",
  "ScanningSequence": "EP",
  "SequenceName": "epfid2d1_104",
  "SequenceVariant": "SK_SS",
  "SeriesDescription": "func_task-things_run-2",
  "SeriesNumber": 13,
  "ShimSetting": [632, -7218, -8795, 665, 50, -2, 42, -12],
  "SliceThickness": 2,
  "SliceTiming": [0, 0.785, 0.0975, 0.8825, 0.195, 0.98, 0.295, 1.0775, 0.3925, 1.175, 0.49, 1.275, 0.5875, 1.3725, 0.685, 0, 0.785, 0.0975, 0.8825, 0.195, 0.98, 0.295, 1.0775, 0.3925, 1.175, 0.49, 1.275, 0.5875, 1.3725, 0.685, 0, 0.785, 0.0975, 0.8825, 0.195, 0.98, 0.295, 1.0775, 0.3925, 1.175, 0.49, 1.275, 0.5875, 1.3725, 0.685, 0, 0.785, 0.0975, 0.8825, 0.195, 0.98, 0.295, 1.0775, 0.3925, 1.175, 0.49, 1.275, 0.5875, 1.3725, 0.685],
  "SoftwareVersions": "syngo_MR_E11",
  "SpacingBetweenSlices": 2,
  "StationName": "MRC35049",
  "TaskName": "things",
  "TotalReadoutTime": 0.0576811,
  "TxRefAmp": 219.304,
  "WipMemBlock": "f358b562-9060-4acd-af07-44520e89a7dd||Sequence: R016 ve11c/master r/e634e98; Dec 19 2017 11:00:25 by eja",
  "dcmmeta_affine": [
    [-1.9999061822891235, 0.012216947972774506, 0.015027094632387161, 108.6772232055664],
    [0.007586524821817875, 1.922031283378601, -0.552935779094696, -74.061767578125],
    [0.017818868160247803, 0.5528528690338135, 1.921987533569336, -63.06194305419922],
    [0.0, 0.0, 0.0, 1.0]
],
  "dcmmeta_reorient_transform": [
    [0.0, -1.0, 0.0, 103.0],
    [1.0, 0.0, 0.0, 0.0],
    [0.0, 0.0, 1.0, 0.0],
    [0.0, 0.0, 0.0, 1.0]
],
  "dcmmeta_shape": [104, 104, 60, 190],
  "dcmmeta_slice_dim": 2,
  "dcmmeta_version": 0.6,
  "global": {
    "const": {
      "AcquisitionMatrix": [104, 0, 0, 104],
      "AngioFlag": "N",
      "BitsAllocated": 16,
      "BitsStored": 16,
      "BodyPartExamined": "BRAIN",
      "Columns": 832,
      "EchoNumbers": 1,
      "EchoTime": 37.0,
      "EchoTrainLength": 104,
      "FlipAngle": 52.0,
      "HighBit": 15,
      "ImageOrientationPatient": [0.9999531154761, -0.0037932625004, 0.00890943372216, 0.00610847402388, 0.96101566951614, -0.2764264269015],
      "ImagePositionPatient": [-842.3484063243, -820.76537541605, 188.63427321292],
      "ImageType": [
        "ORIGINAL",
        "PRIMARY",
        "M",
        "MB",
        "ND",
        "MOSAIC"
],
      "ImagedNucleus": "1H",
      "ImagingFrequency": 123.258984,
      "InPlanePhaseEncodingDirection": "COL",
      "MRAcquisitionType": "2D",
      "MagneticFieldStrength": 3.0,
      "Manufacturer": "SIEMENS",
      "ManufacturerModelName": "Prisma_fit",
      "Modality": "MR",
      "NumberOfAverages": 1.0,
      "NumberOfPhaseEncodingSteps": 104,
      "PercentPhaseFieldOfView": 100.0,
      "PercentSampling": 100.0,
      "PerformedProcedureStepStartTime": "105240.316000",
      "PhotometricInterpretation": "MONOCHROME2",
      "PixelBandwidth": 2290.0,
      "PixelRepresentation": 0,
      "PixelSpacing": [2.0, 2.0],
      "ProtocolName": "func_task-things_run-2",
      "RepetitionTime": 1490.0,
      "Rows": 832,
      "SAR": 0.03943190814887,
      "SamplesPerPixel": 1,
      "ScanOptions": "FS",
      "ScanningSequence": "EP",
      "SequenceName": "epfid2d1_104",
      "SequenceVariant": [
        "SK",
        "SS"
],
      "SeriesDescription": "func_task-things_run-2",
      "SeriesNumber": 13,
      "SeriesTime": "114437.054000",
      "SliceLocation": -39.309882722968,
      "SliceThickness": 2.0,
      "SmallestImagePixelValue": 0,
      "SoftwareVersions": "syngo MR E11",
      "SpacingBetweenSlices": 1.9999999359187,
      "SpecificCharacterSet": "ISO_IR 100",
      "StudyID": "1",
      "StudyTime": "105240.263000",
      "TransmitCoilName": "Body",
      "VariableFlipAngleFlag": "N",
      "WindowCenterWidthExplanation": "Algo1",
      "dBdt": 0.0},
    "slices": {}
  },
  "time": {
    "samples": {
      "AcquisitionNumber": [1, 2, 3, 4, 5, 6, 7, 8, 9, 10, 11, 12, 13, 14, 15, 16, 17, 18, 19, 20, 21, 22, 23, 24, 25, 26, 27, 28, 29, 30, 31, 32, 33, 34, 35, 36, 37, 38, 39, 40, 41, 42, 43, 44, 45, 46, 47, 48, 49, 50, 51, 52, 53, 54, 55, 56, 57, 58, 59, 60, 61, 62, 63, 64, 65, 66, 67, 68, 69, 70, 71, 72, 73, 74, 75, 76, 77, 78, 79, 80, 81, 82, 83, 84, 85, 86, 87, 88, 89, 90, 91, 92, 93, 94, 95, 96, 97, 98, 99, 100, 101, 102, 103, 104, 105, 106, 107, 108, 109, 110, 111, 112, 113, 114, 115, 116, 117, 118, 119, 120, 121, 122, 123, 124, 125, 126, 127, 128, 129, 130, 131, 132, 133, 134, 135, 136, 137, 138, 139, 140, 141, 142, 143, 144, 145, 146, 147, 148, 149, 150, 151, 152, 153, 154, 155, 156, 157, 158, 159, 160, 161, 162, 163, 164, 165, 166, 167, 168, 169, 170, 171, 172, 173, 174, 175, 176, 177, 178, 179, 180, 181, 182, 183, 184, 185, 186, 187, 188, 189, 190],
      "AcquisitionTime": ["114310.945000", "114312.435000", "114313.925000", "114315.415000", "114316.905000", "114318.395000", "114319.885000", "114321.375000", "114322.865000", "114324.355000", "114325.845000", "114327.335000", "114328.825000", "114330.315000", "114331.805000", "114333.295000", "114334.785000", "114336.275000", "114337.765000", "114339.255000", "114340.745000", "114342.235000", "114343.725000", "114345.215000", "114346.705000", "114348.195000", "114349.685000", "114351.175000", "114352.665000", "114354.155000", "114355.645000", "114357.135000", "114358.625000", "114400.115000", "114401.605000", "114403.095000", "114404.585000", "114406.075000", "114407.565000", "114409.055000", "114410.545000", "114412.035000", "114413.525000", "114415.015000", "114416.505000", "114417.995000", "114419.485000", "114420.975000", "114422.465000", "114423.955000", "114425.445000", "114426.935000", "114428.425000", "114429.915000", "114431.405000", "114432.895000", "114434.385000", "114435.875000", "114437.365000", "114438.855000", "114440.345000", "114441.835000", "114443.325000", "114444.815000", "114446.305000", "114447.795000", "114449.285000", "114450.775000", "114452.265000", "114453.755000", "114455.245000", "114456.735000", "114458.225000", "114459.715000", "114501.205000", "114502.695000", "114504.185000", "114505.675000", "114507.165000", "114508.655000", "114510.145000", "114511.635000", "114513.125000", "114514.615000", "114516.105000", "114517.595000", "114519.085000", "114520.575000", "114522.065000", "114523.555000", "114525.045000", "114526.535000", "114528.025000", "114529.515000", "114531.005000", "114532.495000", "114533.985000", "114535.475000", "114536.965000", "114538.455000", "114539.945000", "114541.435000", "114542.925000", "114544.415000", "114545.905000", "114547.395000", "114548.885000", "114550.375000", "114551.865000", "114553.355000", "114554.845000", "114556.335000", "114557.825000", "114559.315000", "114600.805000", "114602.295000", "114603.785000", "114605.275000", "114606.765000", "114608.255000", "114609.745000", "114611.235000", "114612.725000", "114614.215000", "114615.705000", "114617.195000", "114618.685000", "114620.175000", "114621.665000", "114623.155000", "114624.645000", "114626.135000", "114627.625000", "114629.115000", "114630.605000", "114632.095000", "114633.585000", "114635.075000", "114636.565000", "114638.055000", "114639.545000", "114641.035000", "114642.525000", "114644.015000", "114645.505000", "114646.995000", "114648.485000", "114649.975000", "114651.465000", "114652.955000", "114654.445000", "114655.935000", "114657.425000", "114658.915000", "114700.405000", "114701.895000", "114703.385000", "114704.875000", "114706.365000", "114707.855000", "114709.345000", "114710.835000", "114712.325000", "114713.815000", "114715.305000", "114716.795000", "114718.285000", "114719.775000", "114721.265000", "114722.755000", "114724.245000", "114725.735000", "114727.225000", "114728.715000", "114730.205000", "114731.695000", "114733.185000", "114734.675000", "114736.165000", "114737.655000", "114739.145000", "114740.635000", "114742.125000", "114743.615000", "114745.105000", "114746.595000", "114748.085000", "114749.575000", "114751.065000", "114752.555000"],
      "ContentTime": ["114437.057000", "114437.061000", "114437.074000", "114437.077000", "114437.080000", "114437.084000", "114437.087000", "114437.091000", "114437.094000", "114437.097000", "114437.101000", "114437.104000", "114437.108000", "114437.111000", "114437.115000", "114437.118000", "114437.121000", "114437.125000", "114437.128000", "114437.132000", "114437.135000", "114437.138000", "114437.142000", "114437.145000", "114437.149000", "114437.152000", "114437.156000", "114437.159000", "114437.162000", "114437.166000", "114437.169000", "114437.173000", "114457.027000", "114457.031000", "114457.034000", "114457.038000", "114457.041000", "114457.045000", "114457.048000", "114457.052000", "114457.055000", "114457.059000", "114457.062000", "114457.065000", "114457.069000", "114457.072000", "114457.076000", "114457.079000", "114457.083000", "114457.086000", "114457.090000", "114457.094000", "114517.028000", "114517.032000", "114517.036000", "114517.039000", "114517.049000", "114517.053000", "114517.056000", "114517.060000", "114517.063000", "114517.067000", "114517.070000", "114517.073000", "114517.077000", "114517.080000", "114517.084000", "114517.087000", "114517.091000", "114517.094000", "114517.097000", "114517.101000", "114517.104000", "114537.028000", "114537.032000", "114537.036000", "114537.039000", "114537.042000", "114537.046000", "114537.056000", "114537.060000", "114537.063000", "114537.067000", "114537.070000", "114537.074000", "114537.077000", "114537.080000", "114537.084000", "114537.087000", "114537.091000", "114537.094000", "114537.098000", "114537.101000", "114617.029000", "114617.032000", "114617.042000", "114617.045000", "114617.048000", "114617.052000", "114617.055000", "114617.059000", "114617.062000", "114617.066000", "114617.069000", "114617.073000", "114617.076000", "114617.079000", "114617.083000", "114617.086000", "114617.090000", "114617.093000", "114617.097000", "114617.100000", "114617.103000", "114617.107000", "114617.110000", "114617.114000", "114617.117000", "114617.120000", "114617.124000", "114617.127000", "114617.131000", "114617.134000", "114617.138000", "114657.027000", "114657.031000", "114657.035000", "114657.038000", "114657.042000", "114657.045000", "114657.048000", "114657.052000", "114657.055000", "114657.059000", "114657.062000", "114657.066000", "114657.069000", "114657.073000", "114657.076000", "114657.079000", "114657.083000", "114657.086000", "114657.090000", "114657.093000", "114657.097000", "114657.100000", "114657.104000", "114657.107000", "114657.111000", "114657.114000", "114657.117000", "114737.028000", "114737.032000", "114737.041000", "114737.044000", "114737.047000", "114737.051000", "114737.054000", "114737.058000", "114737.061000", "114737.064000", "114737.068000", "114737.079000", "114737.082000", "114737.086000", "114737.089000", "114737.093000", "114737.096000", "114737.100000", "114737.103000", "114737.106000", "114737.110000", "114737.113000", "114737.117000", "114737.120000", "114737.124000", "114737.127000", "114737.131000", "114754.893000", "114754.908000", "114754.912000", "114754.916000", "114754.927000", "114754.930000", "114754.934000", "114754.938000", "114754.943000", "114754.947000", "114754.950000", "114754.954000"],
      "InstanceCreationTime": ["114437.057000", "114437.061000", "114437.074000", "114437.077000", "114437.080000", "114437.084000", "114437.087000", "114437.091000", "114437.094000", "114437.097000", "114437.101000", "114437.104000", "114437.108000", "114437.111000", "114437.115000", "114437.118000", "114437.121000", "114437.125000", "114437.128000", "114437.132000", "114437.135000", "114437.138000", "114437.142000", "114437.145000", "114437.149000", "114437.152000", "114437.156000", "114437.159000", "114437.162000", "114437.166000", "114437.169000", "114437.173000", "114457.027000", "114457.031000", "114457.034000", "114457.038000", "114457.041000", "114457.045000", "114457.048000", "114457.052000", "114457.055000", "114457.059000", "114457.062000", "114457.065000", "114457.069000", "114457.072000", "114457.076000", "114457.079000", "114457.083000", "114457.086000", "114457.090000", "114457.094000", "114517.028000", "114517.032000", "114517.036000", "114517.039000", "114517.049000", "114517.053000", "114517.056000", "114517.060000", "114517.063000", "114517.067000", "114517.070000", "114517.073000", "114517.077000", "114517.080000", "114517.084000", "114517.087000", "114517.091000", "114517.094000", "114517.097000", "114517.101000", "114517.104000", "114537.028000", "114537.032000", "114537.036000", "114537.039000", "114537.042000", "114537.046000", "114537.056000", "114537.060000", "114537.063000", "114537.067000", "114537.070000", "114537.074000", "114537.077000", "114537.080000", "114537.084000", "114537.087000", "114537.091000", "114537.094000", "114537.098000", "114537.101000", "114617.029000", "114617.032000", "114617.042000", "114617.045000", "114617.048000", "114617.052000", "114617.055000", "114617.059000", "114617.062000", "114617.066000", "114617.069000", "114617.073000", "114617.076000", "114617.079000", "114617.083000", "114617.086000", "114617.090000", "114617.093000", "114617.097000", "114617.100000", "114617.103000", "114617.107000", "114617.110000", "114617.114000", "114617.117000", "114617.120000", "114617.124000", "114617.127000", "114617.131000", "114617.134000", "114617.138000", "114657.027000", "114657.031000", "114657.035000", "114657.038000", "114657.042000", "114657.045000", "114657.048000", "114657.052000", "114657.055000", "114657.059000", "114657.062000", "114657.066000", "114657.069000", "114657.073000", "114657.076000", "114657.079000", "114657.083000", "114657.086000", "114657.090000", "114657.093000", "114657.097000", "114657.100000", "114657.104000", "114657.107000", "114657.111000", "114657.114000", "114657.117000", "114737.028000", "114737.032000", "114737.041000", "114737.044000", "114737.047000", "114737.051000", "114737.054000", "114737.058000", "114737.061000", "114737.064000", "114737.068000", "114737.079000", "114737.082000", "114737.086000", "114737.089000", "114737.093000", "114737.096000", "114737.100000", "114737.103000", "114737.106000", "114737.110000", "114737.113000", "114737.117000", "114737.120000", "114737.124000", "114737.127000", "114737.131000", "114754.893000", "114754.908000", "114754.912000", "114754.916000", "114754.927000", "114754.930000", "114754.934000", "114754.938000", "114754.943000", "114754.947000", "114754.950000", "114754.954000"],
      "InstanceNumber": [1, 2, 3, 4, 5, 6, 7, 8, 9, 10, 11, 12, 13, 14, 15, 16, 17, 18, 19, 20, 21, 22, 23, 24, 25, 26, 27, 28, 29, 30, 31, 32, 33, 34, 35, 36, 37, 38, 39, 40, 41, 42, 43, 44, 45, 46, 47, 48, 49, 50, 51, 52, 53, 54, 55, 56, 57, 58, 59, 60, 61, 62, 63, 64, 65, 66, 67, 68, 69, 70, 71, 72, 73, 74, 75, 76, 77, 78, 79, 80, 81, 82, 83, 84, 85, 86, 87, 88, 89, 90, 91, 92, 93, 94, 95, 96, 97, 98, 99, 100, 101, 102, 103, 104, 105, 106, 107, 108, 109, 110, 111, 112, 113, 114, 115, 116, 117, 118, 119, 120, 121, 122, 123, 124, 125, 126, 127, 128, 129, 130, 131, 132, 133, 134, 135, 136, 137, 138, 139, 140, 141, 142, 143, 144, 145, 146, 147, 148, 149, 150, 151, 152, 153, 154, 155, 156, 157, 158, 159, 160, 161, 162, 163, 164, 165, 166, 167, 168, 169, 170, 171, 172, 173, 174, 175, 176, 177, 178, 179, 180, 181, 182, 183, 184, 185, 186, 187, 188, 189, 190],
      "LargestImagePixelValue": [39057, 38106, 37523, 36739, 36717, 36849, 37099, 36913, 36604, 36520, 36793, 36925, 36710, 36764, 36890, 36832, 36527, 36734, 37068, 37115, 36861, 37215, 36863, 37124, 36864, 36727, 36955, 37293, 36802, 36716, 36949, 36781, 36725, 36613, 36625, 37048, 36684, 36892, 36915, 36824, 36901, 36996, 36920, 37027, 36497, 36891, 36472, 36804, 36685, 36704, 36758, 36838, 36621, 36845, 36743, 36908, 37121, 37196, 36647, 36722, 36418, 36864, 36832, 36847, 36804, 36842, 36451, 36118, 36520, 36417, 36761, 36870, 36703, 36341, 36099, 36620, 36549, 37111, 36872, 36528, 36803, 36843, 36587, 36651, 36383, 36441, 36962, 36335, 36631, 36115, 36233, 36224, 36048, 36219, 36316, 35986, 36351, 36269, 36003, 36453, 36473, 36080, 36781, 36710, 36757, 36268, 36437, 37025, 36969, 36940, 36556, 36712, 36412, 36828, 36454, 36890, 36234, 36761, 36154, 36577, 36451, 36140, 36169, 36375, 36352, 36593, 36426, 36672, 36660, 36131, 36453, 36103, 36279, 36288, 36344, 36742, 37012, 36571, 36433, 36209, 37057, 36205, 37149, 36903, 36619, 35801, 36431, 36162, 36267, 36898, 36457, 36748, 36333, 36842, 36608, 36573, 36706, 36980, 36796, 36782, 36697, 36448, 36781, 36375, 36684, 37051, 36461, 36467, 36651, 36349, 36550, 36557, 36670, 36434, 36857, 36793, 36690, 36686, 36771, 36482, 36581, 36434, 36760, 36600, 36521, 36734, 37016, 36637, 36023, 36896],
      "WindowCenter": [10113.0, 10068.0, 10031.0, 10024.0, 10016.0, 10002.0, 10010.0, 10002.0, 9987.0, 9939.0, 9972.0, 9983.0, 9966.0, 9955.0, 9963.0, 9971.0, 9964.0, 9965.0, 9955.0, 9945.0, 9938.0, 9958.0, 9971.0, 9972.0, 9982.0, 9997.0, 9990.0, 9969.0, 9960.0, 9954.0, 9952.0, 9978.0, 9988.0, 9990.0, 9992.0, 9988.0, 9970.0, 9971.0, 9970.0, 9961.0, 9952.0, 9974.0, 9992.0, 9994.0, 9988.0, 9979.0, 9970.0, 9971.0, 9974.0, 9977.0, 9992.0, 10013.0, 10017.0, 9991.0, 9971.0, 9967.0, 9975.0, 9999.0, 10006.0, 9989.0, 9971.0, 9962.0, 9953.0, 9978.0, 9979.0, 9969.0, 9987.0, 9989.0, 9981.0, 9971.0, 9978.0, 9971.0, 9988.0, 9998.0, 9973.0, 9962.0, 9971.0, 9975.0, 9978.0, 9997.0, 10014.0, 9991.0, 9985.0, 9980.0, 9967.0, 9962.0, 9967.0, 9985.0, 9988.0, 9974.0, 9984.0, 9999.0, 10000.0, 9987.0, 9967.0, 9965.0, 9988.0, 9999.0, 9992.0, 9967.0, 9949.0, 9939.0, 9949.0, 9959.0, 9969.0, 9966.0, 9971.0, 9961.0, 9966.0, 9984.0, 9973.0, 9971.0, 9962.0, 9950.0, 9963.0, 9987.0, 9990.0, 9986.0, 9966.0, 9971.0, 9980.0, 9990.0, 10007.0, 9992.0, 9973.0, 9954.0, 9951.0, 9976.0, 9996.0, 9985.0, 9982.0, 9973.0, 9947.0, 9929.0, 9917.0, 9946.0, 9958.0, 9962.0, 9954.0, 9963.0, 9982.0, 9982.0, 9994.0, 9989.0, 9991.0, 9967.0, 9974.0, 9965.0, 9957.0, 9972.0, 9963.0, 9953.0, 9938.0, 9958.0, 9964.0, 9956.0, 9945.0, 9949.0, 9952.0, 9958.0, 9953.0, 9946.0, 9976.0, 9990.0, 9982.0, 9985.0, 9973.0, 9954.0, 9944.0, 9946.0, 9946.0, 9955.0, 9961.0, 9945.0, 9952.0, 9935.0, 9925.0, 9941.0, 9957.0, 9954.0, 9956.0, 9946.0, 9927.0, 9934.0, 9944.0, 9952.0, 9959.0, 9939.0, 9929.0, 9941.0],
      "WindowWidth": [21551.0, 21423.0, 21327.0, 21311.0, 21286.0, 21251.0, 21266.0, 21249.0, 21215.0, 21102.0, 21176.0, 21206.0, 21169.0, 21142.0, 21158.0, 21176.0, 21159.0, 21161.0, 21138.0, 21115.0, 21100.0, 21144.0, 21176.0, 21179.0, 21202.0, 21235.0, 21218.0, 21166.0, 21145.0, 21138.0, 21132.0, 21191.0, 21217.0, 21223.0, 21227.0, 21214.0, 21175.0, 21178.0, 21173.0, 21153.0, 21133.0, 21181.0, 21224.0, 21227.0, 21216.0, 21191.0, 21170.0, 21177.0, 21179.0, 21188.0, 21223.0, 21273.0, 21285.0, 21224.0, 21174.0, 21165.0, 21184.0, 21238.0, 21258.0, 21219.0, 21177.0, 21156.0, 21136.0, 21192.0, 21195.0, 21172.0, 21212.0, 21219.0, 21202.0, 21178.0, 21192.0, 21178.0, 21215.0, 21236.0, 21179.0, 21156.0, 21177.0, 21182.0, 21191.0, 21239.0, 21272.0, 21223.0, 21209.0, 21195.0, 21168.0, 21156.0, 21162.0, 21207.0, 21215.0, 21187.0, 21212.0, 21244.0, 21245.0, 21219.0, 21171.0, 21166.0, 21216.0, 21242.0, 21223.0, 21167.0, 21127.0, 21103.0, 21120.0, 21146.0, 21171.0, 21169.0, 21176.0, 21150.0, 21162.0, 21203.0, 21181.0, 21174.0, 21154.0, 21122.0, 21157.0, 21211.0, 21219.0, 21207.0, 21168.0, 21177.0, 21199.0, 21220.0, 21258.0, 21227.0, 21178.0, 21135.0, 21128.0, 21185.0, 21232.0, 21211.0, 21199.0, 21181.0, 21122.0, 21079.0, 21051.0, 21115.0, 21143.0, 21154.0, 21137.0, 21158.0, 21197.0, 21204.0, 21227.0, 21218.0, 21222.0, 21172.0, 21182.0, 21161.0, 21145.0, 21177.0, 21158.0, 21131.0, 21100.0, 21142.0, 21160.0, 21143.0, 21115.0, 21120.0, 21130.0, 21141.0, 21135.0, 21122.0, 21184.0, 21219.0, 21199.0, 21201.0, 21176.0, 21133.0, 21109.0, 21117.0, 21119.0, 21142.0, 21151.0, 21116.0, 21128.0, 21089.0, 21066.0, 21103.0, 21139.0, 21137.0, 21142.0, 21118.0, 21074.0, 21089.0, 21114.0, 21130.0, 21141.0, 21098.0, 21074.0, 21100.0]
    },
    "slices": {}
  }
}