{
  "AcquisitionMatrixPE": 104,
  "AcquisitionNumber": 1,
  "AcquisitionTime": "15:14:57.447500",
  "BandwidthPerPixelPhaseEncode": 17.17,
  "BaseResolution": 104,
  "BodyPartExamined": "BRAIN",
  "CoilString": "HC1-7;NC1_2",
  "ConsistencyInfo": "N4_VE11C_LATEST_20160120",
  "ConversionSoftware": "dcm2niix",
  "ConversionSoftwareVersion": "v1.0.20190902",
  "DerivedVendorReportedEchoSpacing": 0.000560011,
  "DeviceSerialNumber": "167006",
  "DwellTime": 2.1e-06,
  "EchoTime": 0.037,
  "EchoTrainLength": 104,
  "EffectiveEchoSpacing": 0.000560011,
  "FlipAngle": 52,
  "ImageComments": "Unaliased_MB4_PE3_LB",
  "ImageOrientationPatientDICOM": [0.996536, -0.0793613, 0.024845, 0.0831561, 0.953675, -0.289117],
  "ImageType": [
    "ORIGINAL",
    "PRIMARY",
    "M",
    "MB",
    "ND",
    "MOSAIC"
],
  "ImagingFrequency": 123.259,
  "InPlanePhaseEncodingDirectionDICOM": "COL",
  "InstitutionAddress": "Chemin_Queen-Mary_4565_Montreal_District_CA_H3W_1W5",
  "InstitutionName": "IUGM",
  "InstitutionalDepartmentName": "Department",
  "MRAcquisitionType": "2D",
  "MagneticFieldStrength": 3,
  "Manufacturer": "Siemens",
  "ManufacturersModelName": "Prisma_fit",
  "Modality": "MR",
  "MultibandAccelerationFactor": 4,
  "PartialFourier": 1,
  "PatientPosition": "HFS",
  "PercentPhaseFOV": 100,
  "PhaseEncodingDirection": "j",
  "PhaseEncodingSteps": 104,
  "PhaseResolution": 1,
  "PixelBandwidth": 2290,
  "ProcedureStepDescription": "memory_things",
  "ProtocolName": "func_task-things_run-1",
  "PulseSequenceDetails": "%CustomerSeq%_cmrr_mbep2d_bold",
  "ReceiveCoilActiveElements": "HC1-7;NC1,2",
  "ReceiveCoilName": "HeadNeck_64",
  "ReconMatrixPE": 104,
  "RepetitionTime": 1.49,
  "SAR": 0.0288808,
  "ScanOptions": "FS",
  "ScanningSequence": "EP",
  "SequenceName": "epfid2d1_104",
  "SequenceVariant": "SK_SS",
  "SeriesDescription": "func_task-things_run-1",
  "SeriesNumber": 10,
  "ShimSetting": [628, -7246, -8841, 571, 5, -185, -24, -13],
  "SliceThickness": 2,
  "SliceTiming": [0, 0.7825, 0.0975, 0.8825, 0.195, 0.98, 0.2925, 1.0775, 0.3925, 1.175, 0.49, 1.2725, 0.5875, 1.3725, 0.685, 0, 0.7825, 0.0975, 0.8825, 0.195, 0.98, 0.2925, 1.0775, 0.3925, 1.175, 0.49, 1.2725, 0.5875, 1.3725, 0.685, 0, 0.7825, 0.0975, 0.8825, 0.195, 0.98, 0.2925, 1.0775, 0.3925, 1.175, 0.49, 1.2725, 0.5875, 1.3725, 0.685, 0, 0.7825, 0.0975, 0.8825, 0.195, 0.98, 0.2925, 1.0775, 0.3925, 1.175, 0.49, 1.2725, 0.5875, 1.3725, 0.685],
  "SoftwareVersions": "syngo_MR_E11",
  "SpacingBetweenSlices": 2,
  "StationName": "MRC35049",
  "TaskName": "things",
  "TotalReadoutTime": 0.0576811,
  "TxRefAmp": 219.708,
  "WipMemBlock": "d93be887-696e-45ce-9ce0-6f4565688844||Sequence: R016 ve11c/master r/e634e98; Dec 19 2017 11:00:25 by eja",
  "dcmmeta_affine": [
    [-1.993072509765625, 0.16631215810775757, 0.001498678233474493, 99.3395767211914],
    [0.1587226837873459, 1.9073506593704224, -0.5803625583648682, -76.54573822021484],
    [0.04968992620706558, 0.5782333612442017, 1.9139429330825806, -69.35267639160156],
    [0.0, 0.0, 0.0, 1.0]
],
  "dcmmeta_reorient_transform": [
    [0.0, -1.0, 0.0, 103.0],
    [1.0, 0.0, 0.0, 0.0],
    [0.0, 0.0, 1.0, 0.0],
    [0.0, 0.0, 0.0, 1.0]
],
  "dcmmeta_shape": [104, 104, 60, 190],
  "dcmmeta_slice_dim": 2,
  "dcmmeta_version": 0.6,
  "global": {
    "const": {
      "AcquisitionMatrix": [104, 0, 0, 104],
      "AngioFlag": "N",
      "BitsAllocated": 16,
      "BitsStored": 16,
      "BodyPartExamined": "BRAIN",
      "Columns": 832,
      "EchoNumbers": 1,
      "EchoTime": 37.0,
      "EchoTrainLength": 104,
      "FlipAngle": 52.0,
      "HighBit": 15,
      "ImageOrientationPatient": [0.99653625361596, -0.0793613448636, 0.02484496267862, 0.08315608047511, 0.95367531759605, -0.2891166804044],
      "ImagePositionPatient": [-902.48574603527, -756.41194854949, 182.5951690014],
      "ImageType": [
        "ORIGINAL",
        "PRIMARY",
        "M",
        "MB",
        "ND",
        "MOSAIC"
],
      "ImagedNucleus": "1H",
      "ImagingFrequency": 123.258903,
      "InPlanePhaseEncodingDirection": "COL",
      "MRAcquisitionType": "2D",
      "MagneticFieldStrength": 3.0,
      "Manufacturer": "SIEMENS",
      "ManufacturerModelName": "Prisma_fit",
      "Modality": "MR",
      "NumberOfAverages": 1.0,
      "NumberOfPhaseEncodingSteps": 104,
      "PercentPhaseFieldOfView": 100.0,
      "PercentSampling": 100.0,
      "PerformedProcedureStepStartTime": "144933.854000",
      "PhotometricInterpretation": "MONOCHROME2",
      "PixelBandwidth": 2290.0,
      "PixelRepresentation": 0,
      "PixelSpacing": [2.0, 2.0],
      "ProtocolName": "func_task-things_run-1",
      "RepetitionTime": 1490.0,
      "Rows": 832,
      "SAR": 0.02888079789514,
      "SamplesPerPixel": 1,
      "ScanOptions": "FS",
      "ScanningSequence": "EP",
      "SequenceName": "epfid2d1_104",
      "SequenceVariant": [
        "SK",
        "SS"
],
      "SeriesDescription": "func_task-things_run-1",
      "SeriesNumber": 10,
      "SeriesTime": "151619.892000",
      "SliceLocation": -44.08195121972,
      "SliceThickness": 2.0,
      "SmallestImagePixelValue": 0,
      "SoftwareVersions": "syngo MR E11",
      "SpacingBetweenSlices": 2.0000000643711,
      "SpecificCharacterSet": "ISO_IR 100",
      "StudyID": "1",
      "StudyTime": "144933.768000",
      "TransmitCoilName": "Body",
      "VariableFlipAngleFlag": "N",
      "WindowCenterWidthExplanation": "Algo1",
      "dBdt": 0.0},
    "slices": {}
  },
  "time": {
    "samples": {
      "AcquisitionNumber": [1, 2, 3, 4, 5, 6, 7, 8, 9, 10, 11, 12, 13, 14, 15, 16, 17, 18, 19, 20, 21, 22, 23, 24, 25, 26, 27, 28, 29, 30, 31, 32, 33, 34, 35, 36, 37, 38, 39, 40, 41, 42, 43, 44, 45, 46, 47, 48, 49, 50, 51, 52, 53, 54, 55, 56, 57, 58, 59, 60, 61, 62, 63, 64, 65, 66, 67, 68, 69, 70, 71, 72, 73, 74, 75, 76, 77, 78, 79, 80, 81, 82, 83, 84, 85, 86, 87, 88, 89, 90, 91, 92, 93, 94, 95, 96, 97, 98, 99, 100, 101, 102, 103, 104, 105, 106, 107, 108, 109, 110, 111, 112, 113, 114, 115, 116, 117, 118, 119, 120, 121, 122, 123, 124, 125, 126, 127, 128, 129, 130, 131, 132, 133, 134, 135, 136, 137, 138, 139, 140, 141, 142, 143, 144, 145, 146, 147, 148, 149, 150, 151, 152, 153, 154, 155, 156, 157, 158, 159, 160, 161, 162, 163, 164, 165, 166, 167, 168, 169, 170, 171, 172, 173, 174, 175, 176, 177, 178, 179, 180, 181, 182, 183, 184, 185, 186, 187, 188, 189, 190],
      "AcquisitionTime": ["151457.447500", "151458.937500", "151500.427500", "151501.917500", "151503.407500", "151504.897500", "151506.387500", "151507.877500", "151509.367500", "151510.857500", "151512.347500", "151513.837500", "151515.327500", "151516.817500", "151518.307500", "151519.797500", "151521.287500", "151522.777500", "151524.267500", "151525.757500", "151527.247500", "151528.737500", "151530.227500", "151531.717500", "151533.207500", "151534.697500", "151536.187500", "151537.677500", "151539.167500", "151540.657500", "151542.147500", "151543.637500", "151545.127500", "151546.617500", "151548.107500", "151549.597500", "151551.087500", "151552.577500", "151554.067500", "151555.557500", "151557.047500", "151558.537500", "151600.027500", "151601.517500", "151603.007500", "151604.497500", "151605.987500", "151607.477500", "151608.967500", "151610.457500", "151611.947500", "151613.437500", "151614.927500", "151616.417500", "151617.907500", "151619.397500", "151620.887500", "151622.377500", "151623.867500", "151625.357500", "151626.847500", "151628.337500", "151629.827500", "151631.317500", "151632.807500", "151634.297500", "151635.787500", "151637.277500", "151638.767500", "151640.257500", "151641.747500", "151643.237500", "151644.727500", "151646.217500", "151647.707500", "151649.197500", "151650.687500", "151652.177500", "151653.667500", "151655.157500", "151656.647500", "151658.137500", "151659.627500", "151701.117500", "151702.607500", "151704.097500", "151705.587500", "151707.077500", "151708.567500", "151710.057500", "151711.547500", "151713.037500", "151714.527500", "151716.017500", "151717.507500", "151718.997500", "151720.487500", "151721.977500", "151723.467500", "151724.957500", "151726.447500", "151727.937500", "151729.427500", "151730.917500", "151732.407500", "151733.897500", "151735.387500", "151736.877500", "151738.367500", "151739.857500", "151741.347500", "151742.837500", "151744.327500", "151745.817500", "151747.307500", "151748.797500", "151750.287500", "151751.777500", "151753.267500", "151754.757500", "151756.247500", "151757.737500", "151759.227500", "151800.717500", "151802.207500", "151803.697500", "151805.187500", "151806.677500", "151808.167500", "151809.657500", "151811.147500", "151812.637500", "151814.127500", "151815.617500", "151817.107500", "151818.597500", "151820.087500", "151821.577500", "151823.067500", "151824.557500", "151826.047500", "151827.537500", "151829.027500", "151830.517500", "151832.007500", "151833.497500", "151834.987500", "151836.477500", "151837.967500", "151839.457500", "151840.947500", "151842.437500", "151843.927500", "151845.417500", "151846.907500", "151848.397500", "151849.887500", "151851.377500", "151852.867500", "151854.357500", "151855.847500", "151857.337500", "151858.827500", "151900.317500", "151901.807500", "151903.297500", "151904.787500", "151906.277500", "151907.767500", "151909.257500", "151910.747500", "151912.237500", "151913.727500", "151915.217500", "151916.707500", "151918.197500", "151919.687500", "151921.177500", "151922.667500", "151924.157500", "151925.647500", "151927.137500", "151928.627500", "151930.117500", "151931.607500", "151933.097500", "151934.587500", "151936.077500", "151937.567500", "151939.057500"],
      "ContentTime": ["151619.895000", "151619.899000", "151619.902000", "151619.906000", "151619.909000", "151619.912000", "151619.916000", "151619.919000", "151619.922000", "151619.925000", "151619.929000", "151619.932000", "151619.935000", "151619.939000", "151619.942000", "151619.945000", "151619.948000", "151619.952000", "151619.955000", "151619.958000", "151619.961000", "151619.965000", "151619.968000", "151619.971000", "151619.976000", "151619.980000", "151619.985000", "151619.988000", "151639.842000", "151639.846000", "151639.849000", "151639.852000", "151639.862000", "151639.865000", "151639.869000", "151639.872000", "151639.875000", "151639.878000", "151639.882000", "151639.885000", "151639.888000", "151639.891000", "151639.895000", "151639.898000", "151639.901000", "151639.904000", "151639.908000", "151639.911000", "151639.914000", "151659.842000", "151659.846000", "151659.849000", "151659.852000", "151659.855000", "151659.859000", "151659.869000", "151659.872000", "151659.875000", "151659.879000", "151659.882000", "151659.885000", "151659.888000", "151659.891000", "151659.895000", "151659.898000", "151659.901000", "151659.904000", "151659.908000", "151659.911000", "151719.843000", "151719.847000", "151719.850000", "151719.854000", "151719.857000", "151719.860000", "151719.863000", "151719.867000", "151719.870000", "151719.873000", "151719.876000", "151719.880000", "151719.883000", "151719.886000", "151719.890000", "151719.893000", "151719.896000", "151719.900000", "151719.903000", "151719.907000", "151759.842000", "151759.846000", "151759.849000", "151759.852000", "151759.856000", "151759.859000", "151759.862000", "151759.865000", "151759.869000", "151759.872000", "151759.875000", "151759.887000", "151759.891000", "151759.894000", "151759.897000", "151759.900000", "151759.904000", "151759.907000", "151759.910000", "151759.913000", "151759.917000", "151759.920000", "151759.923000", "151759.926000", "151759.930000", "151759.933000", "151759.936000", "151759.940000", "151759.943000", "151759.946000", "151759.949000", "151759.953000", "151839.843000", "151839.847000", "151839.850000", "151839.853000", "151839.857000", "151839.860000", "151839.864000", "151839.867000", "151839.870000", "151839.874000", "151839.877000", "151839.880000", "151839.883000", "151839.887000", "151839.890000", "151839.893000", "151839.897000", "151839.900000", "151839.903000", "151839.906000", "151839.910000", "151839.913000", "151839.916000", "151839.920000", "151839.923000", "151839.926000", "151839.929000", "151919.842000", "151919.846000", "151919.849000", "151919.852000", "151919.855000", "151919.859000", "151919.862000", "151919.865000", "151919.869000", "151919.872000", "151919.875000", "151919.878000", "151919.882000", "151919.885000", "151919.897000", "151919.901000", "151919.904000", "151919.907000", "151919.910000", "151919.914000", "151919.917000", "151919.920000", "151919.923000", "151919.927000", "151919.930000", "151919.933000", "151919.936000", "151941.584000", "151941.588000", "151941.591000", "151941.595000", "151941.598000", "151941.602000", "151941.605000", "151941.608000", "151941.612000", "151941.615000", "151941.618000", "151941.622000", "151941.625000", "151941.629000", "151941.632000"],
      "InstanceCreationTime": ["151619.895000", "151619.899000", "151619.902000", "151619.906000", "151619.909000", "151619.912000", "151619.916000", "151619.919000", "151619.922000", "151619.925000", "151619.929000", "151619.932000", "151619.935000", "151619.939000", "151619.942000", "151619.945000", "151619.948000", "151619.952000", "151619.955000", "151619.958000", "151619.961000", "151619.965000", "151619.968000", "151619.971000", "151619.976000", "151619.980000", "151619.985000", "151619.988000", "151639.842000", "151639.846000", "151639.849000", "151639.852000", "151639.862000", "151639.865000", "151639.869000", "151639.872000", "151639.875000", "151639.878000", "151639.882000", "151639.885000", "151639.888000", "151639.891000", "151639.895000", "151639.898000", "151639.901000", "151639.904000", "151639.908000", "151639.911000", "151639.914000", "151659.842000", "151659.846000", "151659.849000", "151659.852000", "151659.855000", "151659.859000", "151659.869000", "151659.872000", "151659.875000", "151659.879000", "151659.882000", "151659.885000", "151659.888000", "151659.891000", "151659.895000", "151659.898000", "151659.901000", "151659.904000", "151659.908000", "151659.911000", "151719.843000", "151719.847000", "151719.850000", "151719.854000", "151719.857000", "151719.860000", "151719.863000", "151719.867000", "151719.870000", "151719.873000", "151719.876000", "151719.880000", "151719.883000", "151719.886000", "151719.890000", "151719.893000", "151719.896000", "151719.900000", "151719.903000", "151719.907000", "151759.842000", "151759.846000", "151759.849000", "151759.852000", "151759.856000", "151759.859000", "151759.862000", "151759.865000", "151759.869000", "151759.872000", "151759.875000", "151759.887000", "151759.891000", "151759.894000", "151759.897000", "151759.900000", "151759.904000", "151759.907000", "151759.910000", "151759.913000", "151759.917000", "151759.920000", "151759.923000", "151759.926000", "151759.930000", "151759.933000", "151759.936000", "151759.940000", "151759.943000", "151759.946000", "151759.949000", "151759.953000", "151839.843000", "151839.847000", "151839.850000", "151839.853000", "151839.857000", "151839.860000", "151839.864000", "151839.867000", "151839.870000", "151839.874000", "151839.877000", "151839.880000", "151839.883000", "151839.887000", "151839.890000", "151839.893000", "151839.897000", "151839.900000", "151839.903000", "151839.906000", "151839.910000", "151839.913000", "151839.916000", "151839.920000", "151839.923000", "151839.926000", "151839.929000", "151919.842000", "151919.846000", "151919.849000", "151919.852000", "151919.855000", "151919.859000", "151919.862000", "151919.865000", "151919.869000", "151919.872000", "151919.875000", "151919.878000", "151919.882000", "151919.885000", "151919.897000", "151919.901000", "151919.904000", "151919.907000", "151919.910000", "151919.914000", "151919.917000", "151919.920000", "151919.923000", "151919.927000", "151919.930000", "151919.933000", "151919.936000", "151941.584000", "151941.588000", "151941.591000", "151941.595000", "151941.598000", "151941.602000", "151941.605000", "151941.608000", "151941.612000", "151941.615000", "151941.618000", "151941.622000", "151941.625000", "151941.629000", "151941.632000"],
      "InstanceNumber": [1, 2, 3, 4, 5, 6, 7, 8, 9, 10, 11, 12, 13, 14, 15, 16, 17, 18, 19, 20, 21, 22, 23, 24, 25, 26, 27, 28, 29, 30, 31, 32, 33, 34, 35, 36, 37, 38, 39, 40, 41, 42, 43, 44, 45, 46, 47, 48, 49, 50, 51, 52, 53, 54, 55, 56, 57, 58, 59, 60, 61, 62, 63, 64, 65, 66, 67, 68, 69, 70, 71, 72, 73, 74, 75, 76, 77, 78, 79, 80, 81, 82, 83, 84, 85, 86, 87, 88, 89, 90, 91, 92, 93, 94, 95, 96, 97, 98, 99, 100, 101, 102, 103, 104, 105, 106, 107, 108, 109, 110, 111, 112, 113, 114, 115, 116, 117, 118, 119, 120, 121, 122, 123, 124, 125, 126, 127, 128, 129, 130, 131, 132, 133, 134, 135, 136, 137, 138, 139, 140, 141, 142, 143, 144, 145, 146, 147, 148, 149, 150, 151, 152, 153, 154, 155, 156, 157, 158, 159, 160, 161, 162, 163, 164, 165, 166, 167, 168, 169, 170, 171, 172, 173, 174, 175, 176, 177, 178, 179, 180, 181, 182, 183, 184, 185, 186, 187, 188, 189, 190],
      "LargestImagePixelValue": [42716, 41265, 40549, 39892, 39817, 40307, 40292, 40318, 40012, 39955, 39582, 39238, 39979, 39722, 39411, 39438, 39648, 39861, 39514, 39253, 40004, 39870, 39885, 40292, 39540, 40008, 39826, 40183, 39806, 39491, 40097, 39543, 39729, 39905, 39966, 39345, 39074, 40044, 39047, 39482, 40050, 39602, 39509, 39614, 40131, 39936, 39174, 39235, 39663, 39208, 39666, 39385, 40465, 39675, 39302, 38706, 39583, 39985, 39440, 39946, 39567, 39304, 39948, 39534, 39479, 39739, 39580, 39323, 39879, 39580, 39891, 39830, 40213, 40440, 39610, 39657, 39882, 39479, 39225, 39402, 40208, 39598, 39793, 40009, 39215, 39469, 40027, 39960, 39125, 39516, 39137, 39990, 40197, 40099, 40154, 40414, 39417, 39110, 38944, 39627, 39235, 39281, 39632, 39900, 39406, 40655, 41373, 40214, 39886, 39928, 40422, 39014, 39557, 39412, 39260, 39424, 40523, 39293, 39776, 40449, 39313, 39881, 40133, 38903, 39246, 39652, 39863, 40857, 40221, 40305, 40171, 40393, 40453, 39401, 39007, 39367, 39867, 39879, 40342, 40212, 40723, 40569, 40393, 40092, 39790, 39677, 39307, 39902, 39968, 40951, 40326, 40241, 40126, 39099, 39583, 40408, 40419, 40328, 40155, 39774, 39834, 41156, 39404, 40451, 40778, 40184, 40050, 40450, 41002, 40660, 40185, 40030, 41026, 41116, 39245, 39597, 40513, 40230, 41126, 40170, 40701, 40384, 40426, 39941, 39301, 40266, 40242, 40623, 40281, 40788],
      "WindowCenter": [10360.0, 10287.0, 10249.0, 10229.0, 10227.0, 10260.0, 10278.0, 10278.0, 10264.0, 10263.0, 10276.0, 10303.0, 10314.0, 10300.0, 10284.0, 10277.0, 10268.0, 10285.0, 10297.0, 10294.0, 10281.0, 10249.0, 10259.0, 10280.0, 10288.0, 10287.0, 10265.0, 10269.0, 10264.0, 10277.0, 10286.0, 10274.0, 10258.0, 10247.0, 10268.0, 10291.0, 10294.0, 10289.0, 10267.0, 10271.0, 10279.0, 10278.0, 10273.0, 10264.0, 10254.0, 10252.0, 10243.0, 10248.0, 10252.0, 10257.0, 10258.0, 10250.0, 10266.0, 10277.0, 10269.0, 10252.0, 10258.0, 10267.0, 10272.0, 10278.0, 10263.0, 10251.0, 10253.0, 10262.0, 10291.0, 10294.0, 10264.0, 10239.0, 10234.0, 10236.0, 10258.0, 10258.0, 10255.0, 10260.0, 10283.0, 10279.0, 10262.0, 10241.0, 10245.0, 10270.0, 10300.0, 10289.0, 10265.0, 10260.0, 10256.0, 10263.0, 10282.0, 10313.0, 10291.0, 10263.0, 10226.0, 10217.0, 10222.0, 10213.0, 10212.0, 10218.0, 10210.0, 10219.0, 10233.0, 10267.0, 10286.0, 10276.0, 10264.0, 10262.0, 10264.0, 10308.0, 10315.0, 10288.0, 10260.0, 10248.0, 10252.0, 10249.0, 10264.0, 10264.0, 10256.0, 10249.0, 10265.0, 10256.0, 10263.0, 10275.0, 10259.0, 10262.0, 10283.0, 10288.0, 10274.0, 10256.0, 10237.0, 10238.0, 10250.0, 10259.0, 10241.0, 10230.0, 10243.0, 10262.0, 10268.0, 10253.0, 10238.0, 10243.0, 10266.0, 10286.0, 10279.0, 10262.0, 10246.0, 10233.0, 10223.0, 10229.0, 10246.0, 10257.0, 10250.0, 10257.0, 10252.0, 10270.0, 10277.0, 10266.0, 10249.0, 10253.0, 10254.0, 10261.0, 10255.0, 10247.0, 10249.0, 10264.0, 10243.0, 10255.0, 10266.0, 10260.0, 10255.0, 10246.0, 10245.0, 10273.0, 10286.0, 10273.0, 10259.0, 10278.0, 10286.0, 10272.0, 10260.0, 10237.0, 10239.0, 10235.0, 10229.0, 10221.0, 10226.0, 10250.0, 10258.0, 10248.0, 10225.0, 10226.0, 10234.0, 10250.0],
      "WindowWidth": [22420.0, 22212.0, 22103.0, 22042.0, 22031.0, 22096.0, 22139.0, 22136.0, 22103.0, 22100.0, 22128.0, 22191.0, 22220.0, 22189.0, 22151.0, 22135.0, 22113.0, 22149.0, 22181.0, 22178.0, 22141.0, 22068.0, 22090.0, 22136.0, 22161.0, 22157.0, 22108.0, 22111.0, 22105.0, 22131.0, 22152.0, 22127.0, 22089.0, 22064.0, 22113.0, 22166.0, 22178.0, 22163.0, 22114.0, 22119.0, 22140.0, 22134.0, 22123.0, 22101.0, 22079.0, 22076.0, 22059.0, 22071.0, 22078.0, 22090.0, 22093.0, 22077.0, 22108.0, 22136.0, 22121.0, 22083.0, 22087.0, 22110.0, 22124.0, 22135.0, 22102.0, 22075.0, 22075.0, 22100.0, 22168.0, 22177.0, 22108.0, 22049.0, 22033.0, 22037.0, 22086.0, 22091.0, 22082.0, 22094.0, 22146.0, 22143.0, 22102.0, 22056.0, 22062.0, 22117.0, 22181.0, 22157.0, 22105.0, 22088.0, 22085.0, 22102.0, 22145.0, 22215.0, 22176.0, 22108.0, 22023.0, 21991.0, 22001.0, 21985.0, 21983.0, 21993.0, 21985.0, 22009.0, 22043.0, 22114.0, 22161.0, 22139.0, 22109.0, 22099.0, 22105.0, 22199.0, 22213.0, 22157.0, 22097.0, 22069.0, 22074.0, 22075.0, 22106.0, 22104.0, 22086.0, 22073.0, 22100.0, 22085.0, 22100.0, 22123.0, 22095.0, 22100.0, 22146.0, 22162.0, 22132.0, 22086.0, 22041.0, 22038.0, 22067.0, 22087.0, 22048.0, 22022.0, 22055.0, 22103.0, 22121.0, 22086.0, 22046.0, 22054.0, 22105.0, 22151.0, 22133.0, 22092.0, 22059.0, 22033.0, 22010.0, 22024.0, 22064.0, 22090.0, 22075.0, 22082.0, 22073.0, 22116.0, 22131.0, 22117.0, 22075.0, 22077.0, 22077.0, 22093.0, 22084.0, 22066.0, 22071.0, 22098.0, 22060.0, 22083.0, 22105.0, 22093.0, 22081.0, 22060.0, 22060.0, 22119.0, 22151.0, 22124.0, 22093.0, 22134.0, 22158.0, 22127.0, 22093.0, 22042.0, 22040.0, 22032.0, 22024.0, 22004.0, 22017.0, 22070.0, 22095.0, 22073.0, 22018.0, 22014.0, 22033.0, 22068.0]
    },
    "slices": {}
  }
}