{
  "AcquisitionMatrixPE": 104,
  "AcquisitionNumber": 1,
  "AcquisitionTime": "15:21:15.162500",
  "BandwidthPerPixelPhaseEncode": 17.17,
  "BaseResolution": 104,
  "BodyPartExamined": "BRAIN",
  "CoilString": "HC1-7;NC1_2",
  "ConsistencyInfo": "N4_VE11C_LATEST_20160120",
  "ConversionSoftware": "dcm2niix",
  "ConversionSoftwareVersion": "v1.0.20190902",
  "DerivedVendorReportedEchoSpacing": 0.000560011,
  "DeviceSerialNumber": "167006",
  "DwellTime": 2.1e-06,
  "EchoTime": 0.037,
  "EchoTrainLength": 104,
  "EffectiveEchoSpacing": 0.000560011,
  "FlipAngle": 52,
  "ImageComments": "Unaliased_MB4_PE3_LB",
  "ImageOrientationPatientDICOM": [0.996536, -0.0793613, 0.024845, 0.0831561, 0.953675, -0.289117],
  "ImageType": [
    "ORIGINAL",
    "PRIMARY",
    "P",
    "MB",
    "ND",
    "MOSAIC"
],
  "ImagingFrequency": 123.259,
  "InPlanePhaseEncodingDirectionDICOM": "COL",
  "InstitutionAddress": "Chemin_Queen-Mary_4565_Montreal_District_CA_H3W_1W5",
  "InstitutionName": "IUGM",
  "InstitutionalDepartmentName": "Department",
  "MRAcquisitionType": "2D",
  "MagneticFieldStrength": 3,
  "Manufacturer": "Siemens",
  "ManufacturersModelName": "Prisma_fit",
  "Modality": "MR",
  "MultibandAccelerationFactor": 4,
  "PartialFourier": 1,
  "PatientPosition": "HFS",
  "PercentPhaseFOV": 100,
  "PhaseEncodingDirection": "j",
  "PhaseEncodingSteps": 104,
  "PhaseResolution": 1,
  "PixelBandwidth": 2290,
  "ProcedureStepDescription": "memory_things",
  "ProtocolName": "func_task-things_run-2",
  "PulseSequenceDetails": "%CustomerSeq%_cmrr_mbep2d_bold",
  "ReceiveCoilActiveElements": "HC1-7;NC1,2",
  "ReceiveCoilName": "HeadNeck_64",
  "ReconMatrixPE": 104,
  "RepetitionTime": 1.49,
  "SAR": 0.0288808,
  "ScanOptions": "FS",
  "ScanningSequence": "EP",
  "SequenceName": "epfid2d1_104",
  "SequenceVariant": "SK_SS",
  "SeriesDescription": "func_task-things_run-2",
  "SeriesNumber": 14,
  "ShimSetting": [628, -7246, -8841, 571, 5, -185, -24, -13],
  "SliceThickness": 2,
  "SliceTiming": [0, 0.7825, 0.0975, 0.88, 0.195, 0.98, 0.2925, 1.0775, 0.39, 1.175, 0.49, 1.2725, 0.5875, 1.37, 0.685, 0, 0.7825, 0.0975, 0.88, 0.195, 0.98, 0.2925, 1.0775, 0.39, 1.175, 0.49, 1.2725, 0.5875, 1.37, 0.685, 0, 0.7825, 0.0975, 0.88, 0.195, 0.98, 0.2925, 1.0775, 0.39, 1.175, 0.49, 1.2725, 0.5875, 1.37, 0.685, 0, 0.7825, 0.0975, 0.88, 0.195, 0.98, 0.2925, 1.0775, 0.39, 1.175, 0.49, 1.2725, 0.5875, 1.37, 0.685],
  "SoftwareVersions": "syngo_MR_E11",
  "SpacingBetweenSlices": 2,
  "StationName": "MRC35049",
  "TaskName": "things",
  "TotalReadoutTime": 0.0576811,
  "TxRefAmp": 219.708,
  "WipMemBlock": "cf71f966-f856-4200-8185-45c05323a8b1||Sequence: R016 ve11c/master r/e634e98; Dec 19 2017 11:00:25 by eja",
  "dcmmeta_affine": [
    [-1.993072509765625, 0.16631215810775757, 0.001498678233474493, 99.3395767211914],
    [0.1587226837873459, 1.9073506593704224, -0.5803625583648682, -76.54573822021484],
    [0.04968992620706558, 0.5782333612442017, 1.9139429330825806, -69.35267639160156],
    [0.0, 0.0, 0.0, 1.0]
],
  "dcmmeta_reorient_transform": [
    [0.0, -1.0, 0.0, 103.0],
    [1.0, 0.0, 0.0, 0.0],
    [0.0, 0.0, 1.0, 0.0],
    [0.0, 0.0, 0.0, 1.0]
],
  "dcmmeta_shape": [104, 104, 60, 190],
  "dcmmeta_slice_dim": 2,
  "dcmmeta_version": 0.6,
  "global": {
    "const": {
      "AcquisitionMatrix": [104, 0, 0, 104],
      "AngioFlag": "N",
      "BitsAllocated": 16,
      "BitsStored": 16,
      "BodyPartExamined": "BRAIN",
      "Columns": 832,
      "EchoNumbers": 1,
      "EchoTime": 37.0,
      "EchoTrainLength": 104,
      "FlipAngle": 52.0,
      "HighBit": 15,
      "ImageOrientationPatient": [0.99653625361596, -0.0793613448636, 0.02484496267862, 0.08315608047511, 0.95367531759605, -0.2891166804044],
      "ImagePositionPatient": [-902.48574603527, -756.41194854949, 182.5951690014],
      "ImageType": [
        "ORIGINAL",
        "PRIMARY",
        "P",
        "MB",
        "ND",
        "MOSAIC"
],
      "ImagedNucleus": "1H",
      "ImagingFrequency": 123.258906,
      "InPlanePhaseEncodingDirection": "COL",
      "LargestImagePixelValue": 4095,
      "MRAcquisitionType": "2D",
      "MagneticFieldStrength": 3.0,
      "Manufacturer": "SIEMENS",
      "ManufacturerModelName": "Prisma_fit",
      "Modality": "MR",
      "NumberOfAverages": 1.0,
      "NumberOfPhaseEncodingSteps": 104,
      "PercentPhaseFieldOfView": 100.0,
      "PercentSampling": 100.0,
      "PerformedProcedureStepStartTime": "144933.854000",
      "PhotometricInterpretation": "MONOCHROME2",
      "PixelBandwidth": 2290.0,
      "PixelRepresentation": 0,
      "PixelSpacing": [2.0, 2.0],
      "ProtocolName": "func_task-things_run-2",
      "RepetitionTime": 1490.0,
      "RescaleIntercept": -4096.0,
      "RescaleSlope": 2.0,
      "RescaleType": "US",
      "Rows": 832,
      "SAR": 0.02888079789514,
      "SamplesPerPixel": 1,
      "ScanOptions": "FS",
      "ScanningSequence": "EP",
      "SequenceName": "epfid2d1_104",
      "SequenceVariant": [
        "SK",
        "SS"
],
      "SeriesDescription": "func_task-things_run-2",
      "SeriesNumber": 14,
      "SeriesTime": "152235.434000",
      "SliceLocation": -44.08195121972,
      "SliceThickness": 2.0,
      "SmallestImagePixelValue": 0,
      "SoftwareVersions": "syngo MR E11",
      "SpacingBetweenSlices": 2.0000000643711,
      "SpecificCharacterSet": "ISO_IR 100",
      "StudyID": "1",
      "StudyTime": "144933.768000",
      "TransmitCoilName": "Body",
      "VariableFlipAngleFlag": "N",
      "WindowCenterWidthExplanation": "Algo1",
      "dBdt": 0.0},
    "slices": {}
  },
  "time": {
    "samples": {
      "AcquisitionNumber": [1, 2, 3, 4, 5, 6, 7, 8, 9, 10, 11, 12, 13, 14, 15, 16, 17, 18, 19, 20, 21, 22, 23, 24, 25, 26, 27, 28, 29, 30, 31, 32, 33, 34, 35, 36, 37, 38, 39, 40, 41, 42, 43, 44, 45, 46, 47, 48, 49, 50, 51, 52, 53, 54, 55, 56, 57, 58, 59, 60, 61, 62, 63, 64, 65, 66, 67, 68, 69, 70, 71, 72, 73, 74, 75, 76, 77, 78, 79, 80, 81, 82, 83, 84, 85, 86, 87, 88, 89, 90, 91, 92, 93, 94, 95, 96, 97, 98, 99, 100, 101, 102, 103, 104, 105, 106, 107, 108, 109, 110, 111, 112, 113, 114, 115, 116, 117, 118, 119, 120, 121, 122, 123, 124, 125, 126, 127, 128, 129, 130, 131, 132, 133, 134, 135, 136, 137, 138, 139, 140, 141, 142, 143, 144, 145, 146, 147, 148, 149, 150, 151, 152, 153, 154, 155, 156, 157, 158, 159, 160, 161, 162, 163, 164, 165, 166, 167, 168, 169, 170, 171, 172, 173, 174, 175, 176, 177, 178, 179, 180, 181, 182, 183, 184, 185, 186, 187, 188, 189, 190],
      "AcquisitionTime": ["152115.162500", "152116.652500", "152118.142500", "152119.632500", "152121.122500", "152122.612500", "152124.102500", "152125.592500", "152127.082500", "152128.572500", "152130.062500", "152131.552500", "152133.042500", "152134.532500", "152136.022500", "152137.512500", "152139.002500", "152140.492500", "152141.982500", "152143.472500", "152144.962500", "152146.452500", "152147.942500", "152149.432500", "152150.922500", "152152.412500", "152153.902500", "152155.392500", "152156.882500", "152158.372500", "152159.862500", "152201.352500", "152202.842500", "152204.332500", "152205.822500", "152207.312500", "152208.802500", "152210.292500", "152211.782500", "152213.272500", "152214.762500", "152216.252500", "152217.742500", "152219.232500", "152220.722500", "152222.212500", "152223.702500", "152225.192500", "152226.682500", "152228.172500", "152229.662500", "152231.152500", "152232.642500", "152234.132500", "152235.622500", "152237.112500", "152238.602500", "152240.092500", "152241.582500", "152243.072500", "152244.562500", "152246.052500", "152247.542500", "152249.032500", "152250.522500", "152252.012500", "152253.502500", "152254.992500", "152256.482500", "152257.972500", "152259.462500", "152300.952500", "152302.442500", "152303.932500", "152305.422500", "152306.912500", "152308.402500", "152309.892500", "152311.382500", "152312.872500", "152314.362500", "152315.852500", "152317.342500", "152318.832500", "152320.322500", "152321.812500", "152323.302500", "152324.792500", "152326.282500", "152327.772500", "152329.262500", "152330.752500", "152332.242500", "152333.732500", "152335.222500", "152336.712500", "152338.202500", "152339.692500", "152341.182500", "152342.672500", "152344.162500", "152345.652500", "152347.142500", "152348.632500", "152350.122500", "152351.612500", "152353.102500", "152354.592500", "152356.082500", "152357.572500", "152359.062500", "152400.552500", "152402.042500", "152403.532500", "152405.022500", "152406.512500", "152408.002500", "152409.492500", "152410.982500", "152412.472500", "152413.962500", "152415.452500", "152416.942500", "152418.432500", "152419.922500", "152421.412500", "152422.902500", "152424.392500", "152425.882500", "152427.372500", "152428.862500", "152430.352500", "152431.842500", "152433.332500", "152434.822500", "152436.312500", "152437.802500", "152439.292500", "152440.782500", "152442.272500", "152443.762500", "152445.252500", "152446.742500", "152448.232500", "152449.722500", "152451.212500", "152452.702500", "152454.192500", "152455.682500", "152457.172500", "152458.662500", "152500.152500", "152501.642500", "152503.132500", "152504.622500", "152506.112500", "152507.602500", "152509.092500", "152510.582500", "152512.072500", "152513.562500", "152515.052500", "152516.542500", "152518.032500", "152519.522500", "152521.012500", "152522.502500", "152523.992500", "152525.482500", "152526.972500", "152528.462500", "152529.952500", "152531.442500", "152532.932500", "152534.422500", "152535.912500", "152537.402500", "152538.892500", "152540.382500", "152541.872500", "152543.362500", "152544.852500", "152546.342500", "152547.832500", "152549.322500", "152550.812500", "152552.302500", "152553.792500", "152555.282500", "152556.772500"],
      "ContentTime": ["152235.436000", "152235.439000", "152235.442000", "152235.444000", "152235.447000", "152235.449000", "152235.452000", "152235.454000", "152235.457000", "152235.459000", "152235.462000", "152235.469000", "152235.471000", "152235.474000", "152235.476000", "152235.479000", "152235.481000", "152235.484000", "152235.486000", "152235.489000", "152235.491000", "152235.494000", "152235.496000", "152235.499000", "152255.872000", "152255.875000", "152255.878000", "152255.880000", "152255.883000", "152255.889000", "152255.891000", "152255.894000", "152255.896000", "152255.899000", "152255.901000", "152255.904000", "152255.906000", "152255.908000", "152255.911000", "152255.913000", "152255.916000", "152255.918000", "152255.921000", "152255.923000", "152315.337000", "152315.340000", "152315.343000", "152315.345000", "152315.348000", "152315.350000", "152315.353000", "152315.355000", "152315.358000", "152315.360000", "152315.363000", "152315.365000", "152315.368000", "152315.370000", "152315.372000", "152315.375000", "152315.377000", "152315.380000", "152315.382000", "152315.385000", "152335.353000", "152335.355000", "152335.362000", "152335.365000", "152335.367000", "152335.369000", "152335.372000", "152335.374000", "152335.377000", "152335.379000", "152335.382000", "152335.384000", "152335.386000", "152335.389000", "152335.391000", "152335.394000", "152335.396000", "152335.399000", "152335.401000", "152335.404000", "152335.406000", "152355.328000", "152355.331000", "152355.334000", "152355.336000", "152355.339000", "152355.341000", "152355.344000", "152355.346000", "152355.349000", "152355.351000", "152355.354000", "152355.356000", "152355.359000", "152355.361000", "152355.364000", "152355.366000", "152355.369000", "152355.371000", "152355.374000", "152355.376000", "152435.393000", "152435.396000", "152435.399000", "152435.401000", "152435.404000", "152435.406000", "152435.409000", "152435.411000", "152435.414000", "152435.416000", "152435.418000", "152435.421000", "152435.423000", "152435.426000", "152435.428000", "152435.431000", "152435.434000", "152435.436000", "152435.439000", "152435.441000", "152435.443000", "152435.446000", "152435.448000", "152435.451000", "152435.454000", "152435.456000", "152435.458000", "152435.461000", "152515.372000", "152515.375000", "152515.377000", "152515.380000", "152515.382000", "152515.385000", "152515.387000", "152515.390000", "152515.392000", "152515.395000", "152515.397000", "152515.400000", "152515.402000", "152515.405000", "152515.407000", "152515.410000", "152515.412000", "152515.414000", "152515.417000", "152515.419000", "152515.422000", "152515.424000", "152515.427000", "152515.429000", "152515.432000", "152515.435000", "152515.437000", "152555.369000", "152555.372000", "152555.374000", "152555.377000", "152555.379000", "152555.382000", "152555.384000", "152555.387000", "152555.389000", "152555.392000", "152555.395000", "152555.397000", "152555.400000", "152555.402000", "152555.404000", "152555.407000", "152555.410000", "152555.412000", "152555.414000", "152555.417000", "152555.419000", "152555.422000", "152555.424000", "152555.427000", "152555.429000", "152555.432000", "152555.434000", "152559.327000", "152559.331000", "152559.333000"],
      "InstanceCreationTime": ["152235.436000", "152235.439000", "152235.442000", "152235.444000", "152235.447000", "152235.449000", "152235.452000", "152235.454000", "152235.457000", "152235.459000", "152235.462000", "152235.469000", "152235.471000", "152235.474000", "152235.476000", "152235.479000", "152235.481000", "152235.484000", "152235.486000", "152235.489000", "152235.491000", "152235.494000", "152235.496000", "152235.499000", "152255.872000", "152255.875000", "152255.878000", "152255.880000", "152255.883000", "152255.889000", "152255.891000", "152255.894000", "152255.896000", "152255.899000", "152255.901000", "152255.904000", "152255.906000", "152255.908000", "152255.911000", "152255.913000", "152255.916000", "152255.918000", "152255.921000", "152255.923000", "152315.337000", "152315.340000", "152315.343000", "152315.345000", "152315.348000", "152315.350000", "152315.353000", "152315.355000", "152315.358000", "152315.360000", "152315.363000", "152315.365000", "152315.368000", "152315.370000", "152315.372000", "152315.375000", "152315.377000", "152315.380000", "152315.382000", "152315.385000", "152335.353000", "152335.355000", "152335.362000", "152335.365000", "152335.367000", "152335.369000", "152335.372000", "152335.374000", "152335.377000", "152335.379000", "152335.382000", "152335.384000", "152335.386000", "152335.389000", "152335.391000", "152335.394000", "152335.396000", "152335.399000", "152335.401000", "152335.404000", "152335.406000", "152355.328000", "152355.331000", "152355.334000", "152355.336000", "152355.339000", "152355.341000", "152355.344000", "152355.346000", "152355.349000", "152355.351000", "152355.354000", "152355.356000", "152355.359000", "152355.361000", "152355.364000", "152355.366000", "152355.369000", "152355.371000", "152355.374000", "152355.376000", "152435.393000", "152435.396000", "152435.399000", "152435.401000", "152435.404000", "152435.406000", "152435.409000", "152435.411000", "152435.414000", "152435.416000", "152435.418000", "152435.421000", "152435.423000", "152435.426000", "152435.428000", "152435.431000", "152435.434000", "152435.436000", "152435.439000", "152435.441000", "152435.443000", "152435.446000", "152435.448000", "152435.451000", "152435.454000", "152435.456000", "152435.458000", "152435.461000", "152515.372000", "152515.375000", "152515.377000", "152515.380000", "152515.382000", "152515.385000", "152515.387000", "152515.390000", "152515.392000", "152515.395000", "152515.397000", "152515.400000", "152515.402000", "152515.405000", "152515.407000", "152515.410000", "152515.412000", "152515.414000", "152515.417000", "152515.419000", "152515.422000", "152515.424000", "152515.427000", "152515.429000", "152515.432000", "152515.435000", "152515.437000", "152555.369000", "152555.372000", "152555.374000", "152555.377000", "152555.379000", "152555.382000", "152555.384000", "152555.387000", "152555.389000", "152555.392000", "152555.395000", "152555.397000", "152555.400000", "152555.402000", "152555.404000", "152555.407000", "152555.410000", "152555.412000", "152555.414000", "152555.417000", "152555.419000", "152555.422000", "152555.424000", "152555.427000", "152555.429000", "152555.432000", "152555.434000", "152559.327000", "152559.331000", "152559.333000"],
      "InstanceNumber": [1, 2, 3, 4, 5, 6, 7, 8, 9, 10, 11, 12, 13, 14, 15, 16, 17, 18, 19, 20, 21, 22, 23, 24, 25, 26, 27, 28, 29, 30, 31, 32, 33, 34, 35, 36, 37, 38, 39, 40, 41, 42, 43, 44, 45, 46, 47, 48, 49, 50, 51, 52, 53, 54, 55, 56, 57, 58, 59, 60, 61, 62, 63, 64, 65, 66, 67, 68, 69, 70, 71, 72, 73, 74, 75, 76, 77, 78, 79, 80, 81, 82, 83, 84, 85, 86, 87, 88, 89, 90, 91, 92, 93, 94, 95, 96, 97, 98, 99, 100, 101, 102, 103, 104, 105, 106, 107, 108, 109, 110, 111, 112, 113, 114, 115, 116, 117, 118, 119, 120, 121, 122, 123, 124, 125, 126, 127, 128, 129, 130, 131, 132, 133, 134, 135, 136, 137, 138, 139, 140, 141, 142, 143, 144, 145, 146, 147, 148, 149, 150, 151, 152, 153, 154, 155, 156, 157, 158, 159, 160, 161, 162, 163, 164, 165, 166, 167, 168, 169, 170, 171, 172, 173, 174, 175, 176, 177, 178, 179, 180, 181, 182, 183, 184, 185, 186, 187, 188, 189, 190],
      "WindowCenter": [4832.0, 4828.0, 4828.0, 4826.0, 4832.0, 4856.0, 4908.0, 4908.0, 4890.0, 4832.0, 4796.0, 4798.0, 4798.0, 4830.0, 4832.0, 4880.0, 4902.0, 4902.0, 4904.0, 4888.0, 4862.0, 4802.0, 4790.0, 4790.0, 4826.0, 4832.0, 4888.0, 4910.0, 4908.0, 4886.0, 4858.0, 4832.0, 4828.0, 4822.0, 4828.0, 4826.0, 4832.0, 4854.0, 4854.0, 4878.0, 4906.0, 4900.0, 4916.0, 4860.0, 4804.0, 4796.0, 4796.0, 4828.0, 4860.0, 4890.0, 4908.0, 4910.0, 4884.0, 4832.0, 4830.0, 4826.0, 4826.0, 4830.0, 4830.0, 4834.0, 4834.0, 4882.0, 4904.0, 4908.0, 4884.0, 4826.0, 4792.0, 4798.0, 4832.0, 4834.0, 4834.0, 4832.0, 4882.0, 4862.0, 4858.0, 4858.0, 4858.0, 4828.0, 4862.0, 4860.0, 4834.0, 4830.0, 4836.0, 4832.0, 4832.0, 4860.0, 4856.0, 4834.0, 4856.0, 4858.0, 4830.0, 4830.0, 4834.0, 4830.0, 4858.0, 4908.0, 4864.0, 4834.0, 4830.0, 4828.0, 4836.0, 4856.0, 4834.0, 4858.0, 4830.0, 4860.0, 4886.0, 4858.0, 4832.0, 4858.0, 4832.0, 4832.0, 4834.0, 4832.0, 4828.0, 4858.0, 4858.0, 4828.0, 4858.0, 4858.0, 4828.0, 4834.0, 4834.0, 4830.0, 4834.0, 4830.0, 4830.0, 4858.0, 4834.0, 4858.0, 4834.0, 4828.0, 4858.0, 4832.0, 4830.0, 4832.0, 4832.0, 4828.0, 4832.0, 4832.0, 4858.0, 4854.0, 4830.0, 4834.0, 4830.0, 4832.0, 4830.0, 4828.0, 4860.0, 4858.0, 4832.0, 4858.0, 4834.0, 4830.0, 4832.0, 4828.0, 4834.0, 4830.0, 4856.0, 4832.0, 4834.0, 4858.0, 4828.0, 4832.0, 4830.0, 4834.0, 4884.0, 4832.0, 4828.0, 4862.0, 4832.0, 4828.0, 4834.0, 4830.0, 4856.0, 4862.0, 4830.0, 4858.0, 4854.0, 4832.0, 4856.0, 4864.0, 4828.0, 4830.0, 4830.0, 4830.0, 4884.0, 4906.0, 4858.0, 4832.0],
      "WindowWidth": [18574.0, 18574.0, 18578.0, 18576.0, 18574.0, 18608.0, 18696.0, 18716.0, 18662.0, 18584.0, 18548.0, 18558.0, 18548.0, 18588.0, 18580.0, 18650.0, 18710.0, 18720.0, 18714.0, 18660.0, 18614.0, 18542.0, 18542.0, 18546.0, 18574.0, 18580.0, 18660.0, 18708.0, 18704.0, 18652.0, 18610.0, 18578.0, 18582.0, 18582.0, 18580.0, 18580.0, 18578.0, 18606.0, 18612.0, 18654.0, 18714.0, 18712.0, 18708.0, 18612.0, 18542.0, 18540.0, 18538.0, 18578.0, 18618.0, 18668.0, 18706.0, 18698.0, 18646.0, 18582.0, 18576.0, 18578.0, 18582.0, 18578.0, 18580.0, 18576.0, 18580.0, 18662.0, 18712.0, 18716.0, 18650.0, 18580.0, 18550.0, 18544.0, 18578.0, 18582.0, 18578.0, 18576.0, 18652.0, 18620.0, 18610.0, 18610.0, 18606.0, 18574.0, 18616.0, 18612.0, 18582.0, 18578.0, 18582.0, 18580.0, 18576.0, 18614.0, 18614.0, 18578.0, 18614.0, 18616.0, 18576.0, 18578.0, 18582.0, 18580.0, 18614.0, 18696.0, 18614.0, 18578.0, 18578.0, 18576.0, 18580.0, 18610.0, 18580.0, 18614.0, 18576.0, 18618.0, 18658.0, 18614.0, 18578.0, 18608.0, 18584.0, 18584.0, 18582.0, 18576.0, 18576.0, 18612.0, 18612.0, 18578.0, 18614.0, 18610.0, 18576.0, 18582.0, 18584.0, 18578.0, 18582.0, 18574.0, 18582.0, 18614.0, 18576.0, 18616.0, 18580.0, 18574.0, 18610.0, 18574.0, 18576.0, 18586.0, 18578.0, 18574.0, 18576.0, 18576.0, 18610.0, 18610.0, 18576.0, 18576.0, 18576.0, 18580.0, 18576.0, 18576.0, 18622.0, 18610.0, 18572.0, 18610.0, 18578.0, 18578.0, 18578.0, 18572.0, 18580.0, 18576.0, 18606.0, 18574.0, 18580.0, 18608.0, 18580.0, 18584.0, 18576.0, 18584.0, 18654.0, 18576.0, 18578.0, 18622.0, 18576.0, 18574.0, 18584.0, 18574.0, 18612.0, 18612.0, 18580.0, 18610.0, 18610.0, 18574.0, 18614.0, 18618.0, 18580.0, 18582.0, 18582.0, 18584.0, 18662.0, 18710.0, 18620.0, 18580.0]
    },
    "slices": {}
  }
}