{
  "AcquisitionMatrixPE": 104,
  "AcquisitionNumber": 1,
  "AcquisitionTime": "15:47:10.422500",
  "BandwidthPerPixelPhaseEncode": 17.17,
  "BaseResolution": 104,
  "BodyPartExamined": "BRAIN",
  "CoilString": "HC1-7;NC1_2",
  "ConsistencyInfo": "N4_VE11C_LATEST_20160120",
  "ConversionSoftware": "dcm2niix",
  "ConversionSoftwareVersion": "v1.0.20190902",
  "DerivedVendorReportedEchoSpacing": 0.000560011,
  "DeviceSerialNumber": "167006",
  "DwellTime": 2.1e-06,
  "EchoTime": 0.037,
  "EchoTrainLength": 104,
  "EffectiveEchoSpacing": 0.000560011,
  "FlipAngle": 52,
  "ImageComments": "Unaliased_MB4_PE3_LB",
  "ImageOrientationPatientDICOM": [0.996536, -0.0793613, 0.024845, 0.0831561, 0.953675, -0.289117],
  "ImageType": [
    "ORIGINAL",
    "PRIMARY",
    "P",
    "MB",
    "ND",
    "MOSAIC"
],
  "ImagingFrequency": 123.259,
  "InPlanePhaseEncodingDirectionDICOM": "COL",
  "InstitutionAddress": "Chemin_Queen-Mary_4565_Montreal_District_CA_H3W_1W5",
  "InstitutionName": "IUGM",
  "InstitutionalDepartmentName": "Department",
  "MRAcquisitionType": "2D",
  "MagneticFieldStrength": 3,
  "Manufacturer": "Siemens",
  "ManufacturersModelName": "Prisma_fit",
  "Modality": "MR",
  "MultibandAccelerationFactor": 4,
  "PartialFourier": 1,
  "PatientPosition": "HFS",
  "PercentPhaseFOV": 100,
  "PhaseEncodingDirection": "j",
  "PhaseEncodingSteps": 104,
  "PhaseResolution": 1,
  "PixelBandwidth": 2290,
  "ProcedureStepDescription": "memory_things",
  "ProtocolName": "func_task-things_run-6",
  "PulseSequenceDetails": "%CustomerSeq%_cmrr_mbep2d_bold",
  "ReceiveCoilActiveElements": "HC1-7;NC1,2",
  "ReceiveCoilName": "HeadNeck_64",
  "ReconMatrixPE": 104,
  "RepetitionTime": 1.49,
  "SAR": 0.0288808,
  "ScanOptions": "FS",
  "ScanningSequence": "EP",
  "SequenceName": "epfid2d1_104",
  "SequenceVariant": "SK_SS",
  "SeriesDescription": "func_task-things_run-6",
  "SeriesNumber": 26,
  "ShimSetting": [628, -7246, -8841, 571, 5, -185, -24, -13],
  "SliceThickness": 2,
  "SliceTiming": [0, 0.785, 0.0975, 0.8825, 0.1975, 0.98, 0.295, 1.0775, 0.3925, 1.175, 0.49, 1.275, 0.5875, 1.3725, 0.685, 0, 0.785, 0.0975, 0.8825, 0.1975, 0.98, 0.295, 1.0775, 0.3925, 1.175, 0.49, 1.275, 0.5875, 1.3725, 0.685, 0, 0.785, 0.0975, 0.8825, 0.1975, 0.98, 0.295, 1.0775, 0.3925, 1.175, 0.49, 1.275, 0.5875, 1.3725, 0.685, 0, 0.785, 0.0975, 0.8825, 0.1975, 0.98, 0.295, 1.0775, 0.3925, 1.175, 0.49, 1.275, 0.5875, 1.3725, 0.685],
  "SoftwareVersions": "syngo_MR_E11",
  "SpacingBetweenSlices": 2,
  "StationName": "MRC35049",
  "TaskName": "things",
  "TotalReadoutTime": 0.0576811,
  "TxRefAmp": 219.708,
  "WipMemBlock": "9a289cb0-abca-491c-b2db-03d2a2149de9||Sequence: R016 ve11c/master r/e634e98; Dec 19 2017 11:00:25 by eja",
  "dcmmeta_affine": [
    [-1.993072509765625, 0.16631215810775757, 0.001498678233474493, 99.3395767211914],
    [0.1587226837873459, 1.9073506593704224, -0.5803625583648682, -76.54573822021484],
    [0.04968992620706558, 0.5782333612442017, 1.9139429330825806, -69.35267639160156],
    [0.0, 0.0, 0.0, 1.0]
],
  "dcmmeta_reorient_transform": [
    [0.0, -1.0, 0.0, 103.0],
    [1.0, 0.0, 0.0, 0.0],
    [0.0, 0.0, 1.0, 0.0],
    [0.0, 0.0, 0.0, 1.0]
],
  "dcmmeta_shape": [104, 104, 60, 190],
  "dcmmeta_slice_dim": 2,
  "dcmmeta_version": 0.6,
  "global": {
    "const": {
      "AcquisitionMatrix": [104, 0, 0, 104],
      "AngioFlag": "N",
      "BitsAllocated": 16,
      "BitsStored": 16,
      "BodyPartExamined": "BRAIN",
      "Columns": 832,
      "EchoNumbers": 1,
      "EchoTime": 37.0,
      "EchoTrainLength": 104,
      "FlipAngle": 52.0,
      "HighBit": 15,
      "ImageOrientationPatient": [0.99653625361596, -0.0793613448636, 0.02484496267862, 0.08315608047511, 0.95367531759605, -0.2891166804044],
      "ImagePositionPatient": [-902.48574603527, -756.41194854949, 182.5951690014],
      "ImageType": [
        "ORIGINAL",
        "PRIMARY",
        "P",
        "MB",
        "ND",
        "MOSAIC"
],
      "ImagedNucleus": "1H",
      "ImagingFrequency": 123.258917,
      "InPlanePhaseEncodingDirection": "COL",
      "LargestImagePixelValue": 4095,
      "MRAcquisitionType": "2D",
      "MagneticFieldStrength": 3.0,
      "Manufacturer": "SIEMENS",
      "ManufacturerModelName": "Prisma_fit",
      "Modality": "MR",
      "NumberOfAverages": 1.0,
      "NumberOfPhaseEncodingSteps": 104,
      "PercentPhaseFieldOfView": 100.0,
      "PercentSampling": 100.0,
      "PerformedProcedureStepStartTime": "144933.854000",
      "PhotometricInterpretation": "MONOCHROME2",
      "PixelBandwidth": 2290.0,
      "PixelRepresentation": 0,
      "PixelSpacing": [2.0, 2.0],
      "ProtocolName": "func_task-things_run-6",
      "RepetitionTime": 1490.0,
      "RescaleIntercept": -4096.0,
      "RescaleSlope": 2.0,
      "RescaleType": "US",
      "Rows": 832,
      "SAR": 0.02888079789514,
      "SamplesPerPixel": 1,
      "ScanOptions": "FS",
      "ScanningSequence": "EP",
      "SequenceName": "epfid2d1_104",
      "SequenceVariant": [
        "SK",
        "SS"
],
      "SeriesDescription": "func_task-things_run-6",
      "SeriesNumber": 26,
      "SeriesTime": "154811.452000",
      "SliceLocation": -44.08195121972,
      "SliceThickness": 2.0,
      "SmallestImagePixelValue": 0,
      "SoftwareVersions": "syngo MR E11",
      "SpacingBetweenSlices": 2.0000000643711,
      "SpecificCharacterSet": "ISO_IR 100",
      "StudyID": "1",
      "StudyTime": "144933.768000",
      "TransmitCoilName": "Body",
      "VariableFlipAngleFlag": "N",
      "WindowCenterWidthExplanation": "Algo1",
      "dBdt": 0.0},
    "slices": {}
  },
  "time": {
    "samples": {
      "AcquisitionNumber": [1, 2, 3, 4, 5, 6, 7, 8, 9, 10, 11, 12, 13, 14, 15, 16, 17, 18, 19, 20, 21, 22, 23, 24, 25, 26, 27, 28, 29, 30, 31, 32, 33, 34, 35, 36, 37, 38, 39, 40, 41, 42, 43, 44, 45, 46, 47, 48, 49, 50, 51, 52, 53, 54, 55, 56, 57, 58, 59, 60, 61, 62, 63, 64, 65, 66, 67, 68, 69, 70, 71, 72, 73, 74, 75, 76, 77, 78, 79, 80, 81, 82, 83, 84, 85, 86, 87, 88, 89, 90, 91, 92, 93, 94, 95, 96, 97, 98, 99, 100, 101, 102, 103, 104, 105, 106, 107, 108, 109, 110, 111, 112, 113, 114, 115, 116, 117, 118, 119, 120, 121, 122, 123, 124, 125, 126, 127, 128, 129, 130, 131, 132, 133, 134, 135, 136, 137, 138, 139, 140, 141, 142, 143, 144, 145, 146, 147, 148, 149, 150, 151, 152, 153, 154, 155, 156, 157, 158, 159, 160, 161, 162, 163, 164, 165, 166, 167, 168, 169, 170, 171, 172, 173, 174, 175, 176, 177, 178, 179, 180, 181, 182, 183, 184, 185, 186, 187, 188, 189, 190],
      "AcquisitionTime": ["154710.422500", "154711.912500", "154713.402500", "154714.892500", "154716.382500", "154717.872500", "154719.362500", "154720.852500", "154722.342500", "154723.832500", "154725.322500", "154726.812500", "154728.302500", "154729.792500", "154731.282500", "154732.772500", "154734.262500", "154735.752500", "154737.242500", "154738.732500", "154740.222500", "154741.712500", "154743.202500", "154744.692500", "154746.182500", "154747.672500", "154749.162500", "154750.652500", "154752.142500", "154753.632500", "154755.122500", "154756.612500", "154758.102500", "154759.592500", "154801.082500", "154802.572500", "154804.062500", "154805.552500", "154807.042500", "154808.532500", "154810.022500", "154811.512500", "154813.002500", "154814.492500", "154815.982500", "154817.472500", "154818.962500", "154820.452500", "154821.942500", "154823.432500", "154824.922500", "154826.412500", "154827.902500", "154829.392500", "154830.882500", "154832.372500", "154833.862500", "154835.352500", "154836.842500", "154838.332500", "154839.822500", "154841.312500", "154842.802500", "154844.292500", "154845.782500", "154847.272500", "154848.762500", "154850.252500", "154851.742500", "154853.232500", "154854.722500", "154856.212500", "154857.702500", "154859.192500", "154900.682500", "154902.172500", "154903.662500", "154905.152500", "154906.642500", "154908.132500", "154909.622500", "154911.112500", "154912.602500", "154914.092500", "154915.582500", "154917.072500", "154918.562500", "154920.052500", "154921.542500", "154923.032500", "154924.522500", "154926.012500", "154927.502500", "154928.992500", "154930.482500", "154931.972500", "154933.462500", "154934.952500", "154936.442500", "154937.932500", "154939.422500", "154940.912500", "154942.402500", "154943.892500", "154945.382500", "154946.872500", "154948.362500", "154949.852500", "154951.342500", "154952.832500", "154954.322500", "154955.812500", "154957.302500", "154958.792500", "155000.282500", "155001.772500", "155003.262500", "155004.752500", "155006.242500", "155007.732500", "155009.222500", "155010.712500", "155012.202500", "155013.692500", "155015.182500", "155016.672500", "155018.162500", "155019.652500", "155021.142500", "155022.632500", "155024.122500", "155025.612500", "155027.102500", "155028.592500", "155030.082500", "155031.572500", "155033.062500", "155034.552500", "155036.042500", "155037.532500", "155039.022500", "155040.512500", "155042.002500", "155043.492500", "155044.982500", "155046.472500", "155047.962500", "155049.452500", "155050.942500", "155052.432500", "155053.922500", "155055.412500", "155056.902500", "155058.392500", "155059.882500", "155101.372500", "155102.862500", "155104.352500", "155105.842500", "155107.332500", "155108.822500", "155110.312500", "155111.802500", "155113.292500", "155114.782500", "155116.272500", "155117.762500", "155119.252500", "155120.742500", "155122.232500", "155123.722500", "155125.212500", "155126.702500", "155128.192500", "155129.682500", "155131.172500", "155132.662500", "155134.152500", "155135.642500", "155137.132500", "155138.622500", "155140.112500", "155141.602500", "155143.092500", "155144.582500", "155146.072500", "155147.562500", "155149.052500", "155150.542500", "155152.032500"],
      "ContentTime": ["154811.454000", "154811.457000", "154811.460000", "154831.469000", "154831.472000", "154831.474000", "154831.477000", "154831.479000", "154831.482000", "154831.490000", "154831.492000", "154831.494000", "154831.497000", "154831.499000", "154831.502000", "154831.504000", "154831.507000", "154831.509000", "154831.512000", "154831.514000", "154831.516000", "154831.519000", "154831.521000", "154831.524000", "154851.491000", "154851.493000", "154851.496000", "154851.498000", "154851.501000", "154851.503000", "154851.506000", "154851.508000", "154851.510000", "154851.513000", "154851.515000", "154851.518000", "154851.520000", "154851.523000", "154851.525000", "154851.528000", "154851.530000", "154851.532000", "154851.535000", "154851.537000", "154911.475000", "154911.477000", "154911.480000", "154911.483000", "154911.486000", "154911.488000", "154911.491000", "154911.493000", "154911.496000", "154911.498000", "154911.501000", "154911.503000", "154911.506000", "154911.508000", "154911.512000", "154911.515000", "154911.517000", "154911.520000", "154911.522000", "154911.525000", "154931.473000", "154931.476000", "154931.478000", "154931.480000", "154931.483000", "154931.485000", "154931.488000", "154931.490000", "154931.493000", "154931.495000", "154931.498000", "154931.500000", "154931.503000", "154931.505000", "154931.508000", "154931.510000", "154931.513000", "154931.515000", "154931.517000", "154931.520000", "154931.522000", "154951.472000", "154951.474000", "154951.477000", "154951.479000", "154951.482000", "154951.484000", "154951.487000", "154951.489000", "154951.492000", "154951.494000", "154951.497000", "154951.499000", "154951.501000", "154951.504000", "154951.506000", "154951.509000", "154951.511000", "154951.514000", "154951.516000", "154951.519000", "155031.520000", "155031.522000", "155031.525000", "155031.527000", "155031.530000", "155031.533000", "155031.535000", "155031.537000", "155031.540000", "155031.543000", "155031.545000", "155031.548000", "155031.550000", "155031.552000", "155031.555000", "155031.558000", "155031.560000", "155031.563000", "155031.565000", "155031.568000", "155031.570000", "155031.573000", "155031.575000", "155031.577000", "155031.580000", "155031.583000", "155031.585000", "155031.588000", "155031.590000", "155111.515000", "155111.518000", "155111.521000", "155111.523000", "155111.526000", "155111.528000", "155111.531000", "155111.533000", "155111.536000", "155111.538000", "155111.541000", "155111.543000", "155111.546000", "155111.548000", "155111.550000", "155111.553000", "155111.555000", "155111.558000", "155111.561000", "155111.563000", "155111.566000", "155111.568000", "155111.571000", "155111.573000", "155111.576000", "155111.578000", "155111.581000", "155151.513000", "155151.515000", "155151.518000", "155151.520000", "155151.523000", "155151.525000", "155151.528000", "155151.530000", "155151.533000", "155151.535000", "155151.538000", "155151.540000", "155151.543000", "155151.545000", "155151.548000", "155151.550000", "155151.553000", "155151.555000", "155151.558000", "155151.560000", "155151.563000", "155151.565000", "155151.568000", "155151.570000", "155151.573000", "155151.575000", "155151.578000", "155154.027000", "155154.030000"],
      "InstanceCreationTime": ["154811.454000", "154811.457000", "154811.460000", "154831.469000", "154831.472000", "154831.474000", "154831.477000", "154831.479000", "154831.482000", "154831.490000", "154831.492000", "154831.494000", "154831.497000", "154831.499000", "154831.502000", "154831.504000", "154831.507000", "154831.509000", "154831.512000", "154831.514000", "154831.516000", "154831.519000", "154831.521000", "154831.524000", "154851.491000", "154851.493000", "154851.496000", "154851.498000", "154851.501000", "154851.503000", "154851.506000", "154851.508000", "154851.510000", "154851.513000", "154851.515000", "154851.518000", "154851.520000", "154851.523000", "154851.525000", "154851.528000", "154851.530000", "154851.532000", "154851.535000", "154851.537000", "154911.475000", "154911.477000", "154911.480000", "154911.483000", "154911.486000", "154911.488000", "154911.491000", "154911.493000", "154911.496000", "154911.498000", "154911.501000", "154911.503000", "154911.506000", "154911.508000", "154911.512000", "154911.515000", "154911.517000", "154911.520000", "154911.522000", "154911.525000", "154931.473000", "154931.476000", "154931.478000", "154931.480000", "154931.483000", "154931.485000", "154931.488000", "154931.490000", "154931.493000", "154931.495000", "154931.498000", "154931.500000", "154931.503000", "154931.505000", "154931.508000", "154931.510000", "154931.513000", "154931.515000", "154931.517000", "154931.520000", "154931.522000", "154951.472000", "154951.474000", "154951.477000", "154951.479000", "154951.482000", "154951.484000", "154951.487000", "154951.489000", "154951.492000", "154951.494000", "154951.497000", "154951.499000", "154951.501000", "154951.504000", "154951.506000", "154951.509000", "154951.511000", "154951.514000", "154951.516000", "154951.519000", "155031.520000", "155031.522000", "155031.525000", "155031.527000", "155031.530000", "155031.533000", "155031.535000", "155031.537000", "155031.540000", "155031.543000", "155031.545000", "155031.548000", "155031.550000", "155031.552000", "155031.555000", "155031.558000", "155031.560000", "155031.563000", "155031.565000", "155031.568000", "155031.570000", "155031.573000", "155031.575000", "155031.577000", "155031.580000", "155031.583000", "155031.585000", "155031.588000", "155031.590000", "155111.515000", "155111.518000", "155111.521000", "155111.523000", "155111.526000", "155111.528000", "155111.531000", "155111.533000", "155111.536000", "155111.538000", "155111.541000", "155111.543000", "155111.546000", "155111.548000", "155111.550000", "155111.553000", "155111.555000", "155111.558000", "155111.561000", "155111.563000", "155111.566000", "155111.568000", "155111.571000", "155111.573000", "155111.576000", "155111.578000", "155111.581000", "155151.513000", "155151.515000", "155151.518000", "155151.520000", "155151.523000", "155151.525000", "155151.528000", "155151.530000", "155151.533000", "155151.535000", "155151.538000", "155151.540000", "155151.543000", "155151.545000", "155151.548000", "155151.550000", "155151.553000", "155151.555000", "155151.558000", "155151.560000", "155151.563000", "155151.565000", "155151.568000", "155151.570000", "155151.573000", "155151.575000", "155151.578000", "155154.027000", "155154.030000"],
      "InstanceNumber": [1, 2, 3, 4, 5, 6, 7, 8, 9, 10, 11, 12, 13, 14, 15, 16, 17, 18, 19, 20, 21, 22, 23, 24, 25, 26, 27, 28, 29, 30, 31, 32, 33, 34, 35, 36, 37, 38, 39, 40, 41, 42, 43, 44, 45, 46, 47, 48, 49, 50, 51, 52, 53, 54, 55, 56, 57, 58, 59, 60, 61, 62, 63, 64, 65, 66, 67, 68, 69, 70, 71, 72, 73, 74, 75, 76, 77, 78, 79, 80, 81, 82, 83, 84, 85, 86, 87, 88, 89, 90, 91, 92, 93, 94, 95, 96, 97, 98, 99, 100, 101, 102, 103, 104, 105, 106, 107, 108, 109, 110, 111, 112, 113, 114, 115, 116, 117, 118, 119, 120, 121, 122, 123, 124, 125, 126, 127, 128, 129, 130, 131, 132, 133, 134, 135, 136, 137, 138, 139, 140, 141, 142, 143, 144, 145, 146, 147, 148, 149, 150, 151, 152, 153, 154, 155, 156, 157, 158, 159, 160, 161, 162, 163, 164, 165, 166, 167, 168, 169, 170, 171, 172, 173, 174, 175, 176, 177, 178, 179, 180, 181, 182, 183, 184, 185, 186, 187, 188, 189, 190],
      "WindowCenter": [4862.0, 4864.0, 4864.0, 4840.0, 4864.0, 4836.0, 4838.0, 4834.0, 4864.0, 4836.0, 4864.0, 4864.0, 4892.0, 4866.0, 4890.0, 4866.0, 4864.0, 4862.0, 4862.0, 4864.0, 4862.0, 4866.0, 4868.0, 4842.0, 4862.0, 4886.0, 4862.0, 4868.0, 4920.0, 4892.0, 4836.0, 4836.0, 4834.0, 4886.0, 4862.0, 4860.0, 4860.0, 4886.0, 4904.0, 4910.0, 4862.0, 4836.0, 4806.0, 4832.0, 4890.0, 4912.0, 4886.0, 4868.0, 4884.0, 4862.0, 4862.0, 4860.0, 4862.0, 4864.0, 4862.0, 4892.0, 4886.0, 4910.0, 4888.0, 4838.0, 4828.0, 4808.0, 4836.0, 4884.0, 4864.0, 4886.0, 4884.0, 4890.0, 4888.0, 4864.0, 4834.0, 4836.0, 4838.0, 4838.0, 4864.0, 4890.0, 4912.0, 4866.0, 4888.0, 4838.0, 4836.0, 4862.0, 4860.0, 4862.0, 4862.0, 4864.0, 4888.0, 4884.0, 4862.0, 4908.0, 4912.0, 4892.0, 4836.0, 4830.0, 4826.0, 4862.0, 4914.0, 4886.0, 4886.0, 4910.0, 4912.0, 4886.0, 4834.0, 4836.0, 4862.0, 4834.0, 4836.0, 4886.0, 4886.0, 4886.0, 4858.0, 4836.0, 4834.0, 4838.0, 4862.0, 4912.0, 4888.0, 4866.0, 4864.0, 4862.0, 4836.0, 4862.0, 4860.0, 4838.0, 4862.0, 4862.0, 4834.0, 4860.0, 4862.0, 4862.0, 4884.0, 4890.0, 4864.0, 4838.0, 4834.0, 4832.0, 4834.0, 4858.0, 4832.0, 4856.0, 4882.0, 4882.0, 4886.0, 4888.0, 4888.0, 4832.0, 4836.0, 4888.0, 4864.0, 4914.0, 4894.0, 4886.0, 4906.0, 4886.0, 4834.0, 4858.0, 4912.0, 4868.0, 4832.0, 4832.0, 4838.0, 4866.0, 4890.0, 4888.0, 4886.0, 4912.0, 4890.0, 4890.0, 4864.0, 4840.0, 4836.0, 4836.0, 4864.0, 4890.0, 4912.0, 4888.0, 4866.0, 4888.0, 4914.0, 4836.0, 4840.0, 4896.0, 4912.0, 4870.0, 4860.0, 4862.0, 4862.0, 4862.0, 4866.0, 4886.0],
      "WindowWidth": [18610.0, 18614.0, 18622.0, 18582.0, 18624.0, 18578.0, 18578.0, 18576.0, 18620.0, 18578.0, 18616.0, 18618.0, 18658.0, 18614.0, 18658.0, 18616.0, 18610.0, 18614.0, 18608.0, 18618.0, 18612.0, 18614.0, 18618.0, 18580.0, 18614.0, 18650.0, 18614.0, 18614.0, 18712.0, 18658.0, 18574.0, 18576.0, 18576.0, 18650.0, 18618.0, 18620.0, 18614.0, 18658.0, 18720.0, 18692.0, 18616.0, 18582.0, 18542.0, 18578.0, 18664.0, 18698.0, 18660.0, 18618.0, 18654.0, 18614.0, 18612.0, 18614.0, 18620.0, 18622.0, 18614.0, 18660.0, 18670.0, 18710.0, 18662.0, 18588.0, 18576.0, 18550.0, 18580.0, 18660.0, 18618.0, 18658.0, 18648.0, 18666.0, 18660.0, 18616.0, 18580.0, 18580.0, 18580.0, 18580.0, 18612.0, 18658.0, 18688.0, 18616.0, 18656.0, 18576.0, 18574.0, 18612.0, 18610.0, 18618.0, 18618.0, 18616.0, 18660.0, 18648.0, 18614.0, 18712.0, 18712.0, 18652.0, 18564.0, 18574.0, 18574.0, 18618.0, 18698.0, 18662.0, 18650.0, 18704.0, 18698.0, 18650.0, 18578.0, 18582.0, 18618.0, 18578.0, 18582.0, 18656.0, 18658.0, 18652.0, 18610.0, 18584.0, 18576.0, 18584.0, 18614.0, 18698.0, 18656.0, 18622.0, 18612.0, 18610.0, 18576.0, 18614.0, 18612.0, 18580.0, 18608.0, 18614.0, 18576.0, 18608.0, 18618.0, 18612.0, 18650.0, 18656.0, 18622.0, 18586.0, 18582.0, 18578.0, 18580.0, 18612.0, 18576.0, 18616.0, 18652.0, 18646.0, 18642.0, 18654.0, 18658.0, 18580.0, 18580.0, 18648.0, 18614.0, 18706.0, 18662.0, 18662.0, 18708.0, 18654.0, 18578.0, 18622.0, 18700.0, 18618.0, 18578.0, 18572.0, 18572.0, 18612.0, 18656.0, 18658.0, 18650.0, 18688.0, 18650.0, 18654.0, 18610.0, 18580.0, 18572.0, 18576.0, 18616.0, 18658.0, 18710.0, 18654.0, 18614.0, 18650.0, 18692.0, 18574.0, 18576.0, 18666.0, 18690.0, 18622.0, 18614.0, 18610.0, 18612.0, 18616.0, 18618.0, 18648.0]
    },
    "slices": {}
  }
}