{
  "AcquisitionMatrixPE": 104,
  "AcquisitionNumber": 1,
  "AcquisitionTime": "15:34:11.080000",
  "BandwidthPerPixelPhaseEncode": 17.17,
  "BaseResolution": 104,
  "BodyPartExamined": "BRAIN",
  "CoilString": "HC1-7;NC1_2",
  "ConsistencyInfo": "N4_VE11C_LATEST_20160120",
  "ConversionSoftware": "dcm2niix",
  "ConversionSoftwareVersion": "v1.0.20190902",
  "DerivedVendorReportedEchoSpacing": 0.000560011,
  "DeviceSerialNumber": "167006",
  "DwellTime": 2.1e-06,
  "EchoTime": 0.037,
  "EchoTrainLength": 104,
  "EffectiveEchoSpacing": 0.000560011,
  "FlipAngle": 52,
  "ImageComments": "Unaliased_MB4_PE3_LB",
  "ImageOrientationPatientDICOM": [0.996536, -0.0793613, 0.024845, 0.0831561, 0.953675, -0.289117],
  "ImageType": [
    "ORIGINAL",
    "PRIMARY",
    "M",
    "MB",
    "ND",
    "MOSAIC"
],
  "ImagingFrequency": 123.259,
  "InPlanePhaseEncodingDirectionDICOM": "COL",
  "InstitutionAddress": "Chemin_Queen-Mary_4565_Montreal_District_CA_H3W_1W5",
  "InstitutionName": "IUGM",
  "InstitutionalDepartmentName": "Department",
  "MRAcquisitionType": "2D",
  "MagneticFieldStrength": 3,
  "Manufacturer": "Siemens",
  "ManufacturersModelName": "Prisma_fit",
  "Modality": "MR",
  "MultibandAccelerationFactor": 4,
  "PartialFourier": 1,
  "PatientPosition": "HFS",
  "PercentPhaseFOV": 100,
  "PhaseEncodingDirection": "j",
  "PhaseEncodingSteps": 104,
  "PhaseResolution": 1,
  "PixelBandwidth": 2290,
  "ProcedureStepDescription": "memory_things",
  "ProtocolName": "func_task-things_run-4",
  "PulseSequenceDetails": "%CustomerSeq%_cmrr_mbep2d_bold",
  "ReceiveCoilActiveElements": "HC1-7;NC1,2",
  "ReceiveCoilName": "HeadNeck_64",
  "ReconMatrixPE": 104,
  "RepetitionTime": 1.49,
  "SAR": 0.0288808,
  "ScanOptions": "FS",
  "ScanningSequence": "EP",
  "SequenceName": "epfid2d1_104",
  "SequenceVariant": "SK_SS",
  "SeriesDescription": "func_task-things_run-4",
  "SeriesNumber": 19,
  "ShimSetting": [628, -7246, -8841, 571, 5, -185, -24, -13],
  "SliceThickness": 2,
  "SliceTiming": [0, 0.785, 0.0975, 0.8825, 0.1975, 0.98, 0.295, 1.0775, 0.3925, 1.1775, 0.49, 1.275, 0.5875, 1.3725, 0.6875, 0, 0.785, 0.0975, 0.8825, 0.1975, 0.98, 0.295, 1.0775, 0.3925, 1.1775, 0.49, 1.275, 0.5875, 1.3725, 0.6875, 0, 0.785, 0.0975, 0.8825, 0.1975, 0.98, 0.295, 1.0775, 0.3925, 1.1775, 0.49, 1.275, 0.5875, 1.3725, 0.6875, 0, 0.785, 0.0975, 0.8825, 0.1975, 0.98, 0.295, 1.0775, 0.3925, 1.1775, 0.49, 1.275, 0.5875, 1.3725, 0.6875],
  "SoftwareVersions": "syngo_MR_E11",
  "SpacingBetweenSlices": 2,
  "StationName": "MRC35049",
  "TaskName": "things",
  "TotalReadoutTime": 0.0576811,
  "TxRefAmp": 219.708,
  "WipMemBlock": "90c4368e-fd7c-465b-8d06-666366e04af9||Sequence: R016 ve11c/master r/e634e98; Dec 19 2017 11:00:25 by eja",
  "dcmmeta_affine": [
    [-1.993072509765625, 0.16631215810775757, 0.001498678233474493, 99.3395767211914],
    [0.1587226837873459, 1.9073506593704224, -0.5803625583648682, -76.54573822021484],
    [0.04968992620706558, 0.5782333612442017, 1.9139429330825806, -69.35267639160156],
    [0.0, 0.0, 0.0, 1.0]
],
  "dcmmeta_reorient_transform": [
    [0.0, -1.0, 0.0, 103.0],
    [1.0, 0.0, 0.0, 0.0],
    [0.0, 0.0, 1.0, 0.0],
    [0.0, 0.0, 0.0, 1.0]
],
  "dcmmeta_shape": [104, 104, 60, 190],
  "dcmmeta_slice_dim": 2,
  "dcmmeta_version": 0.6,
  "global": {
    "const": {
      "AcquisitionMatrix": [104, 0, 0, 104],
      "AngioFlag": "N",
      "BitsAllocated": 16,
      "BitsStored": 16,
      "BodyPartExamined": "BRAIN",
      "Columns": 832,
      "EchoNumbers": 1,
      "EchoTime": 37.0,
      "EchoTrainLength": 104,
      "FlipAngle": 52.0,
      "HighBit": 15,
      "ImageOrientationPatient": [0.99653625361596, -0.0793613448636, 0.02484496267862, 0.08315608047511, 0.95367531759605, -0.2891166804044],
      "ImagePositionPatient": [-902.48574603527, -756.41194854949, 182.5951690014],
      "ImageType": [
        "ORIGINAL",
        "PRIMARY",
        "M",
        "MB",
        "ND",
        "MOSAIC"
],
      "ImagedNucleus": "1H",
      "ImagingFrequency": 123.258911,
      "InPlanePhaseEncodingDirection": "COL",
      "MRAcquisitionType": "2D",
      "MagneticFieldStrength": 3.0,
      "Manufacturer": "SIEMENS",
      "ManufacturerModelName": "Prisma_fit",
      "Modality": "MR",
      "NumberOfAverages": 1.0,
      "NumberOfPhaseEncodingSteps": 104,
      "PercentPhaseFieldOfView": 100.0,
      "PercentSampling": 100.0,
      "PerformedProcedureStepStartTime": "144933.854000",
      "PhotometricInterpretation": "MONOCHROME2",
      "PixelBandwidth": 2290.0,
      "PixelRepresentation": 0,
      "PixelSpacing": [2.0, 2.0],
      "ProtocolName": "func_task-things_run-4",
      "RepetitionTime": 1490.0,
      "Rows": 832,
      "SAR": 0.02888079789514,
      "SamplesPerPixel": 1,
      "ScanOptions": "FS",
      "ScanningSequence": "EP",
      "SequenceName": "epfid2d1_104",
      "SequenceVariant": [
        "SK",
        "SS"
],
      "SeriesDescription": "func_task-things_run-4",
      "SeriesNumber": 19,
      "SeriesTime": "153539.873000",
      "SliceLocation": -44.08195121972,
      "SliceThickness": 2.0,
      "SmallestImagePixelValue": 0,
      "SoftwareVersions": "syngo MR E11",
      "SpacingBetweenSlices": 2.0000000643711,
      "SpecificCharacterSet": "ISO_IR 100",
      "StudyID": "1",
      "StudyTime": "144933.768000",
      "TransmitCoilName": "Body",
      "VariableFlipAngleFlag": "N",
      "WindowCenterWidthExplanation": "Algo1",
      "dBdt": 0.0},
    "slices": {}
  },
  "time": {
    "samples": {
      "AcquisitionNumber": [1, 2, 3, 4, 5, 6, 7, 8, 9, 10, 11, 12, 13, 14, 15, 16, 17, 18, 19, 20, 21, 22, 23, 24, 25, 26, 27, 28, 29, 30, 31, 32, 33, 34, 35, 36, 37, 38, 39, 40, 41, 42, 43, 44, 45, 46, 47, 48, 49, 50, 51, 52, 53, 54, 55, 56, 57, 58, 59, 60, 61, 62, 63, 64, 65, 66, 67, 68, 69, 70, 71, 72, 73, 74, 75, 76, 77, 78, 79, 80, 81, 82, 83, 84, 85, 86, 87, 88, 89, 90, 91, 92, 93, 94, 95, 96, 97, 98, 99, 100, 101, 102, 103, 104, 105, 106, 107, 108, 109, 110, 111, 112, 113, 114, 115, 116, 117, 118, 119, 120, 121, 122, 123, 124, 125, 126, 127, 128, 129, 130, 131, 132, 133, 134, 135, 136, 137, 138, 139, 140, 141, 142, 143, 144, 145, 146, 147, 148, 149, 150, 151, 152, 153, 154, 155, 156, 157, 158, 159, 160, 161, 162, 163, 164, 165, 166, 167, 168, 169, 170, 171, 172, 173, 174, 175, 176, 177, 178, 179, 180, 181, 182, 183, 184, 185, 186, 187, 188, 189, 190],
      "AcquisitionTime": ["153411.080000", "153412.570000", "153414.060000", "153415.550000", "153417.040000", "153418.530000", "153420.020000", "153421.510000", "153423.000000", "153424.490000", "153425.980000", "153427.470000", "153428.960000", "153430.450000", "153431.940000", "153433.430000", "153434.920000", "153436.410000", "153437.900000", "153439.390000", "153440.880000", "153442.370000", "153443.860000", "153445.350000", "153446.840000", "153448.330000", "153449.820000", "153451.310000", "153452.800000", "153454.290000", "153455.780000", "153457.270000", "153458.760000", "153500.250000", "153501.740000", "153503.230000", "153504.720000", "153506.210000", "153507.700000", "153509.190000", "153510.680000", "153512.170000", "153513.660000", "153515.150000", "153516.640000", "153518.130000", "153519.620000", "153521.110000", "153522.600000", "153524.090000", "153525.580000", "153527.070000", "153528.560000", "153530.050000", "153531.540000", "153533.030000", "153534.520000", "153536.010000", "153537.500000", "153538.990000", "153540.480000", "153541.970000", "153543.460000", "153544.950000", "153546.440000", "153547.930000", "153549.420000", "153550.910000", "153552.400000", "153553.890000", "153555.380000", "153556.870000", "153558.360000", "153559.850000", "153601.340000", "153602.830000", "153604.320000", "153605.810000", "153607.300000", "153608.790000", "153610.280000", "153611.770000", "153613.260000", "153614.750000", "153616.240000", "153617.730000", "153619.220000", "153620.710000", "153622.200000", "153623.690000", "153625.180000", "153626.670000", "153628.160000", "153629.650000", "153631.140000", "153632.630000", "153634.120000", "153635.610000", "153637.100000", "153638.590000", "153640.080000", "153641.570000", "153643.060000", "153644.550000", "153646.040000", "153647.530000", "153649.020000", "153650.510000", "153652.000000", "153653.490000", "153654.980000", "153656.470000", "153657.960000", "153659.450000", "153700.940000", "153702.430000", "153703.920000", "153705.410000", "153706.900000", "153708.390000", "153709.880000", "153711.370000", "153712.860000", "153714.350000", "153715.840000", "153717.330000", "153718.820000", "153720.310000", "153721.800000", "153723.290000", "153724.780000", "153726.270000", "153727.760000", "153729.250000", "153730.740000", "153732.230000", "153733.720000", "153735.210000", "153736.700000", "153738.190000", "153739.680000", "153741.170000", "153742.660000", "153744.150000", "153745.640000", "153747.130000", "153748.620000", "153750.110000", "153751.600000", "153753.090000", "153754.580000", "153756.070000", "153757.560000", "153759.050000", "153800.540000", "153802.030000", "153803.520000", "153805.010000", "153806.500000", "153807.990000", "153809.480000", "153810.970000", "153812.460000", "153813.950000", "153815.440000", "153816.930000", "153818.420000", "153819.910000", "153821.400000", "153822.890000", "153824.380000", "153825.870000", "153827.360000", "153828.850000", "153830.340000", "153831.830000", "153833.320000", "153834.810000", "153836.300000", "153837.790000", "153839.280000", "153840.770000", "153842.260000", "153843.750000", "153845.240000", "153846.730000", "153848.220000", "153849.710000", "153851.200000", "153852.690000"],
      "ContentTime": ["153539.877000", "153539.880000", "153539.884000", "153539.887000", "153539.890000", "153539.893000", "153539.897000", "153539.900000", "153539.903000", "153539.906000", "153539.910000", "153539.913000", "153539.916000", "153539.919000", "153539.923000", "153539.926000", "153539.929000", "153539.932000", "153539.936000", "153539.939000", "153539.942000", "153539.956000", "153539.959000", "153539.962000", "153539.966000", "153539.969000", "153539.972000", "153539.975000", "153539.979000", "153539.982000", "153539.985000", "153539.988000", "153539.992000", "153539.995000", "153559.842000", "153559.846000", "153559.849000", "153559.852000", "153559.855000", "153559.859000", "153559.862000", "153559.865000", "153559.868000", "153559.872000", "153559.875000", "153559.878000", "153559.881000", "153559.885000", "153559.888000", "153559.891000", "153559.895000", "153559.898000", "153559.901000", "153559.904000", "153619.842000", "153619.846000", "153619.849000", "153619.852000", "153619.855000", "153619.859000", "153619.862000", "153619.865000", "153619.868000", "153619.872000", "153619.875000", "153619.878000", "153619.881000", "153619.885000", "153619.888000", "153619.891000", "153619.895000", "153619.898000", "153619.901000", "153619.904000", "153639.843000", "153639.847000", "153639.850000", "153639.853000", "153639.863000", "153639.866000", "153639.870000", "153639.873000", "153639.876000", "153639.880000", "153639.883000", "153639.886000", "153639.889000", "153639.892000", "153639.896000", "153639.899000", "153639.902000", "153639.906000", "153639.909000", "153639.912000", "153639.916000", "153719.843000", "153719.847000", "153719.850000", "153719.853000", "153719.857000", "153719.860000", "153719.863000", "153719.867000", "153719.870000", "153719.873000", "153719.877000", "153719.880000", "153719.883000", "153719.886000", "153719.890000", "153719.893000", "153719.896000", "153719.900000", "153719.903000", "153719.906000", "153719.909000", "153719.913000", "153719.916000", "153719.919000", "153719.923000", "153719.926000", "153719.929000", "153719.932000", "153719.936000", "153719.939000", "153719.942000", "153759.842000", "153759.846000", "153759.849000", "153759.852000", "153759.856000", "153759.859000", "153759.862000", "153759.866000", "153759.869000", "153759.872000", "153759.875000", "153759.879000", "153759.882000", "153759.885000", "153759.888000", "153759.892000", "153759.895000", "153759.898000", "153759.901000", "153759.905000", "153759.908000", "153759.911000", "153759.914000", "153759.918000", "153759.921000", "153759.924000", "153759.927000", "153839.842000", "153839.846000", "153839.849000", "153839.852000", "153839.856000", "153839.859000", "153839.862000", "153839.865000", "153839.869000", "153839.872000", "153839.876000", "153839.879000", "153839.882000", "153839.885000", "153839.889000", "153839.892000", "153839.895000", "153839.898000", "153839.902000", "153839.905000", "153839.908000", "153839.911000", "153839.915000", "153839.918000", "153839.921000", "153839.924000", "153854.916000", "153854.920000", "153854.927000", "153854.930000", "153854.934000", "153854.937000", "153854.940000", "153854.944000", "153854.947000", "153854.950000", "153854.954000"],
      "InstanceCreationTime": ["153539.877000", "153539.880000", "153539.884000", "153539.887000", "153539.890000", "153539.893000", "153539.897000", "153539.900000", "153539.903000", "153539.906000", "153539.910000", "153539.913000", "153539.916000", "153539.919000", "153539.923000", "153539.926000", "153539.929000", "153539.932000", "153539.936000", "153539.939000", "153539.942000", "153539.956000", "153539.959000", "153539.962000", "153539.966000", "153539.969000", "153539.972000", "153539.975000", "153539.979000", "153539.982000", "153539.985000", "153539.988000", "153539.992000", "153539.995000", "153559.842000", "153559.846000", "153559.849000", "153559.852000", "153559.855000", "153559.859000", "153559.862000", "153559.865000", "153559.868000", "153559.872000", "153559.875000", "153559.878000", "153559.881000", "153559.885000", "153559.888000", "153559.891000", "153559.895000", "153559.898000", "153559.901000", "153559.904000", "153619.842000", "153619.846000", "153619.849000", "153619.852000", "153619.855000", "153619.859000", "153619.862000", "153619.865000", "153619.868000", "153619.872000", "153619.875000", "153619.878000", "153619.881000", "153619.885000", "153619.888000", "153619.891000", "153619.895000", "153619.898000", "153619.901000", "153619.904000", "153639.843000", "153639.847000", "153639.850000", "153639.853000", "153639.863000", "153639.866000", "153639.870000", "153639.873000", "153639.876000", "153639.880000", "153639.883000", "153639.886000", "153639.889000", "153639.892000", "153639.896000", "153639.899000", "153639.902000", "153639.906000", "153639.909000", "153639.912000", "153639.916000", "153719.843000", "153719.847000", "153719.850000", "153719.853000", "153719.857000", "153719.860000", "153719.863000", "153719.867000", "153719.870000", "153719.873000", "153719.877000", "153719.880000", "153719.883000", "153719.886000", "153719.890000", "153719.893000", "153719.896000", "153719.900000", "153719.903000", "153719.906000", "153719.909000", "153719.913000", "153719.916000", "153719.919000", "153719.923000", "153719.926000", "153719.929000", "153719.932000", "153719.936000", "153719.939000", "153719.942000", "153759.842000", "153759.846000", "153759.849000", "153759.852000", "153759.856000", "153759.859000", "153759.862000", "153759.866000", "153759.869000", "153759.872000", "153759.875000", "153759.879000", "153759.882000", "153759.885000", "153759.888000", "153759.892000", "153759.895000", "153759.898000", "153759.901000", "153759.905000", "153759.908000", "153759.911000", "153759.914000", "153759.918000", "153759.921000", "153759.924000", "153759.927000", "153839.842000", "153839.846000", "153839.849000", "153839.852000", "153839.856000", "153839.859000", "153839.862000", "153839.865000", "153839.869000", "153839.872000", "153839.876000", "153839.879000", "153839.882000", "153839.885000", "153839.889000", "153839.892000", "153839.895000", "153839.898000", "153839.902000", "153839.905000", "153839.908000", "153839.911000", "153839.915000", "153839.918000", "153839.921000", "153839.924000", "153854.916000", "153854.920000", "153854.927000", "153854.930000", "153854.934000", "153854.937000", "153854.940000", "153854.944000", "153854.947000", "153854.950000", "153854.954000"],
      "InstanceNumber": [1, 2, 3, 4, 5, 6, 7, 8, 9, 10, 11, 12, 13, 14, 15, 16, 17, 18, 19, 20, 21, 22, 23, 24, 25, 26, 27, 28, 29, 30, 31, 32, 33, 34, 35, 36, 37, 38, 39, 40, 41, 42, 43, 44, 45, 46, 47, 48, 49, 50, 51, 52, 53, 54, 55, 56, 57, 58, 59, 60, 61, 62, 63, 64, 65, 66, 67, 68, 69, 70, 71, 72, 73, 74, 75, 76, 77, 78, 79, 80, 81, 82, 83, 84, 85, 86, 87, 88, 89, 90, 91, 92, 93, 94, 95, 96, 97, 98, 99, 100, 101, 102, 103, 104, 105, 106, 107, 108, 109, 110, 111, 112, 113, 114, 115, 116, 117, 118, 119, 120, 121, 122, 123, 124, 125, 126, 127, 128, 129, 130, 131, 132, 133, 134, 135, 136, 137, 138, 139, 140, 141, 142, 143, 144, 145, 146, 147, 148, 149, 150, 151, 152, 153, 154, 155, 156, 157, 158, 159, 160, 161, 162, 163, 164, 165, 166, 167, 168, 169, 170, 171, 172, 173, 174, 175, 176, 177, 178, 179, 180, 181, 182, 183, 184, 185, 186, 187, 188, 189, 190],
      "LargestImagePixelValue": [43414, 41638, 39398, 40237, 39798, 39892, 39077, 39195, 39017, 39380, 38806, 38925, 39571, 39185, 40043, 39893, 39929, 39921, 39530, 40067, 39096, 39474, 39013, 39537, 39109, 39472, 39389, 39296, 39671, 39710, 39598, 39342, 39882, 39773, 39507, 39426, 39434, 39253, 39304, 39900, 39548, 39340, 39572, 39464, 39322, 39271, 39190, 39679, 39664, 39171, 39922, 39790, 39452, 39420, 39423, 40290, 39305, 40050, 39633, 39876, 40722, 40068, 39906, 40858, 40684, 40442, 39487, 39431, 39612, 39247, 38808, 38532, 38950, 39054, 38756, 38696, 38783, 39170, 39568, 39580, 39739, 39512, 39065, 39342, 39296, 39086, 38911, 39738, 39542, 39575, 39846, 39921, 39318, 40703, 40598, 39857, 39069, 40324, 39054, 40350, 40098, 40126, 38831, 40054, 39937, 38299, 39042, 39330, 39988, 39715, 39528, 38790, 40612, 38280, 38855, 38799, 40406, 39843, 39891, 39371, 39387, 39504, 39445, 39680, 39894, 39641, 39474, 39375, 39348, 39315, 39152, 39419, 39967, 39034, 39356, 39608, 39763, 39037, 40648, 39300, 39939, 41349, 40417, 40118, 39784, 40984, 39492, 40486, 40860, 40868, 40236, 39432, 39022, 38886, 39858, 39210, 40477, 39948, 39791, 39626, 38968, 39905, 40442, 40199, 39522, 40223, 39715, 39219, 39602, 39360, 40154, 41044, 38899, 40342, 40521, 39373, 39959, 39468, 40260, 40754, 40490, 40957, 40029, 39106, 39644, 39528, 39461, 39474, 39411, 38671],
      "WindowCenter": [10327.0, 10246.0, 10208.0, 10178.0, 10170.0, 10157.0, 10144.0, 10156.0, 10175.0, 10193.0, 10174.0, 10164.0, 10166.0, 10154.0, 10160.0, 10158.0, 10166.0, 10183.0, 10200.0, 10222.0, 10238.0, 10230.0, 10205.0, 10214.0, 10217.0, 10224.0, 10218.0, 10196.0, 10191.0, 10181.0, 10169.0, 10167.0, 10172.0, 10167.0, 10168.0, 10168.0, 10173.0, 10182.0, 10189.0, 10218.0, 10216.0, 10206.0, 10190.0, 10173.0, 10173.0, 10166.0, 10159.0, 10170.0, 10170.0, 10165.0, 10165.0, 10163.0, 10172.0, 10190.0, 10199.0, 10196.0, 10198.0, 10216.0, 10224.0, 10239.0, 10224.0, 10204.0, 10195.0, 10183.0, 10152.0, 10149.0, 10173.0, 10192.0, 10193.0, 10147.0, 10119.0, 10118.0, 10112.0, 10102.0, 10095.0, 10130.0, 10170.0, 10205.0, 10198.0, 10165.0, 10152.0, 10149.0, 10175.0, 10214.0, 10212.0, 10196.0, 10187.0, 10178.0, 10181.0, 10186.0, 10186.0, 10197.0, 10210.0, 10229.0, 10207.0, 10187.0, 10180.0, 10197.0, 10211.0, 10246.0, 10243.0, 10223.0, 10167.0, 10166.0, 10156.0, 10126.0, 10124.0, 10124.0, 10129.0, 10139.0, 10157.0, 10156.0, 10185.0, 10194.0, 10206.0, 10191.0, 10212.0, 10230.0, 10218.0, 10194.0, 10171.0, 10175.0, 10199.0, 10223.0, 10217.0, 10186.0, 10167.0, 10157.0, 10166.0, 10189.0, 10192.0, 10185.0, 10186.0, 10184.0, 10207.0, 10209.0, 10187.0, 10179.0, 10191.0, 10197.0, 10216.0, 10220.0, 10197.0, 10175.0, 10168.0, 10197.0, 10201.0, 10192.0, 10151.0, 10124.0, 10130.0, 10145.0, 10128.0, 10104.0, 10111.0, 10137.0, 10183.0, 10194.0, 10189.0, 10171.0, 10146.0, 10163.0, 10178.0, 10186.0, 10195.0, 10217.0, 10218.0, 10198.0, 10178.0, 10170.0, 10181.0, 10197.0, 10185.0, 10195.0, 10194.0, 10182.0, 10184.0, 10201.0, 10211.0, 10193.0, 10169.0, 10158.0, 10143.0, 10128.0, 10118.0, 10101.0, 10085.0, 10086.0, 10088.0, 10079.0],
      "WindowWidth": [22349.0, 22113.0, 22010.0, 21929.0, 21901.0, 21858.0, 21835.0, 21859.0, 21903.0, 21939.0, 21902.0, 21876.0, 21872.0, 21849.0, 21862.0, 21855.0, 21872.0, 21912.0, 21956.0, 22006.0, 22049.0, 22028.0, 21971.0, 21984.0, 21993.0, 22007.0, 21991.0, 21944.0, 21930.0, 21906.0, 21885.0, 21879.0, 21888.0, 21881.0, 21883.0, 21880.0, 21888.0, 21912.0, 21929.0, 21994.0, 21991.0, 21968.0, 21929.0, 21893.0, 21893.0, 21876.0, 21859.0, 21881.0, 21881.0, 21872.0, 21872.0, 21870.0, 21890.0, 21929.0, 21952.0, 21950.0, 21952.0, 21992.0, 22009.0, 22044.0, 22010.0, 21967.0, 21947.0, 21915.0, 21845.0, 21835.0, 21904.0, 21950.0, 21944.0, 21840.0, 21770.0, 21771.0, 21760.0, 21739.0, 21719.0, 21795.0, 21888.0, 21971.0, 21958.0, 21880.0, 21844.0, 21837.0, 21896.0, 21983.0, 21980.0, 21942.0, 21921.0, 21901.0, 21912.0, 21923.0, 21924.0, 21944.0, 21979.0, 22021.0, 21974.0, 21932.0, 21916.0, 21946.0, 21985.0, 22068.0, 22060.0, 22019.0, 21890.0, 21873.0, 21846.0, 21791.0, 21786.0, 21782.0, 21790.0, 21814.0, 21856.0, 21862.0, 21920.0, 21949.0, 21979.0, 21943.0, 21977.0, 22022.0, 21996.0, 21938.0, 21886.0, 21891.0, 21947.0, 22004.0, 21995.0, 21927.0, 21882.0, 21856.0, 21879.0, 21927.0, 21935.0, 21920.0, 21920.0, 21920.0, 21973.0, 21979.0, 21930.0, 21912.0, 21932.0, 21951.0, 21990.0, 22001.0, 21951.0, 21900.0, 21884.0, 21947.0, 21967.0, 21938.0, 21845.0, 21781.0, 21790.0, 21825.0, 21793.0, 21740.0, 21750.0, 21808.0, 21914.0, 21943.0, 21934.0, 21891.0, 21833.0, 21867.0, 21899.0, 21917.0, 21938.0, 21987.0, 21993.0, 21950.0, 21903.0, 21886.0, 21912.0, 21948.0, 21924.0, 21939.0, 21937.0, 21911.0, 21911.0, 21956.0, 21984.0, 21942.0, 21895.0, 21867.0, 21826.0, 21789.0, 21762.0, 21722.0, 21687.0, 21694.0, 21700.0, 21678.0]
    },
    "slices": {}
  }
}