{
  "AcquisitionMatrixPE": 104,
  "AcquisitionNumber": 1,
  "AcquisitionTime": "15:14:57.447500",
  "BandwidthPerPixelPhaseEncode": 17.17,
  "BaseResolution": 104,
  "BodyPartExamined": "BRAIN",
  "CoilString": "HC1-7;NC1_2",
  "ConsistencyInfo": "N4_VE11C_LATEST_20160120",
  "ConversionSoftware": "dcm2niix",
  "ConversionSoftwareVersion": "v1.0.20190902",
  "DerivedVendorReportedEchoSpacing": 0.000560011,
  "DeviceSerialNumber": "167006",
  "DwellTime": 2.1e-06,
  "EchoTime": 0.037,
  "EchoTrainLength": 104,
  "EffectiveEchoSpacing": 0.000560011,
  "FlipAngle": 52,
  "ImageComments": "Unaliased_MB4_PE3_LB",
  "ImageOrientationPatientDICOM": [0.996536, -0.0793613, 0.024845, 0.0831561, 0.953675, -0.289117],
  "ImageType": [
    "ORIGINAL",
    "PRIMARY",
    "P",
    "MB",
    "ND",
    "MOSAIC"
],
  "ImagingFrequency": 123.259,
  "InPlanePhaseEncodingDirectionDICOM": "COL",
  "InstitutionAddress": "Chemin_Queen-Mary_4565_Montreal_District_CA_H3W_1W5",
  "InstitutionName": "IUGM",
  "InstitutionalDepartmentName": "Department",
  "MRAcquisitionType": "2D",
  "MagneticFieldStrength": 3,
  "Manufacturer": "Siemens",
  "ManufacturersModelName": "Prisma_fit",
  "Modality": "MR",
  "MultibandAccelerationFactor": 4,
  "PartialFourier": 1,
  "PatientPosition": "HFS",
  "PercentPhaseFOV": 100,
  "PhaseEncodingDirection": "j",
  "PhaseEncodingSteps": 104,
  "PhaseResolution": 1,
  "PixelBandwidth": 2290,
  "ProcedureStepDescription": "memory_things",
  "ProtocolName": "func_task-things_run-1",
  "PulseSequenceDetails": "%CustomerSeq%_cmrr_mbep2d_bold",
  "ReceiveCoilActiveElements": "HC1-7;NC1,2",
  "ReceiveCoilName": "HeadNeck_64",
  "ReconMatrixPE": 104,
  "RepetitionTime": 1.49,
  "SAR": 0.0288808,
  "ScanOptions": "FS",
  "ScanningSequence": "EP",
  "SequenceName": "epfid2d1_104",
  "SequenceVariant": "SK_SS",
  "SeriesDescription": "func_task-things_run-1",
  "SeriesNumber": 11,
  "ShimSetting": [628, -7246, -8841, 571, 5, -185, -24, -13],
  "SliceThickness": 2,
  "SliceTiming": [0, 0.7825, 0.0975, 0.8825, 0.195, 0.98, 0.2925, 1.0775, 0.3925, 1.175, 0.49, 1.2725, 0.5875, 1.3725, 0.685, 0, 0.7825, 0.0975, 0.8825, 0.195, 0.98, 0.2925, 1.0775, 0.3925, 1.175, 0.49, 1.2725, 0.5875, 1.3725, 0.685, 0, 0.7825, 0.0975, 0.8825, 0.195, 0.98, 0.2925, 1.0775, 0.3925, 1.175, 0.49, 1.2725, 0.5875, 1.3725, 0.685, 0, 0.7825, 0.0975, 0.8825, 0.195, 0.98, 0.2925, 1.0775, 0.3925, 1.175, 0.49, 1.2725, 0.5875, 1.3725, 0.685],
  "SoftwareVersions": "syngo_MR_E11",
  "SpacingBetweenSlices": 2,
  "StationName": "MRC35049",
  "TaskName": "things",
  "TotalReadoutTime": 0.0576811,
  "TxRefAmp": 219.708,
  "WipMemBlock": "d93be887-696e-45ce-9ce0-6f4565688844||Sequence: R016 ve11c/master r/e634e98; Dec 19 2017 11:00:25 by eja",
  "dcmmeta_affine": [
    [-1.993072509765625, 0.16631215810775757, 0.001498678233474493, 99.3395767211914],
    [0.1587226837873459, 1.9073506593704224, -0.5803625583648682, -76.54573822021484],
    [0.04968992620706558, 0.5782333612442017, 1.9139429330825806, -69.35267639160156],
    [0.0, 0.0, 0.0, 1.0]
],
  "dcmmeta_reorient_transform": [
    [0.0, -1.0, 0.0, 103.0],
    [1.0, 0.0, 0.0, 0.0],
    [0.0, 0.0, 1.0, 0.0],
    [0.0, 0.0, 0.0, 1.0]
],
  "dcmmeta_shape": [104, 104, 60, 190],
  "dcmmeta_slice_dim": 2,
  "dcmmeta_version": 0.6,
  "global": {
    "const": {
      "AcquisitionMatrix": [104, 0, 0, 104],
      "AngioFlag": "N",
      "BitsAllocated": 16,
      "BitsStored": 16,
      "BodyPartExamined": "BRAIN",
      "Columns": 832,
      "EchoNumbers": 1,
      "EchoTime": 37.0,
      "EchoTrainLength": 104,
      "FlipAngle": 52.0,
      "HighBit": 15,
      "ImageOrientationPatient": [0.99653625361596, -0.0793613448636, 0.02484496267862, 0.08315608047511, 0.95367531759605, -0.2891166804044],
      "ImagePositionPatient": [-902.48574603527, -756.41194854949, 182.5951690014],
      "ImageType": [
        "ORIGINAL",
        "PRIMARY",
        "P",
        "MB",
        "ND",
        "MOSAIC"
],
      "ImagedNucleus": "1H",
      "ImagingFrequency": 123.258903,
      "InPlanePhaseEncodingDirection": "COL",
      "LargestImagePixelValue": 4095,
      "MRAcquisitionType": "2D",
      "MagneticFieldStrength": 3.0,
      "Manufacturer": "SIEMENS",
      "ManufacturerModelName": "Prisma_fit",
      "Modality": "MR",
      "NumberOfAverages": 1.0,
      "NumberOfPhaseEncodingSteps": 104,
      "PercentPhaseFieldOfView": 100.0,
      "PercentSampling": 100.0,
      "PerformedProcedureStepStartTime": "144933.854000",
      "PhotometricInterpretation": "MONOCHROME2",
      "PixelBandwidth": 2290.0,
      "PixelRepresentation": 0,
      "PixelSpacing": [2.0, 2.0],
      "ProtocolName": "func_task-things_run-1",
      "RepetitionTime": 1490.0,
      "RescaleIntercept": -4096.0,
      "RescaleSlope": 2.0,
      "RescaleType": "US",
      "Rows": 832,
      "SAR": 0.02888079789514,
      "SamplesPerPixel": 1,
      "ScanOptions": "FS",
      "ScanningSequence": "EP",
      "SequenceName": "epfid2d1_104",
      "SequenceVariant": [
        "SK",
        "SS"
],
      "SeriesDescription": "func_task-things_run-1",
      "SeriesNumber": 11,
      "SeriesTime": "151620.033000",
      "SliceLocation": -44.08195121972,
      "SliceThickness": 2.0,
      "SmallestImagePixelValue": 0,
      "SoftwareVersions": "syngo MR E11",
      "SpacingBetweenSlices": 2.0000000643711,
      "SpecificCharacterSet": "ISO_IR 100",
      "StudyID": "1",
      "StudyTime": "144933.768000",
      "TransmitCoilName": "Body",
      "VariableFlipAngleFlag": "N",
      "WindowCenterWidthExplanation": "Algo1",
      "dBdt": 0.0},
    "slices": {}
  },
  "time": {
    "samples": {
      "AcquisitionNumber": [1, 2, 3, 4, 5, 6, 7, 8, 9, 10, 11, 12, 13, 14, 15, 16, 17, 18, 19, 20, 21, 22, 23, 24, 25, 26, 27, 28, 29, 30, 31, 32, 33, 34, 35, 36, 37, 38, 39, 40, 41, 42, 43, 44, 45, 46, 47, 48, 49, 50, 51, 52, 53, 54, 55, 56, 57, 58, 59, 60, 61, 62, 63, 64, 65, 66, 67, 68, 69, 70, 71, 72, 73, 74, 75, 76, 77, 78, 79, 80, 81, 82, 83, 84, 85, 86, 87, 88, 89, 90, 91, 92, 93, 94, 95, 96, 97, 98, 99, 100, 101, 102, 103, 104, 105, 106, 107, 108, 109, 110, 111, 112, 113, 114, 115, 116, 117, 118, 119, 120, 121, 122, 123, 124, 125, 126, 127, 128, 129, 130, 131, 132, 133, 134, 135, 136, 137, 138, 139, 140, 141, 142, 143, 144, 145, 146, 147, 148, 149, 150, 151, 152, 153, 154, 155, 156, 157, 158, 159, 160, 161, 162, 163, 164, 165, 166, 167, 168, 169, 170, 171, 172, 173, 174, 175, 176, 177, 178, 179, 180, 181, 182, 183, 184, 185, 186, 187, 188, 189, 190],
      "AcquisitionTime": ["151457.447500", "151458.937500", "151500.427500", "151501.917500", "151503.407500", "151504.897500", "151506.387500", "151507.877500", "151509.367500", "151510.857500", "151512.347500", "151513.837500", "151515.327500", "151516.817500", "151518.307500", "151519.797500", "151521.287500", "151522.777500", "151524.267500", "151525.757500", "151527.247500", "151528.737500", "151530.227500", "151531.717500", "151533.207500", "151534.697500", "151536.187500", "151537.677500", "151539.167500", "151540.657500", "151542.147500", "151543.637500", "151545.127500", "151546.617500", "151548.107500", "151549.597500", "151551.087500", "151552.577500", "151554.067500", "151555.557500", "151557.047500", "151558.537500", "151600.027500", "151601.517500", "151603.007500", "151604.497500", "151605.987500", "151607.477500", "151608.967500", "151610.457500", "151611.947500", "151613.437500", "151614.927500", "151616.417500", "151617.907500", "151619.397500", "151620.887500", "151622.377500", "151623.867500", "151625.357500", "151626.847500", "151628.337500", "151629.827500", "151631.317500", "151632.807500", "151634.297500", "151635.787500", "151637.277500", "151638.767500", "151640.257500", "151641.747500", "151643.237500", "151644.727500", "151646.217500", "151647.707500", "151649.197500", "151650.687500", "151652.177500", "151653.667500", "151655.157500", "151656.647500", "151658.137500", "151659.627500", "151701.117500", "151702.607500", "151704.097500", "151705.587500", "151707.077500", "151708.567500", "151710.057500", "151711.547500", "151713.037500", "151714.527500", "151716.017500", "151717.507500", "151718.997500", "151720.487500", "151721.977500", "151723.467500", "151724.957500", "151726.447500", "151727.937500", "151729.427500", "151730.917500", "151732.407500", "151733.897500", "151735.387500", "151736.877500", "151738.367500", "151739.857500", "151741.347500", "151742.837500", "151744.327500", "151745.817500", "151747.307500", "151748.797500", "151750.287500", "151751.777500", "151753.267500", "151754.757500", "151756.247500", "151757.737500", "151759.227500", "151800.717500", "151802.207500", "151803.697500", "151805.187500", "151806.677500", "151808.167500", "151809.657500", "151811.147500", "151812.637500", "151814.127500", "151815.617500", "151817.107500", "151818.597500", "151820.087500", "151821.577500", "151823.067500", "151824.557500", "151826.047500", "151827.537500", "151829.027500", "151830.517500", "151832.007500", "151833.497500", "151834.987500", "151836.477500", "151837.967500", "151839.457500", "151840.947500", "151842.437500", "151843.927500", "151845.417500", "151846.907500", "151848.397500", "151849.887500", "151851.377500", "151852.867500", "151854.357500", "151855.847500", "151857.337500", "151858.827500", "151900.317500", "151901.807500", "151903.297500", "151904.787500", "151906.277500", "151907.767500", "151909.257500", "151910.747500", "151912.237500", "151913.727500", "151915.217500", "151916.707500", "151918.197500", "151919.687500", "151921.177500", "151922.667500", "151924.157500", "151925.647500", "151927.137500", "151928.627500", "151930.117500", "151931.607500", "151933.097500", "151934.587500", "151936.077500", "151937.567500", "151939.057500"],
      "ContentTime": ["151620.035000", "151620.047000", "151620.050000", "151620.052000", "151620.055000", "151620.057000", "151620.060000", "151620.062000", "151620.065000", "151620.067000", "151620.070000", "151620.072000", "151620.075000", "151620.077000", "151620.084000", "151620.087000", "151620.089000", "151620.092000", "151620.095000", "151620.097000", "151620.100000", "151620.102000", "151620.104000", "151620.107000", "151620.109000", "151620.112000", "151620.114000", "151620.117000", "151639.963000", "151639.966000", "151639.969000", "151639.971000", "151639.974000", "151639.976000", "151639.979000", "151639.981000", "151639.983000", "151639.986000", "151639.988000", "151639.991000", "151639.993000", "151639.996000", "151639.998000", "151640.002000", "151640.004000", "151640.007000", "151640.009000", "151640.011000", "151640.014000", "151659.956000", "151659.959000", "151659.962000", "151659.964000", "151659.966000", "151659.969000", "151659.971000", "151659.974000", "151659.976000", "151659.979000", "151659.981000", "151659.984000", "151659.986000", "151659.989000", "151659.991000", "151659.993000", "151659.996000", "151659.998000", "151700.002000", "151700.004000", "151719.955000", "151719.958000", "151719.961000", "151719.963000", "151719.966000", "151719.968000", "151719.970000", "151719.973000", "151719.975000", "151719.978000", "151719.980000", "151719.983000", "151719.985000", "151719.988000", "151719.990000", "151719.993000", "151719.995000", "151719.997000", "151720.001000", "151720.003000", "151759.998000", "151800.002000", "151800.004000", "151800.007000", "151800.009000", "151800.012000", "151800.014000", "151800.017000", "151800.019000", "151800.022000", "151800.024000", "151800.027000", "151800.029000", "151800.032000", "151800.034000", "151800.037000", "151800.039000", "151800.042000", "151800.044000", "151800.047000", "151800.049000", "151800.052000", "151800.054000", "151800.057000", "151800.059000", "151800.061000", "151800.064000", "151800.066000", "151800.069000", "151800.073000", "151800.075000", "151800.078000", "151839.989000", "151839.992000", "151839.994000", "151839.997000", "151840.000000", "151840.003000", "151840.005000", "151840.008000", "151840.010000", "151840.013000", "151840.015000", "151840.018000", "151840.020000", "151840.023000", "151840.025000", "151840.028000", "151840.030000", "151840.033000", "151840.035000", "151840.038000", "151840.040000", "151840.043000", "151840.045000", "151840.048000", "151840.050000", "151840.052000", "151840.055000", "151920.014000", "151920.017000", "151920.019000", "151920.022000", "151920.024000", "151920.027000", "151920.029000", "151920.032000", "151920.034000", "151920.036000", "151920.039000", "151920.042000", "151920.044000", "151920.047000", "151920.049000", "151920.052000", "151920.054000", "151920.056000", "151920.059000", "151920.061000", "151920.064000", "151920.066000", "151920.069000", "151920.071000", "151920.074000", "151920.076000", "151920.079000", "151941.700000", "151941.703000", "151941.706000", "151941.708000", "151941.711000", "151941.713000", "151941.716000", "151941.718000", "151941.721000", "151941.723000", "151941.726000", "151941.728000", "151941.731000", "151941.733000", "151941.736000"],
      "InstanceCreationTime": ["151620.035000", "151620.047000", "151620.050000", "151620.052000", "151620.055000", "151620.057000", "151620.060000", "151620.062000", "151620.065000", "151620.067000", "151620.070000", "151620.072000", "151620.075000", "151620.077000", "151620.084000", "151620.087000", "151620.089000", "151620.092000", "151620.095000", "151620.097000", "151620.100000", "151620.102000", "151620.104000", "151620.107000", "151620.109000", "151620.112000", "151620.114000", "151620.117000", "151639.963000", "151639.966000", "151639.969000", "151639.971000", "151639.974000", "151639.976000", "151639.979000", "151639.981000", "151639.983000", "151639.986000", "151639.988000", "151639.991000", "151639.993000", "151639.996000", "151639.998000", "151640.002000", "151640.004000", "151640.007000", "151640.009000", "151640.011000", "151640.014000", "151659.956000", "151659.959000", "151659.962000", "151659.964000", "151659.966000", "151659.969000", "151659.971000", "151659.974000", "151659.976000", "151659.979000", "151659.981000", "151659.984000", "151659.986000", "151659.989000", "151659.991000", "151659.993000", "151659.996000", "151659.998000", "151700.002000", "151700.004000", "151719.955000", "151719.958000", "151719.961000", "151719.963000", "151719.966000", "151719.968000", "151719.970000", "151719.973000", "151719.975000", "151719.978000", "151719.980000", "151719.983000", "151719.985000", "151719.988000", "151719.990000", "151719.993000", "151719.995000", "151719.997000", "151720.001000", "151720.003000", "151759.998000", "151800.002000", "151800.004000", "151800.007000", "151800.009000", "151800.012000", "151800.014000", "151800.017000", "151800.019000", "151800.022000", "151800.024000", "151800.027000", "151800.029000", "151800.032000", "151800.034000", "151800.037000", "151800.039000", "151800.042000", "151800.044000", "151800.047000", "151800.049000", "151800.052000", "151800.054000", "151800.057000", "151800.059000", "151800.061000", "151800.064000", "151800.066000", "151800.069000", "151800.073000", "151800.075000", "151800.078000", "151839.989000", "151839.992000", "151839.994000", "151839.997000", "151840.000000", "151840.003000", "151840.005000", "151840.008000", "151840.010000", "151840.013000", "151840.015000", "151840.018000", "151840.020000", "151840.023000", "151840.025000", "151840.028000", "151840.030000", "151840.033000", "151840.035000", "151840.038000", "151840.040000", "151840.043000", "151840.045000", "151840.048000", "151840.050000", "151840.052000", "151840.055000", "151920.014000", "151920.017000", "151920.019000", "151920.022000", "151920.024000", "151920.027000", "151920.029000", "151920.032000", "151920.034000", "151920.036000", "151920.039000", "151920.042000", "151920.044000", "151920.047000", "151920.049000", "151920.052000", "151920.054000", "151920.056000", "151920.059000", "151920.061000", "151920.064000", "151920.066000", "151920.069000", "151920.071000", "151920.074000", "151920.076000", "151920.079000", "151941.700000", "151941.703000", "151941.706000", "151941.708000", "151941.711000", "151941.713000", "151941.716000", "151941.718000", "151941.721000", "151941.723000", "151941.726000", "151941.728000", "151941.731000", "151941.733000", "151941.736000"],
      "InstanceNumber": [1, 2, 3, 4, 5, 6, 7, 8, 9, 10, 11, 12, 13, 14, 15, 16, 17, 18, 19, 20, 21, 22, 23, 24, 25, 26, 27, 28, 29, 30, 31, 32, 33, 34, 35, 36, 37, 38, 39, 40, 41, 42, 43, 44, 45, 46, 47, 48, 49, 50, 51, 52, 53, 54, 55, 56, 57, 58, 59, 60, 61, 62, 63, 64, 65, 66, 67, 68, 69, 70, 71, 72, 73, 74, 75, 76, 77, 78, 79, 80, 81, 82, 83, 84, 85, 86, 87, 88, 89, 90, 91, 92, 93, 94, 95, 96, 97, 98, 99, 100, 101, 102, 103, 104, 105, 106, 107, 108, 109, 110, 111, 112, 113, 114, 115, 116, 117, 118, 119, 120, 121, 122, 123, 124, 125, 126, 127, 128, 129, 130, 131, 132, 133, 134, 135, 136, 137, 138, 139, 140, 141, 142, 143, 144, 145, 146, 147, 148, 149, 150, 151, 152, 153, 154, 155, 156, 157, 158, 159, 160, 161, 162, 163, 164, 165, 166, 167, 168, 169, 170, 171, 172, 173, 174, 175, 176, 177, 178, 179, 180, 181, 182, 183, 184, 185, 186, 187, 188, 189, 190],
      "WindowCenter": [4834.0, 4832.0, 4832.0, 4832.0, 4834.0, 4884.0, 4862.0, 4836.0, 4828.0, 4832.0, 4836.0, 4834.0, 4862.0, 4860.0, 4834.0, 4834.0, 4832.0, 4882.0, 4860.0, 4804.0, 4830.0, 4832.0, 4858.0, 4836.0, 4830.0, 4858.0, 4836.0, 4830.0, 4862.0, 4836.0, 4830.0, 4834.0, 4832.0, 4836.0, 4886.0, 4864.0, 4834.0, 4864.0, 4834.0, 4830.0, 4860.0, 4836.0, 4830.0, 4834.0, 4860.0, 4832.0, 4834.0, 4856.0, 4832.0, 4830.0, 4834.0, 4834.0, 4884.0, 4856.0, 4830.0, 4836.0, 4858.0, 4832.0, 4836.0, 4858.0, 4834.0, 4834.0, 4832.0, 4882.0, 4884.0, 4856.0, 4826.0, 4806.0, 4826.0, 4830.0, 4834.0, 4834.0, 4860.0, 4906.0, 4908.0, 4854.0, 4832.0, 4834.0, 4828.0, 4828.0, 4860.0, 4856.0, 4860.0, 4882.0, 4858.0, 4858.0, 4904.0, 4912.0, 4860.0, 4796.0, 4794.0, 4798.0, 4824.0, 4832.0, 4858.0, 4882.0, 4886.0, 4882.0, 4884.0, 4904.0, 4836.0, 4826.0, 4824.0, 4800.0, 4826.0, 4834.0, 4888.0, 4882.0, 4858.0, 4832.0, 4864.0, 4836.0, 4832.0, 4834.0, 4832.0, 4836.0, 4858.0, 4832.0, 4858.0, 4860.0, 4856.0, 4854.0, 4910.0, 4858.0, 4828.0, 4802.0, 4802.0, 4834.0, 4834.0, 4856.0, 4834.0, 4858.0, 4908.0, 4884.0, 4828.0, 4808.0, 4826.0, 4832.0, 4834.0, 4826.0, 4856.0, 4862.0, 4854.0, 4832.0, 4856.0, 4858.0, 4836.0, 4828.0, 4834.0, 4834.0, 4832.0, 4858.0, 4858.0, 4836.0, 4856.0, 4858.0, 4832.0, 4834.0, 4852.0, 4834.0, 4834.0, 4856.0, 4830.0, 4856.0, 4860.0, 4832.0, 4830.0, 4828.0, 4856.0, 4860.0, 4834.0, 4834.0, 4882.0, 4910.0, 4856.0, 4824.0, 4826.0, 4830.0, 4832.0, 4832.0, 4858.0, 4856.0, 4886.0, 4884.0, 4858.0, 4828.0, 4826.0, 4826.0, 4826.0, 4830.0],
      "WindowWidth": [18576.0, 18580.0, 18576.0, 18580.0, 18582.0, 18646.0, 18616.0, 18580.0, 18572.0, 18578.0, 18584.0, 18580.0, 18618.0, 18610.0, 18576.0, 18582.0, 18578.0, 18650.0, 18608.0, 18542.0, 18574.0, 18580.0, 18620.0, 18584.0, 18582.0, 18608.0, 18580.0, 18576.0, 18616.0, 18572.0, 18582.0, 18580.0, 18580.0, 18584.0, 18654.0, 18612.0, 18576.0, 18614.0, 18580.0, 18578.0, 18614.0, 18580.0, 18576.0, 18582.0, 18616.0, 18574.0, 18574.0, 18608.0, 18574.0, 18578.0, 18580.0, 18582.0, 18650.0, 18606.0, 18576.0, 18580.0, 18612.0, 18578.0, 18580.0, 18612.0, 18580.0, 18576.0, 18578.0, 18658.0, 18660.0, 18606.0, 18578.0, 18552.0, 18580.0, 18580.0, 18580.0, 18582.0, 18610.0, 18700.0, 18702.0, 18602.0, 18578.0, 18578.0, 18576.0, 18580.0, 18612.0, 18608.0, 18610.0, 18650.0, 18610.0, 18616.0, 18706.0, 18702.0, 18616.0, 18548.0, 18554.0, 18558.0, 18578.0, 18574.0, 18614.0, 18652.0, 18660.0, 18654.0, 18654.0, 18692.0, 18580.0, 18576.0, 18576.0, 18552.0, 18582.0, 18578.0, 18658.0, 18656.0, 18618.0, 18578.0, 18618.0, 18582.0, 18580.0, 18582.0, 18582.0, 18580.0, 18612.0, 18580.0, 18612.0, 18616.0, 18614.0, 18612.0, 18698.0, 18614.0, 18574.0, 18556.0, 18544.0, 18576.0, 18578.0, 18608.0, 18584.0, 18612.0, 18700.0, 18648.0, 18572.0, 18550.0, 18578.0, 18580.0, 18578.0, 18574.0, 18610.0, 18620.0, 18610.0, 18576.0, 18614.0, 18616.0, 18578.0, 18576.0, 18582.0, 18578.0, 18578.0, 18610.0, 18612.0, 18582.0, 18610.0, 18616.0, 18576.0, 18578.0, 18608.0, 18576.0, 18580.0, 18610.0, 18572.0, 18610.0, 18612.0, 18574.0, 18580.0, 18574.0, 18614.0, 18614.0, 18584.0, 18576.0, 18650.0, 18700.0, 18612.0, 18574.0, 18578.0, 18576.0, 18578.0, 18580.0, 18606.0, 18606.0, 18660.0, 18654.0, 18606.0, 18574.0, 18576.0, 18574.0, 18582.0, 18576.0]
    },
    "slices": {}
  }
}