{
  "AcquisitionMatrixPE": 104,
  "AcquisitionNumber": 1,
  "AcquisitionTime": "15:41:0.665000",
  "BandwidthPerPixelPhaseEncode": 17.17,
  "BaseResolution": 104,
  "BodyPartExamined": "BRAIN",
  "CoilString": "HC1-7;NC1_2",
  "ConsistencyInfo": "N4_VE11C_LATEST_20160120",
  "ConversionSoftware": "dcm2niix",
  "ConversionSoftwareVersion": "v1.0.20190902",
  "DerivedVendorReportedEchoSpacing": 0.000560011,
  "DeviceSerialNumber": "167006",
  "DwellTime": 2.1e-06,
  "EchoTime": 0.037,
  "EchoTrainLength": 104,
  "EffectiveEchoSpacing": 0.000560011,
  "FlipAngle": 52,
  "ImageComments": "Unaliased_MB4_PE3_LB",
  "ImageOrientationPatientDICOM": [0.996536, -0.0793613, 0.024845, 0.0831561, 0.953675, -0.289117],
  "ImageType": [
    "ORIGINAL",
    "PRIMARY",
    "P",
    "MB",
    "ND",
    "MOSAIC"
],
  "ImagingFrequency": 123.259,
  "InPlanePhaseEncodingDirectionDICOM": "COL",
  "InstitutionAddress": "Chemin_Queen-Mary_4565_Montreal_District_CA_H3W_1W5",
  "InstitutionName": "IUGM",
  "InstitutionalDepartmentName": "Department",
  "MRAcquisitionType": "2D",
  "MagneticFieldStrength": 3,
  "Manufacturer": "Siemens",
  "ManufacturersModelName": "Prisma_fit",
  "Modality": "MR",
  "MultibandAccelerationFactor": 4,
  "PartialFourier": 1,
  "PatientPosition": "HFS",
  "PercentPhaseFOV": 100,
  "PhaseEncodingDirection": "j",
  "PhaseEncodingSteps": 104,
  "PhaseResolution": 1,
  "PixelBandwidth": 2290,
  "ProcedureStepDescription": "memory_things",
  "ProtocolName": "func_task-things_run-5",
  "PulseSequenceDetails": "%CustomerSeq%_cmrr_mbep2d_bold",
  "ReceiveCoilActiveElements": "HC1-7;NC1,2",
  "ReceiveCoilName": "HeadNeck_64",
  "ReconMatrixPE": 104,
  "RepetitionTime": 1.49,
  "SAR": 0.0288808,
  "ScanOptions": "FS",
  "ScanningSequence": "EP",
  "SequenceName": "epfid2d1_104",
  "SequenceVariant": "SK_SS",
  "SeriesDescription": "func_task-things_run-5",
  "SeriesNumber": 23,
  "ShimSetting": [628, -7246, -8841, 571, 5, -185, -24, -13],
  "SliceThickness": 2,
  "SliceTiming": [0, 0.785, 0.0975, 0.8825, 0.1975, 0.98, 0.295, 1.0775, 0.3925, 1.1775, 0.49, 1.275, 0.5875, 1.3725, 0.6875, 0, 0.785, 0.0975, 0.8825, 0.1975, 0.98, 0.295, 1.0775, 0.3925, 1.1775, 0.49, 1.275, 0.5875, 1.3725, 0.6875, 0, 0.785, 0.0975, 0.8825, 0.1975, 0.98, 0.295, 1.0775, 0.3925, 1.1775, 0.49, 1.275, 0.5875, 1.3725, 0.6875, 0, 0.785, 0.0975, 0.8825, 0.1975, 0.98, 0.295, 1.0775, 0.3925, 1.1775, 0.49, 1.275, 0.5875, 1.3725, 0.6875],
  "SoftwareVersions": "syngo_MR_E11",
  "SpacingBetweenSlices": 2,
  "StationName": "MRC35049",
  "TaskName": "things",
  "TotalReadoutTime": 0.0576811,
  "TxRefAmp": 219.708,
  "WipMemBlock": "6cea1dd2-8544-47a6-b483-8f5927a0b2a2||Sequence: R016 ve11c/master r/e634e98; Dec 19 2017 11:00:25 by eja",
  "dcmmeta_affine": [
    [-1.993072509765625, 0.16631215810775757, 0.001498678233474493, 99.3395767211914],
    [0.1587226837873459, 1.9073506593704224, -0.5803625583648682, -76.54573822021484],
    [0.04968992620706558, 0.5782333612442017, 1.9139429330825806, -69.35267639160156],
    [0.0, 0.0, 0.0, 1.0]
],
  "dcmmeta_reorient_transform": [
    [0.0, -1.0, 0.0, 103.0],
    [1.0, 0.0, 0.0, 0.0],
    [0.0, 0.0, 1.0, 0.0],
    [0.0, 0.0, 0.0, 1.0]
],
  "dcmmeta_shape": [104, 104, 60, 190],
  "dcmmeta_slice_dim": 2,
  "dcmmeta_version": 0.6,
  "global": {
    "const": {
      "AcquisitionMatrix": [104, 0, 0, 104],
      "AngioFlag": "N",
      "BitsAllocated": 16,
      "BitsStored": 16,
      "BodyPartExamined": "BRAIN",
      "Columns": 832,
      "EchoNumbers": 1,
      "EchoTime": 37.0,
      "EchoTrainLength": 104,
      "FlipAngle": 52.0,
      "HighBit": 15,
      "ImageOrientationPatient": [0.99653625361596, -0.0793613448636, 0.02484496267862, 0.08315608047511, 0.95367531759605, -0.2891166804044],
      "ImagePositionPatient": [-902.48574603527, -756.41194854949, 182.5951690014],
      "ImageType": [
        "ORIGINAL",
        "PRIMARY",
        "P",
        "MB",
        "ND",
        "MOSAIC"
],
      "ImagedNucleus": "1H",
      "ImagingFrequency": 123.258912,
      "InPlanePhaseEncodingDirection": "COL",
      "LargestImagePixelValue": 4095,
      "MRAcquisitionType": "2D",
      "MagneticFieldStrength": 3.0,
      "Manufacturer": "SIEMENS",
      "ManufacturerModelName": "Prisma_fit",
      "Modality": "MR",
      "NumberOfAverages": 1.0,
      "NumberOfPhaseEncodingSteps": 104,
      "PercentPhaseFieldOfView": 100.0,
      "PercentSampling": 100.0,
      "PerformedProcedureStepStartTime": "144933.854000",
      "PhotometricInterpretation": "MONOCHROME2",
      "PixelBandwidth": 2290.0,
      "PixelRepresentation": 0,
      "PixelSpacing": [2.0, 2.0],
      "ProtocolName": "func_task-things_run-5",
      "RepetitionTime": 1490.0,
      "RescaleIntercept": -4096.0,
      "RescaleSlope": 2.0,
      "RescaleType": "US",
      "Rows": 832,
      "SAR": 0.02888079789514,
      "SamplesPerPixel": 1,
      "ScanOptions": "FS",
      "ScanningSequence": "EP",
      "SequenceName": "epfid2d1_104",
      "SequenceVariant": [
        "SK",
        "SS"
],
      "SeriesDescription": "func_task-things_run-5",
      "SeriesNumber": 23,
      "SeriesTime": "154215.377000",
      "SliceLocation": -44.08195121972,
      "SliceThickness": 2.0,
      "SmallestImagePixelValue": 0,
      "SoftwareVersions": "syngo MR E11",
      "SpacingBetweenSlices": 2.0000000643711,
      "SpecificCharacterSet": "ISO_IR 100",
      "StudyID": "1",
      "StudyTime": "144933.768000",
      "TransmitCoilName": "Body",
      "VariableFlipAngleFlag": "N",
      "WindowCenterWidthExplanation": "Algo1",
      "dBdt": 0.0},
    "slices": {}
  },
  "time": {
    "samples": {
      "AcquisitionNumber": [1, 2, 3, 4, 5, 6, 7, 8, 9, 10, 11, 12, 13, 14, 15, 16, 17, 18, 19, 20, 21, 22, 23, 24, 25, 26, 27, 28, 29, 30, 31, 32, 33, 34, 35, 36, 37, 38, 39, 40, 41, 42, 43, 44, 45, 46, 47, 48, 49, 50, 51, 52, 53, 54, 55, 56, 57, 58, 59, 60, 61, 62, 63, 64, 65, 66, 67, 68, 69, 70, 71, 72, 73, 74, 75, 76, 77, 78, 79, 80, 81, 82, 83, 84, 85, 86, 87, 88, 89, 90, 91, 92, 93, 94, 95, 96, 97, 98, 99, 100, 101, 102, 103, 104, 105, 106, 107, 108, 109, 110, 111, 112, 113, 114, 115, 116, 117, 118, 119, 120, 121, 122, 123, 124, 125, 126, 127, 128, 129, 130, 131, 132, 133, 134, 135, 136, 137, 138, 139, 140, 141, 142, 143, 144, 145, 146, 147, 148, 149, 150, 151, 152, 153, 154, 155, 156, 157, 158, 159, 160, 161, 162, 163, 164, 165, 166, 167, 168, 169, 170, 171, 172, 173, 174, 175, 176, 177, 178, 179, 180, 181, 182, 183, 184, 185, 186, 187, 188, 189, 190],
      "AcquisitionTime": ["154100.665000", "154102.155000", "154103.645000", "154105.135000", "154106.625000", "154108.115000", "154109.605000", "154111.095000", "154112.585000", "154114.075000", "154115.565000", "154117.055000", "154118.545000", "154120.035000", "154121.525000", "154123.015000", "154124.505000", "154125.995000", "154127.485000", "154128.975000", "154130.465000", "154131.955000", "154133.445000", "154134.935000", "154136.425000", "154137.915000", "154139.405000", "154140.895000", "154142.385000", "154143.875000", "154145.365000", "154146.855000", "154148.345000", "154149.835000", "154151.325000", "154152.815000", "154154.305000", "154155.795000", "154157.285000", "154158.775000", "154200.265000", "154201.755000", "154203.245000", "154204.735000", "154206.225000", "154207.715000", "154209.205000", "154210.695000", "154212.185000", "154213.675000", "154215.165000", "154216.655000", "154218.145000", "154219.635000", "154221.125000", "154222.615000", "154224.105000", "154225.595000", "154227.085000", "154228.575000", "154230.065000", "154231.555000", "154233.045000", "154234.535000", "154236.025000", "154237.515000", "154239.005000", "154240.495000", "154241.985000", "154243.475000", "154244.965000", "154246.455000", "154247.945000", "154249.435000", "154250.925000", "154252.415000", "154253.905000", "154255.395000", "154256.885000", "154258.375000", "154259.865000", "154301.355000", "154302.845000", "154304.335000", "154305.825000", "154307.315000", "154308.805000", "154310.295000", "154311.785000", "154313.275000", "154314.765000", "154316.255000", "154317.745000", "154319.235000", "154320.725000", "154322.215000", "154323.705000", "154325.195000", "154326.685000", "154328.175000", "154329.665000", "154331.155000", "154332.645000", "154334.135000", "154335.625000", "154337.115000", "154338.605000", "154340.095000", "154341.585000", "154343.075000", "154344.565000", "154346.055000", "154347.545000", "154349.035000", "154350.525000", "154352.015000", "154353.505000", "154354.995000", "154356.485000", "154357.975000", "154359.465000", "154400.955000", "154402.445000", "154403.935000", "154405.425000", "154406.915000", "154408.405000", "154409.895000", "154411.385000", "154412.875000", "154414.365000", "154415.855000", "154417.345000", "154418.835000", "154420.325000", "154421.815000", "154423.305000", "154424.795000", "154426.285000", "154427.775000", "154429.265000", "154430.755000", "154432.245000", "154433.735000", "154435.225000", "154436.715000", "154438.205000", "154439.695000", "154441.185000", "154442.675000", "154444.165000", "154445.655000", "154447.145000", "154448.635000", "154450.125000", "154451.615000", "154453.105000", "154454.595000", "154456.085000", "154457.575000", "154459.065000", "154500.555000", "154502.045000", "154503.535000", "154505.025000", "154506.515000", "154508.005000", "154509.495000", "154510.985000", "154512.475000", "154513.965000", "154515.455000", "154516.945000", "154518.435000", "154519.925000", "154521.415000", "154522.905000", "154524.395000", "154525.885000", "154527.375000", "154528.865000", "154530.355000", "154531.845000", "154533.335000", "154534.825000", "154536.315000", "154537.805000", "154539.295000", "154540.785000", "154542.275000"],
      "ContentTime": ["154215.379000", "154215.382000", "154215.384000", "154215.387000", "154215.389000", "154215.392000", "154215.394000", "154215.397000", "154215.399000", "154215.401000", "154215.404000", "154215.406000", "154215.409000", "154215.411000", "154215.414000", "154215.416000", "154215.419000", "154215.421000", "154215.424000", "154215.426000", "154235.348000", "154235.351000", "154235.353000", "154235.356000", "154235.358000", "154235.361000", "154235.363000", "154235.366000", "154235.368000", "154235.371000", "154235.373000", "154235.376000", "154235.378000", "154235.380000", "154235.383000", "154235.385000", "154235.388000", "154235.390000", "154235.393000", "154235.395000", "154255.375000", "154255.378000", "154255.381000", "154255.383000", "154255.385000", "154255.388000", "154255.390000", "154255.393000", "154255.395000", "154255.398000", "154255.400000", "154255.403000", "154255.405000", "154255.408000", "154255.410000", "154255.412000", "154255.415000", "154255.417000", "154255.420000", "154255.422000", "154315.340000", "154315.343000", "154315.346000", "154315.348000", "154315.350000", "154315.353000", "154315.355000", "154315.358000", "154315.361000", "154315.363000", "154315.365000", "154315.368000", "154315.370000", "154315.373000", "154315.375000", "154315.378000", "154315.380000", "154315.383000", "154315.385000", "154315.387000", "154315.390000", "154335.333000", "154335.336000", "154335.339000", "154335.341000", "154335.344000", "154335.346000", "154335.349000", "154335.351000", "154335.354000", "154335.356000", "154335.358000", "154335.361000", "154335.363000", "154335.366000", "154335.368000", "154335.371000", "154335.373000", "154335.376000", "154335.378000", "154335.381000", "154415.382000", "154415.385000", "154415.388000", "154415.390000", "154415.393000", "154415.395000", "154415.397000", "154415.400000", "154415.402000", "154415.405000", "154415.407000", "154415.410000", "154415.412000", "154415.421000", "154415.423000", "154415.426000", "154415.428000", "154415.431000", "154415.433000", "154415.436000", "154415.438000", "154415.441000", "154415.443000", "154415.446000", "154415.448000", "154415.451000", "154415.453000", "154415.455000", "154415.458000", "154455.417000", "154455.420000", "154455.422000", "154455.425000", "154455.427000", "154455.430000", "154455.432000", "154455.434000", "154455.437000", "154455.439000", "154455.442000", "154455.444000", "154455.447000", "154455.449000", "154455.452000", "154455.454000", "154455.457000", "154455.459000", "154455.462000", "154455.464000", "154455.467000", "154455.469000", "154455.472000", "154455.474000", "154455.477000", "154455.479000", "154455.482000", "154535.367000", "154535.370000", "154535.372000", "154535.375000", "154535.377000", "154535.380000", "154535.382000", "154535.385000", "154535.387000", "154535.390000", "154535.392000", "154535.395000", "154535.397000", "154535.400000", "154535.402000", "154535.405000", "154535.407000", "154535.410000", "154535.412000", "154535.415000", "154535.417000", "154535.420000", "154535.423000", "154535.425000", "154535.428000", "154535.430000", "154535.433000", "154544.137000", "154544.139000", "154544.142000", "154544.145000", "154544.148000", "154544.150000"],
      "InstanceCreationTime": ["154215.379000", "154215.382000", "154215.384000", "154215.387000", "154215.389000", "154215.392000", "154215.394000", "154215.397000", "154215.399000", "154215.401000", "154215.404000", "154215.406000", "154215.409000", "154215.411000", "154215.414000", "154215.416000", "154215.419000", "154215.421000", "154215.424000", "154215.426000", "154235.348000", "154235.351000", "154235.353000", "154235.356000", "154235.358000", "154235.361000", "154235.363000", "154235.366000", "154235.368000", "154235.371000", "154235.373000", "154235.376000", "154235.378000", "154235.380000", "154235.383000", "154235.385000", "154235.388000", "154235.390000", "154235.393000", "154235.395000", "154255.375000", "154255.378000", "154255.381000", "154255.383000", "154255.385000", "154255.388000", "154255.390000", "154255.393000", "154255.395000", "154255.398000", "154255.400000", "154255.403000", "154255.405000", "154255.408000", "154255.410000", "154255.412000", "154255.415000", "154255.417000", "154255.420000", "154255.422000", "154315.340000", "154315.343000", "154315.346000", "154315.348000", "154315.350000", "154315.353000", "154315.355000", "154315.358000", "154315.361000", "154315.363000", "154315.365000", "154315.368000", "154315.370000", "154315.373000", "154315.375000", "154315.378000", "154315.380000", "154315.383000", "154315.385000", "154315.387000", "154315.390000", "154335.333000", "154335.336000", "154335.339000", "154335.341000", "154335.344000", "154335.346000", "154335.349000", "154335.351000", "154335.354000", "154335.356000", "154335.358000", "154335.361000", "154335.363000", "154335.366000", "154335.368000", "154335.371000", "154335.373000", "154335.376000", "154335.378000", "154335.381000", "154415.382000", "154415.385000", "154415.388000", "154415.390000", "154415.393000", "154415.395000", "154415.397000", "154415.400000", "154415.402000", "154415.405000", "154415.407000", "154415.410000", "154415.412000", "154415.421000", "154415.423000", "154415.426000", "154415.428000", "154415.431000", "154415.433000", "154415.436000", "154415.438000", "154415.441000", "154415.443000", "154415.446000", "154415.448000", "154415.451000", "154415.453000", "154415.455000", "154415.458000", "154455.417000", "154455.420000", "154455.422000", "154455.425000", "154455.427000", "154455.430000", "154455.432000", "154455.434000", "154455.437000", "154455.439000", "154455.442000", "154455.444000", "154455.447000", "154455.449000", "154455.452000", "154455.454000", "154455.457000", "154455.459000", "154455.462000", "154455.464000", "154455.467000", "154455.469000", "154455.472000", "154455.474000", "154455.477000", "154455.479000", "154455.482000", "154535.367000", "154535.370000", "154535.372000", "154535.375000", "154535.377000", "154535.380000", "154535.382000", "154535.385000", "154535.387000", "154535.390000", "154535.392000", "154535.395000", "154535.397000", "154535.400000", "154535.402000", "154535.405000", "154535.407000", "154535.410000", "154535.412000", "154535.415000", "154535.417000", "154535.420000", "154535.423000", "154535.425000", "154535.428000", "154535.430000", "154535.433000", "154544.137000", "154544.139000", "154544.142000", "154544.145000", "154544.148000", "154544.150000"],
      "InstanceNumber": [1, 2, 3, 4, 5, 6, 7, 8, 9, 10, 11, 12, 13, 14, 15, 16, 17, 18, 19, 20, 21, 22, 23, 24, 25, 26, 27, 28, 29, 30, 31, 32, 33, 34, 35, 36, 37, 38, 39, 40, 41, 42, 43, 44, 45, 46, 47, 48, 49, 50, 51, 52, 53, 54, 55, 56, 57, 58, 59, 60, 61, 62, 63, 64, 65, 66, 67, 68, 69, 70, 71, 72, 73, 74, 75, 76, 77, 78, 79, 80, 81, 82, 83, 84, 85, 86, 87, 88, 89, 90, 91, 92, 93, 94, 95, 96, 97, 98, 99, 100, 101, 102, 103, 104, 105, 106, 107, 108, 109, 110, 111, 112, 113, 114, 115, 116, 117, 118, 119, 120, 121, 122, 123, 124, 125, 126, 127, 128, 129, 130, 131, 132, 133, 134, 135, 136, 137, 138, 139, 140, 141, 142, 143, 144, 145, 146, 147, 148, 149, 150, 151, 152, 153, 154, 155, 156, 157, 158, 159, 160, 161, 162, 163, 164, 165, 166, 167, 168, 169, 170, 171, 172, 173, 174, 175, 176, 177, 178, 179, 180, 181, 182, 183, 184, 185, 186, 187, 188, 189, 190],
      "WindowCenter": [4910.0, 4910.0, 4908.0, 4910.0, 4904.0, 4914.0, 4890.0, 4886.0, 4914.0, 4892.0, 4886.0, 4912.0, 4912.0, 4908.0, 4898.0, 4902.0, 4890.0, 4862.0, 4888.0, 4864.0, 4886.0, 4910.0, 4910.0, 4906.0, 4910.0, 4910.0, 4910.0, 4912.0, 4888.0, 4912.0, 4896.0, 4902.0, 4866.0, 4914.0, 4890.0, 4892.0, 4888.0, 4890.0, 4910.0, 4908.0, 4908.0, 4910.0, 4910.0, 4912.0, 4886.0, 4908.0, 4912.0, 4890.0, 4890.0, 4910.0, 4886.0, 4910.0, 4908.0, 4908.0, 4912.0, 4910.0, 4908.0, 4910.0, 4886.0, 4910.0, 4888.0, 4908.0, 4886.0, 4910.0, 4912.0, 4910.0, 4906.0, 4906.0, 4912.0, 4910.0, 4884.0, 4906.0, 4886.0, 4884.0, 4896.0, 4908.0, 4886.0, 4884.0, 4860.0, 4884.0, 4904.0, 4912.0, 4870.0, 4822.0, 4870.0, 4916.0, 4842.0, 4842.0, 4866.0, 4888.0, 4912.0, 4908.0, 4908.0, 4834.0, 4902.0, 4908.0, 4914.0, 4864.0, 4840.0, 4862.0, 4910.0, 4910.0, 4910.0, 4910.0, 4906.0, 4908.0, 4910.0, 4912.0, 4910.0, 4886.0, 4888.0, 4886.0, 4908.0, 4906.0, 4908.0, 4910.0, 4902.0, 4910.0, 4886.0, 4884.0, 4910.0, 4908.0, 4894.0, 4906.0, 4912.0, 4884.0, 4910.0, 4908.0, 4910.0, 4908.0, 4886.0, 4906.0, 4908.0, 4910.0, 4908.0, 4884.0, 4908.0, 4908.0, 4910.0, 4908.0, 4908.0, 4910.0, 4908.0, 4890.0, 4902.0, 4912.0, 4888.0, 4884.0, 4858.0, 4906.0, 4896.0, 4898.0, 4798.0, 4834.0, 4876.0, 4892.0, 4808.0, 4806.0, 4836.0, 4912.0, 4904.0, 4900.0, 4898.0, 4928.0, 4910.0, 4910.0, 4912.0, 4894.0, 4866.0, 4864.0, 4866.0, 4886.0, 4930.0, 4908.0, 4912.0, 4908.0, 4912.0, 4886.0, 4886.0, 4886.0, 4888.0, 4888.0, 4906.0, 4910.0, 4912.0, 4914.0, 4888.0, 4910.0, 4888.0, 4886.0],
      "WindowWidth": [18692.0, 18690.0, 18696.0, 18692.0, 18712.0, 18704.0, 18654.0, 18652.0, 18692.0, 18654.0, 18658.0, 18712.0, 18700.0, 18696.0, 18716.0, 18704.0, 18656.0, 18610.0, 18648.0, 18610.0, 18652.0, 18696.0, 18690.0, 18702.0, 18712.0, 18700.0, 18700.0, 18686.0, 18650.0, 18692.0, 18652.0, 18706.0, 18666.0, 18698.0, 18644.0, 18658.0, 18648.0, 18656.0, 18694.0, 18688.0, 18704.0, 18704.0, 18696.0, 18700.0, 18656.0, 18698.0, 18698.0, 18654.0, 18652.0, 18690.0, 18648.0, 18696.0, 18692.0, 18690.0, 18706.0, 18686.0, 18690.0, 18696.0, 18654.0, 18692.0, 18648.0, 18692.0, 18658.0, 18690.0, 18696.0, 18688.0, 18712.0, 18696.0, 18696.0, 18702.0, 18656.0, 18694.0, 18660.0, 18672.0, 18714.0, 18714.0, 18664.0, 18650.0, 18622.0, 18658.0, 18702.0, 18700.0, 18672.0, 18626.0, 18664.0, 18688.0, 18578.0, 18580.0, 18606.0, 18648.0, 18694.0, 18712.0, 18720.0, 18644.0, 18714.0, 18708.0, 18702.0, 18616.0, 18582.0, 18616.0, 18696.0, 18692.0, 18696.0, 18708.0, 18708.0, 18704.0, 18696.0, 18698.0, 18690.0, 18656.0, 18660.0, 18656.0, 18702.0, 18696.0, 18688.0, 18690.0, 18718.0, 18708.0, 18656.0, 18650.0, 18698.0, 18690.0, 18710.0, 18712.0, 18698.0, 18658.0, 18688.0, 18698.0, 18696.0, 18698.0, 18662.0, 18688.0, 18706.0, 18708.0, 18696.0, 18662.0, 18692.0, 18708.0, 18702.0, 18714.0, 18698.0, 18698.0, 18698.0, 18662.0, 18712.0, 18692.0, 18654.0, 18658.0, 18616.0, 18694.0, 18718.0, 18712.0, 18606.0, 18630.0, 18668.0, 18652.0, 18534.0, 18540.0, 18570.0, 18686.0, 18714.0, 18714.0, 18714.0, 18742.0, 18708.0, 18702.0, 18704.0, 18654.0, 18620.0, 18612.0, 18614.0, 18652.0, 18748.0, 18704.0, 18702.0, 18710.0, 18700.0, 18654.0, 18654.0, 18652.0, 18654.0, 18652.0, 18708.0, 18694.0, 18690.0, 18696.0, 18658.0, 18692.0, 18658.0, 18654.0]
    },
    "slices": {}
  }
}