{
  "AcquisitionMatrixPE": 104,
  "AcquisitionNumber": 1,
  "AcquisitionTime": "15:34:11.080000",
  "BandwidthPerPixelPhaseEncode": 17.17,
  "BaseResolution": 104,
  "BodyPartExamined": "BRAIN",
  "CoilString": "HC1-7;NC1_2",
  "ConsistencyInfo": "N4_VE11C_LATEST_20160120",
  "ConversionSoftware": "dcm2niix",
  "ConversionSoftwareVersion": "v1.0.20190902",
  "DerivedVendorReportedEchoSpacing": 0.000560011,
  "DeviceSerialNumber": "167006",
  "DwellTime": 2.1e-06,
  "EchoTime": 0.037,
  "EchoTrainLength": 104,
  "EffectiveEchoSpacing": 0.000560011,
  "FlipAngle": 52,
  "ImageComments": "Unaliased_MB4_PE3_LB",
  "ImageOrientationPatientDICOM": [0.996536, -0.0793613, 0.024845, 0.0831561, 0.953675, -0.289117],
  "ImageType": [
    "ORIGINAL",
    "PRIMARY",
    "P",
    "MB",
    "ND",
    "MOSAIC"
],
  "ImagingFrequency": 123.259,
  "InPlanePhaseEncodingDirectionDICOM": "COL",
  "InstitutionAddress": "Chemin_Queen-Mary_4565_Montreal_District_CA_H3W_1W5",
  "InstitutionName": "IUGM",
  "InstitutionalDepartmentName": "Department",
  "MRAcquisitionType": "2D",
  "MagneticFieldStrength": 3,
  "Manufacturer": "Siemens",
  "ManufacturersModelName": "Prisma_fit",
  "Modality": "MR",
  "MultibandAccelerationFactor": 4,
  "PartialFourier": 1,
  "PatientPosition": "HFS",
  "PercentPhaseFOV": 100,
  "PhaseEncodingDirection": "j",
  "PhaseEncodingSteps": 104,
  "PhaseResolution": 1,
  "PixelBandwidth": 2290,
  "ProcedureStepDescription": "memory_things",
  "ProtocolName": "func_task-things_run-4",
  "PulseSequenceDetails": "%CustomerSeq%_cmrr_mbep2d_bold",
  "ReceiveCoilActiveElements": "HC1-7;NC1,2",
  "ReceiveCoilName": "HeadNeck_64",
  "ReconMatrixPE": 104,
  "RepetitionTime": 1.49,
  "SAR": 0.0288808,
  "ScanOptions": "FS",
  "ScanningSequence": "EP",
  "SequenceName": "epfid2d1_104",
  "SequenceVariant": "SK_SS",
  "SeriesDescription": "func_task-things_run-4",
  "SeriesNumber": 20,
  "ShimSetting": [628, -7246, -8841, 571, 5, -185, -24, -13],
  "SliceThickness": 2,
  "SliceTiming": [0, 0.785, 0.0975, 0.8825, 0.1975, 0.98, 0.295, 1.0775, 0.3925, 1.1775, 0.49, 1.275, 0.5875, 1.3725, 0.6875, 0, 0.785, 0.0975, 0.8825, 0.1975, 0.98, 0.295, 1.0775, 0.3925, 1.1775, 0.49, 1.275, 0.5875, 1.3725, 0.6875, 0, 0.785, 0.0975, 0.8825, 0.1975, 0.98, 0.295, 1.0775, 0.3925, 1.1775, 0.49, 1.275, 0.5875, 1.3725, 0.6875, 0, 0.785, 0.0975, 0.8825, 0.1975, 0.98, 0.295, 1.0775, 0.3925, 1.1775, 0.49, 1.275, 0.5875, 1.3725, 0.6875],
  "SoftwareVersions": "syngo_MR_E11",
  "SpacingBetweenSlices": 2,
  "StationName": "MRC35049",
  "TaskName": "things",
  "TotalReadoutTime": 0.0576811,
  "TxRefAmp": 219.708,
  "WipMemBlock": "90c4368e-fd7c-465b-8d06-666366e04af9||Sequence: R016 ve11c/master r/e634e98; Dec 19 2017 11:00:25 by eja",
  "dcmmeta_affine": [
    [-1.993072509765625, 0.16631215810775757, 0.001498678233474493, 99.3395767211914],
    [0.1587226837873459, 1.9073506593704224, -0.5803625583648682, -76.54573822021484],
    [0.04968992620706558, 0.5782333612442017, 1.9139429330825806, -69.35267639160156],
    [0.0, 0.0, 0.0, 1.0]
],
  "dcmmeta_reorient_transform": [
    [0.0, -1.0, 0.0, 103.0],
    [1.0, 0.0, 0.0, 0.0],
    [0.0, 0.0, 1.0, 0.0],
    [0.0, 0.0, 0.0, 1.0]
],
  "dcmmeta_shape": [104, 104, 60, 190],
  "dcmmeta_slice_dim": 2,
  "dcmmeta_version": 0.6,
  "global": {
    "const": {
      "AcquisitionMatrix": [104, 0, 0, 104],
      "AngioFlag": "N",
      "BitsAllocated": 16,
      "BitsStored": 16,
      "BodyPartExamined": "BRAIN",
      "Columns": 832,
      "EchoNumbers": 1,
      "EchoTime": 37.0,
      "EchoTrainLength": 104,
      "FlipAngle": 52.0,
      "HighBit": 15,
      "ImageOrientationPatient": [0.99653625361596, -0.0793613448636, 0.02484496267862, 0.08315608047511, 0.95367531759605, -0.2891166804044],
      "ImagePositionPatient": [-902.48574603527, -756.41194854949, 182.5951690014],
      "ImageType": [
        "ORIGINAL",
        "PRIMARY",
        "P",
        "MB",
        "ND",
        "MOSAIC"
],
      "ImagedNucleus": "1H",
      "ImagingFrequency": 123.258911,
      "InPlanePhaseEncodingDirection": "COL",
      "LargestImagePixelValue": 4095,
      "MRAcquisitionType": "2D",
      "MagneticFieldStrength": 3.0,
      "Manufacturer": "SIEMENS",
      "ManufacturerModelName": "Prisma_fit",
      "Modality": "MR",
      "NumberOfAverages": 1.0,
      "NumberOfPhaseEncodingSteps": 104,
      "PercentPhaseFieldOfView": 100.0,
      "PercentSampling": 100.0,
      "PerformedProcedureStepStartTime": "144933.854000",
      "PhotometricInterpretation": "MONOCHROME2",
      "PixelBandwidth": 2290.0,
      "PixelRepresentation": 0,
      "PixelSpacing": [2.0, 2.0],
      "ProtocolName": "func_task-things_run-4",
      "RepetitionTime": 1490.0,
      "RescaleIntercept": -4096.0,
      "RescaleSlope": 2.0,
      "RescaleType": "US",
      "Rows": 832,
      "SAR": 0.02888079789514,
      "SamplesPerPixel": 1,
      "ScanOptions": "FS",
      "ScanningSequence": "EP",
      "SequenceName": "epfid2d1_104",
      "SequenceVariant": [
        "SK",
        "SS"
],
      "SeriesDescription": "func_task-things_run-4",
      "SeriesNumber": 20,
      "SeriesTime": "153540.049000",
      "SliceLocation": -44.08195121972,
      "SliceThickness": 2.0,
      "SmallestImagePixelValue": 0,
      "SoftwareVersions": "syngo MR E11",
      "SpacingBetweenSlices": 2.0000000643711,
      "SpecificCharacterSet": "ISO_IR 100",
      "StudyID": "1",
      "StudyTime": "144933.768000",
      "TransmitCoilName": "Body",
      "VariableFlipAngleFlag": "N",
      "WindowCenterWidthExplanation": "Algo1",
      "dBdt": 0.0},
    "slices": {}
  },
  "time": {
    "samples": {
      "AcquisitionNumber": [1, 2, 3, 4, 5, 6, 7, 8, 9, 10, 11, 12, 13, 14, 15, 16, 17, 18, 19, 20, 21, 22, 23, 24, 25, 26, 27, 28, 29, 30, 31, 32, 33, 34, 35, 36, 37, 38, 39, 40, 41, 42, 43, 44, 45, 46, 47, 48, 49, 50, 51, 52, 53, 54, 55, 56, 57, 58, 59, 60, 61, 62, 63, 64, 65, 66, 67, 68, 69, 70, 71, 72, 73, 74, 75, 76, 77, 78, 79, 80, 81, 82, 83, 84, 85, 86, 87, 88, 89, 90, 91, 92, 93, 94, 95, 96, 97, 98, 99, 100, 101, 102, 103, 104, 105, 106, 107, 108, 109, 110, 111, 112, 113, 114, 115, 116, 117, 118, 119, 120, 121, 122, 123, 124, 125, 126, 127, 128, 129, 130, 131, 132, 133, 134, 135, 136, 137, 138, 139, 140, 141, 142, 143, 144, 145, 146, 147, 148, 149, 150, 151, 152, 153, 154, 155, 156, 157, 158, 159, 160, 161, 162, 163, 164, 165, 166, 167, 168, 169, 170, 171, 172, 173, 174, 175, 176, 177, 178, 179, 180, 181, 182, 183, 184, 185, 186, 187, 188, 189, 190],
      "AcquisitionTime": ["153411.080000", "153412.570000", "153414.060000", "153415.550000", "153417.040000", "153418.530000", "153420.020000", "153421.510000", "153423.000000", "153424.490000", "153425.980000", "153427.470000", "153428.960000", "153430.450000", "153431.940000", "153433.430000", "153434.920000", "153436.410000", "153437.900000", "153439.390000", "153440.880000", "153442.370000", "153443.860000", "153445.350000", "153446.840000", "153448.330000", "153449.820000", "153451.310000", "153452.800000", "153454.290000", "153455.780000", "153457.270000", "153458.760000", "153500.250000", "153501.740000", "153503.230000", "153504.720000", "153506.210000", "153507.700000", "153509.190000", "153510.680000", "153512.170000", "153513.660000", "153515.150000", "153516.640000", "153518.130000", "153519.620000", "153521.110000", "153522.600000", "153524.090000", "153525.580000", "153527.070000", "153528.560000", "153530.050000", "153531.540000", "153533.030000", "153534.520000", "153536.010000", "153537.500000", "153538.990000", "153540.480000", "153541.970000", "153543.460000", "153544.950000", "153546.440000", "153547.930000", "153549.420000", "153550.910000", "153552.400000", "153553.890000", "153555.380000", "153556.870000", "153558.360000", "153559.850000", "153601.340000", "153602.830000", "153604.320000", "153605.810000", "153607.300000", "153608.790000", "153610.280000", "153611.770000", "153613.260000", "153614.750000", "153616.240000", "153617.730000", "153619.220000", "153620.710000", "153622.200000", "153623.690000", "153625.180000", "153626.670000", "153628.160000", "153629.650000", "153631.140000", "153632.630000", "153634.120000", "153635.610000", "153637.100000", "153638.590000", "153640.080000", "153641.570000", "153643.060000", "153644.550000", "153646.040000", "153647.530000", "153649.020000", "153650.510000", "153652.000000", "153653.490000", "153654.980000", "153656.470000", "153657.960000", "153659.450000", "153700.940000", "153702.430000", "153703.920000", "153705.410000", "153706.900000", "153708.390000", "153709.880000", "153711.370000", "153712.860000", "153714.350000", "153715.840000", "153717.330000", "153718.820000", "153720.310000", "153721.800000", "153723.290000", "153724.780000", "153726.270000", "153727.760000", "153729.250000", "153730.740000", "153732.230000", "153733.720000", "153735.210000", "153736.700000", "153738.190000", "153739.680000", "153741.170000", "153742.660000", "153744.150000", "153745.640000", "153747.130000", "153748.620000", "153750.110000", "153751.600000", "153753.090000", "153754.580000", "153756.070000", "153757.560000", "153759.050000", "153800.540000", "153802.030000", "153803.520000", "153805.010000", "153806.500000", "153807.990000", "153809.480000", "153810.970000", "153812.460000", "153813.950000", "153815.440000", "153816.930000", "153818.420000", "153819.910000", "153821.400000", "153822.890000", "153824.380000", "153825.870000", "153827.360000", "153828.850000", "153830.340000", "153831.830000", "153833.320000", "153834.810000", "153836.300000", "153837.790000", "153839.280000", "153840.770000", "153842.260000", "153843.750000", "153845.240000", "153846.730000", "153848.220000", "153849.710000", "153851.200000", "153852.690000"],
      "ContentTime": ["153540.052000", "153540.054000", "153540.057000", "153540.062000", "153540.064000", "153540.067000", "153540.069000", "153540.072000", "153540.074000", "153540.077000", "153540.079000", "153540.082000", "153540.084000", "153540.087000", "153540.089000", "153540.091000", "153540.094000", "153540.096000", "153540.099000", "153540.101000", "153540.104000", "153540.106000", "153540.109000", "153540.111000", "153540.114000", "153540.116000", "153540.119000", "153540.121000", "153540.124000", "153540.126000", "153540.128000", "153540.131000", "153540.133000", "153540.136000", "153559.946000", "153559.948000", "153559.951000", "153559.954000", "153559.956000", "153559.959000", "153559.961000", "153559.964000", "153559.966000", "153559.968000", "153559.971000", "153559.973000", "153559.976000", "153559.978000", "153559.981000", "153559.994000", "153559.996000", "153600.000000", "153600.002000", "153600.005000", "153619.967000", "153619.970000", "153619.973000", "153619.975000", "153619.978000", "153619.980000", "153619.982000", "153619.985000", "153619.993000", "153619.995000", "153619.998000", "153620.001000", "153620.004000", "153620.007000", "153620.012000", "153620.015000", "153620.017000", "153620.020000", "153620.023000", "153620.026000", "153639.956000", "153639.959000", "153639.961000", "153639.964000", "153639.966000", "153639.969000", "153639.971000", "153639.974000", "153639.976000", "153639.979000", "153639.981000", "153639.984000", "153639.986000", "153639.989000", "153639.991000", "153639.994000", "153639.996000", "153639.999000", "153640.001000", "153640.004000", "153640.006000", "153720.426000", "153720.429000", "153720.432000", "153720.434000", "153720.437000", "153720.439000", "153720.442000", "153720.444000", "153720.447000", "153720.449000", "153720.452000", "153720.454000", "153720.457000", "153720.459000", "153720.462000", "153720.464000", "153720.466000", "153720.469000", "153720.471000", "153720.474000", "153720.476000", "153720.479000", "153720.481000", "153720.484000", "153720.486000", "153720.489000", "153720.491000", "153720.494000", "153720.496000", "153720.515000", "153720.518000", "153759.994000", "153759.997000", "153800.001000", "153800.003000", "153800.006000", "153800.008000", "153800.011000", "153800.013000", "153800.016000", "153800.018000", "153800.021000", "153800.023000", "153800.025000", "153800.028000", "153800.030000", "153800.033000", "153800.035000", "153800.038000", "153800.040000", "153800.043000", "153800.045000", "153800.048000", "153800.050000", "153800.053000", "153800.055000", "153800.058000", "153800.060000", "153839.979000", "153839.982000", "153839.984000", "153839.987000", "153839.989000", "153839.992000", "153839.994000", "153839.997000", "153840.000000", "153840.003000", "153840.005000", "153840.008000", "153840.010000", "153840.013000", "153840.015000", "153840.018000", "153840.020000", "153840.023000", "153840.025000", "153840.028000", "153840.030000", "153840.033000", "153840.035000", "153840.037000", "153840.040000", "153840.043000", "153854.986000", "153854.989000", "153854.992000", "153855.002000", "153855.004000", "153855.007000", "153855.009000", "153855.012000", "153855.014000", "153855.017000", "153855.019000"],
      "InstanceCreationTime": ["153540.052000", "153540.054000", "153540.057000", "153540.062000", "153540.064000", "153540.067000", "153540.069000", "153540.072000", "153540.074000", "153540.077000", "153540.079000", "153540.082000", "153540.084000", "153540.087000", "153540.089000", "153540.091000", "153540.094000", "153540.096000", "153540.099000", "153540.101000", "153540.104000", "153540.106000", "153540.109000", "153540.111000", "153540.114000", "153540.116000", "153540.119000", "153540.121000", "153540.124000", "153540.126000", "153540.128000", "153540.131000", "153540.133000", "153540.136000", "153559.946000", "153559.948000", "153559.951000", "153559.954000", "153559.956000", "153559.959000", "153559.961000", "153559.964000", "153559.966000", "153559.968000", "153559.971000", "153559.973000", "153559.976000", "153559.978000", "153559.981000", "153559.994000", "153559.996000", "153600.000000", "153600.002000", "153600.005000", "153619.967000", "153619.970000", "153619.973000", "153619.975000", "153619.978000", "153619.980000", "153619.982000", "153619.985000", "153619.993000", "153619.995000", "153619.998000", "153620.001000", "153620.004000", "153620.007000", "153620.012000", "153620.015000", "153620.017000", "153620.020000", "153620.023000", "153620.026000", "153639.956000", "153639.959000", "153639.961000", "153639.964000", "153639.966000", "153639.969000", "153639.971000", "153639.974000", "153639.976000", "153639.979000", "153639.981000", "153639.984000", "153639.986000", "153639.989000", "153639.991000", "153639.994000", "153639.996000", "153639.999000", "153640.001000", "153640.004000", "153640.006000", "153720.426000", "153720.429000", "153720.432000", "153720.434000", "153720.437000", "153720.439000", "153720.442000", "153720.444000", "153720.447000", "153720.449000", "153720.452000", "153720.454000", "153720.457000", "153720.459000", "153720.462000", "153720.464000", "153720.466000", "153720.469000", "153720.471000", "153720.474000", "153720.476000", "153720.479000", "153720.481000", "153720.484000", "153720.486000", "153720.489000", "153720.491000", "153720.494000", "153720.496000", "153720.515000", "153720.518000", "153759.994000", "153759.997000", "153800.001000", "153800.003000", "153800.006000", "153800.008000", "153800.011000", "153800.013000", "153800.016000", "153800.018000", "153800.021000", "153800.023000", "153800.025000", "153800.028000", "153800.030000", "153800.033000", "153800.035000", "153800.038000", "153800.040000", "153800.043000", "153800.045000", "153800.048000", "153800.050000", "153800.053000", "153800.055000", "153800.058000", "153800.060000", "153839.979000", "153839.982000", "153839.984000", "153839.987000", "153839.989000", "153839.992000", "153839.994000", "153839.997000", "153840.000000", "153840.003000", "153840.005000", "153840.008000", "153840.010000", "153840.013000", "153840.015000", "153840.018000", "153840.020000", "153840.023000", "153840.025000", "153840.028000", "153840.030000", "153840.033000", "153840.035000", "153840.037000", "153840.040000", "153840.043000", "153854.986000", "153854.989000", "153854.992000", "153855.002000", "153855.004000", "153855.007000", "153855.009000", "153855.012000", "153855.014000", "153855.017000", "153855.019000"],
      "InstanceNumber": [1, 2, 3, 4, 5, 6, 7, 8, 9, 10, 11, 12, 13, 14, 15, 16, 17, 18, 19, 20, 21, 22, 23, 24, 25, 26, 27, 28, 29, 30, 31, 32, 33, 34, 35, 36, 37, 38, 39, 40, 41, 42, 43, 44, 45, 46, 47, 48, 49, 50, 51, 52, 53, 54, 55, 56, 57, 58, 59, 60, 61, 62, 63, 64, 65, 66, 67, 68, 69, 70, 71, 72, 73, 74, 75, 76, 77, 78, 79, 80, 81, 82, 83, 84, 85, 86, 87, 88, 89, 90, 91, 92, 93, 94, 95, 96, 97, 98, 99, 100, 101, 102, 103, 104, 105, 106, 107, 108, 109, 110, 111, 112, 113, 114, 115, 116, 117, 118, 119, 120, 121, 122, 123, 124, 125, 126, 127, 128, 129, 130, 131, 132, 133, 134, 135, 136, 137, 138, 139, 140, 141, 142, 143, 144, 145, 146, 147, 148, 149, 150, 151, 152, 153, 154, 155, 156, 157, 158, 159, 160, 161, 162, 163, 164, 165, 166, 167, 168, 169, 170, 171, 172, 173, 174, 175, 176, 177, 178, 179, 180, 181, 182, 183, 184, 185, 186, 187, 188, 189, 190],
      "WindowCenter": [4862.0, 4884.0, 4836.0, 4864.0, 4888.0, 4864.0, 4910.0, 4912.0, 4886.0, 4862.0, 4862.0, 4860.0, 4862.0, 4860.0, 4858.0, 4860.0, 4886.0, 4864.0, 4886.0, 4902.0, 4914.0, 4864.0, 4836.0, 4862.0, 4836.0, 4862.0, 4862.0, 4860.0, 4908.0, 4884.0, 4890.0, 4886.0, 4862.0, 4858.0, 4834.0, 4858.0, 4864.0, 4860.0, 4908.0, 4906.0, 4862.0, 4858.0, 4860.0, 4834.0, 4864.0, 4860.0, 4886.0, 4886.0, 4882.0, 4884.0, 4860.0, 4856.0, 4886.0, 4860.0, 4860.0, 4886.0, 4910.0, 4860.0, 4862.0, 4908.0, 4884.0, 4910.0, 4910.0, 4862.0, 4836.0, 4866.0, 4860.0, 4874.0, 4864.0, 4838.0, 4832.0, 4826.0, 4832.0, 4856.0, 4880.0, 4906.0, 4912.0, 4896.0, 4910.0, 4858.0, 4832.0, 4830.0, 4860.0, 4862.0, 4860.0, 4888.0, 4906.0, 4884.0, 4884.0, 4860.0, 4860.0, 4882.0, 4910.0, 4886.0, 4832.0, 4860.0, 4860.0, 4856.0, 4884.0, 4860.0, 4894.0, 4888.0, 4832.0, 4836.0, 4832.0, 4862.0, 4864.0, 4884.0, 4908.0, 4904.0, 4906.0, 4886.0, 4904.0, 4912.0, 4840.0, 4830.0, 4864.0, 4888.0, 4860.0, 4860.0, 4862.0, 4884.0, 4884.0, 4906.0, 4910.0, 4864.0, 4836.0, 4858.0, 4836.0, 4858.0, 4860.0, 4860.0, 4884.0, 4906.0, 4910.0, 4884.0, 4858.0, 4888.0, 4862.0, 4884.0, 4914.0, 4860.0, 4834.0, 4858.0, 4856.0, 4870.0, 4868.0, 4884.0, 4862.0, 4838.0, 4836.0, 4834.0, 4860.0, 4884.0, 4886.0, 4906.0, 4908.0, 4884.0, 4864.0, 4860.0, 4888.0, 4860.0, 4862.0, 4860.0, 4912.0, 4884.0, 4884.0, 4884.0, 4884.0, 4910.0, 4886.0, 4860.0, 4912.0, 4886.0, 4864.0, 4886.0, 4882.0, 4902.0, 4904.0, 4888.0, 4898.0, 4864.0, 4832.0, 4830.0, 4836.0, 4862.0, 4886.0, 4906.0, 4912.0, 4908.0],
      "WindowWidth": [18610.0, 18636.0, 18576.0, 18612.0, 18658.0, 18612.0, 18692.0, 18704.0, 18644.0, 18616.0, 18608.0, 18616.0, 18612.0, 18614.0, 18614.0, 18616.0, 18646.0, 18614.0, 18658.0, 18710.0, 18706.0, 18614.0, 18576.0, 18610.0, 18582.0, 18612.0, 18614.0, 18616.0, 18696.0, 18654.0, 18654.0, 18654.0, 18610.0, 18610.0, 18578.0, 18612.0, 18614.0, 18610.0, 18702.0, 18714.0, 18616.0, 18610.0, 18614.0, 18578.0, 18612.0, 18612.0, 18656.0, 18652.0, 18642.0, 18642.0, 18620.0, 18610.0, 18646.0, 18608.0, 18608.0, 18660.0, 18702.0, 18612.0, 18614.0, 18698.0, 18650.0, 18714.0, 18686.0, 18616.0, 18586.0, 18624.0, 18668.0, 18666.0, 18608.0, 18580.0, 18574.0, 18584.0, 18584.0, 18616.0, 18658.0, 18694.0, 18706.0, 18714.0, 18694.0, 18608.0, 18578.0, 18576.0, 18614.0, 18614.0, 18612.0, 18656.0, 18692.0, 18650.0, 18644.0, 18616.0, 18612.0, 18646.0, 18710.0, 18652.0, 18576.0, 18610.0, 18608.0, 18606.0, 18664.0, 18668.0, 18704.0, 18656.0, 18576.0, 18576.0, 18576.0, 18610.0, 18612.0, 18656.0, 18698.0, 18700.0, 18692.0, 18662.0, 18710.0, 18702.0, 18578.0, 18574.0, 18616.0, 18654.0, 18606.0, 18608.0, 18618.0, 18662.0, 18658.0, 18706.0, 18702.0, 18620.0, 18576.0, 18608.0, 18578.0, 18610.0, 18612.0, 18618.0, 18648.0, 18700.0, 18698.0, 18648.0, 18612.0, 18652.0, 18614.0, 18666.0, 18696.0, 18616.0, 18572.0, 18608.0, 18608.0, 18676.0, 18680.0, 18662.0, 18602.0, 18584.0, 18576.0, 18580.0, 18614.0, 18646.0, 18652.0, 18712.0, 18692.0, 18646.0, 18612.0, 18616.0, 18654.0, 18608.0, 18616.0, 18610.0, 18702.0, 18656.0, 18648.0, 18644.0, 18660.0, 18698.0, 18650.0, 18614.0, 18698.0, 18656.0, 18612.0, 18646.0, 18658.0, 18716.0, 18708.0, 18650.0, 18702.0, 18618.0, 18572.0, 18572.0, 18582.0, 18616.0, 18658.0, 18698.0, 18708.0, 18700.0]
    },
    "slices": {}
  }
}