{
  "AcquisitionMatrixPE": 104,
  "AcquisitionNumber": 1,
  "AcquisitionTime": "11:01:16.812500",
  "BandwidthPerPixelPhaseEncode": 17.17,
  "BaseResolution": 104,
  "BodyPartExamined": "BRAIN",
  "CoilCombinationMethod": "Sum of Squares",
  "ConsistencyInfo": "N4_VE11C_LATEST_20160120",
  "ConversionSoftware": "dcm2niix",
  "ConversionSoftwareVersion": "v1.0.20211006",
  "DerivedVendorReportedEchoSpacing": 0.000560011,
  "DeviceSerialNumber": "167006",
  "DwellTime": 2.1e-06,
  "EchoTime": 0.037,
  "EchoTime1": 0.037,
  "EchoTime2": 0.001,
  "EchoTrainLength": 104,
  "EffectiveEchoSpacing": 0.000560011,
  "FlipAngle": 52,
  "HeudiconvVersion": "0.10.0",
  "ImageComments": "Unaliased MB4/PE3/LB",
  "ImageOrientationPatientDICOM": [0.999024, -0.0247768, 0.0365714, 0.0399504, 0.860042, -0.508657],
  "ImageOrientationText": "Tra>Cor(-30.6)>Sag(1.1)",
  "ImageType": [
    "ORIGINAL",
    "PRIMARY",
    "P",
    "MB",
    "ND",
    "MOSAIC",
    "PHASE"
],
  "ImagingFrequency": 123.259,
  "InPlanePhaseEncodingDirectionDICOM": "COL",
  "InstitutionAddress": "Chemin Queen-Mary 4565,Montreal,District,CA,H3W 1W5",
  "InstitutionName": "IUGM",
  "InstitutionalDepartmentName": "Department",
  "MRAcquisitionType": "2D",
  "MagneticFieldStrength": 3,
  "Manufacturer": "Siemens",
  "ManufacturersModelName": "Prisma_fit",
  "MatrixCoilMode": "SENSE",
  "Modality": "MR",
  "MultibandAccelerationFactor": 4,
  "PartialFourier": 1,
  "PatientPosition": "HFS",
  "PercentPhaseFOV": 100,
  "PercentSampling": 100,
  "PhaseEncodingDirection": "j",
  "PhaseEncodingSteps": 104,
  "PhaseResolution": 1,
  "PixelBandwidth": 2290,
  "ProcedureStepDescription": "memory^things",
  "ProtocolName": "func_task-things_run-3",
  "PulseSequenceDetails": "%CustomerSeq%\\cmrr_mbep2d_bold",
  "ReceiveCoilActiveElements": "HC1-7;NC1,2",
  "ReceiveCoilName": "HeadNeck_64",
  "ReconMatrixPE": 104,
  "RepetitionTime": 1.49,
  "SAR": 0.0562001,
  "ScanOptions": "FS",
  "ScanningSequence": "EP",
  "SequenceName": "epfid2d1_104",
  "SequenceVariant": "SK\\SS",
  "SeriesDescription": "func_task-things_run-3",
  "SeriesNumber": 20,
  "ShimSetting": [623, -7171, -8866, 252, 5, -177, -58, 9],
  "SliceThickness": 2,
  "SliceTiming": [0, 0.7825, 0.0975, 0.8825, 0.195, 0.98, 0.2925, 1.0775, 0.3925, 1.175, 0.49, 1.2725, 0.5875, 1.3725, 0.685, 0, 0.7825, 0.0975, 0.8825, 0.195, 0.98, 0.2925, 1.0775, 0.3925, 1.175, 0.49, 1.2725, 0.5875, 1.3725, 0.685, 0, 0.7825, 0.0975, 0.8825, 0.195, 0.98, 0.2925, 1.0775, 0.3925, 1.175, 0.49, 1.2725, 0.5875, 1.3725, 0.685, 0, 0.7825, 0.0975, 0.8825, 0.195, 0.98, 0.2925, 1.0775, 0.3925, 1.175, 0.49, 1.2725, 0.5875, 1.3725, 0.685],
  "SoftwareVersions": "syngo MR E11",
  "SpacingBetweenSlices": 2,
  "StationName": "MRC35049",
  "TaskName": "things",
  "TotalReadoutTime": 0.0576811,
  "TxRefAmp": 283.445,
  "WipMemBlock": "d8224eaa-ec2a-46d4-b40a-b5deb45e2ba8||Sequence: R016 ve11c/master r/e634e98; Dec 19 2017 11:00:25 by eja",
  "dcmmeta_affine": [
    [-1.9980477094650269, 0.07990070432424545, 0.03770013526082039, 102.33026123046875],
    [0.049553558230400085, 1.720084309577942, -1.0192421674728394, -52.476871490478516],
    [0.07314278930425644, 1.0173131227493286, 1.7203848361968994, -103.9303207397461],
    [0.0, 0.0, 0.0, 1.0]
],
  "dcmmeta_reorient_transform": [
    [0.0, -1.0, 0.0, 103.0],
    [1.0, 0.0, 0.0, 0.0],
    [0.0, 0.0, 1.0, 0.0],
    [0.0, 0.0, 0.0, 1.0]
],
  "dcmmeta_shape": [104, 104, 60, 190],
  "dcmmeta_slice_dim": 2,
  "dcmmeta_version": 0.6,
  "global": {
    "const": {
      "AcquisitionMatrix": [104, 0, 0, 104],
      "AngioFlag": "N",
      "BitsAllocated": 16,
      "BitsStored": 16,
      "BodyPartExamined": "BRAIN",
      "Columns": 832,
      "EchoNumbers": 1,
      "EchoTime": 37.0,
      "EchoTrainLength": 104,
      "FlipAngle": 52.0,
      "HighBit": 15,
      "ImageOrientationPatient": [0.99902384568813, -0.02477677972, 0.03657139501315, 0.0399503523498, 0.86004213083849, -0.5086565663883],
      "ImagePositionPatient": [-866.93325235679, -732.76498325122, 344.53093939685],
      "ImageType": [
        "ORIGINAL",
        "PRIMARY",
        "P",
        "MB",
        "ND",
        "MOSAIC"
],
      "ImagedNucleus": "1H",
      "ImagingFrequency": 123.25888,
      "InPlanePhaseEncodingDirection": "COL",
      "LargestImagePixelValue": 4095,
      "MRAcquisitionType": "2D",
      "MagneticFieldStrength": 3.0,
      "Manufacturer": "SIEMENS",
      "ManufacturerModelName": "Prisma_fit",
      "Modality": "MR",
      "NumberOfAverages": 1.0,
      "NumberOfPhaseEncodingSteps": 104,
      "PercentPhaseFieldOfView": 100.0,
      "PercentSampling": 100.0,
      "PerformedProcedureStepStartTime": "103709.227000",
      "PhotometricInterpretation": "MONOCHROME2",
      "PixelBandwidth": 2290.0,
      "PixelRepresentation": 0,
      "PixelSpacing": [2.0, 2.0],
      "ProtocolName": "func_task-things_run-3",
      "RepetitionTime": 1490.0,
      "RescaleIntercept": -4096.0,
      "RescaleSlope": 2.0,
      "RescaleType": "US",
      "Rows": 832,
      "SAR": 0.05620012130437,
      "SamplesPerPixel": 1,
      "ScanOptions": "FS",
      "ScanningSequence": "EP",
      "SequenceName": "epfid2d1_104",
      "SequenceVariant": [
        "SK",
        "SS"
],
      "SeriesDescription": "func_task-things_run-3",
      "SeriesNumber": 20,
      "SeriesTime": "110231.557000",
      "SliceLocation": -60.727821363812,
      "SliceThickness": 2.0,
      "SmallestImagePixelValue": 0,
      "SoftwareVersions": "syngo MR E11",
      "SpacingBetweenSlices": 1.9999999474555,
      "SpecificCharacterSet": "ISO_IR 100",
      "StudyID": "1",
      "StudyTime": "103709.100000",
      "TransmitCoilName": "Body",
      "VariableFlipAngleFlag": "N",
      "WindowCenterWidthExplanation": "Algo1",
      "dBdt": 0.0},
    "slices": {}
  },
  "time": {
    "samples": {
      "AcquisitionNumber": [1, 2, 3, 4, 5, 6, 7, 8, 9, 10, 11, 12, 13, 14, 15, 16, 17, 18, 19, 20, 21, 22, 23, 24, 25, 26, 27, 28, 29, 30, 31, 32, 33, 34, 35, 36, 37, 38, 39, 40, 41, 42, 43, 44, 45, 46, 47, 48, 49, 50, 51, 52, 53, 54, 55, 56, 57, 58, 59, 60, 61, 62, 63, 64, 65, 66, 67, 68, 69, 70, 71, 72, 73, 74, 75, 76, 77, 78, 79, 80, 81, 82, 83, 84, 85, 86, 87, 88, 89, 90, 91, 92, 93, 94, 95, 96, 97, 98, 99, 100, 101, 102, 103, 104, 105, 106, 107, 108, 109, 110, 111, 112, 113, 114, 115, 116, 117, 118, 119, 120, 121, 122, 123, 124, 125, 126, 127, 128, 129, 130, 131, 132, 133, 134, 135, 136, 137, 138, 139, 140, 141, 142, 143, 144, 145, 146, 147, 148, 149, 150, 151, 152, 153, 154, 155, 156, 157, 158, 159, 160, 161, 162, 163, 164, 165, 166, 167, 168, 169, 170, 171, 172, 173, 174, 175, 176, 177, 178, 179, 180, 181, 182, 183, 184, 185, 186, 187, 188, 189, 190],
      "AcquisitionTime": ["110116.812500", "110118.302500", "110119.792500", "110121.282500", "110122.772500", "110124.262500", "110125.752500", "110127.242500", "110128.732500", "110130.222500", "110131.712500", "110133.202500", "110134.692500", "110136.182500", "110137.672500", "110139.162500", "110140.652500", "110142.142500", "110143.632500", "110145.122500", "110146.612500", "110148.102500", "110149.592500", "110151.082500", "110152.572500", "110154.062500", "110155.552500", "110157.042500", "110158.532500", "110200.022500", "110201.512500", "110203.002500", "110204.492500", "110205.982500", "110207.472500", "110208.962500", "110210.452500", "110211.942500", "110213.432500", "110214.922500", "110216.412500", "110217.902500", "110219.392500", "110220.882500", "110222.372500", "110223.862500", "110225.352500", "110226.842500", "110228.332500", "110229.822500", "110231.312500", "110232.802500", "110234.292500", "110235.782500", "110237.272500", "110238.762500", "110240.252500", "110241.742500", "110243.232500", "110244.722500", "110246.212500", "110247.702500", "110249.192500", "110250.682500", "110252.172500", "110253.662500", "110255.152500", "110256.642500", "110258.132500", "110259.622500", "110301.112500", "110302.602500", "110304.092500", "110305.582500", "110307.072500", "110308.562500", "110310.052500", "110311.542500", "110313.032500", "110314.522500", "110316.012500", "110317.502500", "110318.992500", "110320.482500", "110321.972500", "110323.462500", "110324.952500", "110326.442500", "110327.932500", "110329.422500", "110330.912500", "110332.402500", "110333.892500", "110335.382500", "110336.872500", "110338.362500", "110339.852500", "110341.342500", "110342.832500", "110344.322500", "110345.812500", "110347.302500", "110348.792500", "110350.282500", "110351.772500", "110353.262500", "110354.752500", "110356.242500", "110357.732500", "110359.222500", "110400.712500", "110402.202500", "110403.692500", "110405.182500", "110406.672500", "110408.162500", "110409.652500", "110411.142500", "110412.632500", "110414.122500", "110415.612500", "110417.102500", "110418.592500", "110420.082500", "110421.572500", "110423.062500", "110424.552500", "110426.042500", "110427.532500", "110429.022500", "110430.512500", "110432.002500", "110433.492500", "110434.982500", "110436.472500", "110437.962500", "110439.452500", "110440.942500", "110442.432500", "110443.922500", "110445.412500", "110446.902500", "110448.392500", "110449.882500", "110451.372500", "110452.862500", "110454.352500", "110455.842500", "110457.332500", "110458.822500", "110500.312500", "110501.802500", "110503.292500", "110504.782500", "110506.272500", "110507.762500", "110509.252500", "110510.742500", "110512.232500", "110513.722500", "110515.212500", "110516.702500", "110518.192500", "110519.682500", "110521.172500", "110522.662500", "110524.152500", "110525.642500", "110527.132500", "110528.622500", "110530.112500", "110531.602500", "110533.092500", "110534.582500", "110536.072500", "110537.562500", "110539.052500", "110540.542500", "110542.032500", "110543.522500", "110545.012500", "110546.502500", "110547.992500", "110549.482500", "110550.972500", "110552.462500", "110553.952500", "110555.442500", "110556.932500", "110558.422500"],
      "ContentTime": ["110231.559000", "110231.562000", "110231.565000", "110231.567000", "110231.570000", "110231.572000", "110231.575000", "110231.577000", "110231.580000", "110231.582000", "110231.585000", "110231.587000", "110231.590000", "110231.592000", "110231.595000", "110231.597000", "110231.600000", "110231.602000", "110231.605000", "110231.607000", "110231.610000", "110231.612000", "110251.511000", "110251.514000", "110251.516000", "110251.519000", "110251.521000", "110251.524000", "110251.526000", "110251.529000", "110251.531000", "110251.534000", "110251.536000", "110251.539000", "110251.541000", "110251.544000", "110251.546000", "110251.549000", "110251.551000", "110251.554000", "110251.556000", "110251.559000", "110311.521000", "110311.524000", "110311.527000", "110311.529000", "110311.532000", "110311.534000", "110311.537000", "110311.539000", "110311.542000", "110311.545000", "110311.547000", "110311.550000", "110311.552000", "110311.555000", "110311.557000", "110311.560000", "110311.562000", "110311.565000", "110311.567000", "110311.570000", "110331.515000", "110331.517000", "110331.520000", "110331.522000", "110331.525000", "110331.527000", "110331.530000", "110331.532000", "110331.535000", "110331.537000", "110331.540000", "110331.542000", "110331.545000", "110331.547000", "110331.550000", "110331.552000", "110331.555000", "110331.557000", "110331.560000", "110331.563000", "110351.503000", "110351.505000", "110351.508000", "110351.510000", "110351.513000", "110351.515000", "110351.518000", "110351.520000", "110351.523000", "110351.525000", "110351.528000", "110351.530000", "110351.533000", "110351.535000", "110351.538000", "110351.541000", "110351.543000", "110351.546000", "110351.548000", "110351.551000", "110431.899000", "110431.902000", "110431.907000", "110431.909000", "110431.912000", "110431.914000", "110431.917000", "110431.919000", "110431.922000", "110431.924000", "110431.927000", "110431.929000", "110431.932000", "110431.934000", "110431.937000", "110431.939000", "110431.942000", "110431.944000", "110431.947000", "110431.949000", "110431.952000", "110431.954000", "110431.957000", "110431.960000", "110431.962000", "110431.964000", "110431.967000", "110511.559000", "110511.561000", "110511.564000", "110511.566000", "110511.569000", "110511.572000", "110511.574000", "110511.577000", "110511.579000", "110511.582000", "110511.584000", "110511.587000", "110511.589000", "110511.592000", "110511.594000", "110511.597000", "110511.599000", "110511.602000", "110511.604000", "110511.617000", "110511.620000", "110511.622000", "110511.625000", "110511.627000", "110511.630000", "110511.632000", "110511.635000", "110551.536000", "110551.539000", "110551.541000", "110551.544000", "110551.546000", "110551.549000", "110551.551000", "110551.554000", "110551.556000", "110551.559000", "110551.561000", "110551.564000", "110551.566000", "110551.569000", "110551.572000", "110551.574000", "110551.576000", "110551.579000", "110551.582000", "110551.584000", "110551.586000", "110551.589000", "110551.592000", "110551.594000", "110551.596000", "110551.599000", "110551.601000", "110600.960000", "110600.963000", "110600.966000", "110600.968000", "110600.976000", "110600.978000", "110600.981000"],
      "InstanceCreationTime": ["110231.559000", "110231.562000", "110231.565000", "110231.567000", "110231.570000", "110231.572000", "110231.575000", "110231.577000", "110231.580000", "110231.582000", "110231.585000", "110231.587000", "110231.590000", "110231.592000", "110231.595000", "110231.597000", "110231.600000", "110231.602000", "110231.605000", "110231.607000", "110231.610000", "110231.612000", "110251.511000", "110251.514000", "110251.516000", "110251.519000", "110251.521000", "110251.524000", "110251.526000", "110251.529000", "110251.531000", "110251.534000", "110251.536000", "110251.539000", "110251.541000", "110251.544000", "110251.546000", "110251.549000", "110251.551000", "110251.554000", "110251.556000", "110251.559000", "110311.521000", "110311.524000", "110311.527000", "110311.529000", "110311.532000", "110311.534000", "110311.537000", "110311.539000", "110311.542000", "110311.545000", "110311.547000", "110311.550000", "110311.552000", "110311.555000", "110311.557000", "110311.560000", "110311.562000", "110311.565000", "110311.567000", "110311.570000", "110331.515000", "110331.517000", "110331.520000", "110331.522000", "110331.525000", "110331.527000", "110331.530000", "110331.532000", "110331.535000", "110331.537000", "110331.540000", "110331.542000", "110331.545000", "110331.547000", "110331.550000", "110331.552000", "110331.555000", "110331.557000", "110331.560000", "110331.563000", "110351.503000", "110351.505000", "110351.508000", "110351.510000", "110351.513000", "110351.515000", "110351.518000", "110351.520000", "110351.523000", "110351.525000", "110351.528000", "110351.530000", "110351.533000", "110351.535000", "110351.538000", "110351.541000", "110351.543000", "110351.546000", "110351.548000", "110351.551000", "110431.899000", "110431.902000", "110431.907000", "110431.909000", "110431.912000", "110431.914000", "110431.917000", "110431.919000", "110431.922000", "110431.924000", "110431.927000", "110431.929000", "110431.932000", "110431.934000", "110431.937000", "110431.939000", "110431.942000", "110431.944000", "110431.947000", "110431.949000", "110431.952000", "110431.954000", "110431.957000", "110431.960000", "110431.962000", "110431.964000", "110431.967000", "110511.559000", "110511.561000", "110511.564000", "110511.566000", "110511.569000", "110511.572000", "110511.574000", "110511.577000", "110511.579000", "110511.582000", "110511.584000", "110511.587000", "110511.589000", "110511.592000", "110511.594000", "110511.597000", "110511.599000", "110511.602000", "110511.604000", "110511.617000", "110511.620000", "110511.622000", "110511.625000", "110511.627000", "110511.630000", "110511.632000", "110511.635000", "110551.536000", "110551.539000", "110551.541000", "110551.544000", "110551.546000", "110551.549000", "110551.551000", "110551.554000", "110551.556000", "110551.559000", "110551.561000", "110551.564000", "110551.566000", "110551.569000", "110551.572000", "110551.574000", "110551.576000", "110551.579000", "110551.582000", "110551.584000", "110551.586000", "110551.589000", "110551.592000", "110551.594000", "110551.596000", "110551.599000", "110551.601000", "110600.960000", "110600.963000", "110600.966000", "110600.968000", "110600.976000", "110600.978000", "110600.981000"],
      "InstanceNumber": [1, 2, 3, 4, 5, 6, 7, 8, 9, 10, 11, 12, 13, 14, 15, 16, 17, 18, 19, 20, 21, 22, 23, 24, 25, 26, 27, 28, 29, 30, 31, 32, 33, 34, 35, 36, 37, 38, 39, 40, 41, 42, 43, 44, 45, 46, 47, 48, 49, 50, 51, 52, 53, 54, 55, 56, 57, 58, 59, 60, 61, 62, 63, 64, 65, 66, 67, 68, 69, 70, 71, 72, 73, 74, 75, 76, 77, 78, 79, 80, 81, 82, 83, 84, 85, 86, 87, 88, 89, 90, 91, 92, 93, 94, 95, 96, 97, 98, 99, 100, 101, 102, 103, 104, 105, 106, 107, 108, 109, 110, 111, 112, 113, 114, 115, 116, 117, 118, 119, 120, 121, 122, 123, 124, 125, 126, 127, 128, 129, 130, 131, 132, 133, 134, 135, 136, 137, 138, 139, 140, 141, 142, 143, 144, 145, 146, 147, 148, 149, 150, 151, 152, 153, 154, 155, 156, 157, 158, 159, 160, 161, 162, 163, 164, 165, 166, 167, 168, 169, 170, 171, 172, 173, 174, 175, 176, 177, 178, 179, 180, 181, 182, 183, 184, 185, 186, 187, 188, 189, 190],
      "WindowCenter": [4728.0, 4738.0, 4732.0, 4728.0, 4730.0, 4722.0, 4718.0, 4720.0, 4722.0, 4722.0, 4730.0, 4730.0, 4730.0, 4740.0, 4728.0, 4724.0, 4738.0, 4722.0, 4720.0, 4720.0, 4724.0, 4724.0, 4724.0, 4740.0, 4734.0, 4730.0, 4734.0, 4726.0, 4724.0, 4722.0, 4722.0, 4726.0, 4726.0, 4720.0, 4722.0, 4724.0, 4728.0, 4732.0, 4730.0, 4728.0, 4732.0, 4726.0, 4722.0, 4728.0, 4728.0, 4720.0, 4726.0, 4720.0, 4724.0, 4726.0, 4726.0, 4730.0, 4728.0, 4734.0, 4730.0, 4732.0, 4722.0, 4724.0, 4718.0, 4728.0, 4720.0, 4728.0, 4726.0, 4726.0, 4728.0, 4722.0, 4726.0, 4726.0, 4724.0, 4722.0, 4720.0, 4728.0, 4724.0, 4722.0, 4722.0, 4726.0, 4734.0, 4730.0, 4732.0, 4732.0, 4724.0, 4720.0, 4722.0, 4722.0, 4724.0, 4722.0, 4726.0, 4728.0, 4724.0, 4730.0, 4726.0, 4730.0, 4728.0, 4728.0, 4726.0, 4726.0, 4726.0, 4726.0, 4726.0, 4724.0, 4734.0, 4726.0, 4732.0, 4726.0, 4728.0, 4722.0, 4728.0, 4720.0, 4724.0, 4726.0, 4726.0, 4726.0, 4726.0, 4728.0, 4726.0, 4724.0, 4726.0, 4724.0, 4726.0, 4726.0, 4724.0, 4722.0, 4730.0, 4728.0, 4732.0, 4726.0, 4726.0, 4726.0, 4706.0, 4724.0, 4728.0, 4726.0, 4726.0, 4724.0, 4726.0, 4726.0, 4728.0, 4732.0, 4724.0, 4726.0, 4726.0, 4724.0, 4726.0, 4736.0, 4728.0, 4728.0, 4724.0, 4724.0, 4724.0, 4724.0, 4730.0, 4724.0, 4726.0, 4728.0, 4728.0, 4730.0, 4728.0, 4734.0, 4722.0, 4726.0, 4724.0, 4728.0, 4726.0, 4722.0, 4722.0, 4758.0, 4816.0, 4844.0, 4730.0, 4736.0, 4754.0, 4758.0, 4738.0, 4720.0, 4724.0, 4770.0, 4774.0, 4802.0, 4810.0, 4774.0, 4718.0, 4740.0, 4732.0, 4760.0, 4714.0, 4722.0, 4728.0, 4766.0, 4772.0, 4732.0],
      "WindowWidth": [18496.0, 18490.0, 18496.0, 18492.0, 18492.0, 18502.0, 18496.0, 18506.0, 18490.0, 18496.0, 18494.0, 18494.0, 18496.0, 18492.0, 18494.0, 18490.0, 18490.0, 18498.0, 18496.0, 18496.0, 18504.0, 18498.0, 18496.0, 18488.0, 18490.0, 18494.0, 18484.0, 18504.0, 18500.0, 18490.0, 18506.0, 18494.0, 18490.0, 18494.0, 18502.0, 18492.0, 18486.0, 18486.0, 18496.0, 18486.0, 18492.0, 18484.0, 18502.0, 18482.0, 18498.0, 18498.0, 18490.0, 18504.0, 18496.0, 18498.0, 18486.0, 18494.0, 18492.0, 18492.0, 18490.0, 18488.0, 18500.0, 18490.0, 18498.0, 18490.0, 18494.0, 18494.0, 18490.0, 18498.0, 18482.0, 18488.0, 18488.0, 18494.0, 18498.0, 18492.0, 18500.0, 18490.0, 18488.0, 18494.0, 18496.0, 18502.0, 18484.0, 18482.0, 18488.0, 18484.0, 18496.0, 18490.0, 18496.0, 18492.0, 18500.0, 18486.0, 18502.0, 18492.0, 18502.0, 18488.0, 18494.0, 18490.0, 18498.0, 18490.0, 18494.0, 18494.0, 18500.0, 18498.0, 18486.0, 18496.0, 18490.0, 18494.0, 18488.0, 18498.0, 18486.0, 18494.0, 18498.0, 18496.0, 18492.0, 18494.0, 18490.0, 18494.0, 18488.0, 18492.0, 18494.0, 18486.0, 18498.0, 18486.0, 18500.0, 18492.0, 18500.0, 18496.0, 18488.0, 18498.0, 18484.0, 18494.0, 18484.0, 18504.0, 18454.0, 18500.0, 18488.0, 18498.0, 18498.0, 18498.0, 18502.0, 18496.0, 18492.0, 18490.0, 18488.0, 18494.0, 18488.0, 18496.0, 18488.0, 18484.0, 18496.0, 18492.0, 18496.0, 18490.0, 18492.0, 18502.0, 18488.0, 18498.0, 18492.0, 18504.0, 18490.0, 18496.0, 18494.0, 18480.0, 18494.0, 18496.0, 18500.0, 18482.0, 18498.0, 18502.0, 18504.0, 18520.0, 18536.0, 18554.0, 18486.0, 18544.0, 18576.0, 18580.0, 18550.0, 18500.0, 18490.0, 18516.0, 18520.0, 18558.0, 18546.0, 18516.0, 18496.0, 18546.0, 18542.0, 18580.0, 18504.0, 18490.0, 18488.0, 18522.0, 18518.0, 18490.0]
    },
    "slices": {}
  }
}