{
  "AcquisitionMatrixPE": 104,
  "AcquisitionNumber": 1,
  "AcquisitionTime": "10:55:14.462500",
  "BandwidthPerPixelPhaseEncode": 17.17,
  "BaseResolution": 104,
  "BodyPartExamined": "BRAIN",
  "CoilCombinationMethod": "Sum of Squares",
  "ConsistencyInfo": "N4_VE11C_LATEST_20160120",
  "ConversionSoftware": "dcm2niix",
  "ConversionSoftwareVersion": "v1.0.20211006",
  "DerivedVendorReportedEchoSpacing": 0.000560011,
  "DeviceSerialNumber": "167006",
  "DwellTime": 2.1e-06,
  "EchoTime": 0.037,
  "EchoTime1": 0.037,
  "EchoTime2": 0.001,
  "EchoTrainLength": 104,
  "EffectiveEchoSpacing": 0.000560011,
  "FlipAngle": 52,
  "HeudiconvVersion": "0.10.0",
  "ImageComments": "Unaliased MB4/PE3/LB",
  "ImageOrientationPatientDICOM": [0.999024, -0.0247768, 0.0365714, 0.0399504, 0.860042, -0.508657],
  "ImageOrientationText": "Tra>Cor(-30.6)>Sag(1.1)",
  "ImageType": [
    "ORIGINAL",
    "PRIMARY",
    "P",
    "MB",
    "ND",
    "MOSAIC",
    "PHASE"
],
  "ImagingFrequency": 123.259,
  "InPlanePhaseEncodingDirectionDICOM": "COL",
  "InstitutionAddress": "Chemin Queen-Mary 4565,Montreal,District,CA,H3W 1W5",
  "InstitutionName": "IUGM",
  "InstitutionalDepartmentName": "Department",
  "MRAcquisitionType": "2D",
  "MagneticFieldStrength": 3,
  "Manufacturer": "Siemens",
  "ManufacturersModelName": "Prisma_fit",
  "MatrixCoilMode": "SENSE",
  "Modality": "MR",
  "MultibandAccelerationFactor": 4,
  "PartialFourier": 1,
  "PatientPosition": "HFS",
  "PercentPhaseFOV": 100,
  "PercentSampling": 100,
  "PhaseEncodingDirection": "j",
  "PhaseEncodingSteps": 104,
  "PhaseResolution": 1,
  "PixelBandwidth": 2290,
  "ProcedureStepDescription": "memory^things",
  "ProtocolName": "func_task-things_run-2",
  "PulseSequenceDetails": "%CustomerSeq%\\cmrr_mbep2d_bold",
  "ReceiveCoilActiveElements": "HC1-7;NC1,2",
  "ReceiveCoilName": "HeadNeck_64",
  "ReconMatrixPE": 104,
  "RepetitionTime": 1.49,
  "SAR": 0.0562001,
  "ScanOptions": "FS",
  "ScanningSequence": "EP",
  "SequenceName": "epfid2d1_104",
  "SequenceVariant": "SK\\SS",
  "SeriesDescription": "func_task-things_run-2",
  "SeriesNumber": 17,
  "ShimSetting": [623, -7171, -8866, 252, 5, -177, -58, 9],
  "SliceThickness": 2,
  "SliceTiming": [0, 0.785, 0.0975, 0.8825, 0.1975, 0.98, 0.295, 1.0775, 0.3925, 1.1775, 0.49, 1.275, 0.5875, 1.3725, 0.6875, 0, 0.785, 0.0975, 0.8825, 0.1975, 0.98, 0.295, 1.0775, 0.3925, 1.1775, 0.49, 1.275, 0.5875, 1.3725, 0.6875, 0, 0.785, 0.0975, 0.8825, 0.1975, 0.98, 0.295, 1.0775, 0.3925, 1.1775, 0.49, 1.275, 0.5875, 1.3725, 0.6875, 0, 0.785, 0.0975, 0.8825, 0.1975, 0.98, 0.295, 1.0775, 0.3925, 1.1775, 0.49, 1.275, 0.5875, 1.3725, 0.6875],
  "SoftwareVersions": "syngo MR E11",
  "SpacingBetweenSlices": 2,
  "StationName": "MRC35049",
  "TaskName": "things",
  "TotalReadoutTime": 0.0576811,
  "TxRefAmp": 283.445,
  "WipMemBlock": "6ead2edf-ae4d-44dd-8d67-32e91343e02a||Sequence: R016 ve11c/master r/e634e98; Dec 19 2017 11:00:25 by eja",
  "dcmmeta_affine": [
    [-1.9980477094650269, 0.07990070432424545, 0.03770013526082039, 102.33026123046875],
    [0.049553558230400085, 1.720084309577942, -1.0192421674728394, -52.476871490478516],
    [0.07314278930425644, 1.0173131227493286, 1.7203848361968994, -103.9303207397461],
    [0.0, 0.0, 0.0, 1.0]
],
  "dcmmeta_reorient_transform": [
    [0.0, -1.0, 0.0, 103.0],
    [1.0, 0.0, 0.0, 0.0],
    [0.0, 0.0, 1.0, 0.0],
    [0.0, 0.0, 0.0, 1.0]
],
  "dcmmeta_shape": [104, 104, 60, 190],
  "dcmmeta_slice_dim": 2,
  "dcmmeta_version": 0.6,
  "global": {
    "const": {
      "AcquisitionMatrix": [104, 0, 0, 104],
      "AngioFlag": "N",
      "BitsAllocated": 16,
      "BitsStored": 16,
      "BodyPartExamined": "BRAIN",
      "Columns": 832,
      "EchoNumbers": 1,
      "EchoTime": 37.0,
      "EchoTrainLength": 104,
      "FlipAngle": 52.0,
      "HighBit": 15,
      "ImageOrientationPatient": [0.99902384568813, -0.02477677972, 0.03657139501315, 0.0399503523498, 0.86004213083849, -0.5086565663883],
      "ImagePositionPatient": [-866.93325235679, -732.76498325122, 344.53093939685],
      "ImageType": [
        "ORIGINAL",
        "PRIMARY",
        "P",
        "MB",
        "ND",
        "MOSAIC"
],
      "ImagedNucleus": "1H",
      "ImagingFrequency": 123.258878,
      "InPlanePhaseEncodingDirection": "COL",
      "LargestImagePixelValue": 4095,
      "MRAcquisitionType": "2D",
      "MagneticFieldStrength": 3.0,
      "Manufacturer": "SIEMENS",
      "ManufacturerModelName": "Prisma_fit",
      "Modality": "MR",
      "NumberOfAverages": 1.0,
      "NumberOfPhaseEncodingSteps": 104,
      "PercentPhaseFieldOfView": 100.0,
      "PercentSampling": 100.0,
      "PerformedProcedureStepStartTime": "103709.227000",
      "PhotometricInterpretation": "MONOCHROME2",
      "PixelBandwidth": 2290.0,
      "PixelRepresentation": 0,
      "PixelSpacing": [2.0, 2.0],
      "ProtocolName": "func_task-things_run-2",
      "RepetitionTime": 1490.0,
      "RescaleIntercept": -4096.0,
      "RescaleSlope": 2.0,
      "RescaleType": "US",
      "Rows": 832,
      "SAR": 0.05620012130437,
      "SamplesPerPixel": 1,
      "ScanOptions": "FS",
      "ScanningSequence": "EP",
      "SequenceName": "epfid2d1_104",
      "SequenceVariant": [
        "SK",
        "SS"
],
      "SeriesDescription": "func_task-things_run-2",
      "SeriesNumber": 17,
      "SeriesTime": "105641.359000",
      "SliceLocation": -60.727821363812,
      "SliceThickness": 2.0,
      "SmallestImagePixelValue": 0,
      "SoftwareVersions": "syngo MR E11",
      "SpacingBetweenSlices": 1.9999999474555,
      "SpecificCharacterSet": "ISO_IR 100",
      "StudyID": "1",
      "StudyTime": "103709.100000",
      "TransmitCoilName": "Body",
      "VariableFlipAngleFlag": "N",
      "WindowCenterWidthExplanation": "Algo1",
      "dBdt": 0.0},
    "slices": {}
  },
  "time": {
    "samples": {
      "AcquisitionNumber": [1, 2, 3, 4, 5, 6, 7, 8, 9, 10, 11, 12, 13, 14, 15, 16, 17, 18, 19, 20, 21, 22, 23, 24, 25, 26, 27, 28, 29, 30, 31, 32, 33, 34, 35, 36, 37, 38, 39, 40, 41, 42, 43, 44, 45, 46, 47, 48, 49, 50, 51, 52, 53, 54, 55, 56, 57, 58, 59, 60, 61, 62, 63, 64, 65, 66, 67, 68, 69, 70, 71, 72, 73, 74, 75, 76, 77, 78, 79, 80, 81, 82, 83, 84, 85, 86, 87, 88, 89, 90, 91, 92, 93, 94, 95, 96, 97, 98, 99, 100, 101, 102, 103, 104, 105, 106, 107, 108, 109, 110, 111, 112, 113, 114, 115, 116, 117, 118, 119, 120, 121, 122, 123, 124, 125, 126, 127, 128, 129, 130, 131, 132, 133, 134, 135, 136, 137, 138, 139, 140, 141, 142, 143, 144, 145, 146, 147, 148, 149, 150, 151, 152, 153, 154, 155, 156, 157, 158, 159, 160, 161, 162, 163, 164, 165, 166, 167, 168, 169, 170, 171, 172, 173, 174, 175, 176, 177, 178, 179, 180, 181, 182, 183, 184, 185, 186, 187, 188, 189, 190],
      "AcquisitionTime": ["105514.462500", "105515.952500", "105517.442500", "105518.932500", "105520.422500", "105521.912500", "105523.402500", "105524.892500", "105526.382500", "105527.872500", "105529.362500", "105530.852500", "105532.342500", "105533.832500", "105535.322500", "105536.812500", "105538.302500", "105539.792500", "105541.282500", "105542.772500", "105544.262500", "105545.752500", "105547.242500", "105548.732500", "105550.222500", "105551.712500", "105553.202500", "105554.692500", "105556.182500", "105557.672500", "105559.162500", "105600.652500", "105602.142500", "105603.632500", "105605.122500", "105606.612500", "105608.102500", "105609.592500", "105611.082500", "105612.572500", "105614.062500", "105615.552500", "105617.042500", "105618.532500", "105620.022500", "105621.512500", "105623.002500", "105624.492500", "105625.982500", "105627.472500", "105628.962500", "105630.452500", "105631.942500", "105633.432500", "105634.922500", "105636.412500", "105637.902500", "105639.392500", "105640.882500", "105642.372500", "105643.862500", "105645.352500", "105646.842500", "105648.332500", "105649.822500", "105651.312500", "105652.802500", "105654.292500", "105655.782500", "105657.272500", "105658.762500", "105700.252500", "105701.742500", "105703.232500", "105704.722500", "105706.212500", "105707.702500", "105709.192500", "105710.682500", "105712.172500", "105713.662500", "105715.152500", "105716.642500", "105718.132500", "105719.622500", "105721.112500", "105722.602500", "105724.092500", "105725.582500", "105727.072500", "105728.562500", "105730.052500", "105731.542500", "105733.032500", "105734.522500", "105736.012500", "105737.502500", "105738.992500", "105740.482500", "105741.972500", "105743.462500", "105744.952500", "105746.442500", "105747.932500", "105749.422500", "105750.912500", "105752.402500", "105753.892500", "105755.382500", "105756.872500", "105758.362500", "105759.852500", "105801.342500", "105802.832500", "105804.322500", "105805.812500", "105807.302500", "105808.792500", "105810.282500", "105811.772500", "105813.262500", "105814.752500", "105816.242500", "105817.732500", "105819.222500", "105820.712500", "105822.202500", "105823.692500", "105825.182500", "105826.672500", "105828.162500", "105829.652500", "105831.142500", "105832.632500", "105834.122500", "105835.612500", "105837.102500", "105838.592500", "105840.082500", "105841.572500", "105843.062500", "105844.552500", "105846.042500", "105847.532500", "105849.022500", "105850.512500", "105852.002500", "105853.492500", "105854.982500", "105856.472500", "105857.962500", "105859.452500", "105900.942500", "105902.432500", "105903.922500", "105905.412500", "105906.902500", "105908.392500", "105909.882500", "105911.372500", "105912.862500", "105914.352500", "105915.842500", "105917.332500", "105918.822500", "105920.312500", "105921.802500", "105923.292500", "105924.782500", "105926.272500", "105927.762500", "105929.252500", "105930.742500", "105932.232500", "105933.722500", "105935.212500", "105936.702500", "105938.192500", "105939.682500", "105941.172500", "105942.662500", "105944.152500", "105945.642500", "105947.132500", "105948.622500", "105950.112500", "105951.602500", "105953.092500", "105954.582500", "105956.072500"],
      "ContentTime": ["105641.361000", "105641.364000", "105641.367000", "105641.369000", "105641.372000", "105641.374000", "105641.377000", "105641.379000", "105641.382000", "105641.385000", "105641.388000", "105641.390000", "105641.393000", "105641.395000", "105641.398000", "105641.401000", "105641.403000", "105641.405000", "105641.408000", "105641.410000", "105641.413000", "105641.415000", "105641.418000", "105641.420000", "105641.423000", "105641.425000", "105641.428000", "105641.430000", "105641.433000", "105641.435000", "105641.438000", "105641.441000", "105641.443000", "105641.445000", "105701.267000", "105701.270000", "105701.272000", "105701.275000", "105701.277000", "105701.280000", "105701.282000", "105701.285000", "105701.288000", "105701.290000", "105701.293000", "105701.295000", "105701.298000", "105701.300000", "105701.302000", "105701.305000", "105701.308000", "105701.310000", "105701.312000", "105701.315000", "105721.294000", "105721.297000", "105721.300000", "105721.302000", "105721.305000", "105721.307000", "105721.310000", "105721.312000", "105721.315000", "105721.317000", "105721.320000", "105721.322000", "105721.325000", "105721.327000", "105721.330000", "105721.332000", "105721.335000", "105721.337000", "105721.340000", "105721.342000", "105741.276000", "105741.279000", "105741.281000", "105741.288000", "105741.290000", "105741.293000", "105741.295000", "105741.298000", "105741.300000", "105741.303000", "105741.305000", "105741.308000", "105741.310000", "105741.313000", "105741.315000", "105741.318000", "105741.320000", "105741.323000", "105741.325000", "105741.328000", "105821.320000", "105821.323000", "105821.325000", "105821.327000", "105821.330000", "105821.333000", "105821.335000", "105821.338000", "105821.340000", "105821.343000", "105821.345000", "105821.348000", "105821.350000", "105821.353000", "105821.355000", "105821.358000", "105821.360000", "105821.363000", "105821.365000", "105821.368000", "105821.370000", "105821.373000", "105821.375000", "105821.377000", "105821.380000", "105821.383000", "105821.385000", "105821.387000", "105821.390000", "105821.392000", "105821.395000", "105901.304000", "105901.307000", "105901.309000", "105901.312000", "105901.314000", "105901.317000", "105901.319000", "105901.322000", "105901.325000", "105901.327000", "105901.330000", "105901.333000", "105901.336000", "105901.339000", "105901.342000", "105901.346000", "105901.348000", "105901.351000", "105901.353000", "105901.356000", "105901.358000", "105901.361000", "105901.363000", "105901.366000", "105901.368000", "105901.371000", "105941.318000", "105941.320000", "105941.323000", "105941.325000", "105941.328000", "105941.330000", "105941.333000", "105941.336000", "105941.338000", "105941.340000", "105941.343000", "105941.346000", "105941.348000", "105941.350000", "105941.353000", "105941.356000", "105941.358000", "105941.361000", "105941.363000", "105941.366000", "105941.368000", "105941.371000", "105941.373000", "105941.376000", "105941.378000", "105941.381000", "105941.383000", "105958.094000", "105958.096000", "105958.099000", "105958.109000", "105958.111000", "105958.114000", "105958.116000", "105958.119000", "105958.122000", "105958.124000", "105958.127000", "105958.129000"],
      "InstanceCreationTime": ["105641.361000", "105641.364000", "105641.367000", "105641.369000", "105641.372000", "105641.374000", "105641.377000", "105641.379000", "105641.382000", "105641.385000", "105641.388000", "105641.390000", "105641.393000", "105641.395000", "105641.398000", "105641.401000", "105641.403000", "105641.405000", "105641.408000", "105641.410000", "105641.413000", "105641.415000", "105641.418000", "105641.420000", "105641.423000", "105641.425000", "105641.428000", "105641.430000", "105641.433000", "105641.435000", "105641.438000", "105641.441000", "105641.443000", "105641.445000", "105701.267000", "105701.270000", "105701.272000", "105701.275000", "105701.277000", "105701.280000", "105701.282000", "105701.285000", "105701.288000", "105701.290000", "105701.293000", "105701.295000", "105701.298000", "105701.300000", "105701.302000", "105701.305000", "105701.308000", "105701.310000", "105701.312000", "105701.315000", "105721.294000", "105721.297000", "105721.300000", "105721.302000", "105721.305000", "105721.307000", "105721.310000", "105721.312000", "105721.315000", "105721.317000", "105721.320000", "105721.322000", "105721.325000", "105721.327000", "105721.330000", "105721.332000", "105721.335000", "105721.337000", "105721.340000", "105721.342000", "105741.276000", "105741.279000", "105741.281000", "105741.288000", "105741.290000", "105741.293000", "105741.295000", "105741.298000", "105741.300000", "105741.303000", "105741.305000", "105741.308000", "105741.310000", "105741.313000", "105741.315000", "105741.318000", "105741.320000", "105741.323000", "105741.325000", "105741.328000", "105821.320000", "105821.323000", "105821.325000", "105821.327000", "105821.330000", "105821.333000", "105821.335000", "105821.338000", "105821.340000", "105821.343000", "105821.345000", "105821.348000", "105821.350000", "105821.353000", "105821.355000", "105821.358000", "105821.360000", "105821.363000", "105821.365000", "105821.368000", "105821.370000", "105821.373000", "105821.375000", "105821.377000", "105821.380000", "105821.383000", "105821.385000", "105821.387000", "105821.390000", "105821.392000", "105821.395000", "105901.304000", "105901.307000", "105901.309000", "105901.312000", "105901.314000", "105901.317000", "105901.319000", "105901.322000", "105901.325000", "105901.327000", "105901.330000", "105901.333000", "105901.336000", "105901.339000", "105901.342000", "105901.346000", "105901.348000", "105901.351000", "105901.353000", "105901.356000", "105901.358000", "105901.361000", "105901.363000", "105901.366000", "105901.368000", "105901.371000", "105941.318000", "105941.320000", "105941.323000", "105941.325000", "105941.328000", "105941.330000", "105941.333000", "105941.336000", "105941.338000", "105941.340000", "105941.343000", "105941.346000", "105941.348000", "105941.350000", "105941.353000", "105941.356000", "105941.358000", "105941.361000", "105941.363000", "105941.366000", "105941.368000", "105941.371000", "105941.373000", "105941.376000", "105941.378000", "105941.381000", "105941.383000", "105958.094000", "105958.096000", "105958.099000", "105958.109000", "105958.111000", "105958.114000", "105958.116000", "105958.119000", "105958.122000", "105958.124000", "105958.127000", "105958.129000"],
      "InstanceNumber": [1, 2, 3, 4, 5, 6, 7, 8, 9, 10, 11, 12, 13, 14, 15, 16, 17, 18, 19, 20, 21, 22, 23, 24, 25, 26, 27, 28, 29, 30, 31, 32, 33, 34, 35, 36, 37, 38, 39, 40, 41, 42, 43, 44, 45, 46, 47, 48, 49, 50, 51, 52, 53, 54, 55, 56, 57, 58, 59, 60, 61, 62, 63, 64, 65, 66, 67, 68, 69, 70, 71, 72, 73, 74, 75, 76, 77, 78, 79, 80, 81, 82, 83, 84, 85, 86, 87, 88, 89, 90, 91, 92, 93, 94, 95, 96, 97, 98, 99, 100, 101, 102, 103, 104, 105, 106, 107, 108, 109, 110, 111, 112, 113, 114, 115, 116, 117, 118, 119, 120, 121, 122, 123, 124, 125, 126, 127, 128, 129, 130, 131, 132, 133, 134, 135, 136, 137, 138, 139, 140, 141, 142, 143, 144, 145, 146, 147, 148, 149, 150, 151, 152, 153, 154, 155, 156, 157, 158, 159, 160, 161, 162, 163, 164, 165, 166, 167, 168, 169, 170, 171, 172, 173, 174, 175, 176, 177, 178, 179, 180, 181, 182, 183, 184, 185, 186, 187, 188, 189, 190],
      "WindowCenter": [4724.0, 4724.0, 4732.0, 4748.0, 4728.0, 4744.0, 4744.0, 4722.0, 4742.0, 4744.0, 4720.0, 4726.0, 4746.0, 4730.0, 4762.0, 4748.0, 4726.0, 4720.0, 4738.0, 4740.0, 4742.0, 4746.0, 4720.0, 4730.0, 4726.0, 4754.0, 4734.0, 4746.0, 4748.0, 4720.0, 4740.0, 4722.0, 4722.0, 4742.0, 4726.0, 4726.0, 4750.0, 4724.0, 4744.0, 4724.0, 4726.0, 4744.0, 4742.0, 4744.0, 4730.0, 4724.0, 4746.0, 4734.0, 4722.0, 4724.0, 4720.0, 4742.0, 4718.0, 4742.0, 4744.0, 4724.0, 4746.0, 4750.0, 4724.0, 4744.0, 4726.0, 4722.0, 4740.0, 4742.0, 4742.0, 4722.0, 4748.0, 4752.0, 4764.0, 4724.0, 4728.0, 4738.0, 4720.0, 4762.0, 4764.0, 4786.0, 4740.0, 4726.0, 4728.0, 4762.0, 4756.0, 4754.0, 4724.0, 4740.0, 4742.0, 4738.0, 4746.0, 4740.0, 4748.0, 4724.0, 4726.0, 4764.0, 4736.0, 4722.0, 4724.0, 4740.0, 4738.0, 4736.0, 4718.0, 4744.0, 4726.0, 4730.0, 4730.0, 4728.0, 4726.0, 4722.0, 4744.0, 4722.0, 4744.0, 4726.0, 4744.0, 4722.0, 4740.0, 4724.0, 4740.0, 4744.0, 4746.0, 4736.0, 4730.0, 4754.0, 4728.0, 4748.0, 4722.0, 4744.0, 4716.0, 4740.0, 4718.0, 4744.0, 4728.0, 4722.0, 4756.0, 4732.0, 4744.0, 4722.0, 4740.0, 4740.0, 4742.0, 4742.0, 4740.0, 4744.0, 4724.0, 4730.0, 4728.0, 4748.0, 4722.0, 4722.0, 4744.0, 4724.0, 4724.0, 4746.0, 4724.0, 4750.0, 4728.0, 4722.0, 4724.0, 4714.0, 4722.0, 4722.0, 4740.0, 4722.0, 4742.0, 4724.0, 4744.0, 4728.0, 4728.0, 4724.0, 4726.0, 4744.0, 4718.0, 4742.0, 4722.0, 4720.0, 4724.0, 4746.0, 4724.0, 4748.0, 4726.0, 4724.0, 4724.0, 4718.0, 4724.0, 4720.0, 4744.0, 4726.0, 4746.0, 4724.0, 4718.0, 4726.0, 4720.0, 4724.0],
      "WindowWidth": [18502.0, 18498.0, 18496.0, 18534.0, 18498.0, 18532.0, 18534.0, 18502.0, 18538.0, 18536.0, 18500.0, 18500.0, 18534.0, 18496.0, 18524.0, 18536.0, 18494.0, 18498.0, 18538.0, 18534.0, 18540.0, 18532.0, 18500.0, 18496.0, 18498.0, 18524.0, 18488.0, 18532.0, 18530.0, 18496.0, 18536.0, 18502.0, 18504.0, 18536.0, 18494.0, 18498.0, 18532.0, 18496.0, 18534.0, 18498.0, 18494.0, 18532.0, 18532.0, 18534.0, 18498.0, 18504.0, 18526.0, 18494.0, 18502.0, 18492.0, 18498.0, 18534.0, 18500.0, 18538.0, 18534.0, 18496.0, 18532.0, 18526.0, 18490.0, 18528.0, 18494.0, 18500.0, 18534.0, 18538.0, 18534.0, 18500.0, 18540.0, 18524.0, 18524.0, 18494.0, 18492.0, 18490.0, 18494.0, 18572.0, 18580.0, 18608.0, 18532.0, 18498.0, 18498.0, 18528.0, 18516.0, 18528.0, 18490.0, 18530.0, 18536.0, 18538.0, 18542.0, 18534.0, 18532.0, 18488.0, 18496.0, 18520.0, 18492.0, 18502.0, 18502.0, 18540.0, 18536.0, 18534.0, 18502.0, 18534.0, 18496.0, 18494.0, 18498.0, 18496.0, 18498.0, 18498.0, 18534.0, 18500.0, 18534.0, 18492.0, 18536.0, 18496.0, 18532.0, 18506.0, 18538.0, 18536.0, 18534.0, 18488.0, 18494.0, 18526.0, 18496.0, 18534.0, 18504.0, 18540.0, 18500.0, 18536.0, 18500.0, 18532.0, 18498.0, 18494.0, 18520.0, 18494.0, 18534.0, 18492.0, 18534.0, 18534.0, 18536.0, 18536.0, 18534.0, 18532.0, 18498.0, 18496.0, 18492.0, 18532.0, 18502.0, 18504.0, 18542.0, 18502.0, 18498.0, 18526.0, 18492.0, 18532.0, 18492.0, 18504.0, 18492.0, 18494.0, 18502.0, 18504.0, 18534.0, 18502.0, 18534.0, 18496.0, 18532.0, 18498.0, 18496.0, 18492.0, 18502.0, 18534.0, 18500.0, 18532.0, 18498.0, 18506.0, 18502.0, 18536.0, 18496.0, 18532.0, 18494.0, 18498.0, 18492.0, 18500.0, 18504.0, 18502.0, 18536.0, 18502.0, 18532.0, 18492.0, 18502.0, 18502.0, 18500.0, 18498.0]
    },
    "slices": {}
  }
}