{
  "AcquisitionMatrixPE": 104,
  "AcquisitionNumber": 1,
  "AcquisitionTime": "11:01:16.812500",
  "BandwidthPerPixelPhaseEncode": 17.17,
  "BaseResolution": 104,
  "BodyPartExamined": "BRAIN",
  "CoilCombinationMethod": "Sum of Squares",
  "ConsistencyInfo": "N4_VE11C_LATEST_20160120",
  "ConversionSoftware": "dcm2niix",
  "ConversionSoftwareVersion": "v1.0.20211006",
  "DerivedVendorReportedEchoSpacing": 0.000560011,
  "DeviceSerialNumber": "167006",
  "DwellTime": 2.1e-06,
  "EchoTime": 0.037,
  "EchoTrainLength": 104,
  "EffectiveEchoSpacing": 0.000560011,
  "FlipAngle": 52,
  "HeudiconvVersion": "0.10.0",
  "ImageComments": "Unaliased MB4/PE3/LB",
  "ImageOrientationPatientDICOM": [0.999024, -0.0247768, 0.0365714, 0.0399504, 0.860042, -0.508657],
  "ImageOrientationText": "Tra>Cor(-30.6)>Sag(1.1)",
  "ImageType": [
    "ORIGINAL",
    "PRIMARY",
    "M",
    "MB",
    "ND",
    "MOSAIC"
],
  "ImagingFrequency": 123.259,
  "InPlanePhaseEncodingDirectionDICOM": "COL",
  "InstitutionAddress": "Chemin Queen-Mary 4565,Montreal,District,CA,H3W 1W5",
  "InstitutionName": "IUGM",
  "InstitutionalDepartmentName": "Department",
  "MRAcquisitionType": "2D",
  "MagneticFieldStrength": 3,
  "Manufacturer": "Siemens",
  "ManufacturersModelName": "Prisma_fit",
  "MatrixCoilMode": "SENSE",
  "Modality": "MR",
  "MultibandAccelerationFactor": 4,
  "PartialFourier": 1,
  "PatientPosition": "HFS",
  "PercentPhaseFOV": 100,
  "PercentSampling": 100,
  "PhaseEncodingDirection": "j",
  "PhaseEncodingSteps": 104,
  "PhaseResolution": 1,
  "PixelBandwidth": 2290,
  "ProcedureStepDescription": "memory^things",
  "ProtocolName": "func_task-things_run-3",
  "PulseSequenceDetails": "%CustomerSeq%\\cmrr_mbep2d_bold",
  "ReceiveCoilActiveElements": "HC1-7;NC1,2",
  "ReceiveCoilName": "HeadNeck_64",
  "ReconMatrixPE": 104,
  "RepetitionTime": 1.49,
  "SAR": 0.0562001,
  "ScanOptions": "FS",
  "ScanningSequence": "EP",
  "SequenceName": "epfid2d1_104",
  "SequenceVariant": "SK\\SS",
  "SeriesDescription": "func_task-things_run-3",
  "SeriesNumber": 19,
  "ShimSetting": [623, -7171, -8866, 252, 5, -177, -58, 9],
  "SliceThickness": 2,
  "SliceTiming": [0, 0.7825, 0.0975, 0.8825, 0.195, 0.98, 0.2925, 1.0775, 0.3925, 1.175, 0.49, 1.2725, 0.5875, 1.3725, 0.685, 0, 0.7825, 0.0975, 0.8825, 0.195, 0.98, 0.2925, 1.0775, 0.3925, 1.175, 0.49, 1.2725, 0.5875, 1.3725, 0.685, 0, 0.7825, 0.0975, 0.8825, 0.195, 0.98, 0.2925, 1.0775, 0.3925, 1.175, 0.49, 1.2725, 0.5875, 1.3725, 0.685, 0, 0.7825, 0.0975, 0.8825, 0.195, 0.98, 0.2925, 1.0775, 0.3925, 1.175, 0.49, 1.2725, 0.5875, 1.3725, 0.685],
  "SoftwareVersions": "syngo MR E11",
  "SpacingBetweenSlices": 2,
  "StationName": "MRC35049",
  "TaskName": "things",
  "TotalReadoutTime": 0.0576811,
  "TxRefAmp": 283.445,
  "WipMemBlock": "d8224eaa-ec2a-46d4-b40a-b5deb45e2ba8||Sequence: R016 ve11c/master r/e634e98; Dec 19 2017 11:00:25 by eja",
  "dcmmeta_affine": [
    [-1.9980477094650269, 0.07990070432424545, 0.03770013526082039, 102.33026123046875],
    [0.049553558230400085, 1.720084309577942, -1.0192421674728394, -52.476871490478516],
    [0.07314278930425644, 1.0173131227493286, 1.7203848361968994, -103.9303207397461],
    [0.0, 0.0, 0.0, 1.0]
],
  "dcmmeta_reorient_transform": [
    [0.0, -1.0, 0.0, 103.0],
    [1.0, 0.0, 0.0, 0.0],
    [0.0, 0.0, 1.0, 0.0],
    [0.0, 0.0, 0.0, 1.0]
],
  "dcmmeta_shape": [104, 104, 60, 190],
  "dcmmeta_slice_dim": 2,
  "dcmmeta_version": 0.6,
  "global": {
    "const": {
      "AcquisitionMatrix": [104, 0, 0, 104],
      "AngioFlag": "N",
      "BitsAllocated": 16,
      "BitsStored": 16,
      "BodyPartExamined": "BRAIN",
      "Columns": 832,
      "EchoNumbers": 1,
      "EchoTime": 37.0,
      "EchoTrainLength": 104,
      "FlipAngle": 52.0,
      "HighBit": 15,
      "ImageOrientationPatient": [0.99902384568813, -0.02477677972, 0.03657139501315, 0.0399503523498, 0.86004213083849, -0.5086565663883],
      "ImagePositionPatient": [-866.93325235679, -732.76498325122, 344.53093939685],
      "ImageType": [
        "ORIGINAL",
        "PRIMARY",
        "M",
        "MB",
        "ND",
        "MOSAIC"
],
      "ImagedNucleus": "1H",
      "ImagingFrequency": 123.25888,
      "InPlanePhaseEncodingDirection": "COL",
      "MRAcquisitionType": "2D",
      "MagneticFieldStrength": 3.0,
      "Manufacturer": "SIEMENS",
      "ManufacturerModelName": "Prisma_fit",
      "Modality": "MR",
      "NumberOfAverages": 1.0,
      "NumberOfPhaseEncodingSteps": 104,
      "PercentPhaseFieldOfView": 100.0,
      "PercentSampling": 100.0,
      "PerformedProcedureStepStartTime": "103709.227000",
      "PhotometricInterpretation": "MONOCHROME2",
      "PixelBandwidth": 2290.0,
      "PixelRepresentation": 0,
      "PixelSpacing": [2.0, 2.0],
      "ProtocolName": "func_task-things_run-3",
      "RepetitionTime": 1490.0,
      "Rows": 832,
      "SAR": 0.05620012130437,
      "SamplesPerPixel": 1,
      "ScanOptions": "FS",
      "ScanningSequence": "EP",
      "SequenceName": "epfid2d1_104",
      "SequenceVariant": [
        "SK",
        "SS"
],
      "SeriesDescription": "func_task-things_run-3",
      "SeriesNumber": 19,
      "SeriesTime": "110231.435000",
      "SliceLocation": -60.727821363812,
      "SliceThickness": 2.0,
      "SmallestImagePixelValue": 0,
      "SoftwareVersions": "syngo MR E11",
      "SpacingBetweenSlices": 1.9999999474555,
      "SpecificCharacterSet": "ISO_IR 100",
      "StudyID": "1",
      "StudyTime": "103709.100000",
      "TransmitCoilName": "Body",
      "VariableFlipAngleFlag": "N",
      "WindowCenterWidthExplanation": "Algo1",
      "dBdt": 0.0},
    "slices": {}
  },
  "time": {
    "samples": {
      "AcquisitionNumber": [1, 2, 3, 4, 5, 6, 7, 8, 9, 10, 11, 12, 13, 14, 15, 16, 17, 18, 19, 20, 21, 22, 23, 24, 25, 26, 27, 28, 29, 30, 31, 32, 33, 34, 35, 36, 37, 38, 39, 40, 41, 42, 43, 44, 45, 46, 47, 48, 49, 50, 51, 52, 53, 54, 55, 56, 57, 58, 59, 60, 61, 62, 63, 64, 65, 66, 67, 68, 69, 70, 71, 72, 73, 74, 75, 76, 77, 78, 79, 80, 81, 82, 83, 84, 85, 86, 87, 88, 89, 90, 91, 92, 93, 94, 95, 96, 97, 98, 99, 100, 101, 102, 103, 104, 105, 106, 107, 108, 109, 110, 111, 112, 113, 114, 115, 116, 117, 118, 119, 120, 121, 122, 123, 124, 125, 126, 127, 128, 129, 130, 131, 132, 133, 134, 135, 136, 137, 138, 139, 140, 141, 142, 143, 144, 145, 146, 147, 148, 149, 150, 151, 152, 153, 154, 155, 156, 157, 158, 159, 160, 161, 162, 163, 164, 165, 166, 167, 168, 169, 170, 171, 172, 173, 174, 175, 176, 177, 178, 179, 180, 181, 182, 183, 184, 185, 186, 187, 188, 189, 190],
      "AcquisitionTime": ["110116.812500", "110118.302500", "110119.792500", "110121.282500", "110122.772500", "110124.262500", "110125.752500", "110127.242500", "110128.732500", "110130.222500", "110131.712500", "110133.202500", "110134.692500", "110136.182500", "110137.672500", "110139.162500", "110140.652500", "110142.142500", "110143.632500", "110145.122500", "110146.612500", "110148.102500", "110149.592500", "110151.082500", "110152.572500", "110154.062500", "110155.552500", "110157.042500", "110158.532500", "110200.022500", "110201.512500", "110203.002500", "110204.492500", "110205.982500", "110207.472500", "110208.962500", "110210.452500", "110211.942500", "110213.432500", "110214.922500", "110216.412500", "110217.902500", "110219.392500", "110220.882500", "110222.372500", "110223.862500", "110225.352500", "110226.842500", "110228.332500", "110229.822500", "110231.312500", "110232.802500", "110234.292500", "110235.782500", "110237.272500", "110238.762500", "110240.252500", "110241.742500", "110243.232500", "110244.722500", "110246.212500", "110247.702500", "110249.192500", "110250.682500", "110252.172500", "110253.662500", "110255.152500", "110256.642500", "110258.132500", "110259.622500", "110301.112500", "110302.602500", "110304.092500", "110305.582500", "110307.072500", "110308.562500", "110310.052500", "110311.542500", "110313.032500", "110314.522500", "110316.012500", "110317.502500", "110318.992500", "110320.482500", "110321.972500", "110323.462500", "110324.952500", "110326.442500", "110327.932500", "110329.422500", "110330.912500", "110332.402500", "110333.892500", "110335.382500", "110336.872500", "110338.362500", "110339.852500", "110341.342500", "110342.832500", "110344.322500", "110345.812500", "110347.302500", "110348.792500", "110350.282500", "110351.772500", "110353.262500", "110354.752500", "110356.242500", "110357.732500", "110359.222500", "110400.712500", "110402.202500", "110403.692500", "110405.182500", "110406.672500", "110408.162500", "110409.652500", "110411.142500", "110412.632500", "110414.122500", "110415.612500", "110417.102500", "110418.592500", "110420.082500", "110421.572500", "110423.062500", "110424.552500", "110426.042500", "110427.532500", "110429.022500", "110430.512500", "110432.002500", "110433.492500", "110434.982500", "110436.472500", "110437.962500", "110439.452500", "110440.942500", "110442.432500", "110443.922500", "110445.412500", "110446.902500", "110448.392500", "110449.882500", "110451.372500", "110452.862500", "110454.352500", "110455.842500", "110457.332500", "110458.822500", "110500.312500", "110501.802500", "110503.292500", "110504.782500", "110506.272500", "110507.762500", "110509.252500", "110510.742500", "110512.232500", "110513.722500", "110515.212500", "110516.702500", "110518.192500", "110519.682500", "110521.172500", "110522.662500", "110524.152500", "110525.642500", "110527.132500", "110528.622500", "110530.112500", "110531.602500", "110533.092500", "110534.582500", "110536.072500", "110537.562500", "110539.052500", "110540.542500", "110542.032500", "110543.522500", "110545.012500", "110546.502500", "110547.992500", "110549.482500", "110550.972500", "110552.462500", "110553.952500", "110555.442500", "110556.932500", "110558.422500"],
      "ContentTime": ["110231.438000", "110231.442000", "110231.445000", "110231.449000", "110231.452000", "110231.455000", "110231.458000", "110231.462000", "110231.465000", "110231.470000", "110231.474000", "110231.477000", "110231.480000", "110231.484000", "110231.487000", "110231.490000", "110231.493000", "110231.497000", "110231.500000", "110231.503000", "110231.506000", "110231.510000", "110251.403000", "110251.407000", "110251.410000", "110251.414000", "110251.417000", "110251.420000", "110251.423000", "110251.427000", "110251.430000", "110251.433000", "110251.436000", "110251.440000", "110251.443000", "110251.446000", "110251.449000", "110251.453000", "110251.456000", "110251.459000", "110251.462000", "110251.466000", "110311.403000", "110311.407000", "110311.410000", "110311.413000", "110311.417000", "110311.420000", "110311.423000", "110311.426000", "110311.430000", "110311.433000", "110311.436000", "110311.439000", "110311.443000", "110311.446000", "110311.449000", "110311.452000", "110311.456000", "110311.470000", "110311.473000", "110311.476000", "110331.402000", "110331.406000", "110331.409000", "110331.413000", "110331.416000", "110331.419000", "110331.423000", "110331.427000", "110331.430000", "110331.434000", "110331.437000", "110331.440000", "110331.444000", "110331.447000", "110331.450000", "110331.453000", "110331.457000", "110331.460000", "110331.463000", "110331.467000", "110351.402000", "110351.406000", "110351.409000", "110351.412000", "110351.416000", "110351.419000", "110351.422000", "110351.426000", "110351.429000", "110351.432000", "110351.436000", "110351.439000", "110351.442000", "110351.445000", "110351.449000", "110351.452000", "110351.455000", "110351.459000", "110351.462000", "110351.465000", "110431.403000", "110431.407000", "110431.410000", "110431.414000", "110431.417000", "110431.420000", "110431.424000", "110431.427000", "110431.431000", "110431.434000", "110431.438000", "110431.441000", "110431.445000", "110431.449000", "110431.453000", "110431.456000", "110431.459000", "110431.463000", "110431.466000", "110431.469000", "110431.472000", "110431.476000", "110431.479000", "110431.483000", "110431.486000", "110431.489000", "110431.492000", "110511.403000", "110511.417000", "110511.421000", "110511.424000", "110511.427000", "110511.431000", "110511.434000", "110511.437000", "110511.441000", "110511.444000", "110511.447000", "110511.450000", "110511.454000", "110511.457000", "110511.460000", "110511.464000", "110511.467000", "110511.470000", "110511.473000", "110511.477000", "110511.480000", "110511.483000", "110511.486000", "110511.490000", "110511.493000", "110511.496000", "110511.499000", "110551.402000", "110551.406000", "110551.409000", "110551.413000", "110551.416000", "110551.419000", "110551.423000", "110551.426000", "110551.429000", "110551.432000", "110551.436000", "110551.439000", "110551.442000", "110551.446000", "110551.449000", "110551.452000", "110551.455000", "110551.459000", "110551.462000", "110551.465000", "110551.468000", "110551.472000", "110551.475000", "110551.478000", "110551.482000", "110551.485000", "110551.488000", "110600.890000", "110600.894000", "110600.897000", "110600.908000", "110600.912000", "110600.915000", "110600.919000"],
      "InstanceCreationTime": ["110231.438000", "110231.442000", "110231.445000", "110231.449000", "110231.452000", "110231.455000", "110231.458000", "110231.462000", "110231.465000", "110231.470000", "110231.474000", "110231.477000", "110231.480000", "110231.484000", "110231.487000", "110231.490000", "110231.493000", "110231.497000", "110231.500000", "110231.503000", "110231.506000", "110231.510000", "110251.403000", "110251.407000", "110251.410000", "110251.414000", "110251.417000", "110251.420000", "110251.423000", "110251.427000", "110251.430000", "110251.433000", "110251.436000", "110251.440000", "110251.443000", "110251.446000", "110251.449000", "110251.453000", "110251.456000", "110251.459000", "110251.462000", "110251.466000", "110311.403000", "110311.407000", "110311.410000", "110311.413000", "110311.417000", "110311.420000", "110311.423000", "110311.426000", "110311.430000", "110311.433000", "110311.436000", "110311.439000", "110311.443000", "110311.446000", "110311.449000", "110311.452000", "110311.456000", "110311.470000", "110311.473000", "110311.476000", "110331.402000", "110331.406000", "110331.409000", "110331.413000", "110331.416000", "110331.419000", "110331.423000", "110331.427000", "110331.430000", "110331.434000", "110331.437000", "110331.440000", "110331.444000", "110331.447000", "110331.450000", "110331.453000", "110331.457000", "110331.460000", "110331.463000", "110331.467000", "110351.402000", "110351.406000", "110351.409000", "110351.412000", "110351.416000", "110351.419000", "110351.422000", "110351.426000", "110351.429000", "110351.432000", "110351.436000", "110351.439000", "110351.442000", "110351.445000", "110351.449000", "110351.452000", "110351.455000", "110351.459000", "110351.462000", "110351.465000", "110431.403000", "110431.407000", "110431.410000", "110431.414000", "110431.417000", "110431.420000", "110431.424000", "110431.427000", "110431.431000", "110431.434000", "110431.438000", "110431.441000", "110431.445000", "110431.449000", "110431.453000", "110431.456000", "110431.459000", "110431.463000", "110431.466000", "110431.469000", "110431.472000", "110431.476000", "110431.479000", "110431.483000", "110431.486000", "110431.489000", "110431.492000", "110511.403000", "110511.417000", "110511.421000", "110511.424000", "110511.427000", "110511.431000", "110511.434000", "110511.437000", "110511.441000", "110511.444000", "110511.447000", "110511.450000", "110511.454000", "110511.457000", "110511.460000", "110511.464000", "110511.467000", "110511.470000", "110511.473000", "110511.477000", "110511.480000", "110511.483000", "110511.486000", "110511.490000", "110511.493000", "110511.496000", "110511.499000", "110551.402000", "110551.406000", "110551.409000", "110551.413000", "110551.416000", "110551.419000", "110551.423000", "110551.426000", "110551.429000", "110551.432000", "110551.436000", "110551.439000", "110551.442000", "110551.446000", "110551.449000", "110551.452000", "110551.455000", "110551.459000", "110551.462000", "110551.465000", "110551.468000", "110551.472000", "110551.475000", "110551.478000", "110551.482000", "110551.485000", "110551.488000", "110600.890000", "110600.894000", "110600.897000", "110600.908000", "110600.912000", "110600.915000", "110600.919000"],
      "InstanceNumber": [1, 2, 3, 4, 5, 6, 7, 8, 9, 10, 11, 12, 13, 14, 15, 16, 17, 18, 19, 20, 21, 22, 23, 24, 25, 26, 27, 28, 29, 30, 31, 32, 33, 34, 35, 36, 37, 38, 39, 40, 41, 42, 43, 44, 45, 46, 47, 48, 49, 50, 51, 52, 53, 54, 55, 56, 57, 58, 59, 60, 61, 62, 63, 64, 65, 66, 67, 68, 69, 70, 71, 72, 73, 74, 75, 76, 77, 78, 79, 80, 81, 82, 83, 84, 85, 86, 87, 88, 89, 90, 91, 92, 93, 94, 95, 96, 97, 98, 99, 100, 101, 102, 103, 104, 105, 106, 107, 108, 109, 110, 111, 112, 113, 114, 115, 116, 117, 118, 119, 120, 121, 122, 123, 124, 125, 126, 127, 128, 129, 130, 131, 132, 133, 134, 135, 136, 137, 138, 139, 140, 141, 142, 143, 144, 145, 146, 147, 148, 149, 150, 151, 152, 153, 154, 155, 156, 157, 158, 159, 160, 161, 162, 163, 164, 165, 166, 167, 168, 169, 170, 171, 172, 173, 174, 175, 176, 177, 178, 179, 180, 181, 182, 183, 184, 185, 186, 187, 188, 189, 190],
      "LargestImagePixelValue": [42084, 41160, 40760, 40131, 40301, 39986, 40052, 40074, 40184, 40527, 40315, 40466, 40012, 39902, 39869, 39749, 39899, 40389, 40283, 39490, 39933, 39459, 39125, 39898, 40043, 39670, 39532, 39713, 39245, 39513, 38848, 39310, 40173, 39609, 40002, 39878, 40100, 40053, 39674, 39406, 39665, 39616, 39147, 39480, 39178, 38649, 39526, 38512, 39081, 38413, 38269, 38246, 37942, 38634, 38149, 38233, 38135, 38151, 38213, 38394, 37993, 37988, 38512, 38375, 38683, 38219, 38890, 38350, 38159, 38800, 38168, 38208, 38541, 38196, 38763, 38589, 38836, 38141, 38499, 38415, 39108, 38285, 38151, 37994, 38257, 37899, 38516, 38106, 38567, 38027, 37903, 38683, 38307, 38470, 38219, 38222, 38046, 38469, 38086, 38420, 38436, 38601, 38353, 38283, 38418, 38299, 38154, 37962, 38344, 38106, 38527, 38102, 37671, 38099, 38475, 37896, 38245, 37765, 38416, 37858, 38174, 38207, 38090, 38555, 37933, 38754, 38323, 39246, 38344, 38342, 38162, 38688, 38556, 37775, 37853, 38134, 38495, 38093, 38484, 37984, 38234, 38616, 38030, 38113, 38581, 38243, 38192, 38148, 38059, 38439, 38249, 38614, 38084, 38593, 37838, 38110, 37965, 37551, 38727, 38115, 38377, 38069, 38383, 38111, 38352, 38783, 39116, 40031, 39335, 39111, 38683, 39050, 38832, 38887, 39646, 39547, 39736, 39718, 40122, 39077, 39290, 38611, 39545, 38350, 38850, 38591, 37989, 38008, 38049, 38003],
      "WindowCenter": [10653.0, 10629.0, 10604.0, 10563.0, 10550.0, 10522.0, 10537.0, 10568.0, 10584.0, 10574.0, 10548.0, 10513.0, 10527.0, 10564.0, 10570.0, 10564.0, 10550.0, 10530.0, 10506.0, 10525.0, 10558.0, 10547.0, 10539.0, 10541.0, 10540.0, 10527.0, 10522.0, 10522.0, 10523.0, 10519.0, 10528.0, 10535.0, 10550.0, 10554.0, 10550.0, 10553.0, 10556.0, 10567.0, 10548.0, 10533.0, 10543.0, 10555.0, 10553.0, 10547.0, 10543.0, 10535.0, 10543.0, 10535.0, 10540.0, 10535.0, 10543.0, 10531.0, 10522.0, 10525.0, 10511.0, 10502.0, 10510.0, 10510.0, 10518.0, 10527.0, 10530.0, 10532.0, 10518.0, 10510.0, 10512.0, 10526.0, 10533.0, 10519.0, 10513.0, 10512.0, 10506.0, 10508.0, 10526.0, 10532.0, 10535.0, 10534.0, 10551.0, 10543.0, 10530.0, 10531.0, 10533.0, 10536.0, 10529.0, 10528.0, 10534.0, 10514.0, 10519.0, 10511.0, 10514.0, 10502.0, 10498.0, 10506.0, 10500.0, 10500.0, 10501.0, 10502.0, 10495.0, 10501.0, 10501.0, 10508.0, 10509.0, 10517.0, 10519.0, 10528.0, 10513.0, 10509.0, 10493.0, 10492.0, 10496.0, 10498.0, 10513.0, 10500.0, 10501.0, 10493.0, 10490.0, 10481.0, 10495.0, 10491.0, 10513.0, 10510.0, 10493.0, 10481.0, 10509.0, 10534.0, 10540.0, 10534.0, 10519.0, 10489.0, 10465.0, 10482.0, 10525.0, 10542.0, 10534.0, 10512.0, 10484.0, 10489.0, 10506.0, 10513.0, 10487.0, 10474.0, 10479.0, 10498.0, 10503.0, 10511.0, 10516.0, 10490.0, 10473.0, 10479.0, 10478.0, 10494.0, 10489.0, 10504.0, 10494.0, 10506.0, 10493.0, 10490.0, 10489.0, 10478.0, 10496.0, 10491.0, 10488.0, 10493.0, 10512.0, 10505.0, 10501.0, 10508.0, 10543.0, 10585.0, 10555.0, 10507.0, 10477.0, 10500.0, 10525.0, 10537.0, 10526.0, 10497.0, 10478.0, 10499.0, 10520.0, 10495.0, 10480.0, 10478.0, 10525.0, 10530.0, 10527.0, 10520.0, 10509.0, 10500.0, 10503.0, 10508.0],
      "WindowWidth": [22839.0, 22751.0, 22679.0, 22578.0, 22541.0, 22476.0, 22506.0, 22573.0, 22605.0, 22581.0, 22524.0, 22450.0, 22478.0, 22562.0, 22579.0, 22568.0, 22532.0, 22486.0, 22430.0, 22478.0, 22549.0, 22529.0, 22512.0, 22511.0, 22507.0, 22484.0, 22469.0, 22468.0, 22471.0, 22469.0, 22488.0, 22499.0, 22529.0, 22539.0, 22529.0, 22537.0, 22550.0, 22577.0, 22534.0, 22497.0, 22514.0, 22542.0, 22545.0, 22526.0, 22520.0, 22506.0, 22517.0, 22503.0, 22515.0, 22505.0, 22523.0, 22499.0, 22478.0, 22484.0, 22455.0, 22436.0, 22451.0, 22452.0, 22468.0, 22488.0, 22496.0, 22510.0, 22466.0, 22450.0, 22449.0, 22483.0, 22498.0, 22470.0, 22459.0, 22451.0, 22438.0, 22445.0, 22486.0, 22504.0, 22506.0, 22501.0, 22538.0, 22527.0, 22497.0, 22505.0, 22502.0, 22510.0, 22494.0, 22492.0, 22502.0, 22461.0, 22468.0, 22453.0, 22453.0, 22434.0, 22428.0, 22440.0, 22426.0, 22427.0, 22426.0, 22433.0, 22419.0, 22428.0, 22429.0, 22448.0, 22447.0, 22465.0, 22470.0, 22487.0, 22459.0, 22447.0, 22414.0, 22409.0, 22415.0, 22423.0, 22459.0, 22427.0, 22433.0, 22413.0, 22404.0, 22386.0, 22413.0, 22409.0, 22451.0, 22451.0, 22413.0, 22386.0, 22449.0, 22498.0, 22522.0, 22500.0, 22468.0, 22397.0, 22347.0, 22382.0, 22484.0, 22519.0, 22499.0, 22453.0, 22392.0, 22400.0, 22438.0, 22456.0, 22394.0, 22370.0, 22377.0, 22423.0, 22434.0, 22449.0, 22462.0, 22406.0, 22368.0, 22378.0, 22376.0, 22410.0, 22402.0, 22431.0, 22413.0, 22440.0, 22412.0, 22401.0, 22400.0, 22383.0, 22414.0, 22408.0, 22400.0, 22414.0, 22458.0, 22441.0, 22430.0, 22441.0, 22523.0, 22610.0, 22546.0, 22438.0, 22373.0, 22421.0, 22480.0, 22505.0, 22475.0, 22406.0, 22365.0, 22416.0, 22459.0, 22412.0, 22378.0, 22375.0, 22472.0, 22493.0, 22484.0, 22467.0, 22445.0, 22430.0, 22439.0, 22439.0]
    },
    "slices": {}
  }
}