{
  "AcquisitionMatrixPE": 104,
  "AcquisitionNumber": 1,
  "AcquisitionTime": "10:49:9.095000",
  "BandwidthPerPixelPhaseEncode": 17.17,
  "BaseResolution": 104,
  "BodyPartExamined": "BRAIN",
  "CoilCombinationMethod": "Sum of Squares",
  "ConsistencyInfo": "N4_VE11C_LATEST_20160120",
  "ConversionSoftware": "dcm2niix",
  "ConversionSoftwareVersion": "v1.0.20211006",
  "DerivedVendorReportedEchoSpacing": 0.000560011,
  "DeviceSerialNumber": "167006",
  "DwellTime": 2.1e-06,
  "EchoTime": 0.037,
  "EchoTime1": 0.037,
  "EchoTime2": 0.001,
  "EchoTrainLength": 104,
  "EffectiveEchoSpacing": 0.000560011,
  "FlipAngle": 52,
  "HeudiconvVersion": "0.10.0",
  "ImageComments": "Unaliased MB4/PE3/LB",
  "ImageOrientationPatientDICOM": [0.999024, -0.0247768, 0.0365714, 0.0399504, 0.860042, -0.508657],
  "ImageOrientationText": "Tra>Cor(-30.6)>Sag(1.1)",
  "ImageType": [
    "ORIGINAL",
    "PRIMARY",
    "P",
    "MB",
    "ND",
    "MOSAIC",
    "PHASE"
],
  "ImagingFrequency": 123.259,
  "InPlanePhaseEncodingDirectionDICOM": "COL",
  "InstitutionAddress": "Chemin Queen-Mary 4565,Montreal,District,CA,H3W 1W5",
  "InstitutionName": "IUGM",
  "InstitutionalDepartmentName": "Department",
  "MRAcquisitionType": "2D",
  "MagneticFieldStrength": 3,
  "Manufacturer": "Siemens",
  "ManufacturersModelName": "Prisma_fit",
  "MatrixCoilMode": "SENSE",
  "Modality": "MR",
  "MultibandAccelerationFactor": 4,
  "PartialFourier": 1,
  "PatientPosition": "HFS",
  "PercentPhaseFOV": 100,
  "PercentSampling": 100,
  "PhaseEncodingDirection": "j",
  "PhaseEncodingSteps": 104,
  "PhaseResolution": 1,
  "PixelBandwidth": 2290,
  "ProcedureStepDescription": "memory^things",
  "ProtocolName": "func_task-things_run-1",
  "PulseSequenceDetails": "%CustomerSeq%\\cmrr_mbep2d_bold",
  "ReceiveCoilActiveElements": "HC1-7;NC1,2",
  "ReceiveCoilName": "HeadNeck_64",
  "ReconMatrixPE": 104,
  "RepetitionTime": 1.49,
  "SAR": 0.0562001,
  "ScanOptions": "FS",
  "ScanningSequence": "EP",
  "SequenceName": "epfid2d1_104",
  "SequenceVariant": "SK\\SS",
  "SeriesDescription": "func_task-things_run-1",
  "SeriesNumber": 14,
  "ShimSetting": [623, -7171, -8866, 252, 5, -177, -58, 9],
  "SliceThickness": 2,
  "SliceTiming": [0, 0.7825, 0.0975, 0.8825, 0.195, 0.98, 0.2925, 1.0775, 0.3925, 1.175, 0.49, 1.2725, 0.5875, 1.3725, 0.685, 0, 0.7825, 0.0975, 0.8825, 0.195, 0.98, 0.2925, 1.0775, 0.3925, 1.175, 0.49, 1.2725, 0.5875, 1.3725, 0.685, 0, 0.7825, 0.0975, 0.8825, 0.195, 0.98, 0.2925, 1.0775, 0.3925, 1.175, 0.49, 1.2725, 0.5875, 1.3725, 0.685, 0, 0.7825, 0.0975, 0.8825, 0.195, 0.98, 0.2925, 1.0775, 0.3925, 1.175, 0.49, 1.2725, 0.5875, 1.3725, 0.685],
  "SoftwareVersions": "syngo MR E11",
  "SpacingBetweenSlices": 2,
  "StationName": "MRC35049",
  "TaskName": "things",
  "TotalReadoutTime": 0.0576811,
  "TxRefAmp": 283.445,
  "WipMemBlock": "63b7e29a-a2f5-4163-bde6-25de8590b383||Sequence: R016 ve11c/master r/e634e98; Dec 19 2017 11:00:25 by eja",
  "dcmmeta_affine": [
    [-1.9980477094650269, 0.07990070432424545, 0.03770013526082039, 102.33026123046875],
    [0.049553558230400085, 1.720084309577942, -1.0192421674728394, -52.476871490478516],
    [0.07314278930425644, 1.0173131227493286, 1.7203848361968994, -103.9303207397461],
    [0.0, 0.0, 0.0, 1.0]
],
  "dcmmeta_reorient_transform": [
    [0.0, -1.0, 0.0, 103.0],
    [1.0, 0.0, 0.0, 0.0],
    [0.0, 0.0, 1.0, 0.0],
    [0.0, 0.0, 0.0, 1.0]
],
  "dcmmeta_shape": [104, 104, 60, 190],
  "dcmmeta_slice_dim": 2,
  "dcmmeta_version": 0.6,
  "global": {
    "const": {
      "AcquisitionMatrix": [104, 0, 0, 104],
      "AngioFlag": "N",
      "BitsAllocated": 16,
      "BitsStored": 16,
      "BodyPartExamined": "BRAIN",
      "Columns": 832,
      "EchoNumbers": 1,
      "EchoTime": 37.0,
      "EchoTrainLength": 104,
      "FlipAngle": 52.0,
      "HighBit": 15,
      "ImageOrientationPatient": [0.99902384568813, -0.02477677972, 0.03657139501315, 0.0399503523498, 0.86004213083849, -0.5086565663883],
      "ImagePositionPatient": [-866.93325235679, -732.76498325122, 344.53093939685],
      "ImageType": [
        "ORIGINAL",
        "PRIMARY",
        "P",
        "MB",
        "ND",
        "MOSAIC"
],
      "ImagedNucleus": "1H",
      "ImagingFrequency": 123.258874,
      "InPlanePhaseEncodingDirection": "COL",
      "LargestImagePixelValue": 4095,
      "MRAcquisitionType": "2D",
      "MagneticFieldStrength": 3.0,
      "Manufacturer": "SIEMENS",
      "ManufacturerModelName": "Prisma_fit",
      "Modality": "MR",
      "NumberOfAverages": 1.0,
      "NumberOfPhaseEncodingSteps": 104,
      "PercentPhaseFieldOfView": 100.0,
      "PercentSampling": 100.0,
      "PerformedProcedureStepStartTime": "103709.227000",
      "PhotometricInterpretation": "MONOCHROME2",
      "PixelBandwidth": 2290.0,
      "PixelRepresentation": 0,
      "PixelSpacing": [2.0, 2.0],
      "ProtocolName": "func_task-things_run-1",
      "RepetitionTime": 1490.0,
      "RescaleIntercept": -4096.0,
      "RescaleSlope": 2.0,
      "RescaleType": "US",
      "Rows": 832,
      "SAR": 0.05620012130437,
      "SamplesPerPixel": 1,
      "ScanOptions": "FS",
      "ScanningSequence": "EP",
      "SequenceName": "epfid2d1_104",
      "SequenceVariant": [
        "SK",
        "SS"
],
      "SeriesDescription": "func_task-things_run-1",
      "SeriesNumber": 14,
      "SeriesTime": "105031.591000",
      "SliceLocation": -60.727821363812,
      "SliceThickness": 2.0,
      "SmallestImagePixelValue": 0,
      "SoftwareVersions": "syngo MR E11",
      "SpacingBetweenSlices": 1.9999999474555,
      "SpecificCharacterSet": "ISO_IR 100",
      "StudyID": "1",
      "StudyTime": "103709.100000",
      "TransmitCoilName": "Body",
      "VariableFlipAngleFlag": "N",
      "WindowCenterWidthExplanation": "Algo1",
      "dBdt": 0.0},
    "slices": {}
  },
  "time": {
    "samples": {
      "AcquisitionNumber": [1, 2, 3, 4, 5, 6, 7, 8, 9, 10, 11, 12, 13, 14, 15, 16, 17, 18, 19, 20, 21, 22, 23, 24, 25, 26, 27, 28, 29, 30, 31, 32, 33, 34, 35, 36, 37, 38, 39, 40, 41, 42, 43, 44, 45, 46, 47, 48, 49, 50, 51, 52, 53, 54, 55, 56, 57, 58, 59, 60, 61, 62, 63, 64, 65, 66, 67, 68, 69, 70, 71, 72, 73, 74, 75, 76, 77, 78, 79, 80, 81, 82, 83, 84, 85, 86, 87, 88, 89, 90, 91, 92, 93, 94, 95, 96, 97, 98, 99, 100, 101, 102, 103, 104, 105, 106, 107, 108, 109, 110, 111, 112, 113, 114, 115, 116, 117, 118, 119, 120, 121, 122, 123, 124, 125, 126, 127, 128, 129, 130, 131, 132, 133, 134, 135, 136, 137, 138, 139, 140, 141, 142, 143, 144, 145, 146, 147, 148, 149, 150, 151, 152, 153, 154, 155, 156, 157, 158, 159, 160, 161, 162, 163, 164, 165, 166, 167, 168, 169, 170, 171, 172, 173, 174, 175, 176, 177, 178, 179, 180, 181, 182, 183, 184, 185, 186, 187, 188, 189, 190],
      "AcquisitionTime": ["104909.095000", "104910.585000", "104912.075000", "104913.565000", "104915.055000", "104916.545000", "104918.035000", "104919.525000", "104921.015000", "104922.505000", "104923.995000", "104925.485000", "104926.975000", "104928.465000", "104929.955000", "104931.445000", "104932.935000", "104934.425000", "104935.915000", "104937.405000", "104938.895000", "104940.385000", "104941.875000", "104943.365000", "104944.855000", "104946.345000", "104947.835000", "104949.325000", "104950.815000", "104952.305000", "104953.795000", "104955.285000", "104956.775000", "104958.265000", "104959.755000", "105001.245000", "105002.735000", "105004.225000", "105005.715000", "105007.205000", "105008.695000", "105010.185000", "105011.675000", "105013.165000", "105014.655000", "105016.145000", "105017.635000", "105019.125000", "105020.615000", "105022.105000", "105023.595000", "105025.085000", "105026.575000", "105028.065000", "105029.555000", "105031.045000", "105032.535000", "105034.025000", "105035.515000", "105037.005000", "105038.495000", "105039.985000", "105041.475000", "105042.965000", "105044.455000", "105045.945000", "105047.435000", "105048.925000", "105050.415000", "105051.905000", "105053.395000", "105054.885000", "105056.375000", "105057.865000", "105059.355000", "105100.845000", "105102.335000", "105103.825000", "105105.315000", "105106.805000", "105108.295000", "105109.785000", "105111.275000", "105112.765000", "105114.255000", "105115.745000", "105117.235000", "105118.725000", "105120.215000", "105121.705000", "105123.195000", "105124.685000", "105126.175000", "105127.665000", "105129.155000", "105130.645000", "105132.135000", "105133.625000", "105135.115000", "105136.605000", "105138.095000", "105139.585000", "105141.075000", "105142.565000", "105144.055000", "105145.545000", "105147.035000", "105148.525000", "105150.015000", "105151.505000", "105152.995000", "105154.485000", "105155.975000", "105157.465000", "105158.955000", "105200.445000", "105201.935000", "105203.425000", "105204.915000", "105206.405000", "105207.895000", "105209.385000", "105210.875000", "105212.365000", "105213.855000", "105215.345000", "105216.835000", "105218.325000", "105219.815000", "105221.305000", "105222.795000", "105224.285000", "105225.775000", "105227.265000", "105228.755000", "105230.245000", "105231.735000", "105233.225000", "105234.715000", "105236.205000", "105237.695000", "105239.185000", "105240.675000", "105242.165000", "105243.655000", "105245.145000", "105246.635000", "105248.125000", "105249.615000", "105251.105000", "105252.595000", "105254.085000", "105255.575000", "105257.065000", "105258.555000", "105300.045000", "105301.535000", "105303.025000", "105304.515000", "105306.005000", "105307.495000", "105308.985000", "105310.475000", "105311.965000", "105313.455000", "105314.945000", "105316.435000", "105317.925000", "105319.415000", "105320.905000", "105322.395000", "105323.885000", "105325.375000", "105326.865000", "105328.355000", "105329.845000", "105331.335000", "105332.825000", "105334.315000", "105335.805000", "105337.295000", "105338.785000", "105340.275000", "105341.765000", "105343.255000", "105344.745000", "105346.235000", "105347.725000", "105349.215000", "105350.705000"],
      "ContentTime": ["105031.593000", "105031.596000", "105031.599000", "105031.601000", "105031.604000", "105031.606000", "105031.613000", "105031.616000", "105031.618000", "105031.621000", "105031.623000", "105031.626000", "105031.629000", "105031.631000", "105031.633000", "105031.636000", "105031.638000", "105031.641000", "105031.643000", "105031.646000", "105031.648000", "105031.651000", "105031.653000", "105031.656000", "105031.659000", "105031.661000", "105031.663000", "105112.092000", "105112.095000", "105112.097000", "105112.100000", "105112.102000", "105112.105000", "105112.107000", "105112.110000", "105112.119000", "105112.121000", "105112.124000", "105112.126000", "105112.129000", "105112.131000", "105112.134000", "105112.136000", "105112.139000", "105112.141000", "105112.144000", "105112.146000", "105112.149000", "105112.151000", "105112.154000", "105112.156000", "105112.159000", "105112.162000", "105112.164000", "105112.167000", "105112.169000", "105112.172000", "105112.174000", "105112.177000", "105112.179000", "105112.182000", "105112.184000", "105112.187000", "105112.189000", "105112.192000", "105112.194000", "105131.536000", "105131.539000", "105131.541000", "105131.544000", "105131.546000", "105131.549000", "105131.551000", "105131.554000", "105131.556000", "105131.559000", "105131.561000", "105131.564000", "105131.567000", "105131.569000", "105131.572000", "105131.574000", "105131.577000", "105131.579000", "105131.582000", "105131.584000", "105131.587000", "105151.518000", "105151.520000", "105151.523000", "105151.525000", "105151.528000", "105151.530000", "105151.533000", "105151.536000", "105151.538000", "105151.540000", "105151.543000", "105151.546000", "105151.548000", "105151.550000", "105151.553000", "105151.556000", "105151.558000", "105151.561000", "105151.563000", "105151.566000", "105231.566000", "105231.569000", "105231.572000", "105231.575000", "105231.577000", "105231.580000", "105231.582000", "105231.585000", "105231.587000", "105231.590000", "105231.592000", "105231.595000", "105231.597000", "105231.600000", "105231.602000", "105231.605000", "105231.607000", "105231.610000", "105231.612000", "105231.615000", "105231.617000", "105231.620000", "105231.622000", "105231.625000", "105231.627000", "105231.630000", "105231.632000", "105231.635000", "105311.574000", "105311.576000", "105311.579000", "105311.582000", "105311.584000", "105311.587000", "105311.589000", "105311.592000", "105311.594000", "105311.597000", "105311.599000", "105311.602000", "105311.604000", "105311.607000", "105311.609000", "105311.612000", "105311.614000", "105311.617000", "105311.620000", "105311.622000", "105311.625000", "105311.627000", "105311.630000", "105311.632000", "105311.635000", "105311.637000", "105311.640000", "105351.553000", "105351.556000", "105351.558000", "105351.561000", "105351.563000", "105351.566000", "105351.568000", "105351.571000", "105351.573000", "105351.576000", "105351.578000", "105351.581000", "105351.583000", "105351.586000", "105351.588000", "105351.591000", "105351.593000", "105351.596000", "105351.599000", "105351.601000", "105351.603000", "105351.606000", "105351.609000", "105351.611000", "105351.614000", "105351.616000", "105351.619000", "105352.495000"],
      "InstanceCreationTime": ["105031.593000", "105031.596000", "105031.599000", "105031.601000", "105031.604000", "105031.606000", "105031.613000", "105031.616000", "105031.618000", "105031.621000", "105031.623000", "105031.626000", "105031.629000", "105031.631000", "105031.633000", "105031.636000", "105031.638000", "105031.641000", "105031.643000", "105031.646000", "105031.648000", "105031.651000", "105031.653000", "105031.656000", "105031.659000", "105031.661000", "105031.663000", "105112.092000", "105112.095000", "105112.097000", "105112.100000", "105112.102000", "105112.105000", "105112.107000", "105112.110000", "105112.119000", "105112.121000", "105112.124000", "105112.126000", "105112.129000", "105112.131000", "105112.134000", "105112.136000", "105112.139000", "105112.141000", "105112.144000", "105112.146000", "105112.149000", "105112.151000", "105112.154000", "105112.156000", "105112.159000", "105112.162000", "105112.164000", "105112.167000", "105112.169000", "105112.172000", "105112.174000", "105112.177000", "105112.179000", "105112.182000", "105112.184000", "105112.187000", "105112.189000", "105112.192000", "105112.194000", "105131.536000", "105131.539000", "105131.541000", "105131.544000", "105131.546000", "105131.549000", "105131.551000", "105131.554000", "105131.556000", "105131.559000", "105131.561000", "105131.564000", "105131.567000", "105131.569000", "105131.572000", "105131.574000", "105131.577000", "105131.579000", "105131.582000", "105131.584000", "105131.587000", "105151.518000", "105151.520000", "105151.523000", "105151.525000", "105151.528000", "105151.530000", "105151.533000", "105151.536000", "105151.538000", "105151.540000", "105151.543000", "105151.546000", "105151.548000", "105151.550000", "105151.553000", "105151.556000", "105151.558000", "105151.561000", "105151.563000", "105151.566000", "105231.566000", "105231.569000", "105231.572000", "105231.575000", "105231.577000", "105231.580000", "105231.582000", "105231.585000", "105231.587000", "105231.590000", "105231.592000", "105231.595000", "105231.597000", "105231.600000", "105231.602000", "105231.605000", "105231.607000", "105231.610000", "105231.612000", "105231.615000", "105231.617000", "105231.620000", "105231.622000", "105231.625000", "105231.627000", "105231.630000", "105231.632000", "105231.635000", "105311.574000", "105311.576000", "105311.579000", "105311.582000", "105311.584000", "105311.587000", "105311.589000", "105311.592000", "105311.594000", "105311.597000", "105311.599000", "105311.602000", "105311.604000", "105311.607000", "105311.609000", "105311.612000", "105311.614000", "105311.617000", "105311.620000", "105311.622000", "105311.625000", "105311.627000", "105311.630000", "105311.632000", "105311.635000", "105311.637000", "105311.640000", "105351.553000", "105351.556000", "105351.558000", "105351.561000", "105351.563000", "105351.566000", "105351.568000", "105351.571000", "105351.573000", "105351.576000", "105351.578000", "105351.581000", "105351.583000", "105351.586000", "105351.588000", "105351.591000", "105351.593000", "105351.596000", "105351.599000", "105351.601000", "105351.603000", "105351.606000", "105351.609000", "105351.611000", "105351.614000", "105351.616000", "105351.619000", "105352.495000"],
      "InstanceNumber": [1, 2, 3, 4, 5, 6, 7, 8, 9, 10, 11, 12, 13, 14, 15, 16, 17, 18, 19, 20, 21, 22, 23, 24, 25, 26, 27, 28, 29, 30, 31, 32, 33, 34, 35, 36, 37, 38, 39, 40, 41, 42, 43, 44, 45, 46, 47, 48, 49, 50, 51, 52, 53, 54, 55, 56, 57, 58, 59, 60, 61, 62, 63, 64, 65, 66, 67, 68, 69, 70, 71, 72, 73, 74, 75, 76, 77, 78, 79, 80, 81, 82, 83, 84, 85, 86, 87, 88, 89, 90, 91, 92, 93, 94, 95, 96, 97, 98, 99, 100, 101, 102, 103, 104, 105, 106, 107, 108, 109, 110, 111, 112, 113, 114, 115, 116, 117, 118, 119, 120, 121, 122, 123, 124, 125, 126, 127, 128, 129, 130, 131, 132, 133, 134, 135, 136, 137, 138, 139, 140, 141, 142, 143, 144, 145, 146, 147, 148, 149, 150, 151, 152, 153, 154, 155, 156, 157, 158, 159, 160, 161, 162, 163, 164, 165, 166, 167, 168, 169, 170, 171, 172, 173, 174, 175, 176, 177, 178, 179, 180, 181, 182, 183, 184, 185, 186, 187, 188, 189, 190],
      "WindowCenter": [4756.0, 4754.0, 4758.0, 4754.0, 4766.0, 4756.0, 4758.0, 4758.0, 4760.0, 4756.0, 4790.0, 4762.0, 4762.0, 4760.0, 4758.0, 4754.0, 4754.0, 4730.0, 4754.0, 4794.0, 4792.0, 4752.0, 4760.0, 4748.0, 4746.0, 4748.0, 4758.0, 4754.0, 4764.0, 4762.0, 4760.0, 4762.0, 4756.0, 4750.0, 4746.0, 4748.0, 4752.0, 4800.0, 4792.0, 4798.0, 4790.0, 4764.0, 4752.0, 4730.0, 4744.0, 4746.0, 4746.0, 4746.0, 4758.0, 4760.0, 4792.0, 4762.0, 4792.0, 4758.0, 4752.0, 4752.0, 4752.0, 4752.0, 4754.0, 4758.0, 4760.0, 4790.0, 4756.0, 4758.0, 4754.0, 4754.0, 4752.0, 4756.0, 4754.0, 4754.0, 4784.0, 4756.0, 4788.0, 4764.0, 4754.0, 4752.0, 4750.0, 4754.0, 4754.0, 4762.0, 4756.0, 4786.0, 4762.0, 4756.0, 4758.0, 4754.0, 4756.0, 4754.0, 4758.0, 4754.0, 4754.0, 4756.0, 4760.0, 4758.0, 4788.0, 4758.0, 4758.0, 4762.0, 4752.0, 4756.0, 4756.0, 4750.0, 4754.0, 4752.0, 4758.0, 4752.0, 4784.0, 4756.0, 4762.0, 4754.0, 4756.0, 4756.0, 4758.0, 4752.0, 4756.0, 4756.0, 4760.0, 4756.0, 4760.0, 4752.0, 4754.0, 4752.0, 4758.0, 4758.0, 4764.0, 4756.0, 4760.0, 4754.0, 4758.0, 4748.0, 4756.0, 4750.0, 4754.0, 4752.0, 4758.0, 4754.0, 4750.0, 4754.0, 4764.0, 4758.0, 4766.0, 4758.0, 4760.0, 4752.0, 4754.0, 4750.0, 4754.0, 4754.0, 4758.0, 4756.0, 4760.0, 4756.0, 4760.0, 4752.0, 4756.0, 4752.0, 4760.0, 4756.0, 4756.0, 4754.0, 4758.0, 4758.0, 4754.0, 4762.0, 4756.0, 4760.0, 4756.0, 4762.0, 4752.0, 4766.0, 4754.0, 4752.0, 4754.0, 4748.0, 4750.0, 4754.0, 4754.0, 4756.0, 4792.0, 4758.0, 4758.0, 4764.0, 4752.0, 4756.0, 4752.0, 4750.0, 4760.0, 4754.0, 4756.0, 4750.0],
      "WindowWidth": [18526.0, 18534.0, 18524.0, 18536.0, 18524.0, 18528.0, 18532.0, 18536.0, 18532.0, 18534.0, 18560.0, 18530.0, 18528.0, 18534.0, 18532.0, 18536.0, 18526.0, 18490.0, 18534.0, 18560.0, 18560.0, 18528.0, 18526.0, 18528.0, 18530.0, 18538.0, 18534.0, 18530.0, 18528.0, 18530.0, 18530.0, 18532.0, 18536.0, 18536.0, 18532.0, 18532.0, 18534.0, 18574.0, 18564.0, 18568.0, 18568.0, 18532.0, 18532.0, 18498.0, 18534.0, 18536.0, 18528.0, 18528.0, 18532.0, 18532.0, 18566.0, 18530.0, 18566.0, 18532.0, 18534.0, 18534.0, 18532.0, 18534.0, 18538.0, 18532.0, 18532.0, 18562.0, 18534.0, 18532.0, 18536.0, 18532.0, 18536.0, 18534.0, 18536.0, 18534.0, 18564.0, 18534.0, 18564.0, 18532.0, 18534.0, 18536.0, 18534.0, 18534.0, 18536.0, 18532.0, 18534.0, 18564.0, 18532.0, 18538.0, 18532.0, 18534.0, 18530.0, 18536.0, 18530.0, 18536.0, 18534.0, 18538.0, 18536.0, 18530.0, 18566.0, 18530.0, 18538.0, 18530.0, 18532.0, 18534.0, 18534.0, 18532.0, 18534.0, 18532.0, 18532.0, 18530.0, 18564.0, 18538.0, 18534.0, 18530.0, 18534.0, 18536.0, 18534.0, 18532.0, 18534.0, 18536.0, 18538.0, 18534.0, 18532.0, 18530.0, 18528.0, 18536.0, 18534.0, 18534.0, 18536.0, 18530.0, 18534.0, 18532.0, 18526.0, 18532.0, 18526.0, 18530.0, 18528.0, 18532.0, 18532.0, 18532.0, 18530.0, 18532.0, 18532.0, 18528.0, 18534.0, 18536.0, 18530.0, 18532.0, 18528.0, 18532.0, 18526.0, 18540.0, 18532.0, 18536.0, 18536.0, 18534.0, 18528.0, 18528.0, 18528.0, 18532.0, 18538.0, 18532.0, 18532.0, 18532.0, 18534.0, 18538.0, 18532.0, 18532.0, 18532.0, 18534.0, 18534.0, 18528.0, 18530.0, 18534.0, 18530.0, 18528.0, 18528.0, 18532.0, 18524.0, 18534.0, 18526.0, 18532.0, 18560.0, 18528.0, 18528.0, 18532.0, 18534.0, 18528.0, 18524.0, 18530.0, 18528.0, 18532.0, 18528.0, 18530.0]
    },
    "slices": {}
  }
}