{
  "AcquisitionMatrixPE": 104,
  "AcquisitionNumber": 1,
  "AcquisitionTime": "11:07:46.692500",
  "BandwidthPerPixelPhaseEncode": 17.17,
  "BaseResolution": 104,
  "BodyPartExamined": "BRAIN",
  "CoilCombinationMethod": "Sum of Squares",
  "ConsistencyInfo": "N4_VE11C_LATEST_20160120",
  "ConversionSoftware": "dcm2niix",
  "ConversionSoftwareVersion": "v1.0.20211006",
  "DerivedVendorReportedEchoSpacing": 0.000560011,
  "DeviceSerialNumber": "167006",
  "DwellTime": 2.1e-06,
  "EchoTime": 0.037,
  "EchoTrainLength": 104,
  "EffectiveEchoSpacing": 0.000560011,
  "FlipAngle": 52,
  "HeudiconvVersion": "0.10.0",
  "ImageComments": "Unaliased MB4/PE3/LB",
  "ImageOrientationPatientDICOM": [0.999024, -0.0247768, 0.0365714, 0.0399504, 0.860042, -0.508657],
  "ImageOrientationText": "Tra>Cor(-30.6)>Sag(1.1)",
  "ImageType": [
    "ORIGINAL",
    "PRIMARY",
    "M",
    "MB",
    "ND",
    "MOSAIC"
],
  "ImagingFrequency": 123.259,
  "InPlanePhaseEncodingDirectionDICOM": "COL",
  "InstitutionAddress": "Chemin Queen-Mary 4565,Montreal,District,CA,H3W 1W5",
  "InstitutionName": "IUGM",
  "InstitutionalDepartmentName": "Department",
  "MRAcquisitionType": "2D",
  "MagneticFieldStrength": 3,
  "Manufacturer": "Siemens",
  "ManufacturersModelName": "Prisma_fit",
  "MatrixCoilMode": "SENSE",
  "Modality": "MR",
  "MultibandAccelerationFactor": 4,
  "PartialFourier": 1,
  "PatientPosition": "HFS",
  "PercentPhaseFOV": 100,
  "PercentSampling": 100,
  "PhaseEncodingDirection": "j",
  "PhaseEncodingSteps": 104,
  "PhaseResolution": 1,
  "PixelBandwidth": 2290,
  "ProcedureStepDescription": "memory^things",
  "ProtocolName": "func_task-things_run-4",
  "PulseSequenceDetails": "%CustomerSeq%\\cmrr_mbep2d_bold",
  "ReceiveCoilActiveElements": "HC1-7;NC1,2",
  "ReceiveCoilName": "HeadNeck_64",
  "ReconMatrixPE": 104,
  "RepetitionTime": 1.49,
  "SAR": 0.0562001,
  "ScanOptions": "FS",
  "ScanningSequence": "EP",
  "SequenceName": "epfid2d1_104",
  "SequenceVariant": "SK\\SS",
  "SeriesDescription": "func_task-things_run-4",
  "SeriesNumber": 22,
  "ShimSetting": [623, -7171, -8866, 252, 5, -177, -58, 9],
  "SliceThickness": 2,
  "SliceTiming": [0, 0.7825, 0.0975, 0.8825, 0.195, 0.98, 0.2925, 1.0775, 0.3925, 1.175, 0.49, 1.2725, 0.5875, 1.3725, 0.685, 0, 0.7825, 0.0975, 0.8825, 0.195, 0.98, 0.2925, 1.0775, 0.3925, 1.175, 0.49, 1.2725, 0.5875, 1.3725, 0.685, 0, 0.7825, 0.0975, 0.8825, 0.195, 0.98, 0.2925, 1.0775, 0.3925, 1.175, 0.49, 1.2725, 0.5875, 1.3725, 0.685, 0, 0.7825, 0.0975, 0.8825, 0.195, 0.98, 0.2925, 1.0775, 0.3925, 1.175, 0.49, 1.2725, 0.5875, 1.3725, 0.685],
  "SoftwareVersions": "syngo MR E11",
  "SpacingBetweenSlices": 2,
  "StationName": "MRC35049",
  "TaskName": "things",
  "TotalReadoutTime": 0.0576811,
  "TxRefAmp": 283.445,
  "WipMemBlock": "e4002ebd-70b5-445b-8117-aee7cfc59ba0||Sequence: R016 ve11c/master r/e634e98; Dec 19 2017 11:00:25 by eja",
  "dcmmeta_affine": [
    [-1.9980477094650269, 0.07990070432424545, 0.03770013526082039, 102.33026123046875],
    [0.049553558230400085, 1.720084309577942, -1.0192421674728394, -52.476871490478516],
    [0.07314278930425644, 1.0173131227493286, 1.7203848361968994, -103.9303207397461],
    [0.0, 0.0, 0.0, 1.0]
],
  "dcmmeta_reorient_transform": [
    [0.0, -1.0, 0.0, 103.0],
    [1.0, 0.0, 0.0, 0.0],
    [0.0, 0.0, 1.0, 0.0],
    [0.0, 0.0, 0.0, 1.0]
],
  "dcmmeta_shape": [104, 104, 60, 190],
  "dcmmeta_slice_dim": 2,
  "dcmmeta_version": 0.6,
  "global": {
    "const": {
      "AcquisitionMatrix": [104, 0, 0, 104],
      "AngioFlag": "N",
      "BitsAllocated": 16,
      "BitsStored": 16,
      "BodyPartExamined": "BRAIN",
      "Columns": 832,
      "EchoNumbers": 1,
      "EchoTime": 37.0,
      "EchoTrainLength": 104,
      "FlipAngle": 52.0,
      "HighBit": 15,
      "ImageOrientationPatient": [0.99902384568813, -0.02477677972, 0.03657139501315, 0.0399503523498, 0.86004213083849, -0.5086565663883],
      "ImagePositionPatient": [-866.93325235679, -732.76498325122, 344.53093939685],
      "ImageType": [
        "ORIGINAL",
        "PRIMARY",
        "M",
        "MB",
        "ND",
        "MOSAIC"
],
      "ImagedNucleus": "1H",
      "ImagingFrequency": 123.258882,
      "InPlanePhaseEncodingDirection": "COL",
      "MRAcquisitionType": "2D",
      "MagneticFieldStrength": 3.0,
      "Manufacturer": "SIEMENS",
      "ManufacturerModelName": "Prisma_fit",
      "Modality": "MR",
      "NumberOfAverages": 1.0,
      "NumberOfPhaseEncodingSteps": 104,
      "PercentPhaseFieldOfView": 100.0,
      "PercentSampling": 100.0,
      "PerformedProcedureStepStartTime": "103709.227000",
      "PhotometricInterpretation": "MONOCHROME2",
      "PixelBandwidth": 2290.0,
      "PixelRepresentation": 0,
      "PixelSpacing": [2.0, 2.0],
      "ProtocolName": "func_task-things_run-4",
      "RepetitionTime": 1490.0,
      "Rows": 832,
      "SAR": 0.05620012130437,
      "SamplesPerPixel": 1,
      "ScanOptions": "FS",
      "ScanningSequence": "EP",
      "SequenceName": "epfid2d1_104",
      "SequenceVariant": [
        "SK",
        "SS"
],
      "SeriesDescription": "func_task-things_run-4",
      "SeriesNumber": 22,
      "SeriesTime": "110851.451000",
      "SliceLocation": -60.727821363812,
      "SliceThickness": 2.0,
      "SmallestImagePixelValue": 0,
      "SoftwareVersions": "syngo MR E11",
      "SpacingBetweenSlices": 1.9999999474555,
      "SpecificCharacterSet": "ISO_IR 100",
      "StudyID": "1",
      "StudyTime": "103709.100000",
      "TransmitCoilName": "Body",
      "VariableFlipAngleFlag": "N",
      "WindowCenterWidthExplanation": "Algo1",
      "dBdt": 0.0},
    "slices": {}
  },
  "time": {
    "samples": {
      "AcquisitionNumber": [1, 2, 3, 4, 5, 6, 7, 8, 9, 10, 11, 12, 13, 14, 15, 16, 17, 18, 19, 20, 21, 22, 23, 24, 25, 26, 27, 28, 29, 30, 31, 32, 33, 34, 35, 36, 37, 38, 39, 40, 41, 42, 43, 44, 45, 46, 47, 48, 49, 50, 51, 52, 53, 54, 55, 56, 57, 58, 59, 60, 61, 62, 63, 64, 65, 66, 67, 68, 69, 70, 71, 72, 73, 74, 75, 76, 77, 78, 79, 80, 81, 82, 83, 84, 85, 86, 87, 88, 89, 90, 91, 92, 93, 94, 95, 96, 97, 98, 99, 100, 101, 102, 103, 104, 105, 106, 107, 108, 109, 110, 111, 112, 113, 114, 115, 116, 117, 118, 119, 120, 121, 122, 123, 124, 125, 126, 127, 128, 129, 130, 131, 132, 133, 134, 135, 136, 137, 138, 139, 140, 141, 142, 143, 144, 145, 146, 147, 148, 149, 150, 151, 152, 153, 154, 155, 156, 157, 158, 159, 160, 161, 162, 163, 164, 165, 166, 167, 168, 169, 170, 171, 172, 173, 174, 175, 176, 177, 178, 179, 180, 181, 182, 183, 184, 185, 186, 187, 188, 189, 190],
      "AcquisitionTime": ["110746.692500", "110748.182500", "110749.672500", "110751.162500", "110752.652500", "110754.142500", "110755.632500", "110757.122500", "110758.612500", "110800.102500", "110801.592500", "110803.082500", "110804.572500", "110806.062500", "110807.552500", "110809.042500", "110810.532500", "110812.022500", "110813.512500", "110815.002500", "110816.492500", "110817.982500", "110819.472500", "110820.962500", "110822.452500", "110823.942500", "110825.432500", "110826.922500", "110828.412500", "110829.902500", "110831.392500", "110832.882500", "110834.372500", "110835.862500", "110837.352500", "110838.842500", "110840.332500", "110841.822500", "110843.312500", "110844.802500", "110846.292500", "110847.782500", "110849.272500", "110850.762500", "110852.252500", "110853.742500", "110855.232500", "110856.722500", "110858.212500", "110859.702500", "110901.192500", "110902.682500", "110904.172500", "110905.662500", "110907.152500", "110908.642500", "110910.132500", "110911.622500", "110913.112500", "110914.602500", "110916.092500", "110917.582500", "110919.072500", "110920.562500", "110922.052500", "110923.542500", "110925.032500", "110926.522500", "110928.012500", "110929.502500", "110930.992500", "110932.482500", "110933.972500", "110935.462500", "110936.952500", "110938.442500", "110939.932500", "110941.422500", "110942.912500", "110944.402500", "110945.892500", "110947.382500", "110948.872500", "110950.362500", "110951.852500", "110953.342500", "110954.832500", "110956.322500", "110957.812500", "110959.302500", "111000.792500", "111002.282500", "111003.772500", "111005.262500", "111006.752500", "111008.242500", "111009.732500", "111011.222500", "111012.712500", "111014.202500", "111015.692500", "111017.182500", "111018.672500", "111020.162500", "111021.652500", "111023.142500", "111024.632500", "111026.122500", "111027.612500", "111029.102500", "111030.592500", "111032.082500", "111033.572500", "111035.062500", "111036.552500", "111038.042500", "111039.532500", "111041.022500", "111042.512500", "111044.002500", "111045.492500", "111046.982500", "111048.472500", "111049.962500", "111051.452500", "111052.942500", "111054.432500", "111055.922500", "111057.412500", "111058.902500", "111100.392500", "111101.882500", "111103.372500", "111104.862500", "111106.352500", "111107.842500", "111109.332500", "111110.822500", "111112.312500", "111113.802500", "111115.292500", "111116.782500", "111118.272500", "111119.762500", "111121.252500", "111122.742500", "111124.232500", "111125.722500", "111127.212500", "111128.702500", "111130.192500", "111131.682500", "111133.172500", "111134.662500", "111136.152500", "111137.642500", "111139.132500", "111140.622500", "111142.112500", "111143.602500", "111145.092500", "111146.582500", "111148.072500", "111149.562500", "111151.052500", "111152.542500", "111154.032500", "111155.522500", "111157.012500", "111158.502500", "111159.992500", "111201.482500", "111202.972500", "111204.462500", "111205.952500", "111207.442500", "111208.932500", "111210.422500", "111211.912500", "111213.402500", "111214.892500", "111216.382500", "111217.872500", "111219.362500", "111220.852500", "111222.342500", "111223.832500", "111225.322500", "111226.812500", "111228.302500"],
      "ContentTime": ["110851.454000", "110851.458000", "110851.461000", "110851.465000", "110851.468000", "110851.471000", "110851.475000", "110851.478000", "110851.481000", "110851.484000", "110911.421000", "110911.425000", "110911.428000", "110911.433000", "110911.437000", "110911.442000", "110911.446000", "110911.449000", "110911.452000", "110911.456000", "110911.459000", "110911.462000", "110911.466000", "110911.469000", "110911.472000", "110911.475000", "110911.479000", "110911.482000", "110911.485000", "110911.489000", "110931.421000", "110931.425000", "110931.428000", "110931.431000", "110931.435000", "110931.438000", "110931.441000", "110931.444000", "110931.448000", "110931.451000", "110931.454000", "110931.457000", "110931.461000", "110931.464000", "110931.467000", "110931.470000", "110931.474000", "110931.477000", "110931.480000", "110931.484000", "110931.487000", "110951.421000", "110951.425000", "110951.428000", "110951.432000", "110951.435000", "110951.438000", "110951.441000", "110951.455000", "110951.458000", "110951.461000", "110951.465000", "110951.468000", "110951.471000", "110951.475000", "110951.478000", "110951.481000", "110951.485000", "110951.488000", "110951.491000", "110951.495000", "111011.420000", "111011.424000", "111011.427000", "111011.430000", "111011.434000", "111011.437000", "111011.440000", "111011.444000", "111011.447000", "111011.450000", "111011.454000", "111011.457000", "111011.460000", "111011.463000", "111011.467000", "111011.470000", "111011.473000", "111011.476000", "111011.480000", "111011.483000", "111051.420000", "111051.424000", "111051.427000", "111051.430000", "111051.434000", "111051.437000", "111051.440000", "111051.444000", "111051.447000", "111051.450000", "111051.454000", "111051.457000", "111051.460000", "111051.463000", "111051.467000", "111051.470000", "111051.473000", "111051.477000", "111051.480000", "111051.483000", "111051.486000", "111051.491000", "111051.494000", "111051.498000", "111051.501000", "111051.504000", "111051.508000", "111051.511000", "111051.514000", "111051.518000", "111051.521000", "111051.524000", "111131.421000", "111131.425000", "111131.428000", "111131.432000", "111131.435000", "111131.438000", "111131.442000", "111131.445000", "111131.448000", "111131.451000", "111131.455000", "111131.458000", "111131.461000", "111131.464000", "111131.468000", "111131.471000", "111131.474000", "111131.478000", "111131.481000", "111131.484000", "111131.488000", "111131.491000", "111131.495000", "111131.498000", "111131.501000", "111131.504000", "111131.508000", "111211.421000", "111211.425000", "111211.428000", "111211.431000", "111211.435000", "111211.448000", "111211.451000", "111211.455000", "111211.458000", "111211.461000", "111211.464000", "111211.468000", "111211.471000", "111211.474000", "111211.478000", "111211.481000", "111211.484000", "111211.488000", "111211.491000", "111211.494000", "111211.498000", "111211.501000", "111211.504000", "111211.508000", "111211.511000", "111211.514000", "111211.517000", "111230.705000", "111230.708000", "111230.712000", "111230.715000", "111230.719000", "111230.722000", "111230.726000", "111230.729000", "111230.732000", "111230.736000", "111230.739000", "111230.742000", "111230.746000"],
      "InstanceCreationTime": ["110851.454000", "110851.458000", "110851.461000", "110851.465000", "110851.468000", "110851.471000", "110851.475000", "110851.478000", "110851.481000", "110851.484000", "110911.421000", "110911.425000", "110911.428000", "110911.433000", "110911.437000", "110911.442000", "110911.446000", "110911.449000", "110911.452000", "110911.456000", "110911.459000", "110911.462000", "110911.466000", "110911.469000", "110911.472000", "110911.475000", "110911.479000", "110911.482000", "110911.485000", "110911.489000", "110931.421000", "110931.425000", "110931.428000", "110931.431000", "110931.435000", "110931.438000", "110931.441000", "110931.444000", "110931.448000", "110931.451000", "110931.454000", "110931.457000", "110931.461000", "110931.464000", "110931.467000", "110931.470000", "110931.474000", "110931.477000", "110931.480000", "110931.484000", "110931.487000", "110951.421000", "110951.425000", "110951.428000", "110951.432000", "110951.435000", "110951.438000", "110951.441000", "110951.455000", "110951.458000", "110951.461000", "110951.465000", "110951.468000", "110951.471000", "110951.475000", "110951.478000", "110951.481000", "110951.485000", "110951.488000", "110951.491000", "110951.495000", "111011.420000", "111011.424000", "111011.427000", "111011.430000", "111011.434000", "111011.437000", "111011.440000", "111011.444000", "111011.447000", "111011.450000", "111011.454000", "111011.457000", "111011.460000", "111011.463000", "111011.467000", "111011.470000", "111011.473000", "111011.476000", "111011.480000", "111011.483000", "111051.420000", "111051.424000", "111051.427000", "111051.430000", "111051.434000", "111051.437000", "111051.440000", "111051.444000", "111051.447000", "111051.450000", "111051.454000", "111051.457000", "111051.460000", "111051.463000", "111051.467000", "111051.470000", "111051.473000", "111051.477000", "111051.480000", "111051.483000", "111051.486000", "111051.491000", "111051.494000", "111051.498000", "111051.501000", "111051.504000", "111051.508000", "111051.511000", "111051.514000", "111051.518000", "111051.521000", "111051.524000", "111131.421000", "111131.425000", "111131.428000", "111131.432000", "111131.435000", "111131.438000", "111131.442000", "111131.445000", "111131.448000", "111131.451000", "111131.455000", "111131.458000", "111131.461000", "111131.464000", "111131.468000", "111131.471000", "111131.474000", "111131.478000", "111131.481000", "111131.484000", "111131.488000", "111131.491000", "111131.495000", "111131.498000", "111131.501000", "111131.504000", "111131.508000", "111211.421000", "111211.425000", "111211.428000", "111211.431000", "111211.435000", "111211.448000", "111211.451000", "111211.455000", "111211.458000", "111211.461000", "111211.464000", "111211.468000", "111211.471000", "111211.474000", "111211.478000", "111211.481000", "111211.484000", "111211.488000", "111211.491000", "111211.494000", "111211.498000", "111211.501000", "111211.504000", "111211.508000", "111211.511000", "111211.514000", "111211.517000", "111230.705000", "111230.708000", "111230.712000", "111230.715000", "111230.719000", "111230.722000", "111230.726000", "111230.729000", "111230.732000", "111230.736000", "111230.739000", "111230.742000", "111230.746000"],
      "InstanceNumber": [1, 2, 3, 4, 5, 6, 7, 8, 9, 10, 11, 12, 13, 14, 15, 16, 17, 18, 19, 20, 21, 22, 23, 24, 25, 26, 27, 28, 29, 30, 31, 32, 33, 34, 35, 36, 37, 38, 39, 40, 41, 42, 43, 44, 45, 46, 47, 48, 49, 50, 51, 52, 53, 54, 55, 56, 57, 58, 59, 60, 61, 62, 63, 64, 65, 66, 67, 68, 69, 70, 71, 72, 73, 74, 75, 76, 77, 78, 79, 80, 81, 82, 83, 84, 85, 86, 87, 88, 89, 90, 91, 92, 93, 94, 95, 96, 97, 98, 99, 100, 101, 102, 103, 104, 105, 106, 107, 108, 109, 110, 111, 112, 113, 114, 115, 116, 117, 118, 119, 120, 121, 122, 123, 124, 125, 126, 127, 128, 129, 130, 131, 132, 133, 134, 135, 136, 137, 138, 139, 140, 141, 142, 143, 144, 145, 146, 147, 148, 149, 150, 151, 152, 153, 154, 155, 156, 157, 158, 159, 160, 161, 162, 163, 164, 165, 166, 167, 168, 169, 170, 171, 172, 173, 174, 175, 176, 177, 178, 179, 180, 181, 182, 183, 184, 185, 186, 187, 188, 189, 190],
      "LargestImagePixelValue": [40610, 40346, 38661, 39064, 39589, 39075, 39918, 40543, 39680, 38608, 40862, 39550, 38202, 40356, 38493, 39479, 39436, 39334, 40123, 39728, 40363, 39356, 39579, 38787, 38723, 39085, 40036, 39464, 39826, 39691, 38788, 40012, 38718, 39506, 38165, 38947, 38118, 39061, 37964, 39181, 38689, 38231, 38873, 38351, 39146, 38582, 38007, 38555, 38301, 38788, 37992, 38100, 39047, 38092, 38629, 40431, 38347, 37895, 38555, 38745, 38206, 38849, 40323, 39268, 37892, 38907, 38643, 38226, 39919, 39069, 38198, 38480, 38181, 38123, 39009, 38000, 38537, 37826, 38314, 37858, 37923, 38005, 37726, 38167, 37637, 38121, 38259, 37963, 37410, 37919, 38175, 37839, 37989, 37876, 37712, 38371, 38007, 37935, 39006, 37971, 38702, 38571, 39331, 38919, 38018, 39071, 39946, 39213, 38028, 38063, 38579, 39189, 39229, 40054, 39477, 40027, 39597, 38673, 38068, 38057, 39123, 38730, 39383, 39279, 39359, 40092, 39257, 39880, 39547, 39376, 38378, 38331, 38967, 39547, 38735, 39599, 38716, 39687, 39174, 39336, 39040, 38239, 38291, 39820, 39013, 40342, 39079, 40115, 39136, 40074, 38687, 38978, 38009, 39066, 38725, 39508, 38907, 39073, 38925, 38638, 39469, 38436, 38231, 38348, 39829, 38354, 38282, 38402, 38575, 38974, 38899, 39061, 38301, 39174, 38561, 39222, 38687, 38312, 38444, 38426, 38363, 37915, 38678, 37885, 38460, 38502, 38707, 38280, 39534, 37978],
      "WindowCenter": [10612.0, 10572.0, 10531.0, 10541.0, 10550.0, 10551.0, 10555.0, 10558.0, 10551.0, 10541.0, 10565.0, 10547.0, 10532.0, 10547.0, 10525.0, 10546.0, 10546.0, 10549.0, 10551.0, 10526.0, 10521.0, 10507.0, 10512.0, 10503.0, 10502.0, 10511.0, 10537.0, 10516.0, 10523.0, 10536.0, 10536.0, 10549.0, 10526.0, 10529.0, 10511.0, 10535.0, 10536.0, 10540.0, 10526.0, 10528.0, 10519.0, 10513.0, 10503.0, 10488.0, 10500.0, 10510.0, 10505.0, 10515.0, 10514.0, 10519.0, 10515.0, 10509.0, 10509.0, 10478.0, 10481.0, 10516.0, 10488.0, 10514.0, 10537.0, 10550.0, 10530.0, 10519.0, 10527.0, 10509.0, 10462.0, 10476.0, 10489.0, 10506.0, 10540.0, 10533.0, 10501.0, 10496.0, 10481.0, 10494.0, 10509.0, 10507.0, 10506.0, 10501.0, 10506.0, 10502.0, 10510.0, 10509.0, 10511.0, 10512.0, 10501.0, 10516.0, 10532.0, 10529.0, 10505.0, 10501.0, 10506.0, 10501.0, 10507.0, 10501.0, 10499.0, 10507.0, 10516.0, 10526.0, 10538.0, 10509.0, 10506.0, 10528.0, 10551.0, 10563.0, 10529.0, 10520.0, 10521.0, 10490.0, 10466.0, 10475.0, 10514.0, 10537.0, 10537.0, 10524.0, 10500.0, 10510.0, 10501.0, 10480.0, 10455.0, 10467.0, 10515.0, 10533.0, 10556.0, 10540.0, 10528.0, 10526.0, 10485.0, 10505.0, 10517.0, 10541.0, 10540.0, 10529.0, 10531.0, 10541.0, 10533.0, 10535.0, 10514.0, 10533.0, 10530.0, 10546.0, 10542.0, 10535.0, 10535.0, 10553.0, 10541.0, 10546.0, 10512.0, 10519.0, 10510.0, 10530.0, 10529.0, 10539.0, 10519.0, 10529.0, 10530.0, 10537.0, 10536.0, 10528.0, 10527.0, 10515.0, 10516.0, 10506.0, 10507.0, 10514.0, 10532.0, 10508.0, 10512.0, 10512.0, 10512.0, 10510.0, 10508.0, 10503.0, 10486.0, 10500.0, 10504.0, 10525.0, 10518.0, 10509.0, 10499.0, 10488.0, 10481.0, 10481.0, 10501.0, 10493.0, 10497.0, 10503.0, 10499.0, 10488.0, 10496.0, 10492.0],
      "WindowWidth": [22760.0, 22630.0, 22527.0, 22535.0, 22550.0, 22549.0, 22551.0, 22551.0, 22544.0, 22527.0, 22573.0, 22531.0, 22511.0, 22529.0, 22490.0, 22536.0, 22530.0, 22535.0, 22536.0, 22479.0, 22463.0, 22438.0, 22450.0, 22435.0, 22434.0, 22452.0, 22506.0, 22464.0, 22474.0, 22506.0, 22512.0, 22531.0, 22489.0, 22493.0, 22462.0, 22505.0, 22523.0, 22522.0, 22493.0, 22492.0, 22472.0, 22463.0, 22438.0, 22407.0, 22430.0, 22453.0, 22445.0, 22468.0, 22467.0, 22472.0, 22470.0, 22459.0, 22456.0, 22389.0, 22394.0, 22461.0, 22411.0, 22470.0, 22519.0, 22547.0, 22506.0, 22471.0, 22480.0, 22447.0, 22352.0, 22373.0, 22406.0, 22449.0, 22516.0, 22511.0, 22440.0, 22423.0, 22392.0, 22420.0, 22448.0, 22453.0, 22446.0, 22438.0, 22445.0, 22442.0, 22457.0, 22455.0, 22462.0, 22462.0, 22442.0, 22469.0, 22502.0, 22499.0, 22450.0, 22440.0, 22446.0, 22437.0, 22451.0, 22438.0, 22434.0, 22448.0, 22469.0, 22492.0, 22514.0, 22457.0, 22444.0, 22492.0, 22541.0, 22567.0, 22499.0, 22475.0, 22472.0, 22408.0, 22359.0, 22378.0, 22460.0, 22514.0, 22510.0, 22475.0, 22420.0, 22438.0, 22425.0, 22387.0, 22334.0, 22360.0, 22463.0, 22504.0, 22550.0, 22512.0, 22480.0, 22476.0, 22388.0, 22431.0, 22460.0, 22518.0, 22521.0, 22498.0, 22498.0, 22512.0, 22502.0, 22500.0, 22458.0, 22495.0, 22493.0, 22526.0, 22520.0, 22508.0, 22507.0, 22540.0, 22516.0, 22519.0, 22453.0, 22462.0, 22450.0, 22488.0, 22491.0, 22521.0, 22475.0, 22489.0, 22492.0, 22507.0, 22507.0, 22487.0, 22485.0, 22464.0, 22461.0, 22444.0, 22445.0, 22459.0, 22494.0, 22448.0, 22453.0, 22454.0, 22452.0, 22444.0, 22438.0, 22433.0, 22397.0, 22423.0, 22434.0, 22473.0, 22466.0, 22447.0, 22429.0, 22398.0, 22386.0, 22385.0, 22424.0, 22414.0, 22417.0, 22445.0, 22422.0, 22399.0, 22408.0, 22408.0]
    },
    "slices": {}
  }
}