{
  "AcquisitionMatrixPE": 104,
  "AcquisitionNumber": 1,
  "AcquisitionTime": "10:55:14.462500",
  "BandwidthPerPixelPhaseEncode": 17.17,
  "BaseResolution": 104,
  "BodyPartExamined": "BRAIN",
  "CoilCombinationMethod": "Sum of Squares",
  "ConsistencyInfo": "N4_VE11C_LATEST_20160120",
  "ConversionSoftware": "dcm2niix",
  "ConversionSoftwareVersion": "v1.0.20211006",
  "DerivedVendorReportedEchoSpacing": 0.000560011,
  "DeviceSerialNumber": "167006",
  "DwellTime": 2.1e-06,
  "EchoTime": 0.037,
  "EchoTrainLength": 104,
  "EffectiveEchoSpacing": 0.000560011,
  "FlipAngle": 52,
  "HeudiconvVersion": "0.10.0",
  "ImageComments": "Unaliased MB4/PE3/LB",
  "ImageOrientationPatientDICOM": [0.999024, -0.0247768, 0.0365714, 0.0399504, 0.860042, -0.508657],
  "ImageOrientationText": "Tra>Cor(-30.6)>Sag(1.1)",
  "ImageType": [
    "ORIGINAL",
    "PRIMARY",
    "M",
    "MB",
    "ND",
    "MOSAIC"
],
  "ImagingFrequency": 123.259,
  "InPlanePhaseEncodingDirectionDICOM": "COL",
  "InstitutionAddress": "Chemin Queen-Mary 4565,Montreal,District,CA,H3W 1W5",
  "InstitutionName": "IUGM",
  "InstitutionalDepartmentName": "Department",
  "MRAcquisitionType": "2D",
  "MagneticFieldStrength": 3,
  "Manufacturer": "Siemens",
  "ManufacturersModelName": "Prisma_fit",
  "MatrixCoilMode": "SENSE",
  "Modality": "MR",
  "MultibandAccelerationFactor": 4,
  "PartialFourier": 1,
  "PatientPosition": "HFS",
  "PercentPhaseFOV": 100,
  "PercentSampling": 100,
  "PhaseEncodingDirection": "j",
  "PhaseEncodingSteps": 104,
  "PhaseResolution": 1,
  "PixelBandwidth": 2290,
  "ProcedureStepDescription": "memory^things",
  "ProtocolName": "func_task-things_run-2",
  "PulseSequenceDetails": "%CustomerSeq%\\cmrr_mbep2d_bold",
  "ReceiveCoilActiveElements": "HC1-7;NC1,2",
  "ReceiveCoilName": "HeadNeck_64",
  "ReconMatrixPE": 104,
  "RepetitionTime": 1.49,
  "SAR": 0.0562001,
  "ScanOptions": "FS",
  "ScanningSequence": "EP",
  "SequenceName": "epfid2d1_104",
  "SequenceVariant": "SK\\SS",
  "SeriesDescription": "func_task-things_run-2",
  "SeriesNumber": 16,
  "ShimSetting": [623, -7171, -8866, 252, 5, -177, -58, 9],
  "SliceThickness": 2,
  "SliceTiming": [0, 0.785, 0.0975, 0.8825, 0.1975, 0.98, 0.295, 1.0775, 0.3925, 1.1775, 0.49, 1.275, 0.5875, 1.3725, 0.6875, 0, 0.785, 0.0975, 0.8825, 0.1975, 0.98, 0.295, 1.0775, 0.3925, 1.1775, 0.49, 1.275, 0.5875, 1.3725, 0.6875, 0, 0.785, 0.0975, 0.8825, 0.1975, 0.98, 0.295, 1.0775, 0.3925, 1.1775, 0.49, 1.275, 0.5875, 1.3725, 0.6875, 0, 0.785, 0.0975, 0.8825, 0.1975, 0.98, 0.295, 1.0775, 0.3925, 1.1775, 0.49, 1.275, 0.5875, 1.3725, 0.6875],
  "SoftwareVersions": "syngo MR E11",
  "SpacingBetweenSlices": 2,
  "StationName": "MRC35049",
  "TaskName": "things",
  "TotalReadoutTime": 0.0576811,
  "TxRefAmp": 283.445,
  "WipMemBlock": "6ead2edf-ae4d-44dd-8d67-32e91343e02a||Sequence: R016 ve11c/master r/e634e98; Dec 19 2017 11:00:25 by eja",
  "dcmmeta_affine": [
    [-1.9980477094650269, 0.07990070432424545, 0.03770013526082039, 102.33026123046875],
    [0.049553558230400085, 1.720084309577942, -1.0192421674728394, -52.476871490478516],
    [0.07314278930425644, 1.0173131227493286, 1.7203848361968994, -103.9303207397461],
    [0.0, 0.0, 0.0, 1.0]
],
  "dcmmeta_reorient_transform": [
    [0.0, -1.0, 0.0, 103.0],
    [1.0, 0.0, 0.0, 0.0],
    [0.0, 0.0, 1.0, 0.0],
    [0.0, 0.0, 0.0, 1.0]
],
  "dcmmeta_shape": [104, 104, 60, 190],
  "dcmmeta_slice_dim": 2,
  "dcmmeta_version": 0.6,
  "global": {
    "const": {
      "AcquisitionMatrix": [104, 0, 0, 104],
      "AngioFlag": "N",
      "BitsAllocated": 16,
      "BitsStored": 16,
      "BodyPartExamined": "BRAIN",
      "Columns": 832,
      "EchoNumbers": 1,
      "EchoTime": 37.0,
      "EchoTrainLength": 104,
      "FlipAngle": 52.0,
      "HighBit": 15,
      "ImageOrientationPatient": [0.99902384568813, -0.02477677972, 0.03657139501315, 0.0399503523498, 0.86004213083849, -0.5086565663883],
      "ImagePositionPatient": [-866.93325235679, -732.76498325122, 344.53093939685],
      "ImageType": [
        "ORIGINAL",
        "PRIMARY",
        "M",
        "MB",
        "ND",
        "MOSAIC"
],
      "ImagedNucleus": "1H",
      "ImagingFrequency": 123.258878,
      "InPlanePhaseEncodingDirection": "COL",
      "MRAcquisitionType": "2D",
      "MagneticFieldStrength": 3.0,
      "Manufacturer": "SIEMENS",
      "ManufacturerModelName": "Prisma_fit",
      "Modality": "MR",
      "NumberOfAverages": 1.0,
      "NumberOfPhaseEncodingSteps": 104,
      "PercentPhaseFieldOfView": 100.0,
      "PercentSampling": 100.0,
      "PerformedProcedureStepStartTime": "103709.227000",
      "PhotometricInterpretation": "MONOCHROME2",
      "PixelBandwidth": 2290.0,
      "PixelRepresentation": 0,
      "PixelSpacing": [2.0, 2.0],
      "ProtocolName": "func_task-things_run-2",
      "RepetitionTime": 1490.0,
      "Rows": 832,
      "SAR": 0.05620012130437,
      "SamplesPerPixel": 1,
      "ScanOptions": "FS",
      "ScanningSequence": "EP",
      "SequenceName": "epfid2d1_104",
      "SequenceVariant": [
        "SK",
        "SS"
],
      "SeriesDescription": "func_task-things_run-2",
      "SeriesNumber": 16,
      "SeriesTime": "105641.201000",
      "SliceLocation": -60.727821363812,
      "SliceThickness": 2.0,
      "SmallestImagePixelValue": 0,
      "SoftwareVersions": "syngo MR E11",
      "SpacingBetweenSlices": 1.9999999474555,
      "SpecificCharacterSet": "ISO_IR 100",
      "StudyID": "1",
      "StudyTime": "103709.100000",
      "TransmitCoilName": "Body",
      "VariableFlipAngleFlag": "N",
      "WindowCenterWidthExplanation": "Algo1",
      "dBdt": 0.0},
    "slices": {}
  },
  "time": {
    "samples": {
      "AcquisitionNumber": [1, 2, 3, 4, 5, 6, 7, 8, 9, 10, 11, 12, 13, 14, 15, 16, 17, 18, 19, 20, 21, 22, 23, 24, 25, 26, 27, 28, 29, 30, 31, 32, 33, 34, 35, 36, 37, 38, 39, 40, 41, 42, 43, 44, 45, 46, 47, 48, 49, 50, 51, 52, 53, 54, 55, 56, 57, 58, 59, 60, 61, 62, 63, 64, 65, 66, 67, 68, 69, 70, 71, 72, 73, 74, 75, 76, 77, 78, 79, 80, 81, 82, 83, 84, 85, 86, 87, 88, 89, 90, 91, 92, 93, 94, 95, 96, 97, 98, 99, 100, 101, 102, 103, 104, 105, 106, 107, 108, 109, 110, 111, 112, 113, 114, 115, 116, 117, 118, 119, 120, 121, 122, 123, 124, 125, 126, 127, 128, 129, 130, 131, 132, 133, 134, 135, 136, 137, 138, 139, 140, 141, 142, 143, 144, 145, 146, 147, 148, 149, 150, 151, 152, 153, 154, 155, 156, 157, 158, 159, 160, 161, 162, 163, 164, 165, 166, 167, 168, 169, 170, 171, 172, 173, 174, 175, 176, 177, 178, 179, 180, 181, 182, 183, 184, 185, 186, 187, 188, 189, 190],
      "AcquisitionTime": ["105514.462500", "105515.952500", "105517.442500", "105518.932500", "105520.422500", "105521.912500", "105523.402500", "105524.892500", "105526.382500", "105527.872500", "105529.362500", "105530.852500", "105532.342500", "105533.832500", "105535.322500", "105536.812500", "105538.302500", "105539.792500", "105541.282500", "105542.772500", "105544.262500", "105545.752500", "105547.242500", "105548.732500", "105550.222500", "105551.712500", "105553.202500", "105554.692500", "105556.182500", "105557.672500", "105559.162500", "105600.652500", "105602.142500", "105603.632500", "105605.122500", "105606.612500", "105608.102500", "105609.592500", "105611.082500", "105612.572500", "105614.062500", "105615.552500", "105617.042500", "105618.532500", "105620.022500", "105621.512500", "105623.002500", "105624.492500", "105625.982500", "105627.472500", "105628.962500", "105630.452500", "105631.942500", "105633.432500", "105634.922500", "105636.412500", "105637.902500", "105639.392500", "105640.882500", "105642.372500", "105643.862500", "105645.352500", "105646.842500", "105648.332500", "105649.822500", "105651.312500", "105652.802500", "105654.292500", "105655.782500", "105657.272500", "105658.762500", "105700.252500", "105701.742500", "105703.232500", "105704.722500", "105706.212500", "105707.702500", "105709.192500", "105710.682500", "105712.172500", "105713.662500", "105715.152500", "105716.642500", "105718.132500", "105719.622500", "105721.112500", "105722.602500", "105724.092500", "105725.582500", "105727.072500", "105728.562500", "105730.052500", "105731.542500", "105733.032500", "105734.522500", "105736.012500", "105737.502500", "105738.992500", "105740.482500", "105741.972500", "105743.462500", "105744.952500", "105746.442500", "105747.932500", "105749.422500", "105750.912500", "105752.402500", "105753.892500", "105755.382500", "105756.872500", "105758.362500", "105759.852500", "105801.342500", "105802.832500", "105804.322500", "105805.812500", "105807.302500", "105808.792500", "105810.282500", "105811.772500", "105813.262500", "105814.752500", "105816.242500", "105817.732500", "105819.222500", "105820.712500", "105822.202500", "105823.692500", "105825.182500", "105826.672500", "105828.162500", "105829.652500", "105831.142500", "105832.632500", "105834.122500", "105835.612500", "105837.102500", "105838.592500", "105840.082500", "105841.572500", "105843.062500", "105844.552500", "105846.042500", "105847.532500", "105849.022500", "105850.512500", "105852.002500", "105853.492500", "105854.982500", "105856.472500", "105857.962500", "105859.452500", "105900.942500", "105902.432500", "105903.922500", "105905.412500", "105906.902500", "105908.392500", "105909.882500", "105911.372500", "105912.862500", "105914.352500", "105915.842500", "105917.332500", "105918.822500", "105920.312500", "105921.802500", "105923.292500", "105924.782500", "105926.272500", "105927.762500", "105929.252500", "105930.742500", "105932.232500", "105933.722500", "105935.212500", "105936.702500", "105938.192500", "105939.682500", "105941.172500", "105942.662500", "105944.152500", "105945.642500", "105947.132500", "105948.622500", "105950.112500", "105951.602500", "105953.092500", "105954.582500", "105956.072500"],
      "ContentTime": ["105641.205000", "105641.209000", "105641.212000", "105641.215000", "105641.218000", "105641.222000", "105641.225000", "105641.228000", "105641.231000", "105641.235000", "105641.238000", "105641.241000", "105641.245000", "105641.248000", "105641.251000", "105641.254000", "105641.258000", "105641.261000", "105641.264000", "105641.268000", "105641.271000", "105641.274000", "105641.277000", "105641.281000", "105641.284000", "105641.287000", "105641.291000", "105641.294000", "105641.297000", "105641.300000", "105641.304000", "105641.307000", "105641.310000", "105641.314000", "105701.166000", "105701.170000", "105701.173000", "105701.176000", "105701.180000", "105701.183000", "105701.186000", "105701.190000", "105701.193000", "105701.196000", "105701.199000", "105701.203000", "105701.206000", "105701.209000", "105701.212000", "105701.216000", "105701.219000", "105701.222000", "105701.225000", "105701.229000", "105721.166000", "105721.170000", "105721.173000", "105721.191000", "105721.195000", "105721.198000", "105721.201000", "105721.204000", "105721.208000", "105721.222000", "105721.225000", "105721.228000", "105721.232000", "105721.235000", "105721.238000", "105721.241000", "105721.245000", "105721.248000", "105721.251000", "105721.255000", "105741.166000", "105741.170000", "105741.173000", "105741.177000", "105741.180000", "105741.183000", "105741.186000", "105741.190000", "105741.193000", "105741.197000", "105741.201000", "105741.204000", "105741.207000", "105741.210000", "105741.214000", "105741.217000", "105741.221000", "105741.224000", "105741.227000", "105741.231000", "105821.166000", "105821.170000", "105821.173000", "105821.176000", "105821.180000", "105821.183000", "105821.186000", "105821.189000", "105821.193000", "105821.196000", "105821.199000", "105821.203000", "105821.206000", "105821.209000", "105821.213000", "105821.216000", "105821.219000", "105821.223000", "105821.226000", "105821.229000", "105821.232000", "105821.236000", "105821.239000", "105821.242000", "105821.246000", "105821.249000", "105821.252000", "105821.255000", "105821.259000", "105821.262000", "105821.265000", "105901.166000", "105901.170000", "105901.173000", "105901.177000", "105901.180000", "105901.183000", "105901.186000", "105901.190000", "105901.193000", "105901.196000", "105901.200000", "105901.204000", "105901.208000", "105901.211000", "105901.214000", "105901.217000", "105901.221000", "105901.224000", "105901.227000", "105901.231000", "105901.234000", "105901.237000", "105901.241000", "105901.244000", "105901.247000", "105901.250000", "105941.166000", "105941.170000", "105941.173000", "105941.176000", "105941.190000", "105941.194000", "105941.197000", "105941.200000", "105941.203000", "105941.207000", "105941.210000", "105941.213000", "105941.216000", "105941.220000", "105941.223000", "105941.226000", "105941.230000", "105941.233000", "105941.236000", "105941.240000", "105941.243000", "105941.246000", "105941.250000", "105941.253000", "105941.256000", "105941.259000", "105941.263000", "105958.012000", "105958.015000", "105958.019000", "105958.022000", "105958.025000", "105958.029000", "105958.032000", "105958.036000", "105958.039000", "105958.042000", "105958.046000", "105958.049000"],
      "InstanceCreationTime": ["105641.205000", "105641.209000", "105641.212000", "105641.215000", "105641.218000", "105641.222000", "105641.225000", "105641.228000", "105641.231000", "105641.235000", "105641.238000", "105641.241000", "105641.245000", "105641.248000", "105641.251000", "105641.254000", "105641.258000", "105641.261000", "105641.264000", "105641.268000", "105641.271000", "105641.274000", "105641.277000", "105641.281000", "105641.284000", "105641.287000", "105641.291000", "105641.294000", "105641.297000", "105641.300000", "105641.304000", "105641.307000", "105641.310000", "105641.314000", "105701.166000", "105701.170000", "105701.173000", "105701.176000", "105701.180000", "105701.183000", "105701.186000", "105701.190000", "105701.193000", "105701.196000", "105701.199000", "105701.203000", "105701.206000", "105701.209000", "105701.212000", "105701.216000", "105701.219000", "105701.222000", "105701.225000", "105701.229000", "105721.166000", "105721.170000", "105721.173000", "105721.191000", "105721.195000", "105721.198000", "105721.201000", "105721.204000", "105721.208000", "105721.222000", "105721.225000", "105721.228000", "105721.232000", "105721.235000", "105721.238000", "105721.241000", "105721.245000", "105721.248000", "105721.251000", "105721.255000", "105741.166000", "105741.170000", "105741.173000", "105741.177000", "105741.180000", "105741.183000", "105741.186000", "105741.190000", "105741.193000", "105741.197000", "105741.201000", "105741.204000", "105741.207000", "105741.210000", "105741.214000", "105741.217000", "105741.221000", "105741.224000", "105741.227000", "105741.231000", "105821.166000", "105821.170000", "105821.173000", "105821.176000", "105821.180000", "105821.183000", "105821.186000", "105821.189000", "105821.193000", "105821.196000", "105821.199000", "105821.203000", "105821.206000", "105821.209000", "105821.213000", "105821.216000", "105821.219000", "105821.223000", "105821.226000", "105821.229000", "105821.232000", "105821.236000", "105821.239000", "105821.242000", "105821.246000", "105821.249000", "105821.252000", "105821.255000", "105821.259000", "105821.262000", "105821.265000", "105901.166000", "105901.170000", "105901.173000", "105901.177000", "105901.180000", "105901.183000", "105901.186000", "105901.190000", "105901.193000", "105901.196000", "105901.200000", "105901.204000", "105901.208000", "105901.211000", "105901.214000", "105901.217000", "105901.221000", "105901.224000", "105901.227000", "105901.231000", "105901.234000", "105901.237000", "105901.241000", "105901.244000", "105901.247000", "105901.250000", "105941.166000", "105941.170000", "105941.173000", "105941.176000", "105941.190000", "105941.194000", "105941.197000", "105941.200000", "105941.203000", "105941.207000", "105941.210000", "105941.213000", "105941.216000", "105941.220000", "105941.223000", "105941.226000", "105941.230000", "105941.233000", "105941.236000", "105941.240000", "105941.243000", "105941.246000", "105941.250000", "105941.253000", "105941.256000", "105941.259000", "105941.263000", "105958.012000", "105958.015000", "105958.019000", "105958.022000", "105958.025000", "105958.029000", "105958.032000", "105958.036000", "105958.039000", "105958.042000", "105958.046000", "105958.049000"],
      "InstanceNumber": [1, 2, 3, 4, 5, 6, 7, 8, 9, 10, 11, 12, 13, 14, 15, 16, 17, 18, 19, 20, 21, 22, 23, 24, 25, 26, 27, 28, 29, 30, 31, 32, 33, 34, 35, 36, 37, 38, 39, 40, 41, 42, 43, 44, 45, 46, 47, 48, 49, 50, 51, 52, 53, 54, 55, 56, 57, 58, 59, 60, 61, 62, 63, 64, 65, 66, 67, 68, 69, 70, 71, 72, 73, 74, 75, 76, 77, 78, 79, 80, 81, 82, 83, 84, 85, 86, 87, 88, 89, 90, 91, 92, 93, 94, 95, 96, 97, 98, 99, 100, 101, 102, 103, 104, 105, 106, 107, 108, 109, 110, 111, 112, 113, 114, 115, 116, 117, 118, 119, 120, 121, 122, 123, 124, 125, 126, 127, 128, 129, 130, 131, 132, 133, 134, 135, 136, 137, 138, 139, 140, 141, 142, 143, 144, 145, 146, 147, 148, 149, 150, 151, 152, 153, 154, 155, 156, 157, 158, 159, 160, 161, 162, 163, 164, 165, 166, 167, 168, 169, 170, 171, 172, 173, 174, 175, 176, 177, 178, 179, 180, 181, 182, 183, 184, 185, 186, 187, 188, 189, 190],
      "LargestImagePixelValue": [41290, 40962, 40226, 39870, 39844, 40134, 40420, 40098, 40022, 40016, 40349, 39829, 40005, 39740, 39945, 39110, 39921, 39832, 40085, 40360, 40213, 40044, 40708, 39670, 39684, 39530, 39533, 39017, 39338, 39873, 39495, 39964, 39297, 40086, 39595, 39160, 40060, 40546, 39918, 39858, 39753, 39542, 39587, 39807, 39367, 39926, 39917, 39769, 39312, 39658, 39659, 39852, 39959, 39904, 39536, 40281, 39887, 40002, 39808, 40411, 40315, 39746, 40355, 39875, 39676, 40150, 40186, 40072, 39464, 40040, 40353, 39861, 39791, 39595, 39504, 39623, 40381, 39997, 40038, 39663, 39894, 40949, 39740, 40169, 39976, 39833, 39343, 39977, 39930, 39921, 40087, 40603, 40743, 40218, 40144, 39682, 40021, 39738, 39794, 39823, 40107, 40255, 40040, 40136, 40582, 41136, 40900, 40759, 40362, 40474, 40645, 40178, 40763, 40980, 40907, 40087, 40340, 39987, 40200, 40500, 40319, 40952, 40092, 40446, 40514, 41007, 40625, 40746, 40383, 40507, 40573, 39918, 40075, 40305, 40274, 40772, 40806, 40864, 41002, 40838, 40910, 40735, 40816, 40974, 41330, 40642, 40723, 40744, 40792, 40759, 40923, 41019, 41044, 40578, 40957, 40286, 40332, 40475, 40185, 40928, 40583, 40887, 39693, 40815, 40354, 40103, 40669, 40311, 41015, 40414, 40587, 40763, 40962, 40890, 40569, 40569, 40686, 40429, 40902, 40731, 40720, 40486, 40295, 40792, 40124, 40396, 40283, 40998, 40260, 40669],
      "WindowCenter": [10693.0, 10648.0, 10617.0, 10611.0, 10608.0, 10600.0, 10602.0, 10595.0, 10604.0, 10609.0, 10611.0, 10593.0, 10597.0, 10582.0, 10587.0, 10577.0, 10572.0, 10567.0, 10593.0, 10611.0, 10592.0, 10611.0, 10613.0, 10595.0, 10569.0, 10547.0, 10567.0, 10566.0, 10594.0, 10586.0, 10553.0, 10581.0, 10585.0, 10567.0, 10565.0, 10553.0, 10554.0, 10569.0, 10563.0, 10591.0, 10597.0, 10591.0, 10570.0, 10564.0, 10560.0, 10574.0, 10563.0, 10546.0, 10556.0, 10563.0, 10569.0, 10578.0, 10573.0, 10581.0, 10572.0, 10576.0, 10571.0, 10569.0, 10565.0, 10569.0, 10569.0, 10572.0, 10586.0, 10573.0, 10564.0, 10568.0, 10576.0, 10579.0, 10569.0, 10574.0, 10578.0, 10579.0, 10593.0, 10585.0, 10556.0, 10554.0, 10576.0, 10590.0, 10578.0, 10557.0, 10546.0, 10551.0, 10546.0, 10574.0, 10570.0, 10564.0, 10556.0, 10551.0, 10570.0, 10579.0, 10581.0, 10588.0, 10588.0, 10544.0, 10556.0, 10573.0, 10598.0, 10594.0, 10585.0, 10574.0, 10571.0, 10576.0, 10571.0, 10573.0, 10581.0, 10582.0, 10580.0, 10573.0, 10576.0, 10574.0, 10564.0, 10582.0, 10582.0, 10622.0, 10600.0, 10597.0, 10603.0, 10582.0, 10578.0, 10567.0, 10549.0, 10548.0, 10540.0, 10555.0, 10571.0, 10578.0, 10573.0, 10563.0, 10558.0, 10566.0, 10571.0, 10560.0, 10549.0, 10564.0, 10577.0, 10585.0, 10591.0, 10589.0, 10582.0, 10572.0, 10555.0, 10555.0, 10563.0, 10560.0, 10552.0, 10542.0, 10543.0, 10554.0, 10574.0, 10572.0, 10563.0, 10559.0, 10560.0, 10563.0, 10572.0, 10566.0, 10567.0, 10547.0, 10534.0, 10568.0, 10583.0, 10575.0, 10527.0, 10551.0, 10551.0, 10546.0, 10572.0, 10569.0, 10589.0, 10575.0, 10573.0, 10561.0, 10578.0, 10569.0, 10588.0, 10583.0, 10581.0, 10545.0, 10547.0, 10552.0, 10579.0, 10562.0, 10535.0, 10560.0, 10564.0, 10563.0, 10564.0, 10550.0, 10535.0, 10533.0],
      "WindowWidth": [22945.0, 22801.0, 22713.0, 22693.0, 22682.0, 22659.0, 22659.0, 22642.0, 22661.0, 22678.0, 22675.0, 22638.0, 22643.0, 22611.0, 22620.0, 22605.0, 22588.0, 22582.0, 22633.0, 22674.0, 22630.0, 22673.0, 22676.0, 22637.0, 22582.0, 22529.0, 22574.0, 22582.0, 22638.0, 22621.0, 22550.0, 22604.0, 22623.0, 22578.0, 22571.0, 22549.0, 22544.0, 22574.0, 22563.0, 22631.0, 22645.0, 22636.0, 22583.0, 22565.0, 22561.0, 22595.0, 22566.0, 22531.0, 22552.0, 22567.0, 22581.0, 22599.0, 22591.0, 22607.0, 22587.0, 22591.0, 22586.0, 22580.0, 22571.0, 22579.0, 22580.0, 22590.0, 22620.0, 22592.0, 22576.0, 22577.0, 22595.0, 22603.0, 22586.0, 22595.0, 22599.0, 22604.0, 22638.0, 22621.0, 22558.0, 22550.0, 22595.0, 22626.0, 22602.0, 22553.0, 22528.0, 22531.0, 22531.0, 22588.0, 22582.0, 22569.0, 22552.0, 22538.0, 22580.0, 22599.0, 22605.0, 22620.0, 22620.0, 22529.0, 22548.0, 22592.0, 22645.0, 22636.0, 22619.0, 22592.0, 22584.0, 22589.0, 22582.0, 22593.0, 22602.0, 22607.0, 22598.0, 22586.0, 22593.0, 22589.0, 22564.0, 22610.0, 22604.0, 22689.0, 22644.0, 22639.0, 22650.0, 22606.0, 22591.0, 22570.0, 22528.0, 22522.0, 22511.0, 22546.0, 22580.0, 22590.0, 22581.0, 22559.0, 22548.0, 22566.0, 22578.0, 22555.0, 22533.0, 22564.0, 22593.0, 22612.0, 22631.0, 22616.0, 22602.0, 22582.0, 22540.0, 22538.0, 22554.0, 22549.0, 22530.0, 22511.0, 22514.0, 22543.0, 22585.0, 22576.0, 22559.0, 22546.0, 22551.0, 22561.0, 22583.0, 22567.0, 22574.0, 22526.0, 22495.0, 22566.0, 22608.0, 22589.0, 22484.0, 22531.0, 22536.0, 22524.0, 22578.0, 22575.0, 22616.0, 22586.0, 22580.0, 22552.0, 22588.0, 22569.0, 22614.0, 22602.0, 22599.0, 22519.0, 22519.0, 22534.0, 22592.0, 22554.0, 22496.0, 22547.0, 22559.0, 22555.0, 22560.0, 22525.0, 22492.0, 22487.0]
    },
    "slices": {}
  }
}