{
  "AcquisitionMatrixPE": 104,
  "AcquisitionNumber": 1,
  "AcquisitionTime": "10:54:15.975000",
  "BandwidthPerPixelPhaseEncode": 17.17,
  "BaseResolution": 104,
  "BodyPartExamined": "BRAIN",
  "CoilString": "HC1-7;NC1_2",
  "ConsistencyInfo": "N4_VE11C_LATEST_20160120",
  "ConversionSoftware": "dcm2niix",
  "ConversionSoftwareVersion": "v1.0.20190902",
  "DerivedVendorReportedEchoSpacing": 0.000560011,
  "DeviceSerialNumber": "167006",
  "DwellTime": 2.1e-06,
  "EchoTime": 0.037,
  "EchoTrainLength": 104,
  "EffectiveEchoSpacing": 0.000560011,
  "FlipAngle": 52,
  "ImageComments": "Unaliased_MB4_PE3_LB",
  "ImageOrientationPatientDICOM": [0.999792, 0.00685731, 0.0192162, 0.00331544, 0.874708, -0.484639],
  "ImageType": [
    "ORIGINAL",
    "PRIMARY",
    "P",
    "MB",
    "ND",
    "MOSAIC"
],
  "ImagingFrequency": 123.259,
  "InPlanePhaseEncodingDirectionDICOM": "COL",
  "InstitutionAddress": "Chemin_Queen-Mary_4565_Montreal_District_CA_H3W_1W5",
  "InstitutionName": "IUGM",
  "InstitutionalDepartmentName": "Department",
  "MRAcquisitionType": "2D",
  "MagneticFieldStrength": 3,
  "Manufacturer": "Siemens",
  "ManufacturersModelName": "Prisma_fit",
  "Modality": "MR",
  "MultibandAccelerationFactor": 4,
  "PartialFourier": 1,
  "PatientPosition": "HFS",
  "PercentPhaseFOV": 100,
  "PhaseEncodingDirection": "j",
  "PhaseEncodingSteps": 104,
  "PhaseResolution": 1,
  "PixelBandwidth": 2290,
  "ProcedureStepDescription": "memory_things",
  "ProtocolName": "func_task-things_run-1",
  "PulseSequenceDetails": "%CustomerSeq%_cmrr_mbep2d_bold",
  "ReceiveCoilActiveElements": "HC1-7;NC1,2",
  "ReceiveCoilName": "HeadNeck_64",
  "ReconMatrixPE": 104,
  "RepetitionTime": 1.49,
  "SAR": 0.0440123,
  "ScanOptions": "FS",
  "ScanningSequence": "EP",
  "SequenceName": "epfid2d1_104",
  "SequenceVariant": "SK_SS",
  "SeriesDescription": "func_task-things_run-1",
  "SeriesNumber": 11,
  "ShimSetting": [617, -7184, -8859, 334, -3, -112, -15, -22],
  "SliceThickness": 2,
  "SliceTiming": [0, 0.7825, 0.0975, 0.8825, 0.195, 0.98, 0.2925, 1.0775, 0.3925, 1.175, 0.49, 1.2725, 0.5875, 1.3725, 0.685, 0, 0.7825, 0.0975, 0.8825, 0.195, 0.98, 0.2925, 1.0775, 0.3925, 1.175, 0.49, 1.2725, 0.5875, 1.3725, 0.685, 0, 0.7825, 0.0975, 0.8825, 0.195, 0.98, 0.2925, 1.0775, 0.3925, 1.175, 0.49, 1.2725, 0.5875, 1.3725, 0.685, 0, 0.7825, 0.0975, 0.8825, 0.195, 0.98, 0.2925, 1.0775, 0.3925, 1.175, 0.49, 1.2725, 0.5875, 1.3725, 0.685],
  "SoftwareVersions": "syngo_MR_E11",
  "SpacingBetweenSlices": 2,
  "StationName": "MRC35049",
  "TaskName": "things",
  "TotalReadoutTime": 0.0576811,
  "TxRefAmp": 256.794,
  "WipMemBlock": "8c16875e-06ec-47cf-99d1-7fdace4729bb||Sequence: R016 ve11c/master r/e634e98; Dec 19 2017 11:00:25 by eja",
  "dcmmeta_affine": [
    [-1.9995837211608887, 0.006630881689488888, 0.04026370123028755, 105.45635223388672],
    [-0.01371462456882, 1.7494161128997803, -0.9692033529281616, -53.3414421081543],
    [0.03843231871724129, 0.9692776799201965, 1.7490065097808838, -92.03112030029297],
    [0.0, 0.0, 0.0, 1.0]
],
  "dcmmeta_reorient_transform": [
    [0.0, -1.0, 0.0, 103.0],
    [1.0, 0.0, 0.0, 0.0],
    [0.0, 0.0, 1.0, 0.0],
    [0.0, 0.0, 0.0, 1.0]
],
  "dcmmeta_shape": [104, 104, 60, 190],
  "dcmmeta_slice_dim": 2,
  "dcmmeta_version": 0.6,
  "global": {
    "const": {
      "AcquisitionMatrix": [104, 0, 0, 104],
      "AngioFlag": "N",
      "BitsAllocated": 16,
      "BitsStored": 16,
      "BodyPartExamined": "BRAIN",
      "Columns": 832,
      "EchoNumbers": 1,
      "EchoTime": 37.0,
      "EchoTrainLength": 104,
      "FlipAngle": 52.0,
      "HighBit": 15,
      "ImageOrientationPatient": [0.99979183658356, 0.00685731206967, 0.01921615913906, 0.00331544088459, 0.87470807087163, -0.484638833157],
      "ImagePositionPatient": [-836.40143257929, -768.62801750364, 346.63218510763],
      "ImageType": [
        "ORIGINAL",
        "PRIMARY",
        "P",
        "MB",
        "ND",
        "MOSAIC"
],
      "ImagedNucleus": "1H",
      "ImagingFrequency": 123.259131,
      "InPlanePhaseEncodingDirection": "COL",
      "LargestImagePixelValue": 4095,
      "MRAcquisitionType": "2D",
      "MagneticFieldStrength": 3.0,
      "Manufacturer": "SIEMENS",
      "ManufacturerModelName": "Prisma_fit",
      "Modality": "MR",
      "NumberOfAverages": 1.0,
      "NumberOfPhaseEncodingSteps": 104,
      "PercentPhaseFieldOfView": 100.0,
      "PercentSampling": 100.0,
      "PerformedProcedureStepStartTime": "104105.539000",
      "PhotometricInterpretation": "MONOCHROME2",
      "PixelBandwidth": 2290.0,
      "PixelRepresentation": 0,
      "PixelSpacing": [2.0, 2.0],
      "ProtocolName": "func_task-things_run-1",
      "RepetitionTime": 1490.0,
      "RescaleIntercept": -4096.0,
      "RescaleSlope": 2.0,
      "RescaleType": "US",
      "Rows": 832,
      "SAR": 0.04401232856615,
      "SamplesPerPixel": 1,
      "ScanOptions": "FS",
      "ScanningSequence": "EP",
      "SequenceName": "epfid2d1_104",
      "SequenceVariant": [
        "SK",
        "SS"
],
      "SeriesDescription": "func_task-things_run-1",
      "SeriesNumber": 11,
      "SeriesTime": "105543.442000",
      "SliceLocation": -52.509131317223,
      "SliceThickness": 2.0,
      "SmallestImagePixelValue": 0,
      "SoftwareVersions": "syngo MR E11",
      "SpacingBetweenSlices": 2.0000000558995,
      "SpecificCharacterSet": "ISO_IR 100",
      "StudyID": "1",
      "StudyTime": "104105.361000",
      "TransmitCoilName": "Body",
      "VariableFlipAngleFlag": "N",
      "WindowCenterWidthExplanation": "Algo1",
      "dBdt": 0.0},
    "slices": {}
  },
  "time": {
    "samples": {
      "AcquisitionNumber": [1, 2, 3, 4, 5, 6, 7, 8, 9, 10, 11, 12, 13, 14, 15, 16, 17, 18, 19, 20, 21, 22, 23, 24, 25, 26, 27, 28, 29, 30, 31, 32, 33, 34, 35, 36, 37, 38, 39, 40, 41, 42, 43, 44, 45, 46, 47, 48, 49, 50, 51, 52, 53, 54, 55, 56, 57, 58, 59, 60, 61, 62, 63, 64, 65, 66, 67, 68, 69, 70, 71, 72, 73, 74, 75, 76, 77, 78, 79, 80, 81, 82, 83, 84, 85, 86, 87, 88, 89, 90, 91, 92, 93, 94, 95, 96, 97, 98, 99, 100, 101, 102, 103, 104, 105, 106, 107, 108, 109, 110, 111, 112, 113, 114, 115, 116, 117, 118, 119, 120, 121, 122, 123, 124, 125, 126, 127, 128, 129, 130, 131, 132, 133, 134, 135, 136, 137, 138, 139, 140, 141, 142, 143, 144, 145, 146, 147, 148, 149, 150, 151, 152, 153, 154, 155, 156, 157, 158, 159, 160, 161, 162, 163, 164, 165, 166, 167, 168, 169, 170, 171, 172, 173, 174, 175, 176, 177, 178, 179, 180, 181, 182, 183, 184, 185, 186, 187, 188, 189, 190],
      "AcquisitionTime": ["105415.975000", "105417.465000", "105418.955000", "105420.445000", "105421.935000", "105423.425000", "105424.915000", "105426.405000", "105427.895000", "105429.385000", "105430.875000", "105432.365000", "105433.855000", "105435.345000", "105436.835000", "105438.325000", "105439.815000", "105441.305000", "105442.795000", "105444.285000", "105445.775000", "105447.265000", "105448.755000", "105450.245000", "105451.735000", "105453.225000", "105454.715000", "105456.205000", "105457.695000", "105459.185000", "105500.675000", "105502.165000", "105503.655000", "105505.145000", "105506.635000", "105508.125000", "105509.615000", "105511.105000", "105512.595000", "105514.085000", "105515.575000", "105517.065000", "105518.555000", "105520.045000", "105521.535000", "105523.025000", "105524.515000", "105526.005000", "105527.495000", "105528.985000", "105530.475000", "105531.965000", "105533.455000", "105534.945000", "105536.435000", "105537.925000", "105539.415000", "105540.905000", "105542.395000", "105543.885000", "105545.375000", "105546.865000", "105548.355000", "105549.845000", "105551.335000", "105552.825000", "105554.315000", "105555.805000", "105557.295000", "105558.785000", "105600.275000", "105601.765000", "105603.255000", "105604.745000", "105606.235000", "105607.725000", "105609.215000", "105610.705000", "105612.195000", "105613.685000", "105615.175000", "105616.665000", "105618.155000", "105619.645000", "105621.135000", "105622.625000", "105624.115000", "105625.605000", "105627.095000", "105628.585000", "105630.075000", "105631.565000", "105633.055000", "105634.545000", "105636.035000", "105637.525000", "105639.015000", "105640.505000", "105641.995000", "105643.485000", "105644.975000", "105646.465000", "105647.955000", "105649.445000", "105650.935000", "105652.425000", "105653.915000", "105655.405000", "105656.895000", "105658.385000", "105659.875000", "105701.365000", "105702.855000", "105704.345000", "105705.835000", "105707.325000", "105708.815000", "105710.305000", "105711.795000", "105713.285000", "105714.775000", "105716.265000", "105717.755000", "105719.245000", "105720.735000", "105722.225000", "105723.715000", "105725.205000", "105726.695000", "105728.185000", "105729.675000", "105731.165000", "105732.655000", "105734.145000", "105735.635000", "105737.125000", "105738.615000", "105740.105000", "105741.595000", "105743.085000", "105744.575000", "105746.065000", "105747.555000", "105749.045000", "105750.535000", "105752.025000", "105753.515000", "105755.005000", "105756.495000", "105757.985000", "105759.475000", "105800.965000", "105802.455000", "105803.945000", "105805.435000", "105806.925000", "105808.415000", "105809.905000", "105811.395000", "105812.885000", "105814.375000", "105815.865000", "105817.355000", "105818.845000", "105820.335000", "105821.825000", "105823.315000", "105824.805000", "105826.295000", "105827.785000", "105829.275000", "105830.765000", "105832.255000", "105833.745000", "105835.235000", "105836.725000", "105838.215000", "105839.705000", "105841.195000", "105842.685000", "105844.175000", "105845.665000", "105847.155000", "105848.645000", "105850.135000", "105851.625000", "105853.115000", "105854.605000", "105856.095000", "105857.585000"],
      "ContentTime": ["105543.444000", "105543.447000", "105543.450000", "105543.452000", "105543.455000", "105543.457000", "105543.463000", "105543.466000", "105543.468000", "105543.471000", "105543.473000", "105543.476000", "105543.478000", "105543.481000", "105543.483000", "105543.486000", "105543.488000", "105543.491000", "105543.493000", "105543.496000", "105543.498000", "105543.501000", "105543.503000", "105543.506000", "105543.508000", "105543.511000", "105543.513000", "105543.516000", "105543.518000", "105543.521000", "105543.524000", "105543.526000", "105603.356000", "105603.359000", "105603.361000", "105603.364000", "105603.366000", "105603.369000", "105603.371000", "105603.374000", "105603.376000", "105603.379000", "105603.381000", "105603.384000", "105603.386000", "105603.389000", "105603.391000", "105603.394000", "105603.396000", "105603.399000", "105603.401000", "105603.404000", "105623.355000", "105623.358000", "105623.360000", "105623.363000", "105623.365000", "105623.368000", "105623.370000", "105623.380000", "105623.383000", "105623.385000", "105623.388000", "105623.390000", "105623.393000", "105623.395000", "105623.398000", "105623.400000", "105623.403000", "105623.405000", "105623.408000", "105623.410000", "105643.349000", "105643.352000", "105643.354000", "105643.357000", "105643.360000", "105643.362000", "105643.365000", "105643.367000", "105643.370000", "105643.372000", "105643.375000", "105643.377000", "105643.380000", "105643.382000", "105643.385000", "105643.387000", "105643.390000", "105643.392000", "105643.395000", "105643.397000", "105723.392000", "105723.395000", "105723.398000", "105723.400000", "105723.403000", "105723.405000", "105723.408000", "105723.410000", "105723.413000", "105723.415000", "105723.418000", "105723.420000", "105723.423000", "105723.425000", "105723.428000", "105723.430000", "105723.433000", "105723.435000", "105723.438000", "105723.440000", "105723.443000", "105723.445000", "105723.448000", "105723.450000", "105723.453000", "105723.455000", "105723.458000", "105723.461000", "105723.463000", "105723.466000", "105723.468000", "105723.471000", "105723.473000", "105803.371000", "105803.373000", "105803.376000", "105803.393000", "105803.395000", "105803.398000", "105803.400000", "105803.403000", "105803.405000", "105803.408000", "105803.410000", "105803.413000", "105803.415000", "105803.418000", "105803.420000", "105803.423000", "105803.425000", "105803.428000", "105803.430000", "105803.433000", "105803.435000", "105803.438000", "105803.440000", "105803.443000", "105803.445000", "105803.448000", "105843.392000", "105843.395000", "105843.398000", "105843.400000", "105843.403000", "105843.405000", "105843.408000", "105843.410000", "105843.413000", "105843.415000", "105843.418000", "105843.420000", "105843.423000", "105843.425000", "105843.428000", "105843.430000", "105843.433000", "105843.435000", "105843.438000", "105843.440000", "105843.443000", "105843.445000", "105843.448000", "105843.450000", "105843.453000", "105843.456000", "105843.458000", "105900.005000", "105900.008000", "105900.010000", "105900.013000", "105900.015000", "105900.032000", "105900.035000", "105900.037000", "105900.040000", "105900.042000", "105900.045000", "105900.047000"],
      "InstanceCreationTime": ["105543.444000", "105543.447000", "105543.450000", "105543.452000", "105543.455000", "105543.457000", "105543.463000", "105543.466000", "105543.468000", "105543.471000", "105543.473000", "105543.476000", "105543.478000", "105543.481000", "105543.483000", "105543.486000", "105543.488000", "105543.491000", "105543.493000", "105543.496000", "105543.498000", "105543.501000", "105543.503000", "105543.506000", "105543.508000", "105543.511000", "105543.513000", "105543.516000", "105543.518000", "105543.521000", "105543.524000", "105543.526000", "105603.356000", "105603.359000", "105603.361000", "105603.364000", "105603.366000", "105603.369000", "105603.371000", "105603.374000", "105603.376000", "105603.379000", "105603.381000", "105603.384000", "105603.386000", "105603.389000", "105603.391000", "105603.394000", "105603.396000", "105603.399000", "105603.401000", "105603.404000", "105623.355000", "105623.358000", "105623.360000", "105623.363000", "105623.365000", "105623.368000", "105623.370000", "105623.380000", "105623.383000", "105623.385000", "105623.388000", "105623.390000", "105623.393000", "105623.395000", "105623.398000", "105623.400000", "105623.403000", "105623.405000", "105623.408000", "105623.410000", "105643.349000", "105643.352000", "105643.354000", "105643.357000", "105643.360000", "105643.362000", "105643.365000", "105643.367000", "105643.370000", "105643.372000", "105643.375000", "105643.377000", "105643.380000", "105643.382000", "105643.385000", "105643.387000", "105643.390000", "105643.392000", "105643.395000", "105643.397000", "105723.392000", "105723.395000", "105723.398000", "105723.400000", "105723.403000", "105723.405000", "105723.408000", "105723.410000", "105723.413000", "105723.415000", "105723.418000", "105723.420000", "105723.423000", "105723.425000", "105723.428000", "105723.430000", "105723.433000", "105723.435000", "105723.438000", "105723.440000", "105723.443000", "105723.445000", "105723.448000", "105723.450000", "105723.453000", "105723.455000", "105723.458000", "105723.461000", "105723.463000", "105723.466000", "105723.468000", "105723.471000", "105723.473000", "105803.371000", "105803.373000", "105803.376000", "105803.393000", "105803.395000", "105803.398000", "105803.400000", "105803.403000", "105803.405000", "105803.408000", "105803.410000", "105803.413000", "105803.415000", "105803.418000", "105803.420000", "105803.423000", "105803.425000", "105803.428000", "105803.430000", "105803.433000", "105803.435000", "105803.438000", "105803.440000", "105803.443000", "105803.445000", "105803.448000", "105843.392000", "105843.395000", "105843.398000", "105843.400000", "105843.403000", "105843.405000", "105843.408000", "105843.410000", "105843.413000", "105843.415000", "105843.418000", "105843.420000", "105843.423000", "105843.425000", "105843.428000", "105843.430000", "105843.433000", "105843.435000", "105843.438000", "105843.440000", "105843.443000", "105843.445000", "105843.448000", "105843.450000", "105843.453000", "105843.456000", "105843.458000", "105900.005000", "105900.008000", "105900.010000", "105900.013000", "105900.015000", "105900.032000", "105900.035000", "105900.037000", "105900.040000", "105900.042000", "105900.045000", "105900.047000"],
      "InstanceNumber": [1, 2, 3, 4, 5, 6, 7, 8, 9, 10, 11, 12, 13, 14, 15, 16, 17, 18, 19, 20, 21, 22, 23, 24, 25, 26, 27, 28, 29, 30, 31, 32, 33, 34, 35, 36, 37, 38, 39, 40, 41, 42, 43, 44, 45, 46, 47, 48, 49, 50, 51, 52, 53, 54, 55, 56, 57, 58, 59, 60, 61, 62, 63, 64, 65, 66, 67, 68, 69, 70, 71, 72, 73, 74, 75, 76, 77, 78, 79, 80, 81, 82, 83, 84, 85, 86, 87, 88, 89, 90, 91, 92, 93, 94, 95, 96, 97, 98, 99, 100, 101, 102, 103, 104, 105, 106, 107, 108, 109, 110, 111, 112, 113, 114, 115, 116, 117, 118, 119, 120, 121, 122, 123, 124, 125, 126, 127, 128, 129, 130, 131, 132, 133, 134, 135, 136, 137, 138, 139, 140, 141, 142, 143, 144, 145, 146, 147, 148, 149, 150, 151, 152, 153, 154, 155, 156, 157, 158, 159, 160, 161, 162, 163, 164, 165, 166, 167, 168, 169, 170, 171, 172, 173, 174, 175, 176, 177, 178, 179, 180, 181, 182, 183, 184, 185, 186, 187, 188, 189, 190],
      "WindowCenter": [4778.0, 4754.0, 4758.0, 4758.0, 4782.0, 4784.0, 4780.0, 4782.0, 4780.0, 4780.0, 4782.0, 4756.0, 4778.0, 4758.0, 4756.0, 4756.0, 4782.0, 4760.0, 4778.0, 4782.0, 4756.0, 4758.0, 4756.0, 4758.0, 4752.0, 4760.0, 4778.0, 4760.0, 4758.0, 4758.0, 4754.0, 4784.0, 4756.0, 4758.0, 4758.0, 4756.0, 4756.0, 4760.0, 4754.0, 4760.0, 4756.0, 4752.0, 4754.0, 4758.0, 4758.0, 4760.0, 4760.0, 4758.0, 4756.0, 4756.0, 4756.0, 4758.0, 4782.0, 4760.0, 4754.0, 4756.0, 4754.0, 4754.0, 4754.0, 4760.0, 4760.0, 4758.0, 4754.0, 4750.0, 4786.0, 4828.0, 4796.0, 4756.0, 4776.0, 4776.0, 4774.0, 4772.0, 4754.0, 4784.0, 4790.0, 4792.0, 4800.0, 4790.0, 4762.0, 4756.0, 4750.0, 4750.0, 4750.0, 4750.0, 4762.0, 4786.0, 4762.0, 4756.0, 4788.0, 4758.0, 4762.0, 4754.0, 4752.0, 4750.0, 4758.0, 4754.0, 4756.0, 4760.0, 4760.0, 4758.0, 4760.0, 4756.0, 4758.0, 4756.0, 4752.0, 4750.0, 4754.0, 4760.0, 4760.0, 4786.0, 4760.0, 4754.0, 4786.0, 4756.0, 4756.0, 4758.0, 4754.0, 4752.0, 4756.0, 4758.0, 4760.0, 4760.0, 4762.0, 4754.0, 4760.0, 4756.0, 4758.0, 4758.0, 4758.0, 4754.0, 4784.0, 4762.0, 4760.0, 4760.0, 4754.0, 4754.0, 4752.0, 4756.0, 4756.0, 4760.0, 4754.0, 4754.0, 4756.0, 4762.0, 4758.0, 4792.0, 4784.0, 4754.0, 4758.0, 4752.0, 4750.0, 4750.0, 4760.0, 4782.0, 4790.0, 4786.0, 4784.0, 4762.0, 4756.0, 4752.0, 4756.0, 4756.0, 4760.0, 4782.0, 4762.0, 4756.0, 4764.0, 4758.0, 4786.0, 4758.0, 4756.0, 4750.0, 4750.0, 4754.0, 4782.0, 4762.0, 4782.0, 4758.0, 4758.0, 4758.0, 4762.0, 4756.0, 4756.0, 4752.0, 4762.0, 4826.0, 4794.0, 4756.0, 4746.0, 4772.0],
      "WindowWidth": [18550.0, 18526.0, 18526.0, 18526.0, 18554.0, 18558.0, 18558.0, 18554.0, 18556.0, 18556.0, 18548.0, 18526.0, 18556.0, 18524.0, 18524.0, 18526.0, 18552.0, 18530.0, 18560.0, 18554.0, 18520.0, 18524.0, 18532.0, 18526.0, 18526.0, 18524.0, 18556.0, 18526.0, 18526.0, 18524.0, 18526.0, 18554.0, 18526.0, 18526.0, 18526.0, 18522.0, 18526.0, 18524.0, 18522.0, 18522.0, 18526.0, 18522.0, 18528.0, 18524.0, 18526.0, 18524.0, 18526.0, 18530.0, 18530.0, 18526.0, 18526.0, 18526.0, 18562.0, 18528.0, 18524.0, 18522.0, 18532.0, 18524.0, 18530.0, 18528.0, 18530.0, 18526.0, 18532.0, 18528.0, 18552.0, 18580.0, 18552.0, 18526.0, 18574.0, 18584.0, 18576.0, 18568.0, 18532.0, 18560.0, 18558.0, 18562.0, 18560.0, 18562.0, 18530.0, 18532.0, 18536.0, 18540.0, 18532.0, 18528.0, 18526.0, 18558.0, 18534.0, 18532.0, 18558.0, 18526.0, 18528.0, 18530.0, 18530.0, 18534.0, 18526.0, 18530.0, 18532.0, 18530.0, 18534.0, 18534.0, 18528.0, 18530.0, 18532.0, 18528.0, 18528.0, 18532.0, 18524.0, 18534.0, 18532.0, 18556.0, 18530.0, 18528.0, 18552.0, 18524.0, 18528.0, 18530.0, 18536.0, 18532.0, 18526.0, 18528.0, 18530.0, 18532.0, 18534.0, 18532.0, 18528.0, 18530.0, 18526.0, 18534.0, 18538.0, 18530.0, 18562.0, 18530.0, 18536.0, 18524.0, 18536.0, 18528.0, 18532.0, 18528.0, 18532.0, 18530.0, 18532.0, 18528.0, 18532.0, 18528.0, 18536.0, 18558.0, 18554.0, 18530.0, 18530.0, 18536.0, 18532.0, 18530.0, 18530.0, 18566.0, 18556.0, 18564.0, 18554.0, 18532.0, 18534.0, 18532.0, 18540.0, 18530.0, 18530.0, 18564.0, 18534.0, 18532.0, 18530.0, 18530.0, 18552.0, 18530.0, 18530.0, 18534.0, 18532.0, 18526.0, 18562.0, 18528.0, 18564.0, 18532.0, 18530.0, 18532.0, 18530.0, 18528.0, 18532.0, 18532.0, 18524.0, 18584.0, 18552.0, 18526.0, 18544.0, 18576.0]
    },
    "slices": {}
  }
}