{
  "AcquisitionMatrixPE": 104,
  "AcquisitionNumber": 1,
  "AcquisitionTime": "11:14:20.295000",
  "BandwidthPerPixelPhaseEncode": 17.17,
  "BaseResolution": 104,
  "BodyPartExamined": "BRAIN",
  "CoilString": "HC1-7;NC1_2",
  "ConsistencyInfo": "N4_VE11C_LATEST_20160120",
  "ConversionSoftware": "dcm2niix",
  "ConversionSoftwareVersion": "v1.0.20190902",
  "DerivedVendorReportedEchoSpacing": 0.000560011,
  "DeviceSerialNumber": "167006",
  "DwellTime": 2.1e-06,
  "EchoTime": 0.037,
  "EchoTrainLength": 104,
  "EffectiveEchoSpacing": 0.000560011,
  "FlipAngle": 52,
  "ImageComments": "Unaliased_MB4_PE3_LB",
  "ImageOrientationPatientDICOM": [0.999792, 0.00685731, 0.0192162, 0.00331544, 0.874708, -0.484639],
  "ImageType": [
    "ORIGINAL",
    "PRIMARY",
    "M",
    "MB",
    "ND",
    "MOSAIC"
],
  "ImagingFrequency": 123.259,
  "InPlanePhaseEncodingDirectionDICOM": "COL",
  "InstitutionAddress": "Chemin_Queen-Mary_4565_Montreal_District_CA_H3W_1W5",
  "InstitutionName": "IUGM",
  "InstitutionalDepartmentName": "Department",
  "MRAcquisitionType": "2D",
  "MagneticFieldStrength": 3,
  "Manufacturer": "Siemens",
  "ManufacturersModelName": "Prisma_fit",
  "Modality": "MR",
  "MultibandAccelerationFactor": 4,
  "PartialFourier": 1,
  "PatientPosition": "HFS",
  "PercentPhaseFOV": 100,
  "PhaseEncodingDirection": "j",
  "PhaseEncodingSteps": 104,
  "PhaseResolution": 1,
  "PixelBandwidth": 2290,
  "ProcedureStepDescription": "memory_things",
  "ProtocolName": "func_task-things_run-4",
  "PulseSequenceDetails": "%CustomerSeq%_cmrr_mbep2d_bold",
  "ReceiveCoilActiveElements": "HC1-7;NC1,2",
  "ReceiveCoilName": "HeadNeck_64",
  "ReconMatrixPE": 104,
  "RepetitionTime": 1.49,
  "SAR": 0.0440123,
  "ScanOptions": "FS",
  "ScanningSequence": "EP",
  "SequenceName": "epfid2d1_104",
  "SequenceVariant": "SK_SS",
  "SeriesDescription": "func_task-things_run-4",
  "SeriesNumber": 19,
  "ShimSetting": [617, -7184, -8859, 334, -3, -112, -15, -22],
  "SliceThickness": 2,
  "SliceTiming": [0, 0.785, 0.0975, 0.8825, 0.195, 0.98, 0.295, 1.0775, 0.3925, 1.175, 0.49, 1.275, 0.5875, 1.3725, 0.685, 0, 0.785, 0.0975, 0.8825, 0.195, 0.98, 0.295, 1.0775, 0.3925, 1.175, 0.49, 1.275, 0.5875, 1.3725, 0.685, 0, 0.785, 0.0975, 0.8825, 0.195, 0.98, 0.295, 1.0775, 0.3925, 1.175, 0.49, 1.275, 0.5875, 1.3725, 0.685, 0, 0.785, 0.0975, 0.8825, 0.195, 0.98, 0.295, 1.0775, 0.3925, 1.175, 0.49, 1.275, 0.5875, 1.3725, 0.685],
  "SoftwareVersions": "syngo_MR_E11",
  "SpacingBetweenSlices": 2,
  "StationName": "MRC35049",
  "TaskName": "things",
  "TotalReadoutTime": 0.0576811,
  "TxRefAmp": 256.794,
  "WipMemBlock": "950c2ca4-ba30-4d40-9019-28ca9285b506||Sequence: R016 ve11c/master r/e634e98; Dec 19 2017 11:00:25 by eja",
  "dcmmeta_affine": [
    [-1.9995837211608887, 0.006630881689488888, 0.04026370123028755, 105.45635223388672],
    [-0.01371462456882, 1.7494161128997803, -0.9692033529281616, -53.3414421081543],
    [0.03843231871724129, 0.9692776799201965, 1.7490065097808838, -92.03112030029297],
    [0.0, 0.0, 0.0, 1.0]
],
  "dcmmeta_reorient_transform": [
    [0.0, -1.0, 0.0, 103.0],
    [1.0, 0.0, 0.0, 0.0],
    [0.0, 0.0, 1.0, 0.0],
    [0.0, 0.0, 0.0, 1.0]
],
  "dcmmeta_shape": [104, 104, 60, 190],
  "dcmmeta_slice_dim": 2,
  "dcmmeta_version": 0.6,
  "global": {
    "const": {
      "AcquisitionMatrix": [104, 0, 0, 104],
      "AngioFlag": "N",
      "BitsAllocated": 16,
      "BitsStored": 16,
      "BodyPartExamined": "BRAIN",
      "Columns": 832,
      "EchoNumbers": 1,
      "EchoTime": 37.0,
      "EchoTrainLength": 104,
      "FlipAngle": 52.0,
      "HighBit": 15,
      "ImageOrientationPatient": [0.99979183658356, 0.00685731206967, 0.01921615913906, 0.00331544088459, 0.87470807087163, -0.484638833157],
      "ImagePositionPatient": [-836.40143257929, -768.62801750364, 346.63218510763],
      "ImageType": [
        "ORIGINAL",
        "PRIMARY",
        "M",
        "MB",
        "ND",
        "MOSAIC"
],
      "ImagedNucleus": "1H",
      "ImagingFrequency": 123.259142,
      "InPlanePhaseEncodingDirection": "COL",
      "MRAcquisitionType": "2D",
      "MagneticFieldStrength": 3.0,
      "Manufacturer": "SIEMENS",
      "ManufacturerModelName": "Prisma_fit",
      "Modality": "MR",
      "NumberOfAverages": 1.0,
      "NumberOfPhaseEncodingSteps": 104,
      "PercentPhaseFieldOfView": 100.0,
      "PercentSampling": 100.0,
      "PerformedProcedureStepStartTime": "104105.539000",
      "PhotometricInterpretation": "MONOCHROME2",
      "PixelBandwidth": 2290.0,
      "PixelRepresentation": 0,
      "PixelSpacing": [2.0, 2.0],
      "ProtocolName": "func_task-things_run-4",
      "RepetitionTime": 1490.0,
      "Rows": 832,
      "SAR": 0.04401232856615,
      "SamplesPerPixel": 1,
      "ScanOptions": "FS",
      "ScanningSequence": "EP",
      "SequenceName": "epfid2d1_104",
      "SequenceVariant": [
        "SK",
        "SS"
],
      "SeriesDescription": "func_task-things_run-4",
      "SeriesNumber": 19,
      "SeriesTime": "111543.270000",
      "SliceLocation": -52.509131317223,
      "SliceThickness": 2.0,
      "SmallestImagePixelValue": 0,
      "SoftwareVersions": "syngo MR E11",
      "SpacingBetweenSlices": 2.0000000558995,
      "SpecificCharacterSet": "ISO_IR 100",
      "StudyID": "1",
      "StudyTime": "104105.361000",
      "TransmitCoilName": "Body",
      "VariableFlipAngleFlag": "N",
      "WindowCenterWidthExplanation": "Algo1",
      "dBdt": 0.0},
    "slices": {}
  },
  "time": {
    "samples": {
      "AcquisitionNumber": [1, 2, 3, 4, 5, 6, 7, 8, 9, 10, 11, 12, 13, 14, 15, 16, 17, 18, 19, 20, 21, 22, 23, 24, 25, 26, 27, 28, 29, 30, 31, 32, 33, 34, 35, 36, 37, 38, 39, 40, 41, 42, 43, 44, 45, 46, 47, 48, 49, 50, 51, 52, 53, 54, 55, 56, 57, 58, 59, 60, 61, 62, 63, 64, 65, 66, 67, 68, 69, 70, 71, 72, 73, 74, 75, 76, 77, 78, 79, 80, 81, 82, 83, 84, 85, 86, 87, 88, 89, 90, 91, 92, 93, 94, 95, 96, 97, 98, 99, 100, 101, 102, 103, 104, 105, 106, 107, 108, 109, 110, 111, 112, 113, 114, 115, 116, 117, 118, 119, 120, 121, 122, 123, 124, 125, 126, 127, 128, 129, 130, 131, 132, 133, 134, 135, 136, 137, 138, 139, 140, 141, 142, 143, 144, 145, 146, 147, 148, 149, 150, 151, 152, 153, 154, 155, 156, 157, 158, 159, 160, 161, 162, 163, 164, 165, 166, 167, 168, 169, 170, 171, 172, 173, 174, 175, 176, 177, 178, 179, 180, 181, 182, 183, 184, 185, 186, 187, 188, 189, 190],
      "AcquisitionTime": ["111420.295000", "111421.785000", "111423.275000", "111424.765000", "111426.255000", "111427.745000", "111429.235000", "111430.725000", "111432.215000", "111433.705000", "111435.195000", "111436.685000", "111438.175000", "111439.665000", "111441.155000", "111442.645000", "111444.135000", "111445.625000", "111447.115000", "111448.605000", "111450.095000", "111451.585000", "111453.075000", "111454.565000", "111456.055000", "111457.545000", "111459.035000", "111500.525000", "111502.015000", "111503.505000", "111504.995000", "111506.485000", "111507.975000", "111509.465000", "111510.955000", "111512.445000", "111513.935000", "111515.425000", "111516.915000", "111518.405000", "111519.895000", "111521.385000", "111522.875000", "111524.365000", "111525.855000", "111527.345000", "111528.835000", "111530.325000", "111531.815000", "111533.305000", "111534.795000", "111536.285000", "111537.775000", "111539.265000", "111540.755000", "111542.245000", "111543.735000", "111545.225000", "111546.715000", "111548.205000", "111549.695000", "111551.185000", "111552.675000", "111554.165000", "111555.655000", "111557.145000", "111558.635000", "111600.125000", "111601.615000", "111603.105000", "111604.595000", "111606.085000", "111607.575000", "111609.065000", "111610.555000", "111612.045000", "111613.535000", "111615.025000", "111616.515000", "111618.005000", "111619.495000", "111620.985000", "111622.475000", "111623.965000", "111625.455000", "111626.945000", "111628.435000", "111629.925000", "111631.415000", "111632.905000", "111634.395000", "111635.885000", "111637.375000", "111638.865000", "111640.355000", "111641.845000", "111643.335000", "111644.825000", "111646.315000", "111647.805000", "111649.295000", "111650.785000", "111652.275000", "111653.765000", "111655.255000", "111656.745000", "111658.235000", "111659.725000", "111701.215000", "111702.705000", "111704.195000", "111705.685000", "111707.175000", "111708.665000", "111710.155000", "111711.645000", "111713.135000", "111714.625000", "111716.115000", "111717.605000", "111719.095000", "111720.585000", "111722.075000", "111723.565000", "111725.055000", "111726.545000", "111728.035000", "111729.525000", "111731.015000", "111732.505000", "111733.995000", "111735.485000", "111736.975000", "111738.465000", "111739.955000", "111741.445000", "111742.935000", "111744.425000", "111745.915000", "111747.405000", "111748.895000", "111750.385000", "111751.875000", "111753.365000", "111754.855000", "111756.345000", "111757.835000", "111759.325000", "111800.815000", "111802.305000", "111803.795000", "111805.285000", "111806.775000", "111808.265000", "111809.755000", "111811.245000", "111812.735000", "111814.225000", "111815.715000", "111817.205000", "111818.695000", "111820.185000", "111821.675000", "111823.165000", "111824.655000", "111826.145000", "111827.635000", "111829.125000", "111830.615000", "111832.105000", "111833.595000", "111835.085000", "111836.575000", "111838.065000", "111839.555000", "111841.045000", "111842.535000", "111844.025000", "111845.515000", "111847.005000", "111848.495000", "111849.985000", "111851.475000", "111852.965000", "111854.455000", "111855.945000", "111857.435000", "111858.925000", "111900.415000", "111901.905000"],
      "ContentTime": ["111543.273000", "111543.277000", "111543.280000", "111543.283000", "111543.287000", "111543.290000", "111543.293000", "111543.297000", "111543.300000", "111543.303000", "111543.307000", "111543.310000", "111543.324000", "111543.327000", "111543.331000", "111543.334000", "111543.337000", "111543.341000", "111543.344000", "111543.347000", "111543.350000", "111543.354000", "111543.357000", "111543.361000", "111543.364000", "111543.367000", "111543.371000", "111543.374000", "111543.387000", "111543.390000", "111603.236000", "111603.240000", "111603.243000", "111603.246000", "111603.249000", "111603.253000", "111603.256000", "111603.259000", "111603.262000", "111603.266000", "111603.269000", "111603.277000", "111603.280000", "111603.283000", "111603.286000", "111603.290000", "111603.301000", "111603.304000", "111603.307000", "111603.311000", "111623.236000", "111623.240000", "111623.243000", "111623.246000", "111623.249000", "111623.253000", "111623.256000", "111623.259000", "111623.262000", "111623.265000", "111623.269000", "111623.272000", "111623.275000", "111623.278000", "111623.282000", "111623.285000", "111623.288000", "111623.291000", "111623.295000", "111623.298000", "111643.236000", "111643.240000", "111643.258000", "111643.261000", "111643.264000", "111643.268000", "111643.271000", "111643.274000", "111643.277000", "111643.281000", "111643.284000", "111643.287000", "111643.290000", "111643.294000", "111643.297000", "111643.300000", "111643.303000", "111643.306000", "111643.310000", "111643.313000", "111643.316000", "111723.236000", "111723.240000", "111723.243000", "111723.246000", "111723.250000", "111723.253000", "111723.256000", "111723.260000", "111723.263000", "111723.266000", "111723.269000", "111723.273000", "111723.276000", "111723.279000", "111723.282000", "111723.286000", "111723.289000", "111723.292000", "111723.296000", "111723.299000", "111723.302000", "111723.305000", "111723.309000", "111723.312000", "111723.315000", "111723.318000", "111723.322000", "111723.325000", "111723.328000", "111723.332000", "111723.335000", "111803.236000", "111803.240000", "111803.243000", "111803.246000", "111803.250000", "111803.253000", "111803.256000", "111803.259000", "111803.281000", "111803.284000", "111803.287000", "111803.291000", "111803.294000", "111803.297000", "111803.300000", "111803.304000", "111803.307000", "111803.310000", "111803.321000", "111803.324000", "111803.327000", "111803.330000", "111803.334000", "111803.337000", "111803.340000", "111803.344000", "111803.347000", "111843.236000", "111843.240000", "111843.243000", "111843.246000", "111843.249000", "111843.253000", "111843.256000", "111843.259000", "111843.262000", "111843.266000", "111843.269000", "111843.272000", "111843.275000", "111843.278000", "111843.282000", "111843.285000", "111843.302000", "111843.306000", "111843.309000", "111843.312000", "111843.316000", "111843.319000", "111843.322000", "111843.325000", "111843.329000", "111843.332000", "111843.335000", "111903.638000", "111903.641000", "111903.645000", "111903.648000", "111903.651000", "111903.655000", "111903.658000", "111903.661000", "111903.665000", "111903.668000", "111903.671000", "111903.674000", "111903.678000", "111903.681000"],
      "InstanceCreationTime": ["111543.273000", "111543.277000", "111543.280000", "111543.283000", "111543.287000", "111543.290000", "111543.293000", "111543.297000", "111543.300000", "111543.303000", "111543.307000", "111543.310000", "111543.324000", "111543.327000", "111543.331000", "111543.334000", "111543.337000", "111543.341000", "111543.344000", "111543.347000", "111543.350000", "111543.354000", "111543.357000", "111543.361000", "111543.364000", "111543.367000", "111543.371000", "111543.374000", "111543.387000", "111543.390000", "111603.236000", "111603.240000", "111603.243000", "111603.246000", "111603.249000", "111603.253000", "111603.256000", "111603.259000", "111603.262000", "111603.266000", "111603.269000", "111603.277000", "111603.280000", "111603.283000", "111603.286000", "111603.290000", "111603.301000", "111603.304000", "111603.307000", "111603.311000", "111623.236000", "111623.240000", "111623.243000", "111623.246000", "111623.249000", "111623.253000", "111623.256000", "111623.259000", "111623.262000", "111623.265000", "111623.269000", "111623.272000", "111623.275000", "111623.278000", "111623.282000", "111623.285000", "111623.288000", "111623.291000", "111623.295000", "111623.298000", "111643.236000", "111643.240000", "111643.258000", "111643.261000", "111643.264000", "111643.268000", "111643.271000", "111643.274000", "111643.277000", "111643.281000", "111643.284000", "111643.287000", "111643.290000", "111643.294000", "111643.297000", "111643.300000", "111643.303000", "111643.306000", "111643.310000", "111643.313000", "111643.316000", "111723.236000", "111723.240000", "111723.243000", "111723.246000", "111723.250000", "111723.253000", "111723.256000", "111723.260000", "111723.263000", "111723.266000", "111723.269000", "111723.273000", "111723.276000", "111723.279000", "111723.282000", "111723.286000", "111723.289000", "111723.292000", "111723.296000", "111723.299000", "111723.302000", "111723.305000", "111723.309000", "111723.312000", "111723.315000", "111723.318000", "111723.322000", "111723.325000", "111723.328000", "111723.332000", "111723.335000", "111803.236000", "111803.240000", "111803.243000", "111803.246000", "111803.250000", "111803.253000", "111803.256000", "111803.259000", "111803.281000", "111803.284000", "111803.287000", "111803.291000", "111803.294000", "111803.297000", "111803.300000", "111803.304000", "111803.307000", "111803.310000", "111803.321000", "111803.324000", "111803.327000", "111803.330000", "111803.334000", "111803.337000", "111803.340000", "111803.344000", "111803.347000", "111843.236000", "111843.240000", "111843.243000", "111843.246000", "111843.249000", "111843.253000", "111843.256000", "111843.259000", "111843.262000", "111843.266000", "111843.269000", "111843.272000", "111843.275000", "111843.278000", "111843.282000", "111843.285000", "111843.302000", "111843.306000", "111843.309000", "111843.312000", "111843.316000", "111843.319000", "111843.322000", "111843.325000", "111843.329000", "111843.332000", "111843.335000", "111903.638000", "111903.641000", "111903.645000", "111903.648000", "111903.651000", "111903.655000", "111903.658000", "111903.661000", "111903.665000", "111903.668000", "111903.671000", "111903.674000", "111903.678000", "111903.681000"],
      "InstanceNumber": [1, 2, 3, 4, 5, 6, 7, 8, 9, 10, 11, 12, 13, 14, 15, 16, 17, 18, 19, 20, 21, 22, 23, 24, 25, 26, 27, 28, 29, 30, 31, 32, 33, 34, 35, 36, 37, 38, 39, 40, 41, 42, 43, 44, 45, 46, 47, 48, 49, 50, 51, 52, 53, 54, 55, 56, 57, 58, 59, 60, 61, 62, 63, 64, 65, 66, 67, 68, 69, 70, 71, 72, 73, 74, 75, 76, 77, 78, 79, 80, 81, 82, 83, 84, 85, 86, 87, 88, 89, 90, 91, 92, 93, 94, 95, 96, 97, 98, 99, 100, 101, 102, 103, 104, 105, 106, 107, 108, 109, 110, 111, 112, 113, 114, 115, 116, 117, 118, 119, 120, 121, 122, 123, 124, 125, 126, 127, 128, 129, 130, 131, 132, 133, 134, 135, 136, 137, 138, 139, 140, 141, 142, 143, 144, 145, 146, 147, 148, 149, 150, 151, 152, 153, 154, 155, 156, 157, 158, 159, 160, 161, 162, 163, 164, 165, 166, 167, 168, 169, 170, 171, 172, 173, 174, 175, 176, 177, 178, 179, 180, 181, 182, 183, 184, 185, 186, 187, 188, 189, 190],
      "LargestImagePixelValue": [45970, 45054, 44974, 44614, 44650, 46413, 45268, 44319, 44942, 44131, 44447, 45023, 44123, 45246, 44208, 44004, 45394, 44048, 43855, 43612, 43630, 43822, 43884, 43740, 44516, 44537, 45227, 47725, 44512, 45162, 44703, 46598, 45856, 45102, 45457, 43793, 45897, 46520, 47137, 47363, 45424, 46979, 45340, 44814, 45631, 46338, 47786, 48001, 45523, 45064, 44886, 46012, 46448, 48038, 46692, 46656, 46653, 47687, 47070, 44978, 45048, 46348, 44489, 46985, 47945, 45541, 44401, 45636, 46107, 45408, 46371, 45924, 45332, 46148, 45737, 45645, 46715, 45440, 45073, 47300, 45617, 45066, 45474, 46840, 47831, 45907, 47340, 45734, 47450, 45819, 44865, 46054, 44630, 47195, 46133, 44814, 47777, 46255, 45051, 45986, 46473, 47822, 46345, 47023, 47579, 45667, 48106, 47221, 44770, 44497, 44373, 47018, 47969, 47686, 47299, 47721, 45853, 44898, 46109, 46214, 45274, 47709, 46390, 46481, 47823, 47787, 46691, 46758, 46180, 46873, 47130, 44277, 43776, 47964, 45469, 46409, 47719, 45791, 47081, 46571, 45980, 48257, 46827, 46497, 45651, 47654, 47085, 46336, 48117, 46663, 46515, 47016, 44445, 46763, 47418, 45022, 44999, 47840, 45546, 46987, 48163, 46030, 46094, 47003, 45375, 47340, 47214, 47135, 47164, 46902, 47090, 48235, 47774, 44528, 43985, 43990, 43376, 43377, 45704, 45574, 46466, 46003, 45574, 47471, 46515, 44331, 44467, 44918, 43634, 45279],
      "WindowCenter": [11050.0, 10973.0, 10945.0, 10937.0, 10960.0, 10973.0, 10992.0, 10997.0, 10978.0, 10961.0, 11004.0, 11056.0, 11062.0, 11057.0, 11021.0, 10994.0, 10988.0, 10978.0, 10978.0, 10972.0, 10943.0, 10946.0, 10981.0, 11006.0, 11022.0, 11017.0, 11013.0, 11038.0, 11007.0, 10989.0, 10992.0, 11005.0, 11008.0, 11029.0, 11055.0, 11021.0, 10993.0, 10984.0, 11020.0, 11040.0, 11019.0, 11017.0, 10986.0, 10952.0, 10927.0, 10944.0, 10993.0, 11014.0, 10986.0, 10985.0, 10936.0, 10913.0, 10940.0, 11019.0, 11052.0, 11041.0, 11022.0, 11015.0, 11003.0, 10971.0, 10960.0, 10965.0, 10959.0, 10994.0, 11005.0, 11007.0, 11000.0, 10990.0, 10977.0, 10970.0, 10992.0, 10996.0, 10985.0, 10977.0, 10963.0, 10961.0, 10970.0, 10964.0, 10972.0, 10993.0, 10991.0, 10991.0, 10956.0, 10988.0, 11043.0, 11069.0, 11082.0, 11036.0, 11028.0, 11002.0, 10954.0, 10977.0, 10987.0, 11017.0, 11009.0, 10972.0, 11007.0, 11014.0, 10988.0, 11005.0, 11013.0, 11029.0, 11014.0, 11000.0, 10995.0, 10941.0, 10961.0, 11000.0, 11016.0, 10991.0, 10964.0, 11001.0, 11041.0, 11049.0, 11029.0, 11006.0, 10959.0, 10927.0, 10955.0, 10966.0, 10975.0, 10998.0, 10976.0, 10960.0, 10975.0, 10982.0, 10973.0, 10980.0, 10993.0, 11019.0, 11034.0, 11016.0, 10967.0, 10972.0, 10956.0, 11012.0, 11052.0, 11052.0, 11045.0, 11015.0, 10965.0, 10985.0, 10998.0, 11012.0, 10996.0, 11003.0, 10990.0, 10976.0, 10984.0, 10982.0, 10984.0, 10996.0, 10970.0, 10977.0, 11021.0, 11031.0, 11038.0, 11044.0, 10999.0, 10992.0, 11016.0, 11025.0, 11021.0, 11029.0, 10976.0, 10981.0, 10991.0, 11018.0, 11021.0, 11011.0, 11004.0, 11007.0, 11000.0, 11000.0, 10979.0, 10947.0, 10937.0, 10962.0, 11000.0, 11011.0, 11019.0, 11006.0, 10989.0, 10993.0, 10971.0, 10997.0, 10990.0, 10963.0, 10905.0, 10920.0],
      "WindowWidth": [23841.0, 23625.0, 23535.0, 23509.0, 23561.0, 23578.0, 23620.0, 23640.0, 23591.0, 23553.0, 23647.0, 23764.0, 23785.0, 23768.0, 23684.0, 23622.0, 23604.0, 23587.0, 23592.0, 23582.0, 23515.0, 23517.0, 23597.0, 23658.0, 23691.0, 23677.0, 23666.0, 23714.0, 23658.0, 23616.0, 23623.0, 23646.0, 23656.0, 23708.0, 23768.0, 23696.0, 23624.0, 23594.0, 23672.0, 23717.0, 23673.0, 23663.0, 23600.0, 23524.0, 23465.0, 23500.0, 23602.0, 23654.0, 23604.0, 23602.0, 23496.0, 23436.0, 23491.0, 23664.0, 23747.0, 23727.0, 23676.0, 23652.0, 23627.0, 23567.0, 23544.0, 23548.0, 23540.0, 23610.0, 23633.0, 23646.0, 23636.0, 23606.0, 23574.0, 23562.0, 23610.0, 23621.0, 23597.0, 23574.0, 23540.0, 23538.0, 23555.0, 23548.0, 23569.0, 23608.0, 23610.0, 23616.0, 23536.0, 23602.0, 23725.0, 23792.0, 23819.0, 23716.0, 23687.0, 23635.0, 23531.0, 23575.0, 23607.0, 23665.0, 23650.0, 23569.0, 23635.0, 23657.0, 23606.0, 23642.0, 23656.0, 23686.0, 23658.0, 23621.0, 23607.0, 23495.0, 23530.0, 23622.0, 23676.0, 23614.0, 23559.0, 23625.0, 23713.0, 23737.0, 23692.0, 23632.0, 23534.0, 23465.0, 23520.0, 23547.0, 23578.0, 23613.0, 23570.0, 23532.0, 23559.0, 23576.0, 23562.0, 23580.0, 23610.0, 23669.0, 23702.0, 23675.0, 23570.0, 23558.0, 23531.0, 23652.0, 23741.0, 23748.0, 23730.0, 23658.0, 23544.0, 23577.0, 23615.0, 23650.0, 23617.0, 23621.0, 23592.0, 23565.0, 23577.0, 23578.0, 23587.0, 23611.0, 23564.0, 23569.0, 23662.0, 23701.0, 23715.0, 23713.0, 23623.0, 23599.0, 23647.0, 23680.0, 23670.0, 23683.0, 23573.0, 23569.0, 23591.0, 23653.0, 23661.0, 23640.0, 23622.0, 23625.0, 23614.0, 23630.0, 23587.0, 23514.0, 23490.0, 23546.0, 23622.0, 23646.0, 23665.0, 23635.0, 23593.0, 23596.0, 23550.0, 23623.0, 23610.0, 23546.0, 23417.0, 23442.0]
    },
    "slices": {}
  }
}