{
  "AcquisitionMatrixPE": 104,
  "AcquisitionNumber": 1,
  "AcquisitionTime": "11:00:31.465000",
  "BandwidthPerPixelPhaseEncode": 17.17,
  "BaseResolution": 104,
  "BodyPartExamined": "BRAIN",
  "CoilString": "HC1-7;NC1_2",
  "ConsistencyInfo": "N4_VE11C_LATEST_20160120",
  "ConversionSoftware": "dcm2niix",
  "ConversionSoftwareVersion": "v1.0.20190902",
  "DerivedVendorReportedEchoSpacing": 0.000560011,
  "DeviceSerialNumber": "167006",
  "DwellTime": 2.1e-06,
  "EchoTime": 0.037,
  "EchoTrainLength": 104,
  "EffectiveEchoSpacing": 0.000560011,
  "FlipAngle": 52,
  "ImageComments": "Unaliased_MB4_PE3_LB",
  "ImageOrientationPatientDICOM": [0.999792, 0.00685731, 0.0192162, 0.00331544, 0.874708, -0.484639],
  "ImageType": [
    "ORIGINAL",
    "PRIMARY",
    "M",
    "MB",
    "ND",
    "MOSAIC"
],
  "ImagingFrequency": 123.259,
  "InPlanePhaseEncodingDirectionDICOM": "COL",
  "InstitutionAddress": "Chemin_Queen-Mary_4565_Montreal_District_CA_H3W_1W5",
  "InstitutionName": "IUGM",
  "InstitutionalDepartmentName": "Department",
  "MRAcquisitionType": "2D",
  "MagneticFieldStrength": 3,
  "Manufacturer": "Siemens",
  "ManufacturersModelName": "Prisma_fit",
  "Modality": "MR",
  "MultibandAccelerationFactor": 4,
  "PartialFourier": 1,
  "PatientPosition": "HFS",
  "PercentPhaseFOV": 100,
  "PhaseEncodingDirection": "j",
  "PhaseEncodingSteps": 104,
  "PhaseResolution": 1,
  "PixelBandwidth": 2290,
  "ProcedureStepDescription": "memory_things",
  "ProtocolName": "func_task-things_run-2",
  "PulseSequenceDetails": "%CustomerSeq%_cmrr_mbep2d_bold",
  "ReceiveCoilActiveElements": "HC1-7;NC1,2",
  "ReceiveCoilName": "HeadNeck_64",
  "ReconMatrixPE": 104,
  "RepetitionTime": 1.49,
  "SAR": 0.0440123,
  "ScanOptions": "FS",
  "ScanningSequence": "EP",
  "SequenceName": "epfid2d1_104",
  "SequenceVariant": "SK_SS",
  "SeriesDescription": "func_task-things_run-2",
  "SeriesNumber": 13,
  "ShimSetting": [617, -7184, -8859, 334, -3, -112, -15, -22],
  "SliceThickness": 2,
  "SliceTiming": [0, 0.7825, 0.0975, 0.8825, 0.195, 0.98, 0.2925, 1.0775, 0.3925, 1.175, 0.49, 1.2725, 0.5875, 1.3725, 0.685, 0, 0.7825, 0.0975, 0.8825, 0.195, 0.98, 0.2925, 1.0775, 0.3925, 1.175, 0.49, 1.2725, 0.5875, 1.3725, 0.685, 0, 0.7825, 0.0975, 0.8825, 0.195, 0.98, 0.2925, 1.0775, 0.3925, 1.175, 0.49, 1.2725, 0.5875, 1.3725, 0.685, 0, 0.7825, 0.0975, 0.8825, 0.195, 0.98, 0.2925, 1.0775, 0.3925, 1.175, 0.49, 1.2725, 0.5875, 1.3725, 0.685],
  "SoftwareVersions": "syngo_MR_E11",
  "SpacingBetweenSlices": 2,
  "StationName": "MRC35049",
  "TaskName": "things",
  "TotalReadoutTime": 0.0576811,
  "TxRefAmp": 256.794,
  "WipMemBlock": "fa5e502d-f9ed-4714-b678-3a0bdfd45a01||Sequence: R016 ve11c/master r/e634e98; Dec 19 2017 11:00:25 by eja",
  "dcmmeta_affine": [
    [-1.9995837211608887, 0.006630881689488888, 0.04026370123028755, 105.45635223388672],
    [-0.01371462456882, 1.7494161128997803, -0.9692033529281616, -53.3414421081543],
    [0.03843231871724129, 0.9692776799201965, 1.7490065097808838, -92.03112030029297],
    [0.0, 0.0, 0.0, 1.0]
],
  "dcmmeta_reorient_transform": [
    [0.0, -1.0, 0.0, 103.0],
    [1.0, 0.0, 0.0, 0.0],
    [0.0, 0.0, 1.0, 0.0],
    [0.0, 0.0, 0.0, 1.0]
],
  "dcmmeta_shape": [104, 104, 60, 190],
  "dcmmeta_slice_dim": 2,
  "dcmmeta_version": 0.6,
  "global": {
    "const": {
      "AcquisitionMatrix": [104, 0, 0, 104],
      "AngioFlag": "N",
      "BitsAllocated": 16,
      "BitsStored": 16,
      "BodyPartExamined": "BRAIN",
      "Columns": 832,
      "EchoNumbers": 1,
      "EchoTime": 37.0,
      "EchoTrainLength": 104,
      "FlipAngle": 52.0,
      "HighBit": 15,
      "ImageOrientationPatient": [0.99979183658356, 0.00685731206967, 0.01921615913906, 0.00331544088459, 0.87470807087163, -0.484638833157],
      "ImagePositionPatient": [-836.40143257929, -768.62801750364, 346.63218510763],
      "ImageType": [
        "ORIGINAL",
        "PRIMARY",
        "M",
        "MB",
        "ND",
        "MOSAIC"
],
      "ImagedNucleus": "1H",
      "ImagingFrequency": 123.259135,
      "InPlanePhaseEncodingDirection": "COL",
      "MRAcquisitionType": "2D",
      "MagneticFieldStrength": 3.0,
      "Manufacturer": "SIEMENS",
      "ManufacturerModelName": "Prisma_fit",
      "Modality": "MR",
      "NumberOfAverages": 1.0,
      "NumberOfPhaseEncodingSteps": 104,
      "PercentPhaseFieldOfView": 100.0,
      "PercentSampling": 100.0,
      "PerformedProcedureStepStartTime": "104105.539000",
      "PhotometricInterpretation": "MONOCHROME2",
      "PixelBandwidth": 2290.0,
      "PixelRepresentation": 0,
      "PixelSpacing": [2.0, 2.0],
      "ProtocolName": "func_task-things_run-2",
      "RepetitionTime": 1490.0,
      "Rows": 832,
      "SAR": 0.04401232856615,
      "SamplesPerPixel": 1,
      "ScanOptions": "FS",
      "ScanningSequence": "EP",
      "SequenceName": "epfid2d1_104",
      "SequenceVariant": [
        "SK",
        "SS"
],
      "SeriesDescription": "func_task-things_run-2",
      "SeriesNumber": 13,
      "SeriesTime": "110140.379000",
      "SliceLocation": -52.509131317223,
      "SliceThickness": 2.0,
      "SmallestImagePixelValue": 0,
      "SoftwareVersions": "syngo MR E11",
      "SpacingBetweenSlices": 2.0000000558995,
      "SpecificCharacterSet": "ISO_IR 100",
      "StudyID": "1",
      "StudyTime": "104105.361000",
      "TransmitCoilName": "Body",
      "VariableFlipAngleFlag": "N",
      "WindowCenterWidthExplanation": "Algo1",
      "dBdt": 0.0},
    "slices": {}
  },
  "time": {
    "samples": {
      "AcquisitionNumber": [1, 2, 3, 4, 5, 6, 7, 8, 9, 10, 11, 12, 13, 14, 15, 16, 17, 18, 19, 20, 21, 22, 23, 24, 25, 26, 27, 28, 29, 30, 31, 32, 33, 34, 35, 36, 37, 38, 39, 40, 41, 42, 43, 44, 45, 46, 47, 48, 49, 50, 51, 52, 53, 54, 55, 56, 57, 58, 59, 60, 61, 62, 63, 64, 65, 66, 67, 68, 69, 70, 71, 72, 73, 74, 75, 76, 77, 78, 79, 80, 81, 82, 83, 84, 85, 86, 87, 88, 89, 90, 91, 92, 93, 94, 95, 96, 97, 98, 99, 100, 101, 102, 103, 104, 105, 106, 107, 108, 109, 110, 111, 112, 113, 114, 115, 116, 117, 118, 119, 120, 121, 122, 123, 124, 125, 126, 127, 128, 129, 130, 131, 132, 133, 134, 135, 136, 137, 138, 139, 140, 141, 142, 143, 144, 145, 146, 147, 148, 149, 150, 151, 152, 153, 154, 155, 156, 157, 158, 159, 160, 161, 162, 163, 164, 165, 166, 167, 168, 169, 170, 171, 172, 173, 174, 175, 176, 177, 178, 179, 180, 181, 182, 183, 184, 185, 186, 187, 188, 189, 190],
      "AcquisitionTime": ["110031.465000", "110032.955000", "110034.445000", "110035.935000", "110037.425000", "110038.915000", "110040.405000", "110041.895000", "110043.385000", "110044.875000", "110046.365000", "110047.855000", "110049.345000", "110050.835000", "110052.325000", "110053.815000", "110055.305000", "110056.795000", "110058.285000", "110059.775000", "110101.265000", "110102.755000", "110104.245000", "110105.735000", "110107.225000", "110108.715000", "110110.205000", "110111.695000", "110113.185000", "110114.675000", "110116.165000", "110117.655000", "110119.145000", "110120.635000", "110122.125000", "110123.615000", "110125.105000", "110126.595000", "110128.085000", "110129.575000", "110131.065000", "110132.555000", "110134.045000", "110135.535000", "110137.025000", "110138.515000", "110140.005000", "110141.495000", "110142.985000", "110144.475000", "110145.965000", "110147.455000", "110148.945000", "110150.435000", "110151.925000", "110153.415000", "110154.905000", "110156.395000", "110157.885000", "110159.375000", "110200.865000", "110202.355000", "110203.845000", "110205.335000", "110206.825000", "110208.315000", "110209.805000", "110211.295000", "110212.785000", "110214.275000", "110215.765000", "110217.255000", "110218.745000", "110220.235000", "110221.725000", "110223.215000", "110224.705000", "110226.195000", "110227.685000", "110229.175000", "110230.665000", "110232.155000", "110233.645000", "110235.135000", "110236.625000", "110238.115000", "110239.605000", "110241.095000", "110242.585000", "110244.075000", "110245.565000", "110247.055000", "110248.545000", "110250.035000", "110251.525000", "110253.015000", "110254.505000", "110255.995000", "110257.485000", "110258.975000", "110300.465000", "110301.955000", "110303.445000", "110304.935000", "110306.425000", "110307.915000", "110309.405000", "110310.895000", "110312.385000", "110313.875000", "110315.365000", "110316.855000", "110318.345000", "110319.835000", "110321.325000", "110322.815000", "110324.305000", "110325.795000", "110327.285000", "110328.775000", "110330.265000", "110331.755000", "110333.245000", "110334.735000", "110336.225000", "110337.715000", "110339.205000", "110340.695000", "110342.185000", "110343.675000", "110345.165000", "110346.655000", "110348.145000", "110349.635000", "110351.125000", "110352.615000", "110354.105000", "110355.595000", "110357.085000", "110358.575000", "110400.065000", "110401.555000", "110403.045000", "110404.535000", "110406.025000", "110407.515000", "110409.005000", "110410.495000", "110411.985000", "110413.475000", "110414.965000", "110416.455000", "110417.945000", "110419.435000", "110420.925000", "110422.415000", "110423.905000", "110425.395000", "110426.885000", "110428.375000", "110429.865000", "110431.355000", "110432.845000", "110434.335000", "110435.825000", "110437.315000", "110438.805000", "110440.295000", "110441.785000", "110443.275000", "110444.765000", "110446.255000", "110447.745000", "110449.235000", "110450.725000", "110452.215000", "110453.705000", "110455.195000", "110456.685000", "110458.175000", "110459.665000", "110501.155000", "110502.645000", "110504.135000", "110505.625000", "110507.115000", "110508.605000", "110510.095000", "110511.585000", "110513.075000"],
      "ContentTime": ["110140.383000", "110140.386000", "110140.390000", "110140.393000", "110140.396000", "110140.399000", "110140.410000", "110140.413000", "110140.417000", "110140.421000", "110140.425000", "110140.429000", "110140.432000", "110140.436000", "110200.350000", "110200.358000", "110200.369000", "110200.372000", "110200.375000", "110200.378000", "110200.382000", "110200.385000", "110200.388000", "110200.391000", "110200.395000", "110200.398000", "110200.401000", "110200.405000", "110200.408000", "110200.411000", "110200.414000", "110200.424000", "110200.427000", "110200.430000", "110200.434000", "110220.350000", "110220.353000", "110220.357000", "110220.360000", "110220.363000", "110220.367000", "110220.370000", "110220.373000", "110220.376000", "110220.379000", "110220.383000", "110220.386000", "110220.389000", "110220.393000", "110220.396000", "110220.399000", "110220.402000", "110220.406000", "110220.409000", "110220.412000", "110240.350000", "110240.354000", "110240.357000", "110240.360000", "110240.364000", "110240.367000", "110240.370000", "110240.373000", "110240.377000", "110240.380000", "110240.383000", "110240.387000", "110240.390000", "110240.393000", "110240.396000", "110240.399000", "110240.403000", "110240.406000", "110240.409000", "110240.413000", "110300.349000", "110300.353000", "110300.366000", "110300.369000", "110300.373000", "110300.376000", "110300.379000", "110300.382000", "110300.386000", "110300.389000", "110300.392000", "110300.395000", "110300.398000", "110300.402000", "110300.405000", "110300.408000", "110300.411000", "110300.415000", "110300.418000", "110300.421000", "110340.349000", "110340.353000", "110340.356000", "110340.359000", "110340.362000", "110340.365000", "110340.369000", "110340.372000", "110340.375000", "110340.378000", "110340.382000", "110340.385000", "110340.388000", "110340.391000", "110340.394000", "110340.398000", "110340.401000", "110340.404000", "110340.407000", "110340.411000", "110340.414000", "110340.417000", "110340.420000", "110340.423000", "110340.427000", "110340.430000", "110340.433000", "110340.436000", "110340.440000", "110340.443000", "110340.446000", "110420.350000", "110420.354000", "110420.357000", "110420.360000", "110420.363000", "110420.367000", "110420.370000", "110420.373000", "110420.376000", "110420.380000", "110420.383000", "110420.387000", "110420.390000", "110420.393000", "110420.397000", "110420.401000", "110420.404000", "110420.408000", "110420.411000", "110420.415000", "110420.418000", "110420.432000", "110420.435000", "110420.438000", "110420.442000", "110420.445000", "110500.350000", "110500.354000", "110500.357000", "110500.361000", "110500.364000", "110500.367000", "110500.370000", "110500.374000", "110500.377000", "110500.380000", "110500.383000", "110500.387000", "110500.390000", "110500.401000", "110500.404000", "110500.407000", "110500.411000", "110500.414000", "110500.417000", "110500.421000", "110500.424000", "110500.427000", "110500.430000", "110500.434000", "110500.437000", "110500.440000", "110500.443000", "110515.596000", "110515.600000", "110515.603000", "110515.607000", "110515.610000", "110515.613000", "110515.617000", "110515.620000", "110515.623000", "110515.627000", "110515.630000"],
      "InstanceCreationTime": ["110140.383000", "110140.386000", "110140.390000", "110140.393000", "110140.396000", "110140.399000", "110140.410000", "110140.413000", "110140.417000", "110140.421000", "110140.425000", "110140.429000", "110140.432000", "110140.436000", "110200.350000", "110200.358000", "110200.369000", "110200.372000", "110200.375000", "110200.378000", "110200.382000", "110200.385000", "110200.388000", "110200.391000", "110200.395000", "110200.398000", "110200.401000", "110200.405000", "110200.408000", "110200.411000", "110200.414000", "110200.424000", "110200.427000", "110200.430000", "110200.434000", "110220.350000", "110220.353000", "110220.357000", "110220.360000", "110220.363000", "110220.367000", "110220.370000", "110220.373000", "110220.376000", "110220.379000", "110220.383000", "110220.386000", "110220.389000", "110220.393000", "110220.396000", "110220.399000", "110220.402000", "110220.406000", "110220.409000", "110220.412000", "110240.350000", "110240.354000", "110240.357000", "110240.360000", "110240.364000", "110240.367000", "110240.370000", "110240.373000", "110240.377000", "110240.380000", "110240.383000", "110240.387000", "110240.390000", "110240.393000", "110240.396000", "110240.399000", "110240.403000", "110240.406000", "110240.409000", "110240.413000", "110300.349000", "110300.353000", "110300.366000", "110300.369000", "110300.373000", "110300.376000", "110300.379000", "110300.382000", "110300.386000", "110300.389000", "110300.392000", "110300.395000", "110300.398000", "110300.402000", "110300.405000", "110300.408000", "110300.411000", "110300.415000", "110300.418000", "110300.421000", "110340.349000", "110340.353000", "110340.356000", "110340.359000", "110340.362000", "110340.365000", "110340.369000", "110340.372000", "110340.375000", "110340.378000", "110340.382000", "110340.385000", "110340.388000", "110340.391000", "110340.394000", "110340.398000", "110340.401000", "110340.404000", "110340.407000", "110340.411000", "110340.414000", "110340.417000", "110340.420000", "110340.423000", "110340.427000", "110340.430000", "110340.433000", "110340.436000", "110340.440000", "110340.443000", "110340.446000", "110420.350000", "110420.354000", "110420.357000", "110420.360000", "110420.363000", "110420.367000", "110420.370000", "110420.373000", "110420.376000", "110420.380000", "110420.383000", "110420.387000", "110420.390000", "110420.393000", "110420.397000", "110420.401000", "110420.404000", "110420.408000", "110420.411000", "110420.415000", "110420.418000", "110420.432000", "110420.435000", "110420.438000", "110420.442000", "110420.445000", "110500.350000", "110500.354000", "110500.357000", "110500.361000", "110500.364000", "110500.367000", "110500.370000", "110500.374000", "110500.377000", "110500.380000", "110500.383000", "110500.387000", "110500.390000", "110500.401000", "110500.404000", "110500.407000", "110500.411000", "110500.414000", "110500.417000", "110500.421000", "110500.424000", "110500.427000", "110500.430000", "110500.434000", "110500.437000", "110500.440000", "110500.443000", "110515.596000", "110515.600000", "110515.603000", "110515.607000", "110515.610000", "110515.613000", "110515.617000", "110515.620000", "110515.623000", "110515.627000", "110515.630000"],
      "InstanceNumber": [1, 2, 3, 4, 5, 6, 7, 8, 9, 10, 11, 12, 13, 14, 15, 16, 17, 18, 19, 20, 21, 22, 23, 24, 25, 26, 27, 28, 29, 30, 31, 32, 33, 34, 35, 36, 37, 38, 39, 40, 41, 42, 43, 44, 45, 46, 47, 48, 49, 50, 51, 52, 53, 54, 55, 56, 57, 58, 59, 60, 61, 62, 63, 64, 65, 66, 67, 68, 69, 70, 71, 72, 73, 74, 75, 76, 77, 78, 79, 80, 81, 82, 83, 84, 85, 86, 87, 88, 89, 90, 91, 92, 93, 94, 95, 96, 97, 98, 99, 100, 101, 102, 103, 104, 105, 106, 107, 108, 109, 110, 111, 112, 113, 114, 115, 116, 117, 118, 119, 120, 121, 122, 123, 124, 125, 126, 127, 128, 129, 130, 131, 132, 133, 134, 135, 136, 137, 138, 139, 140, 141, 142, 143, 144, 145, 146, 147, 148, 149, 150, 151, 152, 153, 154, 155, 156, 157, 158, 159, 160, 161, 162, 163, 164, 165, 166, 167, 168, 169, 170, 171, 172, 173, 174, 175, 176, 177, 178, 179, 180, 181, 182, 183, 184, 185, 186, 187, 188, 189, 190],
      "LargestImagePixelValue": [50381, 49333, 48283, 48271, 48205, 47949, 47775, 47674, 48013, 48208, 47729, 47712, 47930, 47704, 47243, 47535, 47830, 47644, 47902, 47387, 47489, 46852, 47656, 47650, 47732, 47532, 47792, 47919, 47504, 47662, 47234, 48010, 48079, 47945, 47622, 48076, 47931, 47750, 47611, 47854, 48171, 47688, 47974, 47848, 47679, 47929, 47853, 48584, 48504, 48459, 47226, 47882, 47751, 47616, 47546, 47948, 47549, 47752, 47536, 48078, 47268, 47323, 48104, 48131, 47482, 47608, 47616, 46827, 47365, 47719, 47543, 48072, 47442, 47729, 47562, 47471, 47287, 48148, 47905, 47833, 48021, 47536, 47512, 47693, 47525, 47405, 47737, 47838, 47446, 47715, 47693, 47783, 47654, 46976, 47970, 47802, 48102, 47140, 48070, 47325, 47525, 47673, 47063, 47912, 47762, 47740, 48043, 47724, 47851, 47619, 48144, 47742, 47869, 47586, 48031, 47293, 47763, 48015, 47976, 47450, 47636, 47741, 47780, 47892, 47499, 47764, 47829, 48119, 47385, 47438, 47797, 47686, 48026, 47423, 48117, 48176, 47661, 48286, 47622, 47734, 47560, 47486, 47576, 47674, 48034, 47858, 48295, 47577, 47367, 47550, 47903, 46884, 47593, 47712, 47732, 47829, 47914, 47485, 48113, 47186, 47284, 48180, 46591, 46364, 46260, 47107, 47273, 47492, 47783, 47566, 48078, 46626, 46814, 48169, 46995, 47517, 47417, 47108, 47018, 47724, 48076, 48133, 48192, 48139, 48649, 48095, 46851, 47797, 47324, 47153],
      "WindowCenter": [11228.0, 11167.0, 11119.0, 11063.0, 11018.0, 11004.0, 11021.0, 11060.0, 11098.0, 11104.0, 11051.0, 11014.0, 11030.0, 11074.0, 11076.0, 11061.0, 11047.0, 11056.0, 11083.0, 11089.0, 11096.0, 11078.0, 11059.0, 11075.0, 11088.0, 11096.0, 11082.0, 11051.0, 11034.0, 11050.0, 11078.0, 11093.0, 11089.0, 11071.0, 11056.0, 11058.0, 11052.0, 11058.0, 11062.0, 11070.0, 11073.0, 11062.0, 11068.0, 11075.0, 11079.0, 11088.0, 11078.0, 11075.0, 11072.0, 11080.0, 11080.0, 11088.0, 11085.0, 11098.0, 11081.0, 11072.0, 11064.0, 11054.0, 11051.0, 11052.0, 11048.0, 11046.0, 11050.0, 11045.0, 11044.0, 11053.0, 11064.0, 11062.0, 11067.0, 11065.0, 11071.0, 11065.0, 11065.0, 11081.0, 11082.0, 11064.0, 11066.0, 11070.0, 11064.0, 11057.0, 11060.0, 11056.0, 11057.0, 11057.0, 11064.0, 11058.0, 11056.0, 11064.0, 11058.0, 11075.0, 11077.0, 11071.0, 11055.0, 11051.0, 11072.0, 11074.0, 11072.0, 11045.0, 11047.0, 11033.0, 11032.0, 11031.0, 11034.0, 11046.0, 11056.0, 11058.0, 11063.0, 11053.0, 11037.0, 11047.0, 11079.0, 11083.0, 11065.0, 11042.0, 11067.0, 11077.0, 11080.0, 11062.0, 11029.0, 11022.0, 11072.0, 11101.0, 11096.0, 11038.0, 11007.0, 11026.0, 11054.0, 11070.0, 11040.0, 11039.0, 11021.0, 11019.0, 11018.0, 11028.0, 11046.0, 11060.0, 11047.0, 11046.0, 11038.0, 11051.0, 11046.0, 11040.0, 11052.0, 11056.0, 11065.0, 11053.0, 11052.0, 11059.0, 11029.0, 11019.0, 11026.0, 11047.0, 11065.0, 11051.0, 11038.0, 11034.0, 11027.0, 11022.0, 11033.0, 11025.0, 11031.0, 11057.0, 11078.0, 11060.0, 11030.0, 11047.0, 11080.0, 11090.0, 11088.0, 11064.0, 11057.0, 11036.0, 11036.0, 11059.0, 11064.0, 11067.0, 11060.0, 11055.0, 11053.0, 11056.0, 11063.0, 11065.0, 11071.0, 11066.0, 11064.0, 11067.0, 11041.0, 11057.0, 11064.0, 11073.0],
      "WindowWidth": [24246.0, 24068.0, 23940.0, 23800.0, 23687.0, 23645.0, 23684.0, 23776.0, 23864.0, 23878.0, 23757.0, 23672.0, 23704.0, 23807.0, 23820.0, 23782.0, 23746.0, 23764.0, 23830.0, 23847.0, 23862.0, 23825.0, 23776.0, 23812.0, 23841.0, 23861.0, 23830.0, 23755.0, 23715.0, 23753.0, 23818.0, 23850.0, 23841.0, 23801.0, 23763.0, 23767.0, 23754.0, 23770.0, 23781.0, 23799.0, 23802.0, 23778.0, 23791.0, 23807.0, 23817.0, 23839.0, 23816.0, 23808.0, 23799.0, 23819.0, 23823.0, 23836.0, 23830.0, 23861.0, 23822.0, 23799.0, 23782.0, 23757.0, 23749.0, 23749.0, 23744.0, 23741.0, 23748.0, 23739.0, 23736.0, 23757.0, 23780.0, 23780.0, 23789.0, 23781.0, 23797.0, 23785.0, 23787.0, 23823.0, 23825.0, 23784.0, 23789.0, 23791.0, 23780.0, 23764.0, 23770.0, 23763.0, 23768.0, 23767.0, 23780.0, 23770.0, 23767.0, 23784.0, 23770.0, 23809.0, 23815.0, 23799.0, 23761.0, 23755.0, 23801.0, 23804.0, 23794.0, 23735.0, 23737.0, 23710.0, 23706.0, 23703.0, 23711.0, 23737.0, 23760.0, 23767.0, 23777.0, 23757.0, 23717.0, 23740.0, 23814.0, 23827.0, 23783.0, 23728.0, 23785.0, 23812.0, 23821.0, 23776.0, 23697.0, 23686.0, 23798.0, 23865.0, 23853.0, 23722.0, 23649.0, 23690.0, 23757.0, 23794.0, 23727.0, 23723.0, 23680.0, 23673.0, 23672.0, 23696.0, 23735.0, 23767.0, 23740.0, 23737.0, 23719.0, 23749.0, 23740.0, 23728.0, 23751.0, 23762.0, 23783.0, 23752.0, 23750.0, 23770.0, 23707.0, 23678.0, 23694.0, 23744.0, 23785.0, 23751.0, 23718.0, 23706.0, 23694.0, 23685.0, 23706.0, 23695.0, 23706.0, 23761.0, 23821.0, 23783.0, 23712.0, 23745.0, 23818.0, 23847.0, 23840.0, 23780.0, 23759.0, 23720.0, 23720.0, 23767.0, 23786.0, 23792.0, 23775.0, 23765.0, 23760.0, 23761.0, 23773.0, 23776.0, 23790.0, 23779.0, 23772.0, 23783.0, 23734.0, 23766.0, 23787.0, 23807.0]
    },
    "slices": {}
  }
}