{
  "AcquisitionMatrixPE": 104,
  "AcquisitionNumber": 1,
  "AcquisitionTime": "11:06:32.597500",
  "BandwidthPerPixelPhaseEncode": 17.17,
  "BaseResolution": 104,
  "BodyPartExamined": "BRAIN",
  "CoilString": "HC1-7;NC1_2",
  "ConsistencyInfo": "N4_VE11C_LATEST_20160120",
  "ConversionSoftware": "dcm2niix",
  "ConversionSoftwareVersion": "v1.0.20190902",
  "DerivedVendorReportedEchoSpacing": 0.000560011,
  "DeviceSerialNumber": "167006",
  "DwellTime": 2.1e-06,
  "EchoTime": 0.037,
  "EchoTrainLength": 104,
  "EffectiveEchoSpacing": 0.000560011,
  "FlipAngle": 52,
  "ImageComments": "Unaliased_MB4_PE3_LB",
  "ImageOrientationPatientDICOM": [0.999792, 0.00685731, 0.0192162, 0.00331544, 0.874708, -0.484639],
  "ImageType": [
    "ORIGINAL",
    "PRIMARY",
    "M",
    "MB",
    "ND",
    "MOSAIC"
],
  "ImagingFrequency": 123.259,
  "InPlanePhaseEncodingDirectionDICOM": "COL",
  "InstitutionAddress": "Chemin_Queen-Mary_4565_Montreal_District_CA_H3W_1W5",
  "InstitutionName": "IUGM",
  "InstitutionalDepartmentName": "Department",
  "MRAcquisitionType": "2D",
  "MagneticFieldStrength": 3,
  "Manufacturer": "Siemens",
  "ManufacturersModelName": "Prisma_fit",
  "Modality": "MR",
  "MultibandAccelerationFactor": 4,
  "PartialFourier": 1,
  "PatientPosition": "HFS",
  "PercentPhaseFOV": 100,
  "PhaseEncodingDirection": "j",
  "PhaseEncodingSteps": 104,
  "PhaseResolution": 1,
  "PixelBandwidth": 2290,
  "ProcedureStepDescription": "memory_things",
  "ProtocolName": "func_task-things_run-3",
  "PulseSequenceDetails": "%CustomerSeq%_cmrr_mbep2d_bold",
  "ReceiveCoilActiveElements": "HC1-7;NC1,2",
  "ReceiveCoilName": "HeadNeck_64",
  "ReconMatrixPE": 104,
  "RepetitionTime": 1.49,
  "SAR": 0.0440123,
  "ScanOptions": "FS",
  "ScanningSequence": "EP",
  "SequenceName": "epfid2d1_104",
  "SequenceVariant": "SK_SS",
  "SeriesDescription": "func_task-things_run-3",
  "SeriesNumber": 16,
  "ShimSetting": [617, -7184, -8859, 334, -3, -112, -15, -22],
  "SliceThickness": 2,
  "SliceTiming": [0, 0.7825, 0.0975, 0.88, 0.195, 0.9775, 0.2925, 1.0775, 0.39, 1.175, 0.4875, 1.2725, 0.5875, 1.37, 0.685, 0, 0.7825, 0.0975, 0.88, 0.195, 0.9775, 0.2925, 1.0775, 0.39, 1.175, 0.4875, 1.2725, 0.5875, 1.37, 0.685, 0, 0.7825, 0.0975, 0.88, 0.195, 0.9775, 0.2925, 1.0775, 0.39, 1.175, 0.4875, 1.2725, 0.5875, 1.37, 0.685, 0, 0.7825, 0.0975, 0.88, 0.195, 0.9775, 0.2925, 1.0775, 0.39, 1.175, 0.4875, 1.2725, 0.5875, 1.37, 0.685],
  "SoftwareVersions": "syngo_MR_E11",
  "SpacingBetweenSlices": 2,
  "StationName": "MRC35049",
  "TaskName": "things",
  "TotalReadoutTime": 0.0576811,
  "TxRefAmp": 256.794,
  "WipMemBlock": "113db1ce-e373-430b-ba2c-60ffa5ab407b||Sequence: R016 ve11c/master r/e634e98; Dec 19 2017 11:00:25 by eja",
  "dcmmeta_affine": [
    [-1.9995837211608887, 0.006630881689488888, 0.04026370123028755, 105.45635223388672],
    [-0.01371462456882, 1.7494161128997803, -0.9692033529281616, -53.3414421081543],
    [0.03843231871724129, 0.9692776799201965, 1.7490065097808838, -92.03112030029297],
    [0.0, 0.0, 0.0, 1.0]
],
  "dcmmeta_reorient_transform": [
    [0.0, -1.0, 0.0, 103.0],
    [1.0, 0.0, 0.0, 0.0],
    [0.0, 0.0, 1.0, 0.0],
    [0.0, 0.0, 0.0, 1.0]
],
  "dcmmeta_shape": [104, 104, 60, 190],
  "dcmmeta_slice_dim": 2,
  "dcmmeta_version": 0.6,
  "global": {
    "const": {
      "AcquisitionMatrix": [104, 0, 0, 104],
      "AngioFlag": "N",
      "BitsAllocated": 16,
      "BitsStored": 16,
      "BodyPartExamined": "BRAIN",
      "Columns": 832,
      "EchoNumbers": 1,
      "EchoTime": 37.0,
      "EchoTrainLength": 104,
      "FlipAngle": 52.0,
      "HighBit": 15,
      "ImageOrientationPatient": [0.99979183658356, 0.00685731206967, 0.01921615913906, 0.00331544088459, 0.87470807087163, -0.484638833157],
      "ImagePositionPatient": [-836.40143257929, -768.62801750364, 346.63218510763],
      "ImageType": [
        "ORIGINAL",
        "PRIMARY",
        "M",
        "MB",
        "ND",
        "MOSAIC"
],
      "ImagedNucleus": "1H",
      "ImagingFrequency": 123.259139,
      "InPlanePhaseEncodingDirection": "COL",
      "MRAcquisitionType": "2D",
      "MagneticFieldStrength": 3.0,
      "Manufacturer": "SIEMENS",
      "ManufacturerModelName": "Prisma_fit",
      "Modality": "MR",
      "NumberOfAverages": 1.0,
      "NumberOfPhaseEncodingSteps": 104,
      "PercentPhaseFieldOfView": 100.0,
      "PercentSampling": 100.0,
      "PerformedProcedureStepStartTime": "104105.539000",
      "PhotometricInterpretation": "MONOCHROME2",
      "PixelBandwidth": 2290.0,
      "PixelRepresentation": 0,
      "PixelSpacing": [2.0, 2.0],
      "ProtocolName": "func_task-things_run-3",
      "RepetitionTime": 1490.0,
      "Rows": 832,
      "SAR": 0.04401232856615,
      "SamplesPerPixel": 1,
      "ScanOptions": "FS",
      "ScanningSequence": "EP",
      "SequenceName": "epfid2d1_104",
      "SequenceVariant": [
        "SK",
        "SS"
],
      "SeriesDescription": "func_task-things_run-3",
      "SeriesNumber": 16,
      "SeriesTime": "110800.306000",
      "SliceLocation": -52.509131317223,
      "SliceThickness": 2.0,
      "SmallestImagePixelValue": 0,
      "SoftwareVersions": "syngo MR E11",
      "SpacingBetweenSlices": 2.0000000558995,
      "SpecificCharacterSet": "ISO_IR 100",
      "StudyID": "1",
      "StudyTime": "104105.361000",
      "TransmitCoilName": "Body",
      "VariableFlipAngleFlag": "N",
      "WindowCenterWidthExplanation": "Algo1",
      "dBdt": 0.0},
    "slices": {}
  },
  "time": {
    "samples": {
      "AcquisitionNumber": [1, 2, 3, 4, 5, 6, 7, 8, 9, 10, 11, 12, 13, 14, 15, 16, 17, 18, 19, 20, 21, 22, 23, 24, 25, 26, 27, 28, 29, 30, 31, 32, 33, 34, 35, 36, 37, 38, 39, 40, 41, 42, 43, 44, 45, 46, 47, 48, 49, 50, 51, 52, 53, 54, 55, 56, 57, 58, 59, 60, 61, 62, 63, 64, 65, 66, 67, 68, 69, 70, 71, 72, 73, 74, 75, 76, 77, 78, 79, 80, 81, 82, 83, 84, 85, 86, 87, 88, 89, 90, 91, 92, 93, 94, 95, 96, 97, 98, 99, 100, 101, 102, 103, 104, 105, 106, 107, 108, 109, 110, 111, 112, 113, 114, 115, 116, 117, 118, 119, 120, 121, 122, 123, 124, 125, 126, 127, 128, 129, 130, 131, 132, 133, 134, 135, 136, 137, 138, 139, 140, 141, 142, 143, 144, 145, 146, 147, 148, 149, 150, 151, 152, 153, 154, 155, 156, 157, 158, 159, 160, 161, 162, 163, 164, 165, 166, 167, 168, 169, 170, 171, 172, 173, 174, 175, 176, 177, 178, 179, 180, 181, 182, 183, 184, 185, 186, 187, 188, 189, 190],
      "AcquisitionTime": ["110632.597500", "110634.087500", "110635.577500", "110637.067500", "110638.557500", "110640.047500", "110641.537500", "110643.027500", "110644.517500", "110646.007500", "110647.497500", "110648.987500", "110650.477500", "110651.967500", "110653.457500", "110654.947500", "110656.437500", "110657.927500", "110659.417500", "110700.907500", "110702.397500", "110703.887500", "110705.377500", "110706.867500", "110708.357500", "110709.847500", "110711.337500", "110712.827500", "110714.317500", "110715.807500", "110717.297500", "110718.787500", "110720.277500", "110721.767500", "110723.257500", "110724.747500", "110726.237500", "110727.727500", "110729.217500", "110730.707500", "110732.197500", "110733.687500", "110735.177500", "110736.667500", "110738.157500", "110739.647500", "110741.137500", "110742.627500", "110744.117500", "110745.607500", "110747.097500", "110748.587500", "110750.077500", "110751.567500", "110753.057500", "110754.547500", "110756.037500", "110757.527500", "110759.017500", "110800.507500", "110801.997500", "110803.487500", "110804.977500", "110806.467500", "110807.957500", "110809.447500", "110810.937500", "110812.427500", "110813.917500", "110815.407500", "110816.897500", "110818.387500", "110819.877500", "110821.367500", "110822.857500", "110824.347500", "110825.837500", "110827.327500", "110828.817500", "110830.307500", "110831.797500", "110833.287500", "110834.777500", "110836.267500", "110837.757500", "110839.247500", "110840.737500", "110842.227500", "110843.717500", "110845.207500", "110846.697500", "110848.187500", "110849.677500", "110851.167500", "110852.657500", "110854.147500", "110855.637500", "110857.127500", "110858.617500", "110900.107500", "110901.597500", "110903.087500", "110904.577500", "110906.067500", "110907.557500", "110909.047500", "110910.537500", "110912.027500", "110913.517500", "110915.007500", "110916.497500", "110917.987500", "110919.477500", "110920.967500", "110922.457500", "110923.947500", "110925.437500", "110926.927500", "110928.417500", "110929.907500", "110931.397500", "110932.887500", "110934.377500", "110935.867500", "110937.357500", "110938.847500", "110940.337500", "110941.827500", "110943.317500", "110944.807500", "110946.297500", "110947.787500", "110949.277500", "110950.767500", "110952.257500", "110953.747500", "110955.237500", "110956.727500", "110958.217500", "110959.707500", "111001.197500", "111002.687500", "111004.177500", "111005.667500", "111007.157500", "111008.647500", "111010.137500", "111011.627500", "111013.117500", "111014.607500", "111016.097500", "111017.587500", "111019.077500", "111020.567500", "111022.057500", "111023.547500", "111025.037500", "111026.527500", "111028.017500", "111029.507500", "111030.997500", "111032.487500", "111033.977500", "111035.467500", "111036.957500", "111038.447500", "111039.937500", "111041.427500", "111042.917500", "111044.407500", "111045.897500", "111047.387500", "111048.877500", "111050.367500", "111051.857500", "111053.347500", "111054.837500", "111056.327500", "111057.817500", "111059.307500", "111100.797500", "111102.287500", "111103.777500", "111105.267500", "111106.757500", "111108.247500", "111109.737500", "111111.227500", "111112.717500", "111114.207500"],
      "ContentTime": ["110800.309000", "110800.313000", "110800.316000", "110800.319000", "110800.322000", "110800.325000", "110800.329000", "110800.332000", "110800.335000", "110800.338000", "110800.342000", "110800.345000", "110800.348000", "110800.351000", "110800.355000", "110800.358000", "110800.361000", "110800.364000", "110800.367000", "110800.371000", "110800.374000", "110800.377000", "110800.380000", "110800.384000", "110800.387000", "110800.390000", "110800.393000", "110800.397000", "110800.400000", "110800.403000", "110800.411000", "110800.414000", "110800.417000", "110800.420000", "110800.423000", "110820.264000", "110820.268000", "110820.271000", "110820.274000", "110820.277000", "110820.281000", "110820.284000", "110820.287000", "110820.290000", "110820.293000", "110820.297000", "110820.300000", "110820.303000", "110820.306000", "110820.310000", "110820.313000", "110820.316000", "110820.319000", "110820.323000", "110820.326000", "110840.265000", "110840.269000", "110840.272000", "110840.275000", "110840.278000", "110840.282000", "110840.285000", "110840.288000", "110840.291000", "110840.295000", "110840.298000", "110840.301000", "110840.304000", "110840.308000", "110840.311000", "110840.314000", "110840.317000", "110840.320000", "110840.324000", "110840.327000", "110840.330000", "110900.265000", "110900.269000", "110900.272000", "110900.275000", "110900.278000", "110900.282000", "110900.285000", "110900.288000", "110900.291000", "110900.295000", "110900.298000", "110900.301000", "110900.304000", "110900.308000", "110900.311000", "110900.314000", "110900.318000", "110900.321000", "110900.324000", "110900.327000", "110920.265000", "110920.269000", "110920.272000", "110920.275000", "110920.279000", "110920.282000", "110920.285000", "110920.288000", "110920.292000", "110920.295000", "110920.298000", "110920.301000", "110920.305000", "110920.308000", "110920.311000", "110920.314000", "111000.264000", "111000.268000", "111000.271000", "111000.274000", "111000.278000", "111000.281000", "111000.284000", "111000.287000", "111000.291000", "111000.294000", "111000.297000", "111000.300000", "111000.304000", "111000.307000", "111000.310000", "111000.313000", "111000.317000", "111000.320000", "111000.323000", "111000.326000", "111000.329000", "111000.333000", "111000.336000", "111000.339000", "111000.342000", "111000.345000", "111000.349000", "111040.264000", "111040.268000", "111040.271000", "111040.287000", "111040.291000", "111040.294000", "111040.297000", "111040.300000", "111040.304000", "111040.307000", "111040.310000", "111040.314000", "111040.317000", "111040.321000", "111040.324000", "111040.327000", "111040.330000", "111040.334000", "111040.337000", "111040.340000", "111040.343000", "111040.346000", "111040.350000", "111040.353000", "111040.356000", "111040.360000", "111116.284000", "111116.287000", "111116.291000", "111116.294000", "111116.298000", "111116.302000", "111116.305000", "111116.309000", "111116.312000", "111116.315000", "111116.318000", "111116.322000", "111116.325000", "111116.329000", "111116.332000", "111116.335000", "111116.339000", "111116.342000", "111116.345000", "111116.349000", "111116.352000", "111116.355000", "111116.358000", "111116.362000", "111116.365000"],
      "InstanceCreationTime": ["110800.309000", "110800.313000", "110800.316000", "110800.319000", "110800.322000", "110800.325000", "110800.329000", "110800.332000", "110800.335000", "110800.338000", "110800.342000", "110800.345000", "110800.348000", "110800.351000", "110800.355000", "110800.358000", "110800.361000", "110800.364000", "110800.367000", "110800.371000", "110800.374000", "110800.377000", "110800.380000", "110800.384000", "110800.387000", "110800.390000", "110800.393000", "110800.397000", "110800.400000", "110800.403000", "110800.411000", "110800.414000", "110800.417000", "110800.420000", "110800.423000", "110820.264000", "110820.268000", "110820.271000", "110820.274000", "110820.277000", "110820.281000", "110820.284000", "110820.287000", "110820.290000", "110820.293000", "110820.297000", "110820.300000", "110820.303000", "110820.306000", "110820.310000", "110820.313000", "110820.316000", "110820.319000", "110820.323000", "110820.326000", "110840.265000", "110840.269000", "110840.272000", "110840.275000", "110840.278000", "110840.282000", "110840.285000", "110840.288000", "110840.291000", "110840.295000", "110840.298000", "110840.301000", "110840.304000", "110840.308000", "110840.311000", "110840.314000", "110840.317000", "110840.320000", "110840.324000", "110840.327000", "110840.330000", "110900.265000", "110900.269000", "110900.272000", "110900.275000", "110900.278000", "110900.282000", "110900.285000", "110900.288000", "110900.291000", "110900.295000", "110900.298000", "110900.301000", "110900.304000", "110900.308000", "110900.311000", "110900.314000", "110900.318000", "110900.321000", "110900.324000", "110900.327000", "110920.265000", "110920.269000", "110920.272000", "110920.275000", "110920.279000", "110920.282000", "110920.285000", "110920.288000", "110920.292000", "110920.295000", "110920.298000", "110920.301000", "110920.305000", "110920.308000", "110920.311000", "110920.314000", "111000.264000", "111000.268000", "111000.271000", "111000.274000", "111000.278000", "111000.281000", "111000.284000", "111000.287000", "111000.291000", "111000.294000", "111000.297000", "111000.300000", "111000.304000", "111000.307000", "111000.310000", "111000.313000", "111000.317000", "111000.320000", "111000.323000", "111000.326000", "111000.329000", "111000.333000", "111000.336000", "111000.339000", "111000.342000", "111000.345000", "111000.349000", "111040.264000", "111040.268000", "111040.271000", "111040.287000", "111040.291000", "111040.294000", "111040.297000", "111040.300000", "111040.304000", "111040.307000", "111040.310000", "111040.314000", "111040.317000", "111040.321000", "111040.324000", "111040.327000", "111040.330000", "111040.334000", "111040.337000", "111040.340000", "111040.343000", "111040.346000", "111040.350000", "111040.353000", "111040.356000", "111040.360000", "111116.284000", "111116.287000", "111116.291000", "111116.294000", "111116.298000", "111116.302000", "111116.305000", "111116.309000", "111116.312000", "111116.315000", "111116.318000", "111116.322000", "111116.325000", "111116.329000", "111116.332000", "111116.335000", "111116.339000", "111116.342000", "111116.345000", "111116.349000", "111116.352000", "111116.355000", "111116.358000", "111116.362000", "111116.365000"],
      "InstanceNumber": [1, 2, 3, 4, 5, 6, 7, 8, 9, 10, 11, 12, 13, 14, 15, 16, 17, 18, 19, 20, 21, 22, 23, 24, 25, 26, 27, 28, 29, 30, 31, 32, 33, 34, 35, 36, 37, 38, 39, 40, 41, 42, 43, 44, 45, 46, 47, 48, 49, 50, 51, 52, 53, 54, 55, 56, 57, 58, 59, 60, 61, 62, 63, 64, 65, 66, 67, 68, 69, 70, 71, 72, 73, 74, 75, 76, 77, 78, 79, 80, 81, 82, 83, 84, 85, 86, 87, 88, 89, 90, 91, 92, 93, 94, 95, 96, 97, 98, 99, 100, 101, 102, 103, 104, 105, 106, 107, 108, 109, 110, 111, 112, 113, 114, 115, 116, 117, 118, 119, 120, 121, 122, 123, 124, 125, 126, 127, 128, 129, 130, 131, 132, 133, 134, 135, 136, 137, 138, 139, 140, 141, 142, 143, 144, 145, 146, 147, 148, 149, 150, 151, 152, 153, 154, 155, 156, 157, 158, 159, 160, 161, 162, 163, 164, 165, 166, 167, 168, 169, 170, 171, 172, 173, 174, 175, 176, 177, 178, 179, 180, 181, 182, 183, 184, 185, 186, 187, 188, 189, 190],
      "LargestImagePixelValue": [50943, 50053, 48562, 49398, 48438, 48891, 49012, 48262, 48618, 48395, 48679, 48585, 48136, 48449, 48180, 48017, 48514, 48489, 48399, 47566, 48707, 47859, 47391, 48324, 47762, 47768, 47636, 47588, 47620, 47235, 47691, 47442, 47972, 47192, 47474, 47723, 47660, 47611, 47139, 47572, 47512, 47842, 47762, 48004, 47962, 47418, 47787, 47447, 48437, 48084, 48025, 47534, 48476, 48438, 48306, 47261, 47548, 47913, 48364, 47997, 47739, 47567, 47925, 47614, 47243, 46984, 48067, 48816, 46677, 47768, 48381, 47841, 48684, 48077, 48839, 48049, 48162, 47965, 47809, 47774, 47183, 48479, 48356, 47943, 46359, 48058, 48296, 47337, 48449, 47310, 47718, 48347, 47874, 48128, 48039, 47420, 48982, 47638, 47655, 47847, 49066, 48701, 48036, 47524, 47025, 46694, 47475, 47198, 46571, 47141, 46862, 47146, 47448, 47631, 47666, 47519, 47422, 47366, 48121, 47365, 48075, 48185, 47961, 48397, 47207, 47160, 48456, 48181, 48196, 48151, 47013, 48281, 47830, 46903, 47693, 47876, 47489, 47018, 46634, 47371, 47495, 47768, 47924, 48364, 47803, 48003, 48067, 47582, 47817, 47986, 48331, 48075, 47944, 48417, 47523, 48518, 46718, 47653, 47872, 47199, 48008, 47862, 47934, 47761, 47854, 47323, 48039, 48102, 47901, 48483, 48028, 48223, 48343, 48067, 48337, 48177, 48042, 47726, 47350, 47629, 47317, 47728, 47195, 45144, 48236, 47207, 47156, 48137, 47534, 48906],
      "WindowCenter": [11117.0, 11066.0, 11035.0, 11031.0, 11010.0, 11019.0, 11021.0, 11023.0, 11046.0, 11052.0, 11065.0, 11051.0, 11046.0, 11043.0, 11043.0, 11037.0, 11033.0, 11033.0, 11036.0, 11036.0, 11048.0, 11037.0, 11031.0, 11044.0, 11032.0, 11028.0, 11030.0, 11049.0, 11043.0, 11020.0, 11009.0, 11039.0, 11074.0, 11067.0, 11055.0, 11043.0, 11020.0, 10997.0, 10987.0, 11035.0, 11046.0, 11031.0, 11023.0, 11017.0, 11046.0, 11043.0, 11040.0, 11015.0, 11025.0, 11051.0, 11063.0, 11050.0, 11042.0, 11033.0, 11032.0, 11015.0, 11023.0, 11018.0, 11040.0, 11047.0, 11042.0, 11033.0, 11043.0, 11048.0, 11051.0, 11057.0, 11049.0, 11037.0, 11019.0, 11028.0, 11041.0, 11054.0, 11068.0, 11056.0, 11052.0, 11031.0, 11026.0, 11022.0, 11021.0, 11013.0, 11008.0, 11026.0, 11032.0, 11045.0, 11018.0, 11020.0, 11052.0, 11094.0, 11102.0, 11077.0, 11050.0, 11046.0, 11032.0, 11024.0, 11028.0, 10991.0, 11013.0, 11032.0, 11053.0, 11054.0, 11055.0, 11055.0, 11051.0, 11047.0, 11043.0, 11052.0, 11071.0, 11078.0, 11073.0, 11052.0, 11029.0, 11028.0, 11042.0, 11061.0, 11069.0, 11057.0, 11051.0, 11047.0, 11043.0, 11029.0, 11024.0, 11029.0, 11013.0, 11028.0, 11043.0, 11044.0, 11033.0, 11047.0, 11062.0, 11054.0, 11034.0, 11030.0, 11027.0, 11017.0, 11029.0, 11019.0, 11010.0, 11022.0, 11000.0, 11022.0, 11059.0, 11088.0, 11089.0, 11052.0, 11020.0, 11025.0, 11039.0, 11035.0, 11025.0, 11006.0, 11004.0, 11007.0, 11031.0, 11034.0, 11034.0, 11048.0, 11021.0, 11028.0, 11036.0, 11053.0, 11061.0, 11054.0, 11059.0, 11048.0, 11053.0, 11051.0, 11037.0, 11027.0, 11025.0, 11033.0, 11036.0, 11040.0, 11033.0, 11034.0, 11041.0, 11043.0, 11043.0, 11039.0, 11033.0, 11038.0, 11040.0, 11052.0, 11066.0, 11043.0, 11024.0, 11003.0, 11029.0, 11060.0, 11058.0, 11053.0],
      "WindowWidth": [23978.0, 23826.0, 23740.0, 23716.0, 23664.0, 23677.0, 23681.0, 23686.0, 23737.0, 23755.0, 23782.0, 23749.0, 23740.0, 23733.0, 23731.0, 23719.0, 23707.0, 23707.0, 23716.0, 23716.0, 23740.0, 23719.0, 23705.0, 23732.0, 23710.0, 23698.0, 23702.0, 23746.0, 23734.0, 23681.0, 23651.0, 23722.0, 23805.0, 23794.0, 23761.0, 23728.0, 23676.0, 23623.0, 23600.0, 23708.0, 23737.0, 23699.0, 23685.0, 23667.0, 23736.0, 23732.0, 23722.0, 23664.0, 23683.0, 23743.0, 23772.0, 23744.0, 23723.0, 23700.0, 23699.0, 23665.0, 23683.0, 23671.0, 23719.0, 23738.0, 23729.0, 23711.0, 23730.0, 23739.0, 23747.0, 23763.0, 23743.0, 23710.0, 23679.0, 23698.0, 23726.0, 23758.0, 23787.0, 23759.0, 23746.0, 23699.0, 23685.0, 23678.0, 23675.0, 23660.0, 23651.0, 23688.0, 23702.0, 23733.0, 23682.0, 23677.0, 23750.0, 23851.0, 23864.0, 23811.0, 23747.0, 23730.0, 23700.0, 23681.0, 23692.0, 23613.0, 23656.0, 23705.0, 23754.0, 23758.0, 23756.0, 23753.0, 23747.0, 23741.0, 23736.0, 23756.0, 23797.0, 23815.0, 23809.0, 23758.0, 23707.0, 23700.0, 23729.0, 23771.0, 23789.0, 23764.0, 23748.0, 23739.0, 23724.0, 23697.0, 23683.0, 23692.0, 23658.0, 23692.0, 23731.0, 23740.0, 23705.0, 23734.0, 23768.0, 23752.0, 23710.0, 23693.0, 23689.0, 23667.0, 23692.0, 23668.0, 23651.0, 23681.0, 23637.0, 23677.0, 23764.0, 23832.0, 23831.0, 23746.0, 23670.0, 23679.0, 23710.0, 23703.0, 23681.0, 23635.0, 23631.0, 23637.0, 23692.0, 23700.0, 23703.0, 23732.0, 23680.0, 23692.0, 23712.0, 23757.0, 23770.0, 23752.0, 23761.0, 23736.0, 23747.0, 23747.0, 23708.0, 23687.0, 23682.0, 23699.0, 23708.0, 23715.0, 23701.0, 23705.0, 23719.0, 23721.0, 23721.0, 23715.0, 23705.0, 23713.0, 23720.0, 23745.0, 23786.0, 23745.0, 23687.0, 23639.0, 23697.0, 23765.0, 23765.0, 23746.0]
    },
    "slices": {}
  }
}