{
  "AcquisitionMatrixPE": 104,
  "AcquisitionNumber": 1,
  "AcquisitionTime": "11:26:45.710000",
  "BandwidthPerPixelPhaseEncode": 17.17,
  "BaseResolution": 104,
  "BodyPartExamined": "BRAIN",
  "CoilString": "HC1-7;NC1_2",
  "ConsistencyInfo": "N4_VE11C_LATEST_20160120",
  "ConversionSoftware": "dcm2niix",
  "ConversionSoftwareVersion": "v1.0.20190902",
  "DerivedVendorReportedEchoSpacing": 0.000560011,
  "DeviceSerialNumber": "167006",
  "DwellTime": 2.1e-06,
  "EchoTime": 0.037,
  "EchoTrainLength": 104,
  "EffectiveEchoSpacing": 0.000560011,
  "FlipAngle": 52,
  "ImageComments": "Unaliased_MB4_PE3_LB",
  "ImageOrientationPatientDICOM": [0.999792, 0.00685731, 0.0192162, 0.00331544, 0.874708, -0.484639],
  "ImageType": [
    "ORIGINAL",
    "PRIMARY",
    "M",
    "MB",
    "ND",
    "MOSAIC"
],
  "ImagingFrequency": 123.259,
  "InPlanePhaseEncodingDirectionDICOM": "COL",
  "InstitutionAddress": "Chemin_Queen-Mary_4565_Montreal_District_CA_H3W_1W5",
  "InstitutionName": "IUGM",
  "InstitutionalDepartmentName": "Department",
  "MRAcquisitionType": "2D",
  "MagneticFieldStrength": 3,
  "Manufacturer": "Siemens",
  "ManufacturersModelName": "Prisma_fit",
  "Modality": "MR",
  "MultibandAccelerationFactor": 4,
  "PartialFourier": 1,
  "PatientPosition": "HFS",
  "PercentPhaseFOV": 100,
  "PhaseEncodingDirection": "j",
  "PhaseEncodingSteps": 104,
  "PhaseResolution": 1,
  "PixelBandwidth": 2290,
  "ProcedureStepDescription": "memory_things",
  "ProtocolName": "func_task-things_run-6",
  "PulseSequenceDetails": "%CustomerSeq%_cmrr_mbep2d_bold",
  "ReceiveCoilActiveElements": "HC1-7;NC1,2",
  "ReceiveCoilName": "HeadNeck_64",
  "ReconMatrixPE": 104,
  "RepetitionTime": 1.49,
  "SAR": 0.0440123,
  "ScanOptions": "FS",
  "ScanningSequence": "EP",
  "SequenceName": "epfid2d1_104",
  "SequenceVariant": "SK_SS",
  "SeriesDescription": "func_task-things_run-6",
  "SeriesNumber": 25,
  "ShimSetting": [617, -7184, -8859, 334, -3, -112, -15, -22],
  "SliceThickness": 2,
  "SliceTiming": [0, 0.7825, 0.0975, 0.88, 0.195, 0.98, 0.2925, 1.0775, 0.3925, 1.175, 0.49, 1.2725, 0.5875, 1.37, 0.685, 0, 0.7825, 0.0975, 0.88, 0.195, 0.98, 0.2925, 1.0775, 0.3925, 1.175, 0.49, 1.2725, 0.5875, 1.37, 0.685, 0, 0.7825, 0.0975, 0.88, 0.195, 0.98, 0.2925, 1.0775, 0.3925, 1.175, 0.49, 1.2725, 0.5875, 1.37, 0.685, 0, 0.7825, 0.0975, 0.88, 0.195, 0.98, 0.2925, 1.0775, 0.3925, 1.175, 0.49, 1.2725, 0.5875, 1.37, 0.685],
  "SoftwareVersions": "syngo_MR_E11",
  "SpacingBetweenSlices": 2,
  "StationName": "MRC35049",
  "TaskName": "things",
  "TotalReadoutTime": 0.0576811,
  "TxRefAmp": 256.794,
  "WipMemBlock": "ea8c01b9-9d20-40a5-9b40-e2ffe922bcc0||Sequence: R016 ve11c/master r/e634e98; Dec 19 2017 11:00:25 by eja",
  "dcmmeta_affine": [
    [-1.9995837211608887, 0.006630881689488888, 0.04026370123028755, 105.45635223388672],
    [-0.01371462456882, 1.7494161128997803, -0.9692033529281616, -53.3414421081543],
    [0.03843231871724129, 0.9692776799201965, 1.7490065097808838, -92.03112030029297],
    [0.0, 0.0, 0.0, 1.0]
],
  "dcmmeta_reorient_transform": [
    [0.0, -1.0, 0.0, 103.0],
    [1.0, 0.0, 0.0, 0.0],
    [0.0, 0.0, 1.0, 0.0],
    [0.0, 0.0, 0.0, 1.0]
],
  "dcmmeta_shape": [104, 104, 60, 190],
  "dcmmeta_slice_dim": 2,
  "dcmmeta_version": 0.6,
  "global": {
    "const": {
      "AcquisitionMatrix": [104, 0, 0, 104],
      "AngioFlag": "N",
      "BitsAllocated": 16,
      "BitsStored": 16,
      "BodyPartExamined": "BRAIN",
      "Columns": 832,
      "EchoNumbers": 1,
      "EchoTime": 37.0,
      "EchoTrainLength": 104,
      "FlipAngle": 52.0,
      "HighBit": 15,
      "ImageOrientationPatient": [0.99979183658356, 0.00685731206967, 0.01921615913906, 0.00331544088459, 0.87470807087163, -0.484638833157],
      "ImagePositionPatient": [-836.40143257929, -768.62801750364, 346.63218510763],
      "ImageType": [
        "ORIGINAL",
        "PRIMARY",
        "M",
        "MB",
        "ND",
        "MOSAIC"
],
      "ImagedNucleus": "1H",
      "ImagingFrequency": 123.25915,
      "InPlanePhaseEncodingDirection": "COL",
      "MRAcquisitionType": "2D",
      "MagneticFieldStrength": 3.0,
      "Manufacturer": "SIEMENS",
      "ManufacturerModelName": "Prisma_fit",
      "Modality": "MR",
      "NumberOfAverages": 1.0,
      "NumberOfPhaseEncodingSteps": 104,
      "PercentPhaseFieldOfView": 100.0,
      "PercentSampling": 100.0,
      "PerformedProcedureStepStartTime": "104105.539000",
      "PhotometricInterpretation": "MONOCHROME2",
      "PixelBandwidth": 2290.0,
      "PixelRepresentation": 0,
      "PixelSpacing": [2.0, 2.0],
      "ProtocolName": "func_task-things_run-6",
      "RepetitionTime": 1490.0,
      "Rows": 832,
      "SAR": 0.04401232856615,
      "SamplesPerPixel": 1,
      "ScanOptions": "FS",
      "ScanningSequence": "EP",
      "SequenceName": "epfid2d1_104",
      "SequenceVariant": [
        "SK",
        "SS"
],
      "SeriesDescription": "func_task-things_run-6",
      "SeriesNumber": 25,
      "SeriesTime": "112800.323000",
      "SliceLocation": -52.509131317223,
      "SliceThickness": 2.0,
      "SmallestImagePixelValue": 0,
      "SoftwareVersions": "syngo MR E11",
      "SpacingBetweenSlices": 2.0000000558995,
      "SpecificCharacterSet": "ISO_IR 100",
      "StudyID": "1",
      "StudyTime": "104105.361000",
      "TransmitCoilName": "Body",
      "VariableFlipAngleFlag": "N",
      "WindowCenterWidthExplanation": "Algo1",
      "dBdt": 0.0},
    "slices": {}
  },
  "time": {
    "samples": {
      "AcquisitionNumber": [1, 2, 3, 4, 5, 6, 7, 8, 9, 10, 11, 12, 13, 14, 15, 16, 17, 18, 19, 20, 21, 22, 23, 24, 25, 26, 27, 28, 29, 30, 31, 32, 33, 34, 35, 36, 37, 38, 39, 40, 41, 42, 43, 44, 45, 46, 47, 48, 49, 50, 51, 52, 53, 54, 55, 56, 57, 58, 59, 60, 61, 62, 63, 64, 65, 66, 67, 68, 69, 70, 71, 72, 73, 74, 75, 76, 77, 78, 79, 80, 81, 82, 83, 84, 85, 86, 87, 88, 89, 90, 91, 92, 93, 94, 95, 96, 97, 98, 99, 100, 101, 102, 103, 104, 105, 106, 107, 108, 109, 110, 111, 112, 113, 114, 115, 116, 117, 118, 119, 120, 121, 122, 123, 124, 125, 126, 127, 128, 129, 130, 131, 132, 133, 134, 135, 136, 137, 138, 139, 140, 141, 142, 143, 144, 145, 146, 147, 148, 149, 150, 151, 152, 153, 154, 155, 156, 157, 158, 159, 160, 161, 162, 163, 164, 165, 166, 167, 168, 169, 170, 171, 172, 173, 174, 175, 176, 177, 178, 179, 180, 181, 182, 183, 184, 185, 186, 187, 188, 189, 190],
      "AcquisitionTime": ["112645.710000", "112647.200000", "112648.690000", "112650.180000", "112651.670000", "112653.160000", "112654.650000", "112656.140000", "112657.630000", "112659.120000", "112700.610000", "112702.100000", "112703.590000", "112705.080000", "112706.570000", "112708.060000", "112709.550000", "112711.040000", "112712.530000", "112714.020000", "112715.510000", "112717.000000", "112718.490000", "112719.980000", "112721.470000", "112722.960000", "112724.450000", "112725.940000", "112727.430000", "112728.920000", "112730.410000", "112731.900000", "112733.390000", "112734.880000", "112736.370000", "112737.860000", "112739.350000", "112740.840000", "112742.330000", "112743.820000", "112745.310000", "112746.800000", "112748.290000", "112749.780000", "112751.270000", "112752.760000", "112754.250000", "112755.740000", "112757.230000", "112758.720000", "112800.210000", "112801.700000", "112803.190000", "112804.680000", "112806.170000", "112807.660000", "112809.150000", "112810.640000", "112812.130000", "112813.620000", "112815.110000", "112816.600000", "112818.090000", "112819.580000", "112821.070000", "112822.560000", "112824.050000", "112825.540000", "112827.030000", "112828.520000", "112830.010000", "112831.500000", "112832.990000", "112834.480000", "112835.970000", "112837.460000", "112838.950000", "112840.440000", "112841.930000", "112843.420000", "112844.910000", "112846.400000", "112847.890000", "112849.380000", "112850.870000", "112852.360000", "112853.850000", "112855.340000", "112856.830000", "112858.320000", "112859.810000", "112901.300000", "112902.790000", "112904.280000", "112905.770000", "112907.260000", "112908.750000", "112910.240000", "112911.730000", "112913.220000", "112914.710000", "112916.200000", "112917.690000", "112919.180000", "112920.670000", "112922.160000", "112923.650000", "112925.140000", "112926.630000", "112928.120000", "112929.610000", "112931.100000", "112932.590000", "112934.080000", "112935.570000", "112937.060000", "112938.550000", "112940.040000", "112941.530000", "112943.020000", "112944.510000", "112946.000000", "112947.490000", "112948.980000", "112950.470000", "112951.960000", "112953.450000", "112954.940000", "112956.430000", "112957.920000", "112959.410000", "113000.900000", "113002.390000", "113003.880000", "113005.370000", "113006.860000", "113008.350000", "113009.840000", "113011.330000", "113012.820000", "113014.310000", "113015.800000", "113017.290000", "113018.780000", "113020.270000", "113021.760000", "113023.250000", "113024.740000", "113026.230000", "113027.720000", "113029.210000", "113030.700000", "113032.190000", "113033.680000", "113035.170000", "113036.660000", "113038.150000", "113039.640000", "113041.130000", "113042.620000", "113044.110000", "113045.600000", "113047.090000", "113048.580000", "113050.070000", "113051.560000", "113053.050000", "113054.540000", "113056.030000", "113057.520000", "113059.010000", "113100.500000", "113101.990000", "113103.480000", "113104.970000", "113106.460000", "113107.950000", "113109.440000", "113110.930000", "113112.420000", "113113.910000", "113115.400000", "113116.890000", "113118.380000", "113119.870000", "113121.360000", "113122.850000", "113124.340000", "113125.830000", "113127.320000"],
      "ContentTime": ["112800.326000", "112800.331000", "112800.334000", "112800.337000", "112800.340000", "112800.344000", "112800.347000", "112800.351000", "112800.354000", "112800.357000", "112800.360000", "112800.363000", "112800.367000", "112800.370000", "112800.378000", "112800.381000", "112800.385000", "112800.388000", "112800.391000", "112800.394000", "112820.264000", "112820.268000", "112820.271000", "112820.274000", "112820.278000", "112820.281000", "112820.284000", "112820.287000", "112820.290000", "112820.294000", "112820.297000", "112820.300000", "112820.303000", "112820.306000", "112820.310000", "112820.313000", "112820.316000", "112820.319000", "112820.322000", "112820.326000", "112840.264000", "112840.268000", "112840.271000", "112840.274000", "112840.277000", "112840.281000", "112840.284000", "112840.287000", "112840.290000", "112840.293000", "112840.297000", "112840.300000", "112840.303000", "112840.306000", "112840.310000", "112840.313000", "112840.316000", "112840.328000", "112840.331000", "112840.334000", "112900.264000", "112900.268000", "112900.271000", "112900.274000", "112900.277000", "112900.281000", "112900.284000", "112900.287000", "112900.291000", "112900.294000", "112900.297000", "112900.301000", "112900.304000", "112900.307000", "112900.311000", "112900.314000", "112900.317000", "112900.321000", "112900.324000", "112900.327000", "112920.264000", "112920.268000", "112920.271000", "112920.274000", "112920.278000", "112920.281000", "112920.284000", "112920.287000", "112920.290000", "112920.294000", "112920.303000", "112920.307000", "112920.310000", "112920.313000", "112920.317000", "112920.320000", "112920.324000", "112920.327000", "112920.338000", "112920.342000", "112920.345000", "113000.265000", "113000.269000", "113000.272000", "113000.275000", "113000.279000", "113000.282000", "113000.285000", "113000.288000", "113000.291000", "113000.295000", "113000.298000", "113000.301000", "113000.304000", "113000.308000", "113000.311000", "113000.314000", "113000.318000", "113000.321000", "113000.324000", "113000.327000", "113000.331000", "113000.334000", "113000.337000", "113000.340000", "113000.344000", "113000.347000", "113000.350000", "113000.353000", "113000.357000", "113040.264000", "113040.268000", "113040.271000", "113040.275000", "113040.278000", "113040.281000", "113040.284000", "113040.288000", "113040.291000", "113040.294000", "113040.298000", "113040.301000", "113040.304000", "113040.307000", "113040.310000", "113040.314000", "113040.317000", "113040.320000", "113040.324000", "113040.327000", "113040.330000", "113040.333000", "113040.336000", "113040.340000", "113040.343000", "113040.346000", "113040.349000", "113120.264000", "113120.268000", "113120.271000", "113120.274000", "113120.278000", "113120.281000", "113120.284000", "113120.287000", "113120.290000", "113120.294000", "113120.297000", "113120.300000", "113120.303000", "113120.307000", "113120.310000", "113120.313000", "113120.316000", "113120.320000", "113120.323000", "113120.326000", "113120.329000", "113120.333000", "113120.336000", "113120.339000", "113120.342000", "113120.345000", "113120.349000", "113129.084000", "113129.087000", "113129.090000", "113129.094000", "113129.097000", "113129.100000"],
      "InstanceCreationTime": ["112800.326000", "112800.331000", "112800.334000", "112800.337000", "112800.340000", "112800.344000", "112800.347000", "112800.351000", "112800.354000", "112800.357000", "112800.360000", "112800.363000", "112800.367000", "112800.370000", "112800.378000", "112800.381000", "112800.385000", "112800.388000", "112800.391000", "112800.394000", "112820.264000", "112820.268000", "112820.271000", "112820.274000", "112820.278000", "112820.281000", "112820.284000", "112820.287000", "112820.290000", "112820.294000", "112820.297000", "112820.300000", "112820.303000", "112820.306000", "112820.310000", "112820.313000", "112820.316000", "112820.319000", "112820.322000", "112820.326000", "112840.264000", "112840.268000", "112840.271000", "112840.274000", "112840.277000", "112840.281000", "112840.284000", "112840.287000", "112840.290000", "112840.293000", "112840.297000", "112840.300000", "112840.303000", "112840.306000", "112840.310000", "112840.313000", "112840.316000", "112840.328000", "112840.331000", "112840.334000", "112900.264000", "112900.268000", "112900.271000", "112900.274000", "112900.277000", "112900.281000", "112900.284000", "112900.287000", "112900.291000", "112900.294000", "112900.297000", "112900.301000", "112900.304000", "112900.307000", "112900.311000", "112900.314000", "112900.317000", "112900.321000", "112900.324000", "112900.327000", "112920.264000", "112920.268000", "112920.271000", "112920.274000", "112920.278000", "112920.281000", "112920.284000", "112920.287000", "112920.290000", "112920.294000", "112920.303000", "112920.307000", "112920.310000", "112920.313000", "112920.317000", "112920.320000", "112920.324000", "112920.327000", "112920.338000", "112920.342000", "112920.345000", "113000.265000", "113000.269000", "113000.272000", "113000.275000", "113000.279000", "113000.282000", "113000.285000", "113000.288000", "113000.291000", "113000.295000", "113000.298000", "113000.301000", "113000.304000", "113000.308000", "113000.311000", "113000.314000", "113000.318000", "113000.321000", "113000.324000", "113000.327000", "113000.331000", "113000.334000", "113000.337000", "113000.340000", "113000.344000", "113000.347000", "113000.350000", "113000.353000", "113000.357000", "113040.264000", "113040.268000", "113040.271000", "113040.275000", "113040.278000", "113040.281000", "113040.284000", "113040.288000", "113040.291000", "113040.294000", "113040.298000", "113040.301000", "113040.304000", "113040.307000", "113040.310000", "113040.314000", "113040.317000", "113040.320000", "113040.324000", "113040.327000", "113040.330000", "113040.333000", "113040.336000", "113040.340000", "113040.343000", "113040.346000", "113040.349000", "113120.264000", "113120.268000", "113120.271000", "113120.274000", "113120.278000", "113120.281000", "113120.284000", "113120.287000", "113120.290000", "113120.294000", "113120.297000", "113120.300000", "113120.303000", "113120.307000", "113120.310000", "113120.313000", "113120.316000", "113120.320000", "113120.323000", "113120.326000", "113120.329000", "113120.333000", "113120.336000", "113120.339000", "113120.342000", "113120.345000", "113120.349000", "113129.084000", "113129.087000", "113129.090000", "113129.094000", "113129.097000", "113129.100000"],
      "InstanceNumber": [1, 2, 3, 4, 5, 6, 7, 8, 9, 10, 11, 12, 13, 14, 15, 16, 17, 18, 19, 20, 21, 22, 23, 24, 25, 26, 27, 28, 29, 30, 31, 32, 33, 34, 35, 36, 37, 38, 39, 40, 41, 42, 43, 44, 45, 46, 47, 48, 49, 50, 51, 52, 53, 54, 55, 56, 57, 58, 59, 60, 61, 62, 63, 64, 65, 66, 67, 68, 69, 70, 71, 72, 73, 74, 75, 76, 77, 78, 79, 80, 81, 82, 83, 84, 85, 86, 87, 88, 89, 90, 91, 92, 93, 94, 95, 96, 97, 98, 99, 100, 101, 102, 103, 104, 105, 106, 107, 108, 109, 110, 111, 112, 113, 114, 115, 116, 117, 118, 119, 120, 121, 122, 123, 124, 125, 126, 127, 128, 129, 130, 131, 132, 133, 134, 135, 136, 137, 138, 139, 140, 141, 142, 143, 144, 145, 146, 147, 148, 149, 150, 151, 152, 153, 154, 155, 156, 157, 158, 159, 160, 161, 162, 163, 164, 165, 166, 167, 168, 169, 170, 171, 172, 173, 174, 175, 176, 177, 178, 179, 180, 181, 182, 183, 184, 185, 186, 187, 188, 189, 190],
      "LargestImagePixelValue": [46318, 43840, 43013, 43400, 43410, 44525, 43304, 43265, 43395, 43179, 44062, 43536, 43144, 44176, 44161, 43271, 43875, 43297, 43448, 44021, 43062, 43097, 42770, 43186, 43640, 43900, 44248, 43933, 44213, 44154, 43785, 43601, 43150, 43147, 43198, 43188, 43613, 43931, 43343, 43421, 43872, 42791, 43652, 43638, 43520, 43271, 43006, 43762, 43661, 43942, 43486, 43254, 44382, 43449, 44029, 43232, 43763, 43549, 43374, 43600, 42921, 43045, 43399, 43942, 42988, 42765, 43255, 43627, 43819, 42942, 43612, 43280, 43079, 43736, 43612, 43598, 43631, 43531, 43477, 43960, 44048, 43649, 43766, 43435, 43672, 44060, 43672, 43353, 43980, 43800, 43920, 43938, 43323, 43931, 43254, 43528, 43556, 43614, 43310, 43590, 44845, 44083, 44143, 43658, 43280, 43244, 43735, 43933, 43775, 44179, 44589, 43625, 42977, 43026, 43566, 43497, 43377, 43644, 43355, 43663, 43725, 43526, 43342, 43644, 43931, 43336, 43158, 43368, 43635, 43679, 43005, 43164, 43422, 43578, 43772, 43794, 43826, 44148, 43852, 43907, 43148, 42799, 43015, 42880, 43172, 43760, 43562, 43488, 43461, 43256, 43660, 43551, 43590, 43507, 43442, 43256, 43030, 43327, 44045, 43406, 43779, 44045, 43121, 43537, 43467, 43340, 43576, 43907, 43520, 44484, 43092, 42789, 43501, 43494, 43182, 43663, 43535, 43555, 43558, 43070, 43567, 44048, 43412, 42894, 43403, 42704, 44148, 44277, 43980, 44568],
      "WindowCenter": [11032.0, 11004.0, 10992.0, 10993.0, 10963.0, 10954.0, 10958.0, 10961.0, 10979.0, 10981.0, 10973.0, 10952.0, 10892.0, 10878.0, 10888.0, 10902.0, 10950.0, 10945.0, 10923.0, 10913.0, 10919.0, 10951.0, 10955.0, 10944.0, 10930.0, 10916.0, 10906.0, 10899.0, 10908.0, 10895.0, 10884.0, 10907.0, 10917.0, 10930.0, 10937.0, 10925.0, 10926.0, 10912.0, 10884.0, 10869.0, 10901.0, 10922.0, 10907.0, 10884.0, 10906.0, 10931.0, 10922.0, 10927.0, 10920.0, 10913.0, 10893.0, 10871.0, 10890.0, 10888.0, 10916.0, 10916.0, 10931.0, 10930.0, 10916.0, 10908.0, 10894.0, 10891.0, 10915.0, 10933.0, 10940.0, 10932.0, 10912.0, 10877.0, 10886.0, 10925.0, 10962.0, 10960.0, 10919.0, 10896.0, 10888.0, 10904.0, 10923.0, 10927.0, 10916.0, 10897.0, 10892.0, 10887.0, 10883.0, 10864.0, 10876.0, 10908.0, 10916.0, 10920.0, 10922.0, 10911.0, 10875.0, 10889.0, 10892.0, 10919.0, 10922.0, 10921.0, 10914.0, 10906.0, 10892.0, 10868.0, 10880.0, 10907.0, 10958.0, 10924.0, 10887.0, 10875.0, 10883.0, 10892.0, 10880.0, 10873.0, 10872.0, 10880.0, 10848.0, 10863.0, 10904.0, 10929.0, 10934.0, 10918.0, 10904.0, 10910.0, 10906.0, 10916.0, 10918.0, 10924.0, 10935.0, 10943.0, 10949.0, 10937.0, 10908.0, 10888.0, 10906.0, 10918.0, 10912.0, 10903.0, 10919.0, 10926.0, 10909.0, 10906.0, 10898.0, 10892.0, 10893.0, 10905.0, 10888.0, 10872.0, 10877.0, 10918.0, 10945.0, 10952.0, 10941.0, 10905.0, 10875.0, 10864.0, 10915.0, 10958.0, 10958.0, 10926.0, 10896.0, 10901.0, 10920.0, 10902.0, 10901.0, 10924.0, 10959.0, 10970.0, 10951.0, 10926.0, 10899.0, 10866.0, 10859.0, 10913.0, 10937.0, 10917.0, 10925.0, 10920.0, 10902.0, 10877.0, 10912.0, 10960.0, 10977.0, 10953.0, 10921.0, 10901.0, 10930.0, 10952.0, 10951.0, 10898.0, 10960.0, 10941.0, 10933.0, 10947.0],
      "WindowWidth": [23776.0, 23687.0, 23644.0, 23631.0, 23558.0, 23529.0, 23542.0, 23546.0, 23585.0, 23588.0, 23561.0, 23519.0, 23385.0, 23346.0, 23371.0, 23409.0, 23511.0, 23508.0, 23459.0, 23426.0, 23445.0, 23522.0, 23530.0, 23503.0, 23464.0, 23429.0, 23407.0, 23394.0, 23410.0, 23385.0, 23361.0, 23416.0, 23441.0, 23470.0, 23487.0, 23460.0, 23457.0, 23421.0, 23364.0, 23329.0, 23398.0, 23453.0, 23418.0, 23362.0, 23415.0, 23472.0, 23452.0, 23458.0, 23440.0, 23420.0, 23377.0, 23327.0, 23369.0, 23371.0, 23430.0, 23434.0, 23466.0, 23462.0, 23431.0, 23413.0, 23385.0, 23378.0, 23429.0, 23471.0, 23492.0, 23474.0, 23430.0, 23351.0, 23361.0, 23457.0, 23542.0, 23535.0, 23440.0, 23382.0, 23365.0, 23402.0, 23445.0, 23455.0, 23431.0, 23386.0, 23370.0, 23368.0, 23350.0, 23310.0, 23336.0, 23407.0, 23427.0, 23439.0, 23441.0, 23416.0, 23333.0, 23367.0, 23374.0, 23435.0, 23444.0, 23440.0, 23426.0, 23407.0, 23378.0, 23318.0, 23341.0, 23405.0, 23525.0, 23455.0, 23367.0, 23338.0, 23351.0, 23370.0, 23344.0, 23320.0, 23318.0, 23345.0, 23278.0, 23310.0, 23403.0, 23456.0, 23471.0, 23432.0, 23403.0, 23412.0, 23402.0, 23429.0, 23435.0, 23447.0, 23468.0, 23491.0, 23509.0, 23480.0, 23410.0, 23365.0, 23409.0, 23437.0, 23422.0, 23399.0, 23432.0, 23452.0, 23408.0, 23395.0, 23383.0, 23370.0, 23375.0, 23409.0, 23372.0, 23334.0, 23341.0, 23432.0, 23496.0, 23514.0, 23490.0, 23404.0, 23337.0, 23309.0, 23428.0, 23533.0, 23523.0, 23452.0, 23385.0, 23398.0, 23432.0, 23400.0, 23392.0, 23439.0, 23529.0, 23554.0, 23509.0, 23453.0, 23389.0, 23310.0, 23299.0, 23417.0, 23482.0, 23440.0, 23454.0, 23443.0, 23408.0, 23344.0, 23420.0, 23531.0, 23570.0, 23518.0, 23444.0, 23391.0, 23459.0, 23514.0, 23509.0, 23394.0, 23532.0, 23487.0, 23465.0, 23499.0]
    },
    "slices": {}
  }
}