{
  "AcquisitionMatrixPE": 104,
  "AcquisitionNumber": 1,
  "AcquisitionTime": "11:20:31.520000",
  "BandwidthPerPixelPhaseEncode": 17.17,
  "BaseResolution": 104,
  "BodyPartExamined": "BRAIN",
  "CoilString": "HC1-7;NC1_2",
  "ConsistencyInfo": "N4_VE11C_LATEST_20160120",
  "ConversionSoftware": "dcm2niix",
  "ConversionSoftwareVersion": "v1.0.20190902",
  "DerivedVendorReportedEchoSpacing": 0.000560011,
  "DeviceSerialNumber": "167006",
  "DwellTime": 2.1e-06,
  "EchoTime": 0.037,
  "EchoTrainLength": 104,
  "EffectiveEchoSpacing": 0.000560011,
  "FlipAngle": 52,
  "ImageComments": "Unaliased_MB4_PE3_LB",
  "ImageOrientationPatientDICOM": [0.999792, 0.00685731, 0.0192162, 0.00331544, 0.874708, -0.484639],
  "ImageType": [
    "ORIGINAL",
    "PRIMARY",
    "P",
    "MB",
    "ND",
    "MOSAIC"
],
  "ImagingFrequency": 123.259,
  "InPlanePhaseEncodingDirectionDICOM": "COL",
  "InstitutionAddress": "Chemin_Queen-Mary_4565_Montreal_District_CA_H3W_1W5",
  "InstitutionName": "IUGM",
  "InstitutionalDepartmentName": "Department",
  "MRAcquisitionType": "2D",
  "MagneticFieldStrength": 3,
  "Manufacturer": "Siemens",
  "ManufacturersModelName": "Prisma_fit",
  "Modality": "MR",
  "MultibandAccelerationFactor": 4,
  "PartialFourier": 1,
  "PatientPosition": "HFS",
  "PercentPhaseFOV": 100,
  "PhaseEncodingDirection": "j",
  "PhaseEncodingSteps": 104,
  "PhaseResolution": 1,
  "PixelBandwidth": 2290,
  "ProcedureStepDescription": "memory_things",
  "ProtocolName": "func_task-things_run-5",
  "PulseSequenceDetails": "%CustomerSeq%_cmrr_mbep2d_bold",
  "ReceiveCoilActiveElements": "HC1-7;NC1,2",
  "ReceiveCoilName": "HeadNeck_64",
  "ReconMatrixPE": 104,
  "RepetitionTime": 1.49,
  "SAR": 0.0440123,
  "ScanOptions": "FS",
  "ScanningSequence": "EP",
  "SequenceName": "epfid2d1_104",
  "SequenceVariant": "SK_SS",
  "SeriesDescription": "func_task-things_run-5",
  "SeriesNumber": 23,
  "ShimSetting": [617, -7184, -8859, 334, -3, -112, -15, -22],
  "SliceThickness": 2,
  "SliceTiming": [0, 0.7825, 0.0975, 0.88, 0.195, 0.98, 0.2925, 1.0775, 0.39, 1.175, 0.49, 1.2725, 0.5875, 1.37, 0.685, 0, 0.7825, 0.0975, 0.88, 0.195, 0.98, 0.2925, 1.0775, 0.39, 1.175, 0.49, 1.2725, 0.5875, 1.37, 0.685, 0, 0.7825, 0.0975, 0.88, 0.195, 0.98, 0.2925, 1.0775, 0.39, 1.175, 0.49, 1.2725, 0.5875, 1.37, 0.685, 0, 0.7825, 0.0975, 0.88, 0.195, 0.98, 0.2925, 1.0775, 0.39, 1.175, 0.49, 1.2725, 0.5875, 1.37, 0.685],
  "SoftwareVersions": "syngo_MR_E11",
  "SpacingBetweenSlices": 2,
  "StationName": "MRC35049",
  "TaskName": "things",
  "TotalReadoutTime": 0.0576811,
  "TxRefAmp": 256.794,
  "WipMemBlock": "f688dbc7-12e9-42ca-8eb8-492c37211122||Sequence: R016 ve11c/master r/e634e98; Dec 19 2017 11:00:25 by eja",
  "dcmmeta_affine": [
    [-1.9995837211608887, 0.006630881689488888, 0.04026370123028755, 105.45635223388672],
    [-0.01371462456882, 1.7494161128997803, -0.9692033529281616, -53.3414421081543],
    [0.03843231871724129, 0.9692776799201965, 1.7490065097808838, -92.03112030029297],
    [0.0, 0.0, 0.0, 1.0]
],
  "dcmmeta_reorient_transform": [
    [0.0, -1.0, 0.0, 103.0],
    [1.0, 0.0, 0.0, 0.0],
    [0.0, 0.0, 1.0, 0.0],
    [0.0, 0.0, 0.0, 1.0]
],
  "dcmmeta_shape": [104, 104, 60, 190],
  "dcmmeta_slice_dim": 2,
  "dcmmeta_version": 0.6,
  "global": {
    "const": {
      "AcquisitionMatrix": [104, 0, 0, 104],
      "AngioFlag": "N",
      "BitsAllocated": 16,
      "BitsStored": 16,
      "BodyPartExamined": "BRAIN",
      "Columns": 832,
      "EchoNumbers": 1,
      "EchoTime": 37.0,
      "EchoTrainLength": 104,
      "FlipAngle": 52.0,
      "HighBit": 15,
      "ImageOrientationPatient": [0.99979183658356, 0.00685731206967, 0.01921615913906, 0.00331544088459, 0.87470807087163, -0.484638833157],
      "ImagePositionPatient": [-836.40143257929, -768.62801750364, 346.63218510763],
      "ImageType": [
        "ORIGINAL",
        "PRIMARY",
        "P",
        "MB",
        "ND",
        "MOSAIC"
],
      "ImagedNucleus": "1H",
      "ImagingFrequency": 123.259145,
      "InPlanePhaseEncodingDirection": "COL",
      "LargestImagePixelValue": 4095,
      "MRAcquisitionType": "2D",
      "MagneticFieldStrength": 3.0,
      "Manufacturer": "SIEMENS",
      "ManufacturerModelName": "Prisma_fit",
      "Modality": "MR",
      "NumberOfAverages": 1.0,
      "NumberOfPhaseEncodingSteps": 104,
      "PercentPhaseFieldOfView": 100.0,
      "PercentSampling": 100.0,
      "PerformedProcedureStepStartTime": "104105.539000",
      "PhotometricInterpretation": "MONOCHROME2",
      "PixelBandwidth": 2290.0,
      "PixelRepresentation": 0,
      "PixelSpacing": [2.0, 2.0],
      "ProtocolName": "func_task-things_run-5",
      "RepetitionTime": 1490.0,
      "RescaleIntercept": -4096.0,
      "RescaleSlope": 2.0,
      "RescaleType": "US",
      "Rows": 832,
      "SAR": 0.04401232856615,
      "SamplesPerPixel": 1,
      "ScanOptions": "FS",
      "ScanningSequence": "EP",
      "SequenceName": "epfid2d1_104",
      "SequenceVariant": [
        "SK",
        "SS"
],
      "SeriesDescription": "func_task-things_run-5",
      "SeriesNumber": 23,
      "SeriesTime": "112140.498000",
      "SliceLocation": -52.509131317223,
      "SliceThickness": 2.0,
      "SmallestImagePixelValue": 0,
      "SoftwareVersions": "syngo MR E11",
      "SpacingBetweenSlices": 2.0000000558995,
      "SpecificCharacterSet": "ISO_IR 100",
      "StudyID": "1",
      "StudyTime": "104105.361000",
      "TransmitCoilName": "Body",
      "VariableFlipAngleFlag": "N",
      "WindowCenterWidthExplanation": "Algo1",
      "dBdt": 0.0},
    "slices": {}
  },
  "time": {
    "samples": {
      "AcquisitionNumber": [1, 2, 3, 4, 5, 6, 7, 8, 9, 10, 11, 12, 13, 14, 15, 16, 17, 18, 19, 20, 21, 22, 23, 24, 25, 26, 27, 28, 29, 30, 31, 32, 33, 34, 35, 36, 37, 38, 39, 40, 41, 42, 43, 44, 45, 46, 47, 48, 49, 50, 51, 52, 53, 54, 55, 56, 57, 58, 59, 60, 61, 62, 63, 64, 65, 66, 67, 68, 69, 70, 71, 72, 73, 74, 75, 76, 77, 78, 79, 80, 81, 82, 83, 84, 85, 86, 87, 88, 89, 90, 91, 92, 93, 94, 95, 96, 97, 98, 99, 100, 101, 102, 103, 104, 105, 106, 107, 108, 109, 110, 111, 112, 113, 114, 115, 116, 117, 118, 119, 120, 121, 122, 123, 124, 125, 126, 127, 128, 129, 130, 131, 132, 133, 134, 135, 136, 137, 138, 139, 140, 141, 142, 143, 144, 145, 146, 147, 148, 149, 150, 151, 152, 153, 154, 155, 156, 157, 158, 159, 160, 161, 162, 163, 164, 165, 166, 167, 168, 169, 170, 171, 172, 173, 174, 175, 176, 177, 178, 179, 180, 181, 182, 183, 184, 185, 186, 187, 188, 189, 190],
      "AcquisitionTime": ["112031.520000", "112033.010000", "112034.500000", "112035.990000", "112037.480000", "112038.970000", "112040.460000", "112041.950000", "112043.440000", "112044.930000", "112046.420000", "112047.910000", "112049.400000", "112050.890000", "112052.380000", "112053.870000", "112055.360000", "112056.850000", "112058.340000", "112059.830000", "112101.320000", "112102.810000", "112104.300000", "112105.790000", "112107.280000", "112108.770000", "112110.260000", "112111.750000", "112113.240000", "112114.730000", "112116.220000", "112117.710000", "112119.200000", "112120.690000", "112122.180000", "112123.670000", "112125.160000", "112126.650000", "112128.140000", "112129.630000", "112131.120000", "112132.610000", "112134.100000", "112135.590000", "112137.080000", "112138.570000", "112140.060000", "112141.550000", "112143.040000", "112144.530000", "112146.020000", "112147.510000", "112149.000000", "112150.490000", "112151.980000", "112153.470000", "112154.960000", "112156.450000", "112157.940000", "112159.430000", "112200.920000", "112202.410000", "112203.900000", "112205.390000", "112206.880000", "112208.370000", "112209.860000", "112211.350000", "112212.840000", "112214.330000", "112215.820000", "112217.310000", "112218.800000", "112220.290000", "112221.780000", "112223.270000", "112224.760000", "112226.250000", "112227.740000", "112229.230000", "112230.720000", "112232.210000", "112233.700000", "112235.190000", "112236.680000", "112238.170000", "112239.660000", "112241.150000", "112242.640000", "112244.130000", "112245.620000", "112247.110000", "112248.600000", "112250.090000", "112251.580000", "112253.070000", "112254.560000", "112256.050000", "112257.540000", "112259.030000", "112300.520000", "112302.010000", "112303.500000", "112304.990000", "112306.480000", "112307.970000", "112309.460000", "112310.950000", "112312.440000", "112313.930000", "112315.420000", "112316.910000", "112318.400000", "112319.890000", "112321.380000", "112322.870000", "112324.360000", "112325.850000", "112327.340000", "112328.830000", "112330.320000", "112331.810000", "112333.300000", "112334.790000", "112336.280000", "112337.770000", "112339.260000", "112340.750000", "112342.240000", "112343.730000", "112345.220000", "112346.710000", "112348.200000", "112349.690000", "112351.180000", "112352.670000", "112354.160000", "112355.650000", "112357.140000", "112358.630000", "112400.120000", "112401.610000", "112403.100000", "112404.590000", "112406.080000", "112407.570000", "112409.060000", "112410.550000", "112412.040000", "112413.530000", "112415.020000", "112416.510000", "112418.000000", "112419.490000", "112420.980000", "112422.470000", "112423.960000", "112425.450000", "112426.940000", "112428.430000", "112429.920000", "112431.410000", "112432.900000", "112434.390000", "112435.880000", "112437.370000", "112438.860000", "112440.350000", "112441.840000", "112443.330000", "112444.820000", "112446.310000", "112447.800000", "112449.290000", "112450.780000", "112452.270000", "112453.760000", "112455.250000", "112456.740000", "112458.230000", "112459.720000", "112501.210000", "112502.700000", "112504.190000", "112505.680000", "112507.170000", "112508.660000", "112510.150000", "112511.640000", "112513.130000"],
      "ContentTime": ["112140.500000", "112140.503000", "112140.505000", "112140.508000", "112140.510000", "112140.513000", "112140.515000", "112140.517000", "112140.520000", "112140.530000", "112140.532000", "112140.535000", "112140.537000", "112140.540000", "112140.543000", "112140.550000", "112200.469000", "112200.471000", "112200.474000", "112200.476000", "112200.479000", "112200.481000", "112200.484000", "112200.486000", "112200.489000", "112200.491000", "112200.494000", "112200.496000", "112200.499000", "112200.501000", "112200.504000", "112200.506000", "112200.509000", "112200.511000", "112200.514000", "112200.516000", "112220.462000", "112220.464000", "112220.467000", "112220.469000", "112220.472000", "112220.474000", "112220.477000", "112220.479000", "112220.482000", "112220.484000", "112220.487000", "112220.489000", "112220.497000", "112220.500000", "112220.502000", "112220.505000", "112220.507000", "112220.510000", "112220.512000", "112220.514000", "112240.468000", "112240.470000", "112240.473000", "112240.475000", "112240.478000", "112240.480000", "112240.482000", "112240.485000", "112240.487000", "112240.490000", "112240.492000", "112240.495000", "112240.497000", "112240.500000", "112240.502000", "112240.505000", "112240.507000", "112240.510000", "112240.512000", "112240.514000", "112300.455000", "112300.458000", "112300.461000", "112300.463000", "112300.465000", "112300.468000", "112300.470000", "112300.473000", "112300.475000", "112300.478000", "112300.480000", "112300.483000", "112300.485000", "112300.488000", "112300.490000", "112300.493000", "112300.495000", "112300.498000", "112300.500000", "112300.503000", "112340.498000", "112340.501000", "112340.512000", "112340.514000", "112340.517000", "112340.519000", "112340.529000", "112340.531000", "112340.534000", "112340.536000", "112340.539000", "112340.541000", "112340.544000", "112340.546000", "112340.549000", "112340.551000", "112340.554000", "112340.556000", "112340.559000", "112340.561000", "112340.564000", "112340.566000", "112340.569000", "112340.571000", "112340.574000", "112340.576000", "112340.579000", "112340.581000", "112340.584000", "112340.586000", "112420.471000", "112420.474000", "112420.476000", "112420.479000", "112420.481000", "112420.483000", "112420.486000", "112420.488000", "112420.491000", "112420.493000", "112420.496000", "112420.498000", "112420.501000", "112420.503000", "112420.506000", "112420.508000", "112420.511000", "112420.513000", "112420.516000", "112420.518000", "112420.521000", "112420.523000", "112420.526000", "112420.528000", "112420.531000", "112420.533000", "112420.536000", "112500.485000", "112500.488000", "112500.490000", "112500.493000", "112500.495000", "112500.498000", "112500.500000", "112500.503000", "112500.505000", "112500.507000", "112500.510000", "112500.512000", "112500.515000", "112500.517000", "112500.520000", "112500.522000", "112500.525000", "112500.527000", "112500.530000", "112500.532000", "112500.535000", "112500.537000", "112500.540000", "112500.542000", "112500.545000", "112500.547000", "112500.550000", "112515.298000", "112515.301000", "112515.304000", "112515.306000", "112515.309000", "112515.318000", "112515.320000", "112515.323000", "112515.325000", "112515.328000"],
      "InstanceCreationTime": ["112140.500000", "112140.503000", "112140.505000", "112140.508000", "112140.510000", "112140.513000", "112140.515000", "112140.517000", "112140.520000", "112140.530000", "112140.532000", "112140.535000", "112140.537000", "112140.540000", "112140.543000", "112140.550000", "112200.469000", "112200.471000", "112200.474000", "112200.476000", "112200.479000", "112200.481000", "112200.484000", "112200.486000", "112200.489000", "112200.491000", "112200.494000", "112200.496000", "112200.499000", "112200.501000", "112200.504000", "112200.506000", "112200.509000", "112200.511000", "112200.514000", "112200.516000", "112220.462000", "112220.464000", "112220.467000", "112220.469000", "112220.472000", "112220.474000", "112220.477000", "112220.479000", "112220.482000", "112220.484000", "112220.487000", "112220.489000", "112220.497000", "112220.500000", "112220.502000", "112220.505000", "112220.507000", "112220.510000", "112220.512000", "112220.514000", "112240.468000", "112240.470000", "112240.473000", "112240.475000", "112240.478000", "112240.480000", "112240.482000", "112240.485000", "112240.487000", "112240.490000", "112240.492000", "112240.495000", "112240.497000", "112240.500000", "112240.502000", "112240.505000", "112240.507000", "112240.510000", "112240.512000", "112240.514000", "112300.455000", "112300.458000", "112300.461000", "112300.463000", "112300.465000", "112300.468000", "112300.470000", "112300.473000", "112300.475000", "112300.478000", "112300.480000", "112300.483000", "112300.485000", "112300.488000", "112300.490000", "112300.493000", "112300.495000", "112300.498000", "112300.500000", "112300.503000", "112340.498000", "112340.501000", "112340.512000", "112340.514000", "112340.517000", "112340.519000", "112340.529000", "112340.531000", "112340.534000", "112340.536000", "112340.539000", "112340.541000", "112340.544000", "112340.546000", "112340.549000", "112340.551000", "112340.554000", "112340.556000", "112340.559000", "112340.561000", "112340.564000", "112340.566000", "112340.569000", "112340.571000", "112340.574000", "112340.576000", "112340.579000", "112340.581000", "112340.584000", "112340.586000", "112420.471000", "112420.474000", "112420.476000", "112420.479000", "112420.481000", "112420.483000", "112420.486000", "112420.488000", "112420.491000", "112420.493000", "112420.496000", "112420.498000", "112420.501000", "112420.503000", "112420.506000", "112420.508000", "112420.511000", "112420.513000", "112420.516000", "112420.518000", "112420.521000", "112420.523000", "112420.526000", "112420.528000", "112420.531000", "112420.533000", "112420.536000", "112500.485000", "112500.488000", "112500.490000", "112500.493000", "112500.495000", "112500.498000", "112500.500000", "112500.503000", "112500.505000", "112500.507000", "112500.510000", "112500.512000", "112500.515000", "112500.517000", "112500.520000", "112500.522000", "112500.525000", "112500.527000", "112500.530000", "112500.532000", "112500.535000", "112500.537000", "112500.540000", "112500.542000", "112500.545000", "112500.547000", "112500.550000", "112515.298000", "112515.301000", "112515.304000", "112515.306000", "112515.309000", "112515.318000", "112515.320000", "112515.323000", "112515.325000", "112515.328000"],
      "InstanceNumber": [1, 2, 3, 4, 5, 6, 7, 8, 9, 10, 11, 12, 13, 14, 15, 16, 17, 18, 19, 20, 21, 22, 23, 24, 25, 26, 27, 28, 29, 30, 31, 32, 33, 34, 35, 36, 37, 38, 39, 40, 41, 42, 43, 44, 45, 46, 47, 48, 49, 50, 51, 52, 53, 54, 55, 56, 57, 58, 59, 60, 61, 62, 63, 64, 65, 66, 67, 68, 69, 70, 71, 72, 73, 74, 75, 76, 77, 78, 79, 80, 81, 82, 83, 84, 85, 86, 87, 88, 89, 90, 91, 92, 93, 94, 95, 96, 97, 98, 99, 100, 101, 102, 103, 104, 105, 106, 107, 108, 109, 110, 111, 112, 113, 114, 115, 116, 117, 118, 119, 120, 121, 122, 123, 124, 125, 126, 127, 128, 129, 130, 131, 132, 133, 134, 135, 136, 137, 138, 139, 140, 141, 142, 143, 144, 145, 146, 147, 148, 149, 150, 151, 152, 153, 154, 155, 156, 157, 158, 159, 160, 161, 162, 163, 164, 165, 166, 167, 168, 169, 170, 171, 172, 173, 174, 175, 176, 177, 178, 179, 180, 181, 182, 183, 184, 185, 186, 187, 188, 189, 190],
      "WindowCenter": [4786.0, 4784.0, 4790.0, 4782.0, 4786.0, 4788.0, 4784.0, 4790.0, 4788.0, 4788.0, 4812.0, 4784.0, 4786.0, 4782.0, 4784.0, 4782.0, 4790.0, 4788.0, 4780.0, 4782.0, 4786.0, 4788.0, 4786.0, 4782.0, 4784.0, 4784.0, 4782.0, 4764.0, 4782.0, 4782.0, 4782.0, 4780.0, 4786.0, 4782.0, 4786.0, 4778.0, 4786.0, 4786.0, 4782.0, 4784.0, 4788.0, 4788.0, 4784.0, 4786.0, 4782.0, 4788.0, 4784.0, 4784.0, 4784.0, 4782.0, 4784.0, 4786.0, 4784.0, 4784.0, 4784.0, 4756.0, 4784.0, 4782.0, 4788.0, 4782.0, 4782.0, 4794.0, 4788.0, 4784.0, 4788.0, 4788.0, 4810.0, 4784.0, 4780.0, 4788.0, 4826.0, 4822.0, 4786.0, 4786.0, 4820.0, 4814.0, 4812.0, 4782.0, 4780.0, 4796.0, 4820.0, 4788.0, 4796.0, 4792.0, 4788.0, 4816.0, 4820.0, 4814.0, 4812.0, 4786.0, 4780.0, 4790.0, 4818.0, 4786.0, 4786.0, 4782.0, 4780.0, 4812.0, 4810.0, 4814.0, 4784.0, 4796.0, 4786.0, 4794.0, 4788.0, 4782.0, 4786.0, 4784.0, 4812.0, 4788.0, 4784.0, 4780.0, 4786.0, 4758.0, 4786.0, 4790.0, 4782.0, 4782.0, 4786.0, 4782.0, 4786.0, 4782.0, 4780.0, 4780.0, 4782.0, 4786.0, 4784.0, 4784.0, 4786.0, 4778.0, 4784.0, 4780.0, 4782.0, 4786.0, 4786.0, 4780.0, 4790.0, 4788.0, 4786.0, 4794.0, 4782.0, 4784.0, 4786.0, 4790.0, 4790.0, 4784.0, 4780.0, 4758.0, 4790.0, 4790.0, 4782.0, 4822.0, 4792.0, 4786.0, 4792.0, 4818.0, 4816.0, 4812.0, 4784.0, 4780.0, 4792.0, 4788.0, 4790.0, 4786.0, 4780.0, 4782.0, 4784.0, 4784.0, 4786.0, 4796.0, 4792.0, 4786.0, 4812.0, 4790.0, 4812.0, 4782.0, 4782.0, 4780.0, 4818.0, 4856.0, 4826.0, 4784.0, 4820.0, 4812.0, 4812.0, 4814.0, 4822.0, 4880.0, 4860.0, 4818.0],
      "WindowWidth": [18552.0, 18552.0, 18544.0, 18552.0, 18544.0, 18552.0, 18558.0, 18552.0, 18554.0, 18568.0, 18604.0, 18552.0, 18560.0, 18548.0, 18548.0, 18548.0, 18550.0, 18544.0, 18552.0, 18546.0, 18556.0, 18564.0, 18550.0, 18554.0, 18550.0, 18546.0, 18548.0, 18516.0, 18548.0, 18546.0, 18552.0, 18546.0, 18552.0, 18558.0, 18550.0, 18554.0, 18546.0, 18550.0, 18544.0, 18548.0, 18564.0, 18570.0, 18564.0, 18546.0, 18554.0, 18546.0, 18544.0, 18542.0, 18550.0, 18546.0, 18554.0, 18566.0, 18548.0, 18568.0, 18550.0, 18526.0, 18544.0, 18550.0, 18550.0, 18546.0, 18548.0, 18540.0, 18540.0, 18562.0, 18560.0, 18572.0, 18612.0, 18554.0, 18554.0, 18546.0, 18582.0, 18574.0, 18542.0, 18574.0, 18626.0, 18624.0, 18616.0, 18556.0, 18546.0, 18548.0, 18582.0, 18546.0, 18544.0, 18542.0, 18560.0, 18620.0, 18624.0, 18618.0, 18608.0, 18550.0, 18546.0, 18542.0, 18578.0, 18548.0, 18544.0, 18548.0, 18564.0, 18616.0, 18616.0, 18612.0, 18552.0, 18546.0, 18546.0, 18546.0, 18542.0, 18552.0, 18552.0, 18572.0, 18608.0, 18554.0, 18562.0, 18556.0, 18546.0, 18512.0, 18548.0, 18544.0, 18546.0, 18554.0, 18546.0, 18552.0, 18568.0, 18552.0, 18554.0, 18554.0, 18548.0, 18544.0, 18550.0, 18544.0, 18548.0, 18542.0, 18548.0, 18548.0, 18562.0, 18572.0, 18570.0, 18558.0, 18542.0, 18544.0, 18546.0, 18546.0, 18548.0, 18548.0, 18558.0, 18580.0, 18578.0, 18574.0, 18544.0, 18518.0, 18542.0, 18544.0, 18548.0, 18578.0, 18540.0, 18546.0, 18578.0, 18622.0, 18626.0, 18606.0, 18560.0, 18546.0, 18552.0, 18550.0, 18548.0, 18546.0, 18550.0, 18548.0, 18542.0, 18572.0, 18562.0, 18536.0, 18540.0, 18552.0, 18608.0, 18584.0, 18614.0, 18556.0, 18552.0, 18546.0, 18580.0, 18626.0, 18582.0, 18550.0, 18622.0, 18622.0, 18628.0, 18610.0, 18572.0, 18670.0, 18624.0, 18566.0]
    },
    "slices": {}
  }
}