{
  "AcquisitionMatrixPE": 104,
  "AcquisitionNumber": 1,
  "AcquisitionTime": "10:54:15.975000",
  "BandwidthPerPixelPhaseEncode": 17.17,
  "BaseResolution": 104,
  "BodyPartExamined": "BRAIN",
  "CoilString": "HC1-7;NC1_2",
  "ConsistencyInfo": "N4_VE11C_LATEST_20160120",
  "ConversionSoftware": "dcm2niix",
  "ConversionSoftwareVersion": "v1.0.20190902",
  "DerivedVendorReportedEchoSpacing": 0.000560011,
  "DeviceSerialNumber": "167006",
  "DwellTime": 2.1e-06,
  "EchoTime": 0.037,
  "EchoTrainLength": 104,
  "EffectiveEchoSpacing": 0.000560011,
  "FlipAngle": 52,
  "ImageComments": "Unaliased_MB4_PE3_LB",
  "ImageOrientationPatientDICOM": [0.999792, 0.00685731, 0.0192162, 0.00331544, 0.874708, -0.484639],
  "ImageType": [
    "ORIGINAL",
    "PRIMARY",
    "M",
    "MB",
    "ND",
    "MOSAIC"
],
  "ImagingFrequency": 123.259,
  "InPlanePhaseEncodingDirectionDICOM": "COL",
  "InstitutionAddress": "Chemin_Queen-Mary_4565_Montreal_District_CA_H3W_1W5",
  "InstitutionName": "IUGM",
  "InstitutionalDepartmentName": "Department",
  "MRAcquisitionType": "2D",
  "MagneticFieldStrength": 3,
  "Manufacturer": "Siemens",
  "ManufacturersModelName": "Prisma_fit",
  "Modality": "MR",
  "MultibandAccelerationFactor": 4,
  "PartialFourier": 1,
  "PatientPosition": "HFS",
  "PercentPhaseFOV": 100,
  "PhaseEncodingDirection": "j",
  "PhaseEncodingSteps": 104,
  "PhaseResolution": 1,
  "PixelBandwidth": 2290,
  "ProcedureStepDescription": "memory_things",
  "ProtocolName": "func_task-things_run-1",
  "PulseSequenceDetails": "%CustomerSeq%_cmrr_mbep2d_bold",
  "ReceiveCoilActiveElements": "HC1-7;NC1,2",
  "ReceiveCoilName": "HeadNeck_64",
  "ReconMatrixPE": 104,
  "RepetitionTime": 1.49,
  "SAR": 0.0440123,
  "ScanOptions": "FS",
  "ScanningSequence": "EP",
  "SequenceName": "epfid2d1_104",
  "SequenceVariant": "SK_SS",
  "SeriesDescription": "func_task-things_run-1",
  "SeriesNumber": 10,
  "ShimSetting": [617, -7184, -8859, 334, -3, -112, -15, -22],
  "SliceThickness": 2,
  "SliceTiming": [0, 0.7825, 0.0975, 0.8825, 0.195, 0.98, 0.2925, 1.0775, 0.3925, 1.175, 0.49, 1.2725, 0.5875, 1.3725, 0.685, 0, 0.7825, 0.0975, 0.8825, 0.195, 0.98, 0.2925, 1.0775, 0.3925, 1.175, 0.49, 1.2725, 0.5875, 1.3725, 0.685, 0, 0.7825, 0.0975, 0.8825, 0.195, 0.98, 0.2925, 1.0775, 0.3925, 1.175, 0.49, 1.2725, 0.5875, 1.3725, 0.685, 0, 0.7825, 0.0975, 0.8825, 0.195, 0.98, 0.2925, 1.0775, 0.3925, 1.175, 0.49, 1.2725, 0.5875, 1.3725, 0.685],
  "SoftwareVersions": "syngo_MR_E11",
  "SpacingBetweenSlices": 2,
  "StationName": "MRC35049",
  "TaskName": "things",
  "TotalReadoutTime": 0.0576811,
  "TxRefAmp": 256.794,
  "WipMemBlock": "8c16875e-06ec-47cf-99d1-7fdace4729bb||Sequence: R016 ve11c/master r/e634e98; Dec 19 2017 11:00:25 by eja",
  "dcmmeta_affine": [
    [-1.9995837211608887, 0.006630881689488888, 0.04026370123028755, 105.45635223388672],
    [-0.01371462456882, 1.7494161128997803, -0.9692033529281616, -53.3414421081543],
    [0.03843231871724129, 0.9692776799201965, 1.7490065097808838, -92.03112030029297],
    [0.0, 0.0, 0.0, 1.0]
],
  "dcmmeta_reorient_transform": [
    [0.0, -1.0, 0.0, 103.0],
    [1.0, 0.0, 0.0, 0.0],
    [0.0, 0.0, 1.0, 0.0],
    [0.0, 0.0, 0.0, 1.0]
],
  "dcmmeta_shape": [104, 104, 60, 190],
  "dcmmeta_slice_dim": 2,
  "dcmmeta_version": 0.6,
  "global": {
    "const": {
      "AcquisitionMatrix": [104, 0, 0, 104],
      "AngioFlag": "N",
      "BitsAllocated": 16,
      "BitsStored": 16,
      "BodyPartExamined": "BRAIN",
      "Columns": 832,
      "EchoNumbers": 1,
      "EchoTime": 37.0,
      "EchoTrainLength": 104,
      "FlipAngle": 52.0,
      "HighBit": 15,
      "ImageOrientationPatient": [0.99979183658356, 0.00685731206967, 0.01921615913906, 0.00331544088459, 0.87470807087163, -0.484638833157],
      "ImagePositionPatient": [-836.40143257929, -768.62801750364, 346.63218510763],
      "ImageType": [
        "ORIGINAL",
        "PRIMARY",
        "M",
        "MB",
        "ND",
        "MOSAIC"
],
      "ImagedNucleus": "1H",
      "ImagingFrequency": 123.259131,
      "InPlanePhaseEncodingDirection": "COL",
      "MRAcquisitionType": "2D",
      "MagneticFieldStrength": 3.0,
      "Manufacturer": "SIEMENS",
      "ManufacturerModelName": "Prisma_fit",
      "Modality": "MR",
      "NumberOfAverages": 1.0,
      "NumberOfPhaseEncodingSteps": 104,
      "PercentPhaseFieldOfView": 100.0,
      "PercentSampling": 100.0,
      "PerformedProcedureStepStartTime": "104105.539000",
      "PhotometricInterpretation": "MONOCHROME2",
      "PixelBandwidth": 2290.0,
      "PixelRepresentation": 0,
      "PixelSpacing": [2.0, 2.0],
      "ProtocolName": "func_task-things_run-1",
      "RepetitionTime": 1490.0,
      "Rows": 832,
      "SAR": 0.04401232856615,
      "SamplesPerPixel": 1,
      "ScanOptions": "FS",
      "ScanningSequence": "EP",
      "SequenceName": "epfid2d1_104",
      "SequenceVariant": [
        "SK",
        "SS"
],
      "SeriesDescription": "func_task-things_run-1",
      "SeriesNumber": 10,
      "SeriesTime": "105543.278000",
      "SliceLocation": -52.509131317223,
      "SliceThickness": 2.0,
      "SmallestImagePixelValue": 0,
      "SoftwareVersions": "syngo MR E11",
      "SpacingBetweenSlices": 2.0000000558995,
      "SpecificCharacterSet": "ISO_IR 100",
      "StudyID": "1",
      "StudyTime": "104105.361000",
      "TransmitCoilName": "Body",
      "VariableFlipAngleFlag": "N",
      "WindowCenterWidthExplanation": "Algo1",
      "dBdt": 0.0},
    "slices": {}
  },
  "time": {
    "samples": {
      "AcquisitionNumber": [1, 2, 3, 4, 5, 6, 7, 8, 9, 10, 11, 12, 13, 14, 15, 16, 17, 18, 19, 20, 21, 22, 23, 24, 25, 26, 27, 28, 29, 30, 31, 32, 33, 34, 35, 36, 37, 38, 39, 40, 41, 42, 43, 44, 45, 46, 47, 48, 49, 50, 51, 52, 53, 54, 55, 56, 57, 58, 59, 60, 61, 62, 63, 64, 65, 66, 67, 68, 69, 70, 71, 72, 73, 74, 75, 76, 77, 78, 79, 80, 81, 82, 83, 84, 85, 86, 87, 88, 89, 90, 91, 92, 93, 94, 95, 96, 97, 98, 99, 100, 101, 102, 103, 104, 105, 106, 107, 108, 109, 110, 111, 112, 113, 114, 115, 116, 117, 118, 119, 120, 121, 122, 123, 124, 125, 126, 127, 128, 129, 130, 131, 132, 133, 134, 135, 136, 137, 138, 139, 140, 141, 142, 143, 144, 145, 146, 147, 148, 149, 150, 151, 152, 153, 154, 155, 156, 157, 158, 159, 160, 161, 162, 163, 164, 165, 166, 167, 168, 169, 170, 171, 172, 173, 174, 175, 176, 177, 178, 179, 180, 181, 182, 183, 184, 185, 186, 187, 188, 189, 190],
      "AcquisitionTime": ["105415.975000", "105417.465000", "105418.955000", "105420.445000", "105421.935000", "105423.425000", "105424.915000", "105426.405000", "105427.895000", "105429.385000", "105430.875000", "105432.365000", "105433.855000", "105435.345000", "105436.835000", "105438.325000", "105439.815000", "105441.305000", "105442.795000", "105444.285000", "105445.775000", "105447.265000", "105448.755000", "105450.245000", "105451.735000", "105453.225000", "105454.715000", "105456.205000", "105457.695000", "105459.185000", "105500.675000", "105502.165000", "105503.655000", "105505.145000", "105506.635000", "105508.125000", "105509.615000", "105511.105000", "105512.595000", "105514.085000", "105515.575000", "105517.065000", "105518.555000", "105520.045000", "105521.535000", "105523.025000", "105524.515000", "105526.005000", "105527.495000", "105528.985000", "105530.475000", "105531.965000", "105533.455000", "105534.945000", "105536.435000", "105537.925000", "105539.415000", "105540.905000", "105542.395000", "105543.885000", "105545.375000", "105546.865000", "105548.355000", "105549.845000", "105551.335000", "105552.825000", "105554.315000", "105555.805000", "105557.295000", "105558.785000", "105600.275000", "105601.765000", "105603.255000", "105604.745000", "105606.235000", "105607.725000", "105609.215000", "105610.705000", "105612.195000", "105613.685000", "105615.175000", "105616.665000", "105618.155000", "105619.645000", "105621.135000", "105622.625000", "105624.115000", "105625.605000", "105627.095000", "105628.585000", "105630.075000", "105631.565000", "105633.055000", "105634.545000", "105636.035000", "105637.525000", "105639.015000", "105640.505000", "105641.995000", "105643.485000", "105644.975000", "105646.465000", "105647.955000", "105649.445000", "105650.935000", "105652.425000", "105653.915000", "105655.405000", "105656.895000", "105658.385000", "105659.875000", "105701.365000", "105702.855000", "105704.345000", "105705.835000", "105707.325000", "105708.815000", "105710.305000", "105711.795000", "105713.285000", "105714.775000", "105716.265000", "105717.755000", "105719.245000", "105720.735000", "105722.225000", "105723.715000", "105725.205000", "105726.695000", "105728.185000", "105729.675000", "105731.165000", "105732.655000", "105734.145000", "105735.635000", "105737.125000", "105738.615000", "105740.105000", "105741.595000", "105743.085000", "105744.575000", "105746.065000", "105747.555000", "105749.045000", "105750.535000", "105752.025000", "105753.515000", "105755.005000", "105756.495000", "105757.985000", "105759.475000", "105800.965000", "105802.455000", "105803.945000", "105805.435000", "105806.925000", "105808.415000", "105809.905000", "105811.395000", "105812.885000", "105814.375000", "105815.865000", "105817.355000", "105818.845000", "105820.335000", "105821.825000", "105823.315000", "105824.805000", "105826.295000", "105827.785000", "105829.275000", "105830.765000", "105832.255000", "105833.745000", "105835.235000", "105836.725000", "105838.215000", "105839.705000", "105841.195000", "105842.685000", "105844.175000", "105845.665000", "105847.155000", "105848.645000", "105850.135000", "105851.625000", "105853.115000", "105854.605000", "105856.095000", "105857.585000"],
      "ContentTime": ["105543.281000", "105543.285000", "105543.288000", "105543.295000", "105543.299000", "105543.302000", "105543.305000", "105543.309000", "105543.312000", "105543.315000", "105543.318000", "105543.322000", "105543.325000", "105543.328000", "105543.332000", "105543.335000", "105543.338000", "105543.341000", "105543.345000", "105543.348000", "105543.351000", "105543.354000", "105543.358000", "105543.361000", "105543.364000", "105543.367000", "105543.371000", "105543.374000", "105543.377000", "105543.381000", "105543.384000", "105543.387000", "105603.236000", "105603.240000", "105603.243000", "105603.246000", "105603.249000", "105603.253000", "105603.256000", "105603.259000", "105603.263000", "105603.266000", "105603.269000", "105603.272000", "105603.276000", "105603.279000", "105603.282000", "105603.286000", "105603.289000", "105603.292000", "105603.295000", "105603.299000", "105623.236000", "105623.240000", "105623.243000", "105623.246000", "105623.249000", "105623.253000", "105623.256000", "105623.259000", "105623.263000", "105623.266000", "105623.269000", "105623.272000", "105623.276000", "105623.279000", "105623.283000", "105623.286000", "105623.290000", "105623.293000", "105623.296000", "105623.299000", "105643.236000", "105643.240000", "105643.243000", "105643.246000", "105643.249000", "105643.253000", "105643.256000", "105643.259000", "105643.263000", "105643.266000", "105643.269000", "105643.272000", "105643.276000", "105643.279000", "105643.282000", "105643.286000", "105643.289000", "105643.292000", "105643.302000", "105643.305000", "105723.236000", "105723.240000", "105723.243000", "105723.246000", "105723.250000", "105723.253000", "105723.256000", "105723.260000", "105723.263000", "105723.266000", "105723.269000", "105723.273000", "105723.276000", "105723.279000", "105723.283000", "105723.286000", "105723.289000", "105723.293000", "105723.296000", "105723.299000", "105723.303000", "105723.306000", "105723.309000", "105723.312000", "105723.316000", "105723.319000", "105723.322000", "105723.326000", "105723.329000", "105723.332000", "105723.335000", "105723.339000", "105723.342000", "105803.236000", "105803.240000", "105803.244000", "105803.248000", "105803.252000", "105803.255000", "105803.258000", "105803.262000", "105803.266000", "105803.269000", "105803.272000", "105803.276000", "105803.279000", "105803.282000", "105803.286000", "105803.289000", "105803.292000", "105803.296000", "105803.299000", "105803.302000", "105803.305000", "105803.309000", "105803.312000", "105803.315000", "105803.318000", "105803.322000", "105843.236000", "105843.240000", "105843.243000", "105843.247000", "105843.250000", "105843.253000", "105843.256000", "105843.260000", "105843.263000", "105843.266000", "105843.270000", "105843.273000", "105843.276000", "105843.280000", "105843.283000", "105843.286000", "105843.289000", "105843.293000", "105843.296000", "105843.299000", "105843.302000", "105843.306000", "105843.309000", "105843.312000", "105843.316000", "105843.319000", "105843.322000", "105859.941000", "105859.945000", "105859.948000", "105859.952000", "105859.955000", "105859.959000", "105859.962000", "105859.965000", "105859.969000", "105859.972000", "105859.975000", "105859.979000"],
      "InstanceCreationTime": ["105543.281000", "105543.285000", "105543.288000", "105543.295000", "105543.299000", "105543.302000", "105543.305000", "105543.309000", "105543.312000", "105543.315000", "105543.318000", "105543.322000", "105543.325000", "105543.328000", "105543.332000", "105543.335000", "105543.338000", "105543.341000", "105543.345000", "105543.348000", "105543.351000", "105543.354000", "105543.358000", "105543.361000", "105543.364000", "105543.367000", "105543.371000", "105543.374000", "105543.377000", "105543.381000", "105543.384000", "105543.387000", "105603.236000", "105603.240000", "105603.243000", "105603.246000", "105603.249000", "105603.253000", "105603.256000", "105603.259000", "105603.263000", "105603.266000", "105603.269000", "105603.272000", "105603.276000", "105603.279000", "105603.282000", "105603.286000", "105603.289000", "105603.292000", "105603.295000", "105603.299000", "105623.236000", "105623.240000", "105623.243000", "105623.246000", "105623.249000", "105623.253000", "105623.256000", "105623.259000", "105623.263000", "105623.266000", "105623.269000", "105623.272000", "105623.276000", "105623.279000", "105623.283000", "105623.286000", "105623.290000", "105623.293000", "105623.296000", "105623.299000", "105643.236000", "105643.240000", "105643.243000", "105643.246000", "105643.249000", "105643.253000", "105643.256000", "105643.259000", "105643.263000", "105643.266000", "105643.269000", "105643.272000", "105643.276000", "105643.279000", "105643.282000", "105643.286000", "105643.289000", "105643.292000", "105643.302000", "105643.305000", "105723.236000", "105723.240000", "105723.243000", "105723.246000", "105723.250000", "105723.253000", "105723.256000", "105723.260000", "105723.263000", "105723.266000", "105723.269000", "105723.273000", "105723.276000", "105723.279000", "105723.283000", "105723.286000", "105723.289000", "105723.293000", "105723.296000", "105723.299000", "105723.303000", "105723.306000", "105723.309000", "105723.312000", "105723.316000", "105723.319000", "105723.322000", "105723.326000", "105723.329000", "105723.332000", "105723.335000", "105723.339000", "105723.342000", "105803.236000", "105803.240000", "105803.244000", "105803.248000", "105803.252000", "105803.255000", "105803.258000", "105803.262000", "105803.266000", "105803.269000", "105803.272000", "105803.276000", "105803.279000", "105803.282000", "105803.286000", "105803.289000", "105803.292000", "105803.296000", "105803.299000", "105803.302000", "105803.305000", "105803.309000", "105803.312000", "105803.315000", "105803.318000", "105803.322000", "105843.236000", "105843.240000", "105843.243000", "105843.247000", "105843.250000", "105843.253000", "105843.256000", "105843.260000", "105843.263000", "105843.266000", "105843.270000", "105843.273000", "105843.276000", "105843.280000", "105843.283000", "105843.286000", "105843.289000", "105843.293000", "105843.296000", "105843.299000", "105843.302000", "105843.306000", "105843.309000", "105843.312000", "105843.316000", "105843.319000", "105843.322000", "105859.941000", "105859.945000", "105859.948000", "105859.952000", "105859.955000", "105859.959000", "105859.962000", "105859.965000", "105859.969000", "105859.972000", "105859.975000", "105859.979000"],
      "InstanceNumber": [1, 2, 3, 4, 5, 6, 7, 8, 9, 10, 11, 12, 13, 14, 15, 16, 17, 18, 19, 20, 21, 22, 23, 24, 25, 26, 27, 28, 29, 30, 31, 32, 33, 34, 35, 36, 37, 38, 39, 40, 41, 42, 43, 44, 45, 46, 47, 48, 49, 50, 51, 52, 53, 54, 55, 56, 57, 58, 59, 60, 61, 62, 63, 64, 65, 66, 67, 68, 69, 70, 71, 72, 73, 74, 75, 76, 77, 78, 79, 80, 81, 82, 83, 84, 85, 86, 87, 88, 89, 90, 91, 92, 93, 94, 95, 96, 97, 98, 99, 100, 101, 102, 103, 104, 105, 106, 107, 108, 109, 110, 111, 112, 113, 114, 115, 116, 117, 118, 119, 120, 121, 122, 123, 124, 125, 126, 127, 128, 129, 130, 131, 132, 133, 134, 135, 136, 137, 138, 139, 140, 141, 142, 143, 144, 145, 146, 147, 148, 149, 150, 151, 152, 153, 154, 155, 156, 157, 158, 159, 160, 161, 162, 163, 164, 165, 166, 167, 168, 169, 170, 171, 172, 173, 174, 175, 176, 177, 178, 179, 180, 181, 182, 183, 184, 185, 186, 187, 188, 189, 190],
      "LargestImagePixelValue": [50848, 49369, 49257, 49109, 49052, 48551, 47845, 48409, 48623, 48269, 47990, 47913, 48719, 47995, 47978, 48215, 48218, 47910, 47605, 48004, 48608, 47665, 47822, 47684, 47733, 48031, 47713, 47702, 47543, 47926, 47683, 47795, 47324, 47828, 47341, 48329, 48122, 47877, 47856, 47597, 47376, 47461, 47864, 47564, 47540, 47307, 48104, 47038, 47818, 47493, 47682, 47659, 47989, 48020, 48039, 47678, 47065, 47497, 47248, 47553, 47556, 47695, 46726, 46891, 47730, 46895, 47352, 46854, 46803, 46979, 46773, 46865, 46905, 47016, 47677, 47293, 47195, 46452, 46849, 47143, 47711, 47526, 46787, 46942, 46597, 47112, 47511, 47617, 47062, 46988, 47176, 47266, 47221, 47194, 46773, 47201, 46909, 46537, 47231, 47212, 46690, 47022, 47317, 47099, 46575, 47481, 46953, 47256, 47374, 47022, 46453, 46995, 46257, 47239, 46991, 47001, 46748, 46860, 46791, 46839, 46854, 46743, 47105, 47060, 46532, 47215, 47421, 47206, 47396, 47051, 46966, 47144, 47529, 46559, 47037, 46512, 46901, 46883, 47221, 46977, 47206, 46755, 47083, 46761, 47173, 46436, 47951, 47114, 47472, 47110, 47205, 47200, 46843, 47071, 47086, 47007, 46761, 47474, 47781, 47231, 47137, 46936, 46918, 46800, 46865, 46997, 46707, 47077, 47666, 46837, 47126, 46667, 46137, 46348, 46927, 46763, 46482, 46755, 46729, 47182, 46577, 46706, 46983, 47096, 46370, 47449, 46838, 45451, 46278, 47096],
      "WindowCenter": [11199.0, 11135.0, 11112.0, 11108.0, 11113.0, 11129.0, 11118.0, 11105.0, 11115.0, 11127.0, 11135.0, 11130.0, 11124.0, 11102.0, 11092.0, 11093.0, 11097.0, 11123.0, 11118.0, 11108.0, 11133.0, 11123.0, 11114.0, 11085.0, 11076.0, 11113.0, 11124.0, 11104.0, 11081.0, 11082.0, 11084.0, 11099.0, 11106.0, 11085.0, 11071.0, 11083.0, 11124.0, 11142.0, 11136.0, 11120.0, 11109.0, 11095.0, 11091.0, 11077.0, 11085.0, 11085.0, 11090.0, 11080.0, 11083.0, 11078.0, 11092.0, 11102.0, 11103.0, 11102.0, 11108.0, 11099.0, 11099.0, 11098.0, 11098.0, 11104.0, 11113.0, 11114.0, 11103.0, 11093.0, 11086.0, 11094.0, 11131.0, 11124.0, 11089.0, 11073.0, 11080.0, 11086.0, 11077.0, 11067.0, 11070.0, 11070.0, 11069.0, 11073.0, 11078.0, 11086.0, 11098.0, 11106.0, 11104.0, 11112.0, 11090.0, 11121.0, 11131.0, 11155.0, 11135.0, 11127.0, 11089.0, 11083.0, 11091.0, 11135.0, 11141.0, 11134.0, 11108.0, 11071.0, 11049.0, 11074.0, 11098.0, 11122.0, 11114.0, 11105.0, 11090.0, 11080.0, 11076.0, 11091.0, 11092.0, 11087.0, 11066.0, 11086.0, 11085.0, 11110.0, 11098.0, 11081.0, 11058.0, 11058.0, 11071.0, 11089.0, 11088.0, 11083.0, 11072.0, 11063.0, 11052.0, 11075.0, 11077.0, 11083.0, 11085.0, 11081.0, 11079.0, 11083.0, 11076.0, 11075.0, 11089.0, 11076.0, 11077.0, 11070.0, 11075.0, 11071.0, 11079.0, 11068.0, 11072.0, 11065.0, 11072.0, 11063.0, 11083.0, 11073.0, 11078.0, 11080.0, 11071.0, 11067.0, 11066.0, 11073.0, 11071.0, 11057.0, 11030.0, 11058.0, 11084.0, 11071.0, 11054.0, 11072.0, 11082.0, 11088.0, 11086.0, 11077.0, 11068.0, 11082.0, 11095.0, 11089.0, 11085.0, 11104.0, 11111.0, 11126.0, 11131.0, 11116.0, 11093.0, 11081.0, 11070.0, 11084.0, 11079.0, 11089.0, 11084.0, 11094.0, 11088.0, 11082.0, 11079.0, 11020.0, 11024.0, 11041.0],
      "WindowWidth": [24185.0, 24006.0, 23931.0, 23910.0, 23916.0, 23947.0, 23925.0, 23892.0, 23914.0, 23943.0, 23962.0, 23953.0, 23934.0, 23887.0, 23862.0, 23860.0, 23871.0, 23933.0, 23926.0, 23898.0, 23954.0, 23937.0, 23911.0, 23845.0, 23823.0, 23904.0, 23934.0, 23886.0, 23834.0, 23834.0, 23839.0, 23873.0, 23894.0, 23844.0, 23809.0, 23833.0, 23933.0, 23972.0, 23959.0, 23921.0, 23898.0, 23865.0, 23852.0, 23823.0, 23839.0, 23842.0, 23851.0, 23830.0, 23837.0, 23827.0, 23857.0, 23879.0, 23881.0, 23878.0, 23893.0, 23875.0, 23874.0, 23874.0, 23872.0, 23886.0, 23908.0, 23911.0, 23889.0, 23866.0, 23845.0, 23863.0, 23952.0, 23939.0, 23862.0, 23819.0, 23835.0, 23848.0, 23825.0, 23799.0, 23803.0, 23803.0, 23804.0, 23817.0, 23829.0, 23846.0, 23873.0, 23892.0, 23892.0, 23906.0, 23858.0, 23928.0, 23954.0, 24010.0, 23963.0, 23944.0, 23854.0, 23838.0, 23859.0, 23960.0, 23974.0, 23957.0, 23896.0, 23814.0, 23754.0, 23815.0, 23875.0, 23929.0, 23913.0, 23890.0, 23855.0, 23830.0, 23824.0, 23852.0, 23857.0, 23847.0, 23803.0, 23846.0, 23846.0, 23899.0, 23873.0, 23831.0, 23777.0, 23778.0, 23809.0, 23850.0, 23848.0, 23836.0, 23810.0, 23788.0, 23768.0, 23815.0, 23821.0, 23834.0, 23837.0, 23828.0, 23823.0, 23834.0, 23817.0, 23815.0, 23849.0, 23821.0, 23819.0, 23801.0, 23813.0, 23805.0, 23822.0, 23801.0, 23809.0, 23791.0, 23807.0, 23790.0, 23829.0, 23811.0, 23820.0, 23828.0, 23806.0, 23794.0, 23793.0, 23807.0, 23802.0, 23770.0, 23707.0, 23772.0, 23834.0, 23806.0, 23764.0, 23806.0, 23830.0, 23845.0, 23840.0, 23820.0, 23799.0, 23830.0, 23860.0, 23851.0, 23840.0, 23885.0, 23906.0, 23938.0, 23948.0, 23909.0, 23859.0, 23829.0, 23805.0, 23834.0, 23828.0, 23851.0, 23838.0, 23863.0, 23854.0, 23832.0, 23830.0, 23698.0, 23699.0, 23737.0]
    },
    "slices": {}
  }
}