{
  "AcquisitionMatrixPE": 104,
  "AcquisitionNumber": 1,
  "AcquisitionTime": "17:51:10.712500",
  "BandwidthPerPixelPhaseEncode": 17.17,
  "BaseResolution": 104,
  "BodyPartExamined": "BRAIN",
  "CoilString": "HC1-7;NC1_2",
  "ConsistencyInfo": "N4_VE11C_LATEST_20160120",
  "ConversionSoftware": "dcm2niix",
  "ConversionSoftwareVersion": "v1.0.20190902",
  "DerivedVendorReportedEchoSpacing": 0.000560011,
  "DeviceSerialNumber": "167006",
  "DwellTime": 2.1e-06,
  "EchoTime": 0.037,
  "EchoTrainLength": 104,
  "EffectiveEchoSpacing": 0.000560011,
  "FlipAngle": 52,
  "HeudiconvVersion": "0.10.0",
  "ImageComments": "Unaliased_MB4_PE3_LB",
  "ImageOrientationPatientDICOM": [0.994468, 0.0957469, 0.0431908, -0.0733782, 0.927493, -0.366568],
  "ImageType": [
    "ORIGINAL",
    "PRIMARY",
    "M",
    "MB",
    "ND",
    "MOSAIC"
],
  "ImagingFrequency": 123.259,
  "InPlanePhaseEncodingDirectionDICOM": "COL",
  "InstitutionAddress": "Chemin_Queen-Mary_4565_Montreal_District_CA_H3W_1W5",
  "InstitutionName": "IUGM",
  "InstitutionalDepartmentName": "Department",
  "MRAcquisitionType": "2D",
  "MagneticFieldStrength": 3,
  "Manufacturer": "Siemens",
  "ManufacturersModelName": "Prisma_fit",
  "Modality": "MR",
  "MultibandAccelerationFactor": 4,
  "PartialFourier": 1,
  "PatientPosition": "HFS",
  "PercentPhaseFOV": 100,
  "PhaseEncodingDirection": "j",
  "PhaseEncodingSteps": 104,
  "PhaseResolution": 1,
  "PixelBandwidth": 2290,
  "ProcedureStepDescription": "memory_things",
  "ProtocolName": "func_task-things_run-4",
  "PulseSequenceDetails": "%CustomerSeq%_cmrr_mbep2d_bold",
  "ReceiveCoilActiveElements": "HC1-7;NC1,2",
  "ReceiveCoilName": "HeadNeck_64",
  "ReconMatrixPE": 104,
  "RepetitionTime": 1.49,
  "SAR": 0.069823,
  "ScanOptions": "FS",
  "ScanningSequence": "EP",
  "SequenceName": "epfid2d1_104",
  "SequenceVariant": "SK_SS",
  "SeriesDescription": "func_task-things_run-4",
  "SeriesNumber": 19,
  "ShimSetting": [639, -7188, -8832, 628, 75, 48, -58, 11],
  "SliceThickness": 2,
  "SliceTiming": [0, 0.7825, 0.0975, 0.88, 0.195, 0.9775, 0.2925, 1.0775, 0.39, 1.175, 0.4875, 1.2725, 0.5875, 1.37, 0.685, 0, 0.7825, 0.0975, 0.88, 0.195, 0.9775, 0.2925, 1.0775, 0.39, 1.175, 0.4875, 1.2725, 0.5875, 1.37, 0.685, 0, 0.7825, 0.0975, 0.88, 0.195, 0.9775, 0.2925, 1.0775, 0.39, 1.175, 0.4875, 1.2725, 0.5875, 1.37, 0.685, 0, 0.7825, 0.0975, 0.88, 0.195, 0.9775, 0.2925, 1.0775, 0.39, 1.175, 0.4875, 1.2725, 0.5875, 1.37, 0.685],
  "SoftwareVersions": "syngo_MR_E11",
  "SpacingBetweenSlices": 2,
  "StationName": "MRC35049",
  "TaskName": "things",
  "TotalReadoutTime": 0.0576811,
  "TxRefAmp": 312.19,
  "WipMemBlock": "c802de8e-9655-4f5d-a364-455909374186||Sequence: R016 ve11c/master r/e634e98; Dec 19 2017 11:00:25 by eja",
  "dcmmeta_affine": [
    [-1.9889365434646606, -0.14675630629062653, 0.15031380951404572, 109.10713195800781],
    [-0.19149382412433624, 1.8549861907958984, -0.7227421402931213, -49.697479248046875],
    [0.08638154715299606, 0.7331361770629883, 1.858776330947876, -70.28275299072266],
    [0.0, 0.0, 0.0, 1.0]
],
  "dcmmeta_reorient_transform": [
    [0.0, -1.0, 0.0, 103.0],
    [1.0, 0.0, 0.0, 0.0],
    [0.0, 0.0, 1.0, 0.0],
    [0.0, 0.0, 0.0, 1.0]
],
  "dcmmeta_shape": [104, 104, 60, 190],
  "dcmmeta_slice_dim": 2,
  "dcmmeta_version": 0.6,
  "global": {
    "const": {
      "AcquisitionMatrix": [104, 0, 0, 104],
      "AngioFlag": "N",
      "BitsAllocated": 16,
      "BitsStored": 16,
      "BodyPartExamined": "BRAIN",
      "Columns": 832,
      "EchoNumbers": 1,
      "EchoTime": 37.0,
      "EchoTrainLength": 104,
      "FlipAngle": 52.0,
      "HighBit": 15,
      "ImageOrientationPatient": [0.99446824289468, 0.095746910332, 0.04319077489275, -0.0733781505331, 0.92749311699224, -0.3665680904776],
      "ImagePositionPatient": [-764.544820066, -886.28484137513, 240.64896182962],
      "ImageType": [
        "ORIGINAL",
        "PRIMARY",
        "M",
        "MB",
        "ND",
        "MOSAIC"
],
      "ImagedNucleus": "1H",
      "ImagingFrequency": 123.258904,
      "InPlanePhaseEncodingDirection": "COL",
      "MRAcquisitionType": "2D",
      "MagneticFieldStrength": 3.0,
      "Manufacturer": "SIEMENS",
      "ManufacturerModelName": "Prisma_fit",
      "Modality": "MR",
      "NumberOfAverages": 1.0,
      "NumberOfPhaseEncodingSteps": 104,
      "PercentPhaseFieldOfView": 100.0,
      "PercentSampling": 100.0,
      "PerformedProcedureStepStartTime": "170217.592000",
      "PhotometricInterpretation": "MONOCHROME2",
      "PixelBandwidth": 2290.0,
      "PixelRepresentation": 0,
      "PixelSpacing": [2.0, 2.0],
      "ProtocolName": "func_task-things_run-4",
      "RepetitionTime": 1490.0,
      "Rows": 832,
      "SAR": 0.06982297156568,
      "SamplesPerPixel": 1,
      "ScanOptions": "FS",
      "ScanningSequence": "EP",
      "SequenceName": "epfid2d1_104",
      "SequenceVariant": [
        "SK",
        "SS"
],
      "SeriesDescription": "func_task-things_run-4",
      "SeriesNumber": 19,
      "SeriesTime": "175230.866000",
      "SliceLocation": -39.160571474815,
      "SliceThickness": 2.0,
      "SmallestImagePixelValue": 0,
      "SoftwareVersions": "syngo MR E11",
      "SpacingBetweenSlices": 1.9999999466076,
      "SpecificCharacterSet": "ISO_IR 100",
      "StudyID": "1",
      "StudyTime": "170217.435000",
      "TransmitCoilName": "Body",
      "VariableFlipAngleFlag": "N",
      "WindowCenterWidthExplanation": "Algo1",
      "dBdt": 0.0},
    "slices": {}
  },
  "time": {
    "samples": {
      "AcquisitionNumber": [1, 2, 3, 4, 5, 6, 7, 8, 9, 10, 11, 12, 13, 14, 15, 16, 17, 18, 19, 20, 21, 22, 23, 24, 25, 26, 27, 28, 29, 30, 31, 32, 33, 34, 35, 36, 37, 38, 39, 40, 41, 42, 43, 44, 45, 46, 47, 48, 49, 50, 51, 52, 53, 54, 55, 56, 57, 58, 59, 60, 61, 62, 63, 64, 65, 66, 67, 68, 69, 70, 71, 72, 73, 74, 75, 76, 77, 78, 79, 80, 81, 82, 83, 84, 85, 86, 87, 88, 89, 90, 91, 92, 93, 94, 95, 96, 97, 98, 99, 100, 101, 102, 103, 104, 105, 106, 107, 108, 109, 110, 111, 112, 113, 114, 115, 116, 117, 118, 119, 120, 121, 122, 123, 124, 125, 126, 127, 128, 129, 130, 131, 132, 133, 134, 135, 136, 137, 138, 139, 140, 141, 142, 143, 144, 145, 146, 147, 148, 149, 150, 151, 152, 153, 154, 155, 156, 157, 158, 159, 160, 161, 162, 163, 164, 165, 166, 167, 168, 169, 170, 171, 172, 173, 174, 175, 176, 177, 178, 179, 180, 181, 182, 183, 184, 185, 186, 187, 188, 189, 190],
      "AcquisitionTime": ["175110.712500", "175112.202500", "175113.692500", "175115.182500", "175116.672500", "175118.162500", "175119.652500", "175121.142500", "175122.632500", "175124.122500", "175125.612500", "175127.102500", "175128.592500", "175130.082500", "175131.572500", "175133.062500", "175134.552500", "175136.042500", "175137.532500", "175139.022500", "175140.512500", "175142.002500", "175143.492500", "175144.982500", "175146.472500", "175147.962500", "175149.452500", "175150.942500", "175152.432500", "175153.922500", "175155.412500", "175156.902500", "175158.392500", "175159.882500", "175201.372500", "175202.862500", "175204.352500", "175205.842500", "175207.332500", "175208.822500", "175210.312500", "175211.802500", "175213.292500", "175214.782500", "175216.272500", "175217.762500", "175219.252500", "175220.742500", "175222.232500", "175223.722500", "175225.212500", "175226.702500", "175228.192500", "175229.682500", "175231.172500", "175232.662500", "175234.152500", "175235.642500", "175237.132500", "175238.622500", "175240.112500", "175241.602500", "175243.092500", "175244.582500", "175246.072500", "175247.562500", "175249.052500", "175250.542500", "175252.032500", "175253.522500", "175255.012500", "175256.502500", "175257.992500", "175259.482500", "175300.972500", "175302.462500", "175303.952500", "175305.442500", "175306.932500", "175308.422500", "175309.912500", "175311.402500", "175312.892500", "175314.382500", "175315.872500", "175317.362500", "175318.852500", "175320.342500", "175321.832500", "175323.322500", "175324.812500", "175326.302500", "175327.792500", "175329.282500", "175330.772500", "175332.262500", "175333.752500", "175335.242500", "175336.732500", "175338.222500", "175339.712500", "175341.202500", "175342.692500", "175344.182500", "175345.672500", "175347.162500", "175348.652500", "175350.142500", "175351.632500", "175353.122500", "175354.612500", "175356.102500", "175357.592500", "175359.082500", "175400.572500", "175402.062500", "175403.552500", "175405.042500", "175406.532500", "175408.022500", "175409.512500", "175411.002500", "175412.492500", "175413.982500", "175415.472500", "175416.962500", "175418.452500", "175419.942500", "175421.432500", "175422.922500", "175424.412500", "175425.902500", "175427.392500", "175428.882500", "175430.372500", "175431.862500", "175433.352500", "175434.842500", "175436.332500", "175437.822500", "175439.312500", "175440.802500", "175442.292500", "175443.782500", "175445.272500", "175446.762500", "175448.252500", "175449.742500", "175451.232500", "175452.722500", "175454.212500", "175455.702500", "175457.192500", "175458.682500", "175500.172500", "175501.662500", "175503.152500", "175504.642500", "175506.132500", "175507.622500", "175509.112500", "175510.602500", "175512.092500", "175513.582500", "175515.072500", "175516.562500", "175518.052500", "175519.542500", "175521.032500", "175522.522500", "175524.012500", "175525.502500", "175526.992500", "175528.482500", "175529.972500", "175531.462500", "175532.952500", "175534.442500", "175535.932500", "175537.422500", "175538.912500", "175540.402500", "175541.892500", "175543.382500", "175544.872500", "175546.362500", "175547.852500", "175549.342500", "175550.832500", "175552.322500"],
      "ContentTime": ["175230.869000", "175230.872000", "175230.876000", "175230.879000", "175230.882000", "175230.885000", "175230.897000", "175230.901000", "175230.904000", "175230.907000", "175230.910000", "175230.914000", "175230.917000", "175230.920000", "175230.923000", "175230.927000", "175230.930000", "175230.933000", "175230.936000", "175230.943000", "175230.946000", "175230.949000", "175230.953000", "175230.956000", "175230.959000", "175230.962000", "175230.965000", "175250.837000", "175250.841000", "175250.844000", "175250.847000", "175250.851000", "175250.859000", "175250.862000", "175250.865000", "175250.868000", "175250.872000", "175250.875000", "175250.878000", "175250.882000", "175250.897000", "175250.906000", "175250.909000", "175250.913000", "175250.916000", "175250.919000", "175250.922000", "175310.837000", "175310.841000", "175310.844000", "175310.847000", "175310.851000", "175310.855000", "175310.858000", "175310.862000", "175310.865000", "175310.868000", "175310.872000", "175310.875000", "175310.878000", "175310.881000", "175310.885000", "175310.888000", "175310.891000", "175310.894000", "175310.898000", "175310.901000", "175330.837000", "175330.841000", "175330.844000", "175330.847000", "175330.850000", "175330.854000", "175330.857000", "175330.860000", "175330.864000", "175330.868000", "175330.871000", "175330.874000", "175330.878000", "175330.881000", "175330.884000", "175330.888000", "175330.891000", "175330.894000", "175330.898000", "175330.901000", "175330.904000", "175410.838000", "175410.842000", "175410.845000", "175410.848000", "175410.852000", "175410.855000", "175410.858000", "175410.861000", "175410.865000", "175410.868000", "175410.871000", "175410.874000", "175410.878000", "175410.881000", "175410.884000", "175410.888000", "175410.891000", "175410.894000", "175410.897000", "175410.901000", "175410.916000", "175410.919000", "175410.922000", "175410.926000", "175410.929000", "175410.932000", "175410.935000", "175410.939000", "175410.942000", "175410.945000", "175410.949000", "175410.952000", "175450.838000", "175450.842000", "175450.845000", "175450.848000", "175450.851000", "175450.855000", "175450.858000", "175450.862000", "175450.865000", "175450.868000", "175450.871000", "175450.875000", "175450.878000", "175450.881000", "175450.885000", "175450.888000", "175450.891000", "175450.895000", "175450.898000", "175450.901000", "175450.904000", "175450.908000", "175450.911000", "175450.914000", "175450.918000", "175450.921000", "175450.924000", "175530.837000", "175530.841000", "175530.844000", "175530.847000", "175530.851000", "175530.854000", "175530.857000", "175530.861000", "175530.864000", "175530.867000", "175530.870000", "175530.873000", "175530.877000", "175530.880000", "175530.883000", "175530.886000", "175530.890000", "175530.893000", "175530.896000", "175530.899000", "175530.903000", "175530.906000", "175530.909000", "175530.913000", "175530.917000", "175530.920000", "175554.943000", "175554.947000", "175554.950000", "175554.953000", "175554.957000", "175554.960000", "175554.963000", "175554.967000", "175554.970000", "175554.973000", "175554.977000", "175554.980000", "175554.983000", "175554.986000", "175554.990000", "175554.993000", "175554.996000"],
      "InstanceCreationTime": ["175230.869000", "175230.872000", "175230.876000", "175230.879000", "175230.882000", "175230.885000", "175230.897000", "175230.901000", "175230.904000", "175230.907000", "175230.910000", "175230.914000", "175230.917000", "175230.920000", "175230.923000", "175230.927000", "175230.930000", "175230.933000", "175230.936000", "175230.943000", "175230.946000", "175230.949000", "175230.953000", "175230.956000", "175230.959000", "175230.962000", "175230.965000", "175250.837000", "175250.841000", "175250.844000", "175250.847000", "175250.851000", "175250.859000", "175250.862000", "175250.865000", "175250.868000", "175250.872000", "175250.875000", "175250.878000", "175250.882000", "175250.897000", "175250.906000", "175250.909000", "175250.913000", "175250.916000", "175250.919000", "175250.922000", "175310.837000", "175310.841000", "175310.844000", "175310.847000", "175310.851000", "175310.855000", "175310.858000", "175310.862000", "175310.865000", "175310.868000", "175310.872000", "175310.875000", "175310.878000", "175310.881000", "175310.885000", "175310.888000", "175310.891000", "175310.894000", "175310.898000", "175310.901000", "175330.837000", "175330.841000", "175330.844000", "175330.847000", "175330.850000", "175330.854000", "175330.857000", "175330.860000", "175330.864000", "175330.868000", "175330.871000", "175330.874000", "175330.878000", "175330.881000", "175330.884000", "175330.888000", "175330.891000", "175330.894000", "175330.898000", "175330.901000", "175330.904000", "175410.838000", "175410.842000", "175410.845000", "175410.848000", "175410.852000", "175410.855000", "175410.858000", "175410.861000", "175410.865000", "175410.868000", "175410.871000", "175410.874000", "175410.878000", "175410.881000", "175410.884000", "175410.888000", "175410.891000", "175410.894000", "175410.897000", "175410.901000", "175410.916000", "175410.919000", "175410.922000", "175410.926000", "175410.929000", "175410.932000", "175410.935000", "175410.939000", "175410.942000", "175410.945000", "175410.949000", "175410.952000", "175450.838000", "175450.842000", "175450.845000", "175450.848000", "175450.851000", "175450.855000", "175450.858000", "175450.862000", "175450.865000", "175450.868000", "175450.871000", "175450.875000", "175450.878000", "175450.881000", "175450.885000", "175450.888000", "175450.891000", "175450.895000", "175450.898000", "175450.901000", "175450.904000", "175450.908000", "175450.911000", "175450.914000", "175450.918000", "175450.921000", "175450.924000", "175530.837000", "175530.841000", "175530.844000", "175530.847000", "175530.851000", "175530.854000", "175530.857000", "175530.861000", "175530.864000", "175530.867000", "175530.870000", "175530.873000", "175530.877000", "175530.880000", "175530.883000", "175530.886000", "175530.890000", "175530.893000", "175530.896000", "175530.899000", "175530.903000", "175530.906000", "175530.909000", "175530.913000", "175530.917000", "175530.920000", "175554.943000", "175554.947000", "175554.950000", "175554.953000", "175554.957000", "175554.960000", "175554.963000", "175554.967000", "175554.970000", "175554.973000", "175554.977000", "175554.980000", "175554.983000", "175554.986000", "175554.990000", "175554.993000", "175554.996000"],
      "InstanceNumber": [1, 2, 3, 4, 5, 6, 7, 8, 9, 10, 11, 12, 13, 14, 15, 16, 17, 18, 19, 20, 21, 22, 23, 24, 25, 26, 27, 28, 29, 30, 31, 32, 33, 34, 35, 36, 37, 38, 39, 40, 41, 42, 43, 44, 45, 46, 47, 48, 49, 50, 51, 52, 53, 54, 55, 56, 57, 58, 59, 60, 61, 62, 63, 64, 65, 66, 67, 68, 69, 70, 71, 72, 73, 74, 75, 76, 77, 78, 79, 80, 81, 82, 83, 84, 85, 86, 87, 88, 89, 90, 91, 92, 93, 94, 95, 96, 97, 98, 99, 100, 101, 102, 103, 104, 105, 106, 107, 108, 109, 110, 111, 112, 113, 114, 115, 116, 117, 118, 119, 120, 121, 122, 123, 124, 125, 126, 127, 128, 129, 130, 131, 132, 133, 134, 135, 136, 137, 138, 139, 140, 141, 142, 143, 144, 145, 146, 147, 148, 149, 150, 151, 152, 153, 154, 155, 156, 157, 158, 159, 160, 161, 162, 163, 164, 165, 166, 167, 168, 169, 170, 171, 172, 173, 174, 175, 176, 177, 178, 179, 180, 181, 182, 183, 184, 185, 186, 187, 188, 189, 190],
      "LargestImagePixelValue": [44593, 42512, 42621, 42842, 42294, 41550, 41408, 40706, 40712, 41291, 42455, 41729, 41382, 41344, 41053, 41808, 41536, 41776, 41336, 42460, 42907, 43615, 42883, 42396, 42494, 43845, 43254, 42372, 41278, 42824, 41906, 45968, 41891, 42004, 48687, 44098, 43225, 43372, 43611, 43983, 41821, 42242, 43122, 42508, 42991, 43493, 43116, 43498, 42911, 42880, 43191, 43615, 46204, 44359, 46788, 42886, 43307, 43451, 42903, 43025, 42537, 43905, 43331, 42967, 39926, 42339, 42597, 42349, 41665, 42462, 43980, 42379, 42722, 42743, 41483, 42035, 42834, 41921, 42988, 43507, 43747, 43831, 44522, 42894, 43103, 45039, 41126, 42705, 41486, 40642, 42814, 43291, 43278, 43914, 43534, 42851, 43620, 42563, 41600, 42614, 42342, 40536, 39865, 40920, 41356, 39738, 40595, 41551, 45521, 39707, 40737, 40905, 41147, 41102, 40471, 41129, 41388, 43530, 43263, 41094, 42508, 43692, 41887, 40984, 40431, 41442, 41433, 42140, 42645, 41253, 41738, 40885, 41332, 42090, 41156, 42389, 43127, 42634, 42090, 43409, 42759, 42362, 42695, 42293, 42794, 42947, 43714, 42704, 42656, 43972, 43386, 42826, 43145, 42475, 42087, 43063, 41474, 43437, 43191, 42692, 43494, 43016, 42674, 43084, 41809, 42509, 41972, 41441, 42606, 42484, 42142, 42858, 42415, 42772, 43159, 42737, 41589, 40953, 43294, 42085, 43177, 43276, 43529, 43430, 43084, 40761, 41938, 46161, 39753, 38148],
      "WindowCenter": [10425.0, 10357.0, 10348.0, 10370.0, 10376.0, 10364.0, 10346.0, 10339.0, 10341.0, 10355.0, 10370.0, 10349.0, 10334.0, 10334.0, 10342.0, 10362.0, 10383.0, 10389.0, 10381.0, 10379.0, 10374.0, 10361.0, 10336.0, 10316.0, 10319.0, 10335.0, 10329.0, 10341.0, 10348.0, 10360.0, 10346.0, 10384.0, 10342.0, 10350.0, 10422.0, 10367.0, 10352.0, 10365.0, 10361.0, 10368.0, 10366.0, 10379.0, 10377.0, 10355.0, 10352.0, 10348.0, 10342.0, 10356.0, 10350.0, 10360.0, 10375.0, 10383.0, 10426.0, 10409.0, 10434.0, 10395.0, 10387.0, 10370.0, 10363.0, 10372.0, 10380.0, 10394.0, 10369.0, 10367.0, 10346.0, 10356.0, 10355.0, 10367.0, 10354.0, 10354.0, 10359.0, 10369.0, 10391.0, 10380.0, 10364.0, 10382.0, 10390.0, 10352.0, 10334.0, 10323.0, 10346.0, 10366.0, 10389.0, 10361.0, 10349.0, 10362.0, 10328.0, 10346.0, 10359.0, 10366.0, 10376.0, 10364.0, 10359.0, 10364.0, 10380.0, 10381.0, 10379.0, 10376.0, 10350.0, 10355.0, 10360.0, 10332.0, 10326.0, 10355.0, 10372.0, 10373.0, 10395.0, 10390.0, 10415.0, 10332.0, 10360.0, 10402.0, 10412.0, 10408.0, 10393.0, 10376.0, 10348.0, 10368.0, 10401.0, 10418.0, 10429.0, 10434.0, 10388.0, 10358.0, 10331.0, 10326.0, 10325.0, 10347.0, 10353.0, 10355.0, 10359.0, 10345.0, 10349.0, 10370.0, 10373.0, 10401.0, 10420.0, 10406.0, 10391.0, 10401.0, 10392.0, 10395.0, 10388.0, 10371.0, 10364.0, 10362.0, 10368.0, 10375.0, 10379.0, 10381.0, 10352.0, 10353.0, 10370.0, 10388.0, 10396.0, 10383.0, 10336.0, 10340.0, 10343.0, 10345.0, 10381.0, 10396.0, 10400.0, 10413.0, 10392.0, 10370.0, 10362.0, 10359.0, 10398.0, 10411.0, 10406.0, 10398.0, 10385.0, 10375.0, 10371.0, 10382.0, 10395.0, 10413.0, 10440.0, 10389.0, 10380.0, 10363.0, 10370.0, 10381.0, 10398.0, 10365.0, 10370.0, 10437.0, 10282.0, 10247.0],
      "WindowWidth": [22132.0, 21967.0, 21933.0, 21981.0, 21996.0, 21966.0, 21921.0, 21907.0, 21910.0, 21944.0, 21972.0, 21925.0, 21894.0, 21897.0, 21914.0, 21955.0, 22009.0, 22021.0, 22003.0, 21990.0, 21980.0, 21944.0, 21890.0, 21848.0, 21850.0, 21893.0, 21873.0, 21904.0, 21924.0, 21947.0, 21919.0, 22003.0, 21907.0, 21927.0, 22091.0, 21958.0, 21928.0, 21976.0, 21948.0, 21959.0, 21962.0, 21992.0, 21984.0, 21938.0, 21929.0, 21925.0, 21904.0, 21932.0, 21920.0, 21948.0, 21978.0, 21996.0, 22109.0, 22055.0, 22112.0, 22035.0, 22018.0, 21966.0, 21954.0, 21976.0, 21990.0, 22025.0, 21964.0, 21975.0, 21932.0, 21941.0, 21937.0, 21971.0, 21939.0, 21934.0, 21939.0, 21972.0, 22032.0, 21997.0, 21969.0, 22006.0, 22017.0, 21932.0, 21883.0, 21852.0, 21905.0, 21954.0, 22008.0, 21950.0, 21920.0, 21957.0, 21890.0, 21921.0, 21961.0, 21974.0, 21987.0, 21957.0, 21939.0, 21952.0, 21988.0, 21996.0, 21988.0, 21995.0, 21927.0, 21937.0, 21967.0, 21898.0, 21884.0, 21942.0, 21980.0, 21990.0, 22037.0, 22020.0, 22078.0, 21896.0, 21960.0, 22055.0, 22079.0, 22071.0, 22040.0, 21994.0, 21928.0, 21962.0, 22041.0, 22093.0, 22109.0, 22127.0, 22016.0, 21953.0, 21887.0, 21868.0, 21864.0, 21911.0, 21926.0, 21951.0, 21950.0, 21921.0, 21932.0, 21975.0, 21985.0, 22046.0, 22093.0, 22063.0, 22028.0, 22041.0, 22023.0, 22030.0, 22015.0, 21978.0, 21952.0, 21948.0, 21959.0, 21985.0, 21998.0, 21997.0, 21918.0, 21929.0, 21965.0, 22009.0, 22033.0, 21996.0, 21890.0, 21894.0, 21914.0, 21918.0, 21993.0, 22030.0, 22041.0, 22086.0, 22035.0, 21980.0, 21954.0, 21947.0, 22037.0, 22069.0, 22053.0, 22039.0, 22003.0, 21990.0, 21970.0, 21998.0, 22032.0, 22082.0, 22145.0, 22013.0, 21990.0, 21948.0, 21980.0, 21987.0, 22037.0, 21978.0, 21968.0, 22122.0, 21781.0, 21703.0]
    },
    "slices": {}
  }
}