{
  "AcquisitionMatrixPE": 104,
  "AcquisitionNumber": 1,
  "AcquisitionTime": "17:32:19.945000",
  "BandwidthPerPixelPhaseEncode": 17.17,
  "BaseResolution": 104,
  "BodyPartExamined": "BRAIN",
  "CoilString": "HC1-7;NC1_2",
  "ConsistencyInfo": "N4_VE11C_LATEST_20160120",
  "ConversionSoftware": "dcm2niix",
  "ConversionSoftwareVersion": "v1.0.20190902",
  "DerivedVendorReportedEchoSpacing": 0.000560011,
  "DeviceSerialNumber": "167006",
  "DwellTime": 2.1e-06,
  "EchoTime": 0.037,
  "EchoTrainLength": 104,
  "EffectiveEchoSpacing": 0.000560011,
  "FlipAngle": 52,
  "HeudiconvVersion": "0.10.0",
  "ImageComments": "Unaliased_MB4_PE3_LB",
  "ImageOrientationPatientDICOM": [0.994468, 0.0957469, 0.0431908, -0.0733782, 0.927493, -0.366568],
  "ImageType": [
    "ORIGINAL",
    "PRIMARY",
    "M",
    "MB",
    "ND",
    "MOSAIC"
],
  "ImagingFrequency": 123.259,
  "InPlanePhaseEncodingDirectionDICOM": "COL",
  "InstitutionAddress": "Chemin_Queen-Mary_4565_Montreal_District_CA_H3W_1W5",
  "InstitutionName": "IUGM",
  "InstitutionalDepartmentName": "Department",
  "MRAcquisitionType": "2D",
  "MagneticFieldStrength": 3,
  "Manufacturer": "Siemens",
  "ManufacturersModelName": "Prisma_fit",
  "Modality": "MR",
  "MultibandAccelerationFactor": 4,
  "PartialFourier": 1,
  "PatientPosition": "HFS",
  "PercentPhaseFOV": 100,
  "PhaseEncodingDirection": "j",
  "PhaseEncodingSteps": 104,
  "PhaseResolution": 1,
  "PixelBandwidth": 2290,
  "ProcedureStepDescription": "memory_things",
  "ProtocolName": "func_task-things_run-2",
  "PulseSequenceDetails": "%CustomerSeq%_cmrr_mbep2d_bold",
  "ReceiveCoilActiveElements": "HC1-7;NC1,2",
  "ReceiveCoilName": "HeadNeck_64",
  "ReconMatrixPE": 104,
  "RepetitionTime": 1.49,
  "SAR": 0.069823,
  "ScanOptions": "FS",
  "ScanningSequence": "EP",
  "SequenceName": "epfid2d1_104",
  "SequenceVariant": "SK_SS",
  "SeriesDescription": "func_task-things_run-2",
  "SeriesNumber": 13,
  "ShimSetting": [639, -7188, -8832, 628, 75, 48, -58, 11],
  "SliceThickness": 2,
  "SliceTiming": [0, 0.785, 0.0975, 0.8825, 0.195, 0.98, 0.295, 1.0775, 0.3925, 1.175, 0.49, 1.275, 0.5875, 1.3725, 0.685, 0, 0.785, 0.0975, 0.8825, 0.195, 0.98, 0.295, 1.0775, 0.3925, 1.175, 0.49, 1.275, 0.5875, 1.3725, 0.685, 0, 0.785, 0.0975, 0.8825, 0.195, 0.98, 0.295, 1.0775, 0.3925, 1.175, 0.49, 1.275, 0.5875, 1.3725, 0.685, 0, 0.785, 0.0975, 0.8825, 0.195, 0.98, 0.295, 1.0775, 0.3925, 1.175, 0.49, 1.275, 0.5875, 1.3725, 0.685],
  "SoftwareVersions": "syngo_MR_E11",
  "SpacingBetweenSlices": 2,
  "StationName": "MRC35049",
  "TaskName": "things",
  "TotalReadoutTime": 0.0576811,
  "TxRefAmp": 312.19,
  "WipMemBlock": "eeabda4b-2be2-4dee-acce-0571ca234db2||Sequence: R016 ve11c/master r/e634e98; Dec 19 2017 11:00:25 by eja",
  "dcmmeta_affine": [
    [-1.9889365434646606, -0.14675630629062653, 0.15031380951404572, 109.10713195800781],
    [-0.19149382412433624, 1.8549861907958984, -0.7227421402931213, -49.697479248046875],
    [0.08638154715299606, 0.7331361770629883, 1.858776330947876, -70.28275299072266],
    [0.0, 0.0, 0.0, 1.0]
],
  "dcmmeta_reorient_transform": [
    [0.0, -1.0, 0.0, 103.0],
    [1.0, 0.0, 0.0, 0.0],
    [0.0, 0.0, 1.0, 0.0],
    [0.0, 0.0, 0.0, 1.0]
],
  "dcmmeta_shape": [104, 104, 60, 190],
  "dcmmeta_slice_dim": 2,
  "dcmmeta_version": 0.6,
  "global": {
    "const": {
      "AcquisitionMatrix": [104, 0, 0, 104],
      "AngioFlag": "N",
      "BitsAllocated": 16,
      "BitsStored": 16,
      "BodyPartExamined": "BRAIN",
      "Columns": 832,
      "EchoNumbers": 1,
      "EchoTime": 37.0,
      "EchoTrainLength": 104,
      "FlipAngle": 52.0,
      "HighBit": 15,
      "ImageOrientationPatient": [0.99446824289468, 0.095746910332, 0.04319077489275, -0.0733781505331, 0.92749311699224, -0.3665680904776],
      "ImagePositionPatient": [-764.544820066, -886.28484137513, 240.64896182962],
      "ImageType": [
        "ORIGINAL",
        "PRIMARY",
        "M",
        "MB",
        "ND",
        "MOSAIC"
],
      "ImagedNucleus": "1H",
      "ImagingFrequency": 123.258899,
      "InPlanePhaseEncodingDirection": "COL",
      "MRAcquisitionType": "2D",
      "MagneticFieldStrength": 3.0,
      "Manufacturer": "SIEMENS",
      "ManufacturerModelName": "Prisma_fit",
      "Modality": "MR",
      "NumberOfAverages": 1.0,
      "NumberOfPhaseEncodingSteps": 104,
      "PercentPhaseFieldOfView": 100.0,
      "PercentSampling": 100.0,
      "PerformedProcedureStepStartTime": "170217.592000",
      "PhotometricInterpretation": "MONOCHROME2",
      "PixelBandwidth": 2290.0,
      "PixelRepresentation": 0,
      "PixelSpacing": [2.0, 2.0],
      "ProtocolName": "func_task-things_run-2",
      "RepetitionTime": 1490.0,
      "Rows": 832,
      "SAR": 0.06982297156568,
      "SamplesPerPixel": 1,
      "ScanOptions": "FS",
      "ScanningSequence": "EP",
      "SequenceName": "epfid2d1_104",
      "SequenceVariant": [
        "SK",
        "SS"
],
      "SeriesDescription": "func_task-things_run-2",
      "SeriesNumber": 13,
      "SeriesTime": "173322.509000",
      "SliceLocation": -39.160571474815,
      "SliceThickness": 2.0,
      "SmallestImagePixelValue": 0,
      "SoftwareVersions": "syngo MR E11",
      "SpacingBetweenSlices": 1.9999999466076,
      "SpecificCharacterSet": "ISO_IR 100",
      "StudyID": "1",
      "StudyTime": "170217.435000",
      "TransmitCoilName": "Body",
      "VariableFlipAngleFlag": "N",
      "WindowCenterWidthExplanation": "Algo1",
      "dBdt": 0.0},
    "slices": {}
  },
  "time": {
    "samples": {
      "AcquisitionNumber": [1, 2, 3, 4, 5, 6, 7, 8, 9, 10, 11, 12, 13, 14, 15, 16, 17, 18, 19, 20, 21, 22, 23, 24, 25, 26, 27, 28, 29, 30, 31, 32, 33, 34, 35, 36, 37, 38, 39, 40, 41, 42, 43, 44, 45, 46, 47, 48, 49, 50, 51, 52, 53, 54, 55, 56, 57, 58, 59, 60, 61, 62, 63, 64, 65, 66, 67, 68, 69, 70, 71, 72, 73, 74, 75, 76, 77, 78, 79, 80, 81, 82, 83, 84, 85, 86, 87, 88, 89, 90, 91, 92, 93, 94, 95, 96, 97, 98, 99, 100, 101, 102, 103, 104, 105, 106, 107, 108, 109, 110, 111, 112, 113, 114, 115, 116, 117, 118, 119, 120, 121, 122, 123, 124, 125, 126, 127, 128, 129, 130, 131, 132, 133, 134, 135, 136, 137, 138, 139, 140, 141, 142, 143, 144, 145, 146, 147, 148, 149, 150, 151, 152, 153, 154, 155, 156, 157, 158, 159, 160, 161, 162, 163, 164, 165, 166, 167, 168, 169, 170, 171, 172, 173, 174, 175, 176, 177, 178, 179, 180, 181, 182, 183, 184, 185, 186, 187, 188, 189, 190],
      "AcquisitionTime": ["173219.945000", "173221.435000", "173222.925000", "173224.415000", "173225.905000", "173227.395000", "173228.885000", "173230.375000", "173231.865000", "173233.355000", "173234.845000", "173236.335000", "173237.825000", "173239.315000", "173240.805000", "173242.295000", "173243.785000", "173245.275000", "173246.765000", "173248.255000", "173249.745000", "173251.235000", "173252.725000", "173254.215000", "173255.705000", "173257.195000", "173258.685000", "173300.175000", "173301.665000", "173303.155000", "173304.645000", "173306.135000", "173307.625000", "173309.115000", "173310.605000", "173312.095000", "173313.585000", "173315.075000", "173316.565000", "173318.055000", "173319.545000", "173321.035000", "173322.525000", "173324.015000", "173325.505000", "173326.995000", "173328.485000", "173329.975000", "173331.465000", "173332.955000", "173334.445000", "173335.935000", "173337.425000", "173338.915000", "173340.405000", "173341.895000", "173343.385000", "173344.875000", "173346.365000", "173347.855000", "173349.345000", "173350.835000", "173352.325000", "173353.815000", "173355.305000", "173356.795000", "173358.285000", "173359.775000", "173401.265000", "173402.755000", "173404.245000", "173405.735000", "173407.225000", "173408.715000", "173410.205000", "173411.695000", "173413.185000", "173414.675000", "173416.165000", "173417.655000", "173419.145000", "173420.635000", "173422.125000", "173423.615000", "173425.105000", "173426.595000", "173428.085000", "173429.575000", "173431.065000", "173432.555000", "173434.045000", "173435.535000", "173437.025000", "173438.515000", "173440.005000", "173441.495000", "173442.985000", "173444.475000", "173445.965000", "173447.455000", "173448.945000", "173450.435000", "173451.925000", "173453.415000", "173454.905000", "173456.395000", "173457.885000", "173459.375000", "173500.865000", "173502.355000", "173503.845000", "173505.335000", "173506.825000", "173508.315000", "173509.805000", "173511.295000", "173512.785000", "173514.275000", "173515.765000", "173517.255000", "173518.745000", "173520.235000", "173521.725000", "173523.215000", "173524.705000", "173526.195000", "173527.685000", "173529.175000", "173530.665000", "173532.155000", "173533.645000", "173535.135000", "173536.625000", "173538.115000", "173539.605000", "173541.095000", "173542.585000", "173544.075000", "173545.565000", "173547.055000", "173548.545000", "173550.035000", "173551.525000", "173553.015000", "173554.505000", "173555.995000", "173557.485000", "173558.975000", "173600.465000", "173601.955000", "173603.445000", "173604.935000", "173606.425000", "173607.915000", "173609.405000", "173610.895000", "173612.385000", "173613.875000", "173615.365000", "173616.855000", "173618.345000", "173619.835000", "173621.325000", "173622.815000", "173624.305000", "173625.795000", "173627.285000", "173628.775000", "173630.265000", "173631.755000", "173633.245000", "173634.735000", "173636.225000", "173637.715000", "173639.205000", "173640.695000", "173642.185000", "173643.675000", "173645.165000", "173646.655000", "173648.145000", "173649.635000", "173651.125000", "173652.615000", "173654.105000", "173655.595000", "173657.085000", "173658.575000", "173700.065000", "173701.555000"],
      "ContentTime": ["173322.512000", "173322.516000", "173322.520000", "173322.523000", "173322.526000", "173322.529000", "173322.533000", "173322.536000", "173322.539000", "173342.482000", "173342.486000", "173342.489000", "173342.493000", "173342.496000", "173342.499000", "173342.503000", "173342.506000", "173342.509000", "173342.512000", "173342.516000", "173342.519000", "173342.522000", "173342.526000", "173342.529000", "173342.532000", "173342.535000", "173342.539000", "173342.542000", "173342.545000", "173402.482000", "173402.486000", "173402.489000", "173402.492000", "173402.505000", "173402.509000", "173402.512000", "173402.515000", "173402.518000", "173402.522000", "173402.525000", "173402.528000", "173402.532000", "173402.538000", "173402.541000", "173402.544000", "173402.548000", "173402.551000", "173402.554000", "173402.558000", "173422.481000", "173422.485000", "173422.488000", "173422.491000", "173422.495000", "173422.498000", "173422.501000", "173422.505000", "173422.508000", "173422.511000", "173422.515000", "173422.518000", "173422.521000", "173422.525000", "173422.528000", "173422.531000", "173422.534000", "173422.538000", "173422.541000", "173422.544000", "173442.481000", "173442.485000", "173442.488000", "173442.491000", "173442.494000", "173442.498000", "173442.501000", "173442.504000", "173442.507000", "173442.511000", "173442.514000", "173442.517000", "173442.525000", "173442.529000", "173442.532000", "173442.535000", "173442.538000", "173442.542000", "173442.545000", "173442.548000", "173442.551000", "173522.481000", "173522.485000", "173522.507000", "173522.510000", "173522.514000", "173522.517000", "173522.520000", "173522.523000", "173522.527000", "173522.530000", "173522.533000", "173522.536000", "173522.540000", "173522.543000", "173522.546000", "173522.549000", "173522.553000", "173522.556000", "173522.559000", "173522.563000", "173522.566000", "173522.569000", "173522.572000", "173522.576000", "173522.579000", "173522.582000", "173522.586000", "173522.589000", "173522.592000", "173522.595000", "173522.599000", "173522.602000", "173602.483000", "173602.487000", "173602.490000", "173602.494000", "173602.497000", "173602.500000", "173602.503000", "173602.514000", "173602.517000", "173602.520000", "173602.523000", "173602.527000", "173602.530000", "173602.533000", "173602.537000", "173602.540000", "173602.543000", "173602.547000", "173602.550000", "173602.554000", "173602.557000", "173602.560000", "173602.563000", "173602.567000", "173602.570000", "173602.573000", "173642.481000", "173642.495000", "173642.499000", "173642.502000", "173642.505000", "173642.509000", "173642.512000", "173642.515000", "173642.518000", "173642.522000", "173642.525000", "173642.528000", "173642.532000", "173642.535000", "173642.538000", "173642.541000", "173642.545000", "173642.548000", "173642.551000", "173642.554000", "173642.558000", "173642.561000", "173642.565000", "173642.568000", "173642.571000", "173642.575000", "173642.578000", "173703.764000", "173703.768000", "173703.772000", "173703.775000", "173703.779000", "173703.782000", "173703.785000", "173703.789000", "173703.792000", "173703.795000", "173703.798000", "173703.802000", "173703.805000", "173703.808000", "173703.812000"],
      "InstanceCreationTime": ["173322.512000", "173322.516000", "173322.520000", "173322.523000", "173322.526000", "173322.529000", "173322.533000", "173322.536000", "173322.539000", "173342.482000", "173342.486000", "173342.489000", "173342.493000", "173342.496000", "173342.499000", "173342.503000", "173342.506000", "173342.509000", "173342.512000", "173342.516000", "173342.519000", "173342.522000", "173342.526000", "173342.529000", "173342.532000", "173342.535000", "173342.539000", "173342.542000", "173342.545000", "173402.482000", "173402.486000", "173402.489000", "173402.492000", "173402.505000", "173402.509000", "173402.512000", "173402.515000", "173402.518000", "173402.522000", "173402.525000", "173402.528000", "173402.532000", "173402.538000", "173402.541000", "173402.544000", "173402.548000", "173402.551000", "173402.554000", "173402.558000", "173422.481000", "173422.485000", "173422.488000", "173422.491000", "173422.495000", "173422.498000", "173422.501000", "173422.505000", "173422.508000", "173422.511000", "173422.515000", "173422.518000", "173422.521000", "173422.525000", "173422.528000", "173422.531000", "173422.534000", "173422.538000", "173422.541000", "173422.544000", "173442.481000", "173442.485000", "173442.488000", "173442.491000", "173442.494000", "173442.498000", "173442.501000", "173442.504000", "173442.507000", "173442.511000", "173442.514000", "173442.517000", "173442.525000", "173442.529000", "173442.532000", "173442.535000", "173442.538000", "173442.542000", "173442.545000", "173442.548000", "173442.551000", "173522.481000", "173522.485000", "173522.507000", "173522.510000", "173522.514000", "173522.517000", "173522.520000", "173522.523000", "173522.527000", "173522.530000", "173522.533000", "173522.536000", "173522.540000", "173522.543000", "173522.546000", "173522.549000", "173522.553000", "173522.556000", "173522.559000", "173522.563000", "173522.566000", "173522.569000", "173522.572000", "173522.576000", "173522.579000", "173522.582000", "173522.586000", "173522.589000", "173522.592000", "173522.595000", "173522.599000", "173522.602000", "173602.483000", "173602.487000", "173602.490000", "173602.494000", "173602.497000", "173602.500000", "173602.503000", "173602.514000", "173602.517000", "173602.520000", "173602.523000", "173602.527000", "173602.530000", "173602.533000", "173602.537000", "173602.540000", "173602.543000", "173602.547000", "173602.550000", "173602.554000", "173602.557000", "173602.560000", "173602.563000", "173602.567000", "173602.570000", "173602.573000", "173642.481000", "173642.495000", "173642.499000", "173642.502000", "173642.505000", "173642.509000", "173642.512000", "173642.515000", "173642.518000", "173642.522000", "173642.525000", "173642.528000", "173642.532000", "173642.535000", "173642.538000", "173642.541000", "173642.545000", "173642.548000", "173642.551000", "173642.554000", "173642.558000", "173642.561000", "173642.565000", "173642.568000", "173642.571000", "173642.575000", "173642.578000", "173703.764000", "173703.768000", "173703.772000", "173703.775000", "173703.779000", "173703.782000", "173703.785000", "173703.789000", "173703.792000", "173703.795000", "173703.798000", "173703.802000", "173703.805000", "173703.808000", "173703.812000"],
      "InstanceNumber": [1, 2, 3, 4, 5, 6, 7, 8, 9, 10, 11, 12, 13, 14, 15, 16, 17, 18, 19, 20, 21, 22, 23, 24, 25, 26, 27, 28, 29, 30, 31, 32, 33, 34, 35, 36, 37, 38, 39, 40, 41, 42, 43, 44, 45, 46, 47, 48, 49, 50, 51, 52, 53, 54, 55, 56, 57, 58, 59, 60, 61, 62, 63, 64, 65, 66, 67, 68, 69, 70, 71, 72, 73, 74, 75, 76, 77, 78, 79, 80, 81, 82, 83, 84, 85, 86, 87, 88, 89, 90, 91, 92, 93, 94, 95, 96, 97, 98, 99, 100, 101, 102, 103, 104, 105, 106, 107, 108, 109, 110, 111, 112, 113, 114, 115, 116, 117, 118, 119, 120, 121, 122, 123, 124, 125, 126, 127, 128, 129, 130, 131, 132, 133, 134, 135, 136, 137, 138, 139, 140, 141, 142, 143, 144, 145, 146, 147, 148, 149, 150, 151, 152, 153, 154, 155, 156, 157, 158, 159, 160, 161, 162, 163, 164, 165, 166, 167, 168, 169, 170, 171, 172, 173, 174, 175, 176, 177, 178, 179, 180, 181, 182, 183, 184, 185, 186, 187, 188, 189, 190],
      "LargestImagePixelValue": [42843, 40575, 41281, 42758, 41723, 40351, 41300, 41111, 40079, 41419, 42106, 40702, 41618, 42350, 40496, 41712, 42120, 41647, 41918, 41443, 44018, 42090, 44603, 40841, 41258, 41936, 40722, 40749, 41176, 39837, 41310, 41283, 40883, 40045, 42527, 39711, 39634, 39755, 40688, 39787, 38731, 38150, 38930, 40154, 39097, 40263, 40978, 40194, 47066, 40627, 39786, 43607, 40368, 39746, 43040, 38166, 38755, 37707, 39209, 39602, 39002, 45794, 49332, 37509, 38892, 39122, 39678, 39219, 38438, 40292, 43979, 38162, 38153, 39687, 40072, 38531, 39500, 41599, 37950, 39632, 47576, 44126, 39428, 38573, 39584, 40009, 42255, 40034, 43684, 42159, 40395, 38193, 38207, 40322, 38683, 42849, 37777, 38793, 39277, 38406, 38992, 38051, 37673, 38385, 39213, 51165, 39629, 41982, 42052, 39859, 39622, 43394, 48939, 40852, 46040, 44173, 41691, 48298, 38541, 39204, 39032, 45698, 41072, 39304, 39369, 40598, 39760, 43330, 40067, 39903, 41087, 41862, 38497, 41857, 41265, 41816, 39792, 40309, 44085, 41470, 39913, 39180, 39227, 39091, 39138, 41315, 41338, 42063, 42095, 41151, 41328, 44699, 40397, 40919, 41480, 40819, 41248, 40994, 41047, 42652, 41341, 40868, 38831, 41906, 41542, 50127, 45006, 42739, 45506, 40100, 38996, 38796, 40069, 40873, 40011, 41067, 40707, 41695, 41255, 45988, 42236, 41062, 42291, 42620, 40615, 39841, 40485, 41226, 42418, 42436],
      "WindowCenter": [10492.0, 10427.0, 10409.0, 10431.0, 10426.0, 10400.0, 10408.0, 10412.0, 10408.0, 10417.0, 10444.0, 10423.0, 10416.0, 10413.0, 10395.0, 10403.0, 10408.0, 10396.0, 10391.0, 10403.0, 10428.0, 10411.0, 10448.0, 10420.0, 10419.0, 10420.0, 10412.0, 10403.0, 10416.0, 10425.0, 10429.0, 10429.0, 10415.0, 10384.0, 10418.0, 10399.0, 10417.0, 10436.0, 10441.0, 10428.0, 10391.0, 10371.0, 10362.0, 10361.0, 10358.0, 10366.0, 10396.0, 10411.0, 10488.0, 10435.0, 10416.0, 10446.0, 10413.0, 10402.0, 10431.0, 10375.0, 10381.0, 10378.0, 10401.0, 10410.0, 10407.0, 10463.0, 10484.0, 10364.0, 10384.0, 10403.0, 10427.0, 10409.0, 10395.0, 10412.0, 10439.0, 10375.0, 10386.0, 10406.0, 10424.0, 10412.0, 10412.0, 10442.0, 10385.0, 10391.0, 10462.0, 10448.0, 10393.0, 10398.0, 10416.0, 10442.0, 10458.0, 10419.0, 10427.0, 10390.0, 10339.0, 10345.0, 10367.0, 10445.0, 10442.0, 10466.0, 10390.0, 10364.0, 10357.0, 10342.0, 10343.0, 10361.0, 10381.0, 10388.0, 10362.0, 10492.0, 10393.0, 10411.0, 10383.0, 10350.0, 10369.0, 10272.0, 10517.0, 10424.0, 10471.0, 10449.0, 10404.0, 10438.0, 10349.0, 10358.0, 10394.0, 10470.0, 10426.0, 10397.0, 10375.0, 10381.0, 10375.0, 10442.0, 10421.0, 10424.0, 10420.0, 10418.0, 10370.0, 10417.0, 10430.0, 10437.0, 10391.0, 10390.0, 10387.0, 10339.0, 10337.0, 10327.0, 10342.0, 10370.0, 10405.0, 10449.0, 10469.0, 10456.0, 10445.0, 10418.0, 10397.0, 10428.0, 10379.0, 10380.0, 10391.0, 10379.0, 10368.0, 10367.0, 10360.0, 10372.0, 10352.0, 10368.0, 10348.0, 10401.0, 10404.0, 10445.0, 10453.0, 10379.0, 10403.0, 10340.0, 10332.0, 10340.0, 10369.0, 10422.0, 10424.0, 10412.0, 10378.0, 10366.0, 10342.0, 10404.0, 10381.0, 10381.0, 10407.0, 10384.0, 10348.0, 10339.0, 10352.0, 10372.0, 10387.0, 10378.0],
      "WindowWidth": [22299.0, 22136.0, 22080.0, 22123.0, 22113.0, 22055.0, 22065.0, 22079.0, 22071.0, 22084.0, 22146.0, 22103.0, 22080.0, 22085.0, 22041.0, 22054.0, 22064.0, 22038.0, 22022.0, 22060.0, 22118.0, 22074.0, 22157.0, 22101.0, 22100.0, 22094.0, 22087.0, 22058.0, 22087.0, 22113.0, 22118.0, 22119.0, 22091.0, 22024.0, 22097.0, 22059.0, 22101.0, 22142.0, 22149.0, 22122.0, 22040.0, 21996.0, 21970.0, 21965.0, 21962.0, 21974.0, 22049.0, 22079.0, 22246.0, 22132.0, 22092.0, 22156.0, 22088.0, 22065.0, 22122.0, 22006.0, 22018.0, 22018.0, 22062.0, 22083.0, 22078.0, 22195.0, 22228.0, 21984.0, 22021.0, 22069.0, 22118.0, 22085.0, 22052.0, 22081.0, 22143.0, 22007.0, 22040.0, 22069.0, 22111.0, 22094.0, 22083.0, 22156.0, 22030.0, 22036.0, 22177.0, 22160.0, 22050.0, 22059.0, 22096.0, 22157.0, 22190.0, 22105.0, 22107.0, 22026.0, 21913.0, 21932.0, 21987.0, 22161.0, 22159.0, 22208.0, 22039.0, 21976.0, 21967.0, 21927.0, 21933.0, 21978.0, 22023.0, 22035.0, 21970.0, 22251.0, 22049.0, 22083.0, 22015.0, 21939.0, 21982.0, 21767.0, 22307.0, 22113.0, 22209.0, 22166.0, 22066.0, 22117.0, 21943.0, 21961.0, 22047.0, 22199.0, 22121.0, 22065.0, 22012.0, 22010.0, 22001.0, 22150.0, 22109.0, 22115.0, 22109.0, 22094.0, 21994.0, 22095.0, 22132.0, 22145.0, 22045.0, 22037.0, 22009.0, 21906.0, 21907.0, 21887.0, 21918.0, 21983.0, 22067.0, 22160.0, 22208.0, 22170.0, 22148.0, 22088.0, 22037.0, 22107.0, 22004.0, 21998.0, 22026.0, 21995.0, 21970.0, 21970.0, 21951.0, 21986.0, 21943.0, 21975.0, 21944.0, 22055.0, 22056.0, 22139.0, 22162.0, 21996.0, 22038.0, 21916.0, 21894.0, 21911.0, 21978.0, 22093.0, 22105.0, 22068.0, 21997.0, 21972.0, 21907.0, 22047.0, 22005.0, 22005.0, 22060.0, 22014.0, 21924.0, 21907.0, 21932.0, 21988.0, 22013.0, 21999.0]
    },
    "slices": {}
  }
}