{
  "AcquisitionMatrixPE": 104,
  "AcquisitionNumber": 1,
  "AcquisitionTime": "18:19:27.802500",
  "BandwidthPerPixelPhaseEncode": 17.17,
  "BaseResolution": 104,
  "BodyPartExamined": "BRAIN",
  "CoilString": "HC1-7;NC1_2",
  "ConsistencyInfo": "N4_VE11C_LATEST_20160120",
  "ConversionSoftware": "dcm2niix",
  "ConversionSoftwareVersion": "v1.0.20190902",
  "DerivedVendorReportedEchoSpacing": 0.000560011,
  "DeviceSerialNumber": "167006",
  "DwellTime": 2.1e-06,
  "EchoTime": 0.037,
  "EchoTrainLength": 104,
  "EffectiveEchoSpacing": 0.000560011,
  "FlipAngle": 52,
  "HeudiconvVersion": "0.10.0",
  "ImageComments": "Unaliased_MB4_PE3_LB",
  "ImageOrientationPatientDICOM": [0.996017, 0.0803776, 0.0386044, -0.0610935, 0.930506, -0.361144],
  "ImageType": [
    "ORIGINAL",
    "PRIMARY",
    "M",
    "MB",
    "ND",
    "MOSAIC"
],
  "ImagingFrequency": 123.259,
  "InPlanePhaseEncodingDirectionDICOM": "COL",
  "InstitutionAddress": "Chemin_Queen-Mary_4565_Montreal_District_CA_H3W_1W5",
  "InstitutionName": "IUGM",
  "InstitutionalDepartmentName": "Department",
  "MRAcquisitionType": "2D",
  "MagneticFieldStrength": 3,
  "Manufacturer": "Siemens",
  "ManufacturersModelName": "Prisma_fit",
  "Modality": "MR",
  "MultibandAccelerationFactor": 4,
  "PartialFourier": 1,
  "PatientPosition": "HFS",
  "PercentPhaseFOV": 100,
  "PhaseEncodingDirection": "j",
  "PhaseEncodingSteps": 104,
  "PhaseResolution": 1,
  "PixelBandwidth": 2290,
  "ProcedureStepDescription": "memory_things",
  "ProtocolName": "func_task-things_run-6",
  "PulseSequenceDetails": "%CustomerSeq%_cmrr_mbep2d_bold",
  "ReceiveCoilActiveElements": "HC1-7;NC1,2",
  "ReceiveCoilName": "HeadNeck_64",
  "ReconMatrixPE": 104,
  "RepetitionTime": 1.49,
  "SAR": 0.0580043,
  "ScanOptions": "FS",
  "ScanningSequence": "EP",
  "SequenceName": "epfid2d1_104",
  "SequenceVariant": "SK_SS",
  "SeriesDescription": "func_task-things_run-6",
  "SeriesNumber": 33,
  "ShimSetting": [636, -7184, -8828, 632, 90, 54, -52, -7],
  "SliceThickness": 2,
  "SliceTiming": [0, 0.7825, 0.0975, 0.88, 0.195, 0.98, 0.2925, 1.0775, 0.39, 1.175, 0.49, 1.2725, 0.5875, 1.37, 0.685, 0, 0.7825, 0.0975, 0.88, 0.195, 0.98, 0.2925, 1.0775, 0.39, 1.175, 0.49, 1.2725, 0.5875, 1.37, 0.685, 0, 0.7825, 0.0975, 0.88, 0.195, 0.98, 0.2925, 1.0775, 0.39, 1.175, 0.49, 1.2725, 0.5875, 1.37, 0.685, 0, 0.7825, 0.0975, 0.88, 0.195, 0.98, 0.2925, 1.0775, 0.39, 1.175, 0.49, 1.2725, 0.5875, 1.37, 0.685],
  "SoftwareVersions": "syngo_MR_E11",
  "SpacingBetweenSlices": 2,
  "StationName": "MRC35049",
  "TaskName": "things",
  "TotalReadoutTime": 0.0576811,
  "TxRefAmp": 284.473,
  "WipMemBlock": "880ac88a-ddff-4941-a800-2545383008bd||Sequence: R016 ve11c/master r/e634e98; Dec 19 2017 11:00:25 by eja",
  "dcmmeta_affine": [
    [-1.9920332431793213, -0.12218700349330902, 0.12989921867847443, 108.95304870605469],
    [-0.16075529158115387, 1.8610129356384277, -0.7146947383880615, -51.80233383178711],
    [0.07720885425806046, 0.7222887873649597, 1.8634209632873535, -66.84254455566406],
    [0.0, 0.0, 0.0, 1.0]
],
  "dcmmeta_reorient_transform": [
    [0.0, -1.0, 0.0, 103.0],
    [1.0, 0.0, 0.0, 0.0],
    [0.0, 0.0, 1.0, 0.0],
    [0.0, 0.0, 0.0, 1.0]
],
  "dcmmeta_shape": [104, 104, 60, 190],
  "dcmmeta_slice_dim": 2,
  "dcmmeta_version": 0.6,
  "global": {
    "const": {
      "AcquisitionMatrix": [104, 0, 0, 104],
      "AngioFlag": "N",
      "BitsAllocated": 16,
      "BitsStored": 16,
      "BodyPartExamined": "BRAIN",
      "Columns": 832,
      "EchoNumbers": 1,
      "EchoTime": 37.0,
      "EchoTrainLength": 104,
      "FlipAngle": 52.0,
      "HighBit": 15,
      "ImageOrientationPatient": [0.99601663261273, 0.08037764440249, 0.03860442771384, -0.0610935034108, 0.93050647607814, -0.3611444057682],
      "ImagePositionPatient": [-776.99182782403, -875.80564164565, 242.36230448107],
      "ImageType": [
        "ORIGINAL",
        "PRIMARY",
        "M",
        "MB",
        "ND",
        "MOSAIC"
],
      "ImagedNucleus": "1H",
      "ImagingFrequency": 123.258897,
      "InPlanePhaseEncodingDirection": "COL",
      "MRAcquisitionType": "2D",
      "MagneticFieldStrength": 3.0,
      "Manufacturer": "SIEMENS",
      "ManufacturerModelName": "Prisma_fit",
      "Modality": "MR",
      "NumberOfAverages": 1.0,
      "NumberOfPhaseEncodingSteps": 104,
      "PercentPhaseFieldOfView": 100.0,
      "PercentSampling": 100.0,
      "PerformedProcedureStepStartTime": "170217.592000",
      "PhotometricInterpretation": "MONOCHROME2",
      "PixelBandwidth": 2290.0,
      "PixelRepresentation": 0,
      "PixelSpacing": [2.0, 2.0],
      "ProtocolName": "func_task-things_run-6",
      "RepetitionTime": 1490.0,
      "Rows": 832,
      "SAR": 0.05800433708873,
      "SamplesPerPixel": 1,
      "ScanOptions": "FS",
      "ScanningSequence": "EP",
      "SequenceName": "epfid2d1_104",
      "SequenceVariant": [
        "SK",
        "SS"
],
      "SeriesDescription": "func_task-things_run-6",
      "SeriesNumber": 33,
      "SeriesTime": "182052.893000",
      "SliceLocation": -36.690017378811,
      "SliceThickness": 2.0,
      "SmallestImagePixelValue": 0,
      "SoftwareVersions": "syngo MR E11",
      "SpacingBetweenSlices": 2.0000000390516,
      "SpecificCharacterSet": "ISO_IR 100",
      "StudyID": "1",
      "StudyTime": "170217.435000",
      "TransmitCoilName": "Body",
      "VariableFlipAngleFlag": "N",
      "WindowCenterWidthExplanation": "Algo1",
      "dBdt": 0.0},
    "slices": {}
  },
  "time": {
    "samples": {
      "AcquisitionNumber": [1, 2, 3, 4, 5, 6, 7, 8, 9, 10, 11, 12, 13, 14, 15, 16, 17, 18, 19, 20, 21, 22, 23, 24, 25, 26, 27, 28, 29, 30, 31, 32, 33, 34, 35, 36, 37, 38, 39, 40, 41, 42, 43, 44, 45, 46, 47, 48, 49, 50, 51, 52, 53, 54, 55, 56, 57, 58, 59, 60, 61, 62, 63, 64, 65, 66, 67, 68, 69, 70, 71, 72, 73, 74, 75, 76, 77, 78, 79, 80, 81, 82, 83, 84, 85, 86, 87, 88, 89, 90, 91, 92, 93, 94, 95, 96, 97, 98, 99, 100, 101, 102, 103, 104, 105, 106, 107, 108, 109, 110, 111, 112, 113, 114, 115, 116, 117, 118, 119, 120, 121, 122, 123, 124, 125, 126, 127, 128, 129, 130, 131, 132, 133, 134, 135, 136, 137, 138, 139, 140, 141, 142, 143, 144, 145, 146, 147, 148, 149, 150, 151, 152, 153, 154, 155, 156, 157, 158, 159, 160, 161, 162, 163, 164, 165, 166, 167, 168, 169, 170, 171, 172, 173, 174, 175, 176, 177, 178, 179, 180, 181, 182, 183, 184, 185, 186, 187, 188, 189, 190],
      "AcquisitionTime": ["181927.802500", "181929.292500", "181930.782500", "181932.272500", "181933.762500", "181935.252500", "181936.742500", "181938.232500", "181939.722500", "181941.212500", "181942.702500", "181944.192500", "181945.682500", "181947.172500", "181948.662500", "181950.152500", "181951.642500", "181953.132500", "181954.622500", "181956.112500", "181957.602500", "181959.092500", "182000.582500", "182002.072500", "182003.562500", "182005.052500", "182006.542500", "182008.032500", "182009.522500", "182011.012500", "182012.502500", "182013.992500", "182015.482500", "182016.972500", "182018.462500", "182019.952500", "182021.442500", "182022.932500", "182024.422500", "182025.912500", "182027.402500", "182028.892500", "182030.382500", "182031.872500", "182033.362500", "182034.852500", "182036.342500", "182037.832500", "182039.322500", "182040.812500", "182042.302500", "182043.792500", "182045.282500", "182046.772500", "182048.262500", "182049.752500", "182051.242500", "182052.732500", "182054.222500", "182055.712500", "182057.202500", "182058.692500", "182100.182500", "182101.672500", "182103.162500", "182104.652500", "182106.142500", "182107.632500", "182109.122500", "182110.612500", "182112.102500", "182113.592500", "182115.082500", "182116.572500", "182118.062500", "182119.552500", "182121.042500", "182122.532500", "182124.022500", "182125.512500", "182127.002500", "182128.492500", "182129.982500", "182131.472500", "182132.962500", "182134.452500", "182135.942500", "182137.432500", "182138.922500", "182140.412500", "182141.902500", "182143.392500", "182144.882500", "182146.372500", "182147.862500", "182149.352500", "182150.842500", "182152.332500", "182153.822500", "182155.312500", "182156.802500", "182158.292500", "182159.782500", "182201.272500", "182202.762500", "182204.252500", "182205.742500", "182207.232500", "182208.722500", "182210.212500", "182211.702500", "182213.192500", "182214.682500", "182216.172500", "182217.662500", "182219.152500", "182220.642500", "182222.132500", "182223.622500", "182225.112500", "182226.602500", "182228.092500", "182229.582500", "182231.072500", "182232.562500", "182234.052500", "182235.542500", "182237.032500", "182238.522500", "182240.012500", "182241.502500", "182242.992500", "182244.482500", "182245.972500", "182247.462500", "182248.952500", "182250.442500", "182251.932500", "182253.422500", "182254.912500", "182256.402500", "182257.892500", "182259.382500", "182300.872500", "182302.362500", "182303.852500", "182305.342500", "182306.832500", "182308.322500", "182309.812500", "182311.302500", "182312.792500", "182314.282500", "182315.772500", "182317.262500", "182318.752500", "182320.242500", "182321.732500", "182323.222500", "182324.712500", "182326.202500", "182327.692500", "182329.182500", "182330.672500", "182332.162500", "182333.652500", "182335.142500", "182336.632500", "182338.122500", "182339.612500", "182341.102500", "182342.592500", "182344.082500", "182345.572500", "182347.062500", "182348.552500", "182350.042500", "182351.532500", "182353.022500", "182354.512500", "182356.002500", "182357.492500", "182358.982500", "182400.472500", "182401.962500", "182403.452500", "182404.942500", "182406.432500", "182407.922500", "182409.412500"],
      "ContentTime": ["182052.897000", "182052.900000", "182052.909000", "182052.913000", "182052.917000", "182052.920000", "182052.923000", "182052.927000", "182052.930000", "182052.933000", "182052.936000", "182052.940000", "182052.943000", "182052.946000", "182052.949000", "182052.953000", "182052.956000", "182052.959000", "182052.962000", "182052.966000", "182052.969000", "182052.972000", "182052.976000", "182052.979000", "182052.982000", "182052.985000", "182052.989000", "182052.992000", "182052.995000", "182053.000000", "182053.003000", "182112.853000", "182112.857000", "182112.860000", "182112.863000", "182112.866000", "182112.870000", "182112.873000", "182112.876000", "182112.879000", "182112.883000", "182112.886000", "182112.889000", "182112.892000", "182112.895000", "182112.899000", "182112.902000", "182112.905000", "182112.915000", "182112.918000", "182112.922000", "182112.925000", "182132.853000", "182132.857000", "182132.860000", "182132.863000", "182132.866000", "182132.870000", "182132.873000", "182132.895000", "182132.898000", "182132.901000", "182132.905000", "182132.908000", "182132.911000", "182132.915000", "182132.918000", "182132.921000", "182132.925000", "182132.928000", "182132.931000", "182132.935000", "182152.853000", "182152.857000", "182152.860000", "182152.863000", "182152.867000", "182152.870000", "182152.873000", "182152.877000", "182152.880000", "182152.883000", "182152.886000", "182152.890000", "182152.893000", "182152.896000", "182152.900000", "182152.903000", "182152.906000", "182152.909000", "182152.913000", "182152.916000", "182212.852000", "182212.856000", "182212.859000", "182212.862000", "182212.865000", "182212.869000", "182212.872000", "182212.875000", "182212.879000", "182212.882000", "182212.885000", "182212.888000", "182212.892000", "182212.895000", "182212.898000", "182212.901000", "182212.904000", "182212.908000", "182252.852000", "182252.856000", "182252.859000", "182252.862000", "182252.865000", "182252.869000", "182252.872000", "182252.875000", "182252.878000", "182252.882000", "182252.885000", "182252.888000", "182252.891000", "182252.895000", "182252.898000", "182252.901000", "182252.904000", "182252.908000", "182252.911000", "182252.914000", "182252.917000", "182252.921000", "182252.932000", "182252.935000", "182252.939000", "182252.942000", "182252.945000", "182332.853000", "182332.857000", "182332.860000", "182332.863000", "182332.867000", "182332.870000", "182332.873000", "182332.876000", "182332.880000", "182332.883000", "182332.886000", "182332.890000", "182332.893000", "182332.896000", "182332.899000", "182332.903000", "182332.906000", "182332.909000", "182332.913000", "182332.916000", "182332.919000", "182332.922000", "182332.926000", "182332.929000", "182332.932000", "182332.935000", "182332.939000", "182411.282000", "182411.285000", "182411.297000", "182411.300000", "182411.304000", "182411.307000", "182411.310000", "182411.314000", "182411.317000", "182411.320000", "182411.323000", "182411.327000", "182411.330000", "182411.333000", "182411.336000", "182411.340000", "182411.343000", "182411.346000", "182411.350000", "182411.353000", "182411.356000", "182411.360000", "182411.363000", "182411.366000", "182411.369000", "182411.373000"],
      "InstanceCreationTime": ["182052.897000", "182052.900000", "182052.909000", "182052.913000", "182052.917000", "182052.920000", "182052.923000", "182052.927000", "182052.930000", "182052.933000", "182052.936000", "182052.940000", "182052.943000", "182052.946000", "182052.949000", "182052.953000", "182052.956000", "182052.959000", "182052.962000", "182052.966000", "182052.969000", "182052.972000", "182052.976000", "182052.979000", "182052.982000", "182052.985000", "182052.989000", "182052.992000", "182052.995000", "182053.000000", "182053.003000", "182112.853000", "182112.857000", "182112.860000", "182112.863000", "182112.866000", "182112.870000", "182112.873000", "182112.876000", "182112.879000", "182112.883000", "182112.886000", "182112.889000", "182112.892000", "182112.895000", "182112.899000", "182112.902000", "182112.905000", "182112.915000", "182112.918000", "182112.922000", "182112.925000", "182132.853000", "182132.857000", "182132.860000", "182132.863000", "182132.866000", "182132.870000", "182132.873000", "182132.895000", "182132.898000", "182132.901000", "182132.905000", "182132.908000", "182132.911000", "182132.915000", "182132.918000", "182132.921000", "182132.925000", "182132.928000", "182132.931000", "182132.935000", "182152.853000", "182152.857000", "182152.860000", "182152.863000", "182152.867000", "182152.870000", "182152.873000", "182152.877000", "182152.880000", "182152.883000", "182152.886000", "182152.890000", "182152.893000", "182152.896000", "182152.900000", "182152.903000", "182152.906000", "182152.909000", "182152.913000", "182152.916000", "182212.852000", "182212.856000", "182212.859000", "182212.862000", "182212.865000", "182212.869000", "182212.872000", "182212.875000", "182212.879000", "182212.882000", "182212.885000", "182212.888000", "182212.892000", "182212.895000", "182212.898000", "182212.901000", "182212.904000", "182212.908000", "182252.852000", "182252.856000", "182252.859000", "182252.862000", "182252.865000", "182252.869000", "182252.872000", "182252.875000", "182252.878000", "182252.882000", "182252.885000", "182252.888000", "182252.891000", "182252.895000", "182252.898000", "182252.901000", "182252.904000", "182252.908000", "182252.911000", "182252.914000", "182252.917000", "182252.921000", "182252.932000", "182252.935000", "182252.939000", "182252.942000", "182252.945000", "182332.853000", "182332.857000", "182332.860000", "182332.863000", "182332.867000", "182332.870000", "182332.873000", "182332.876000", "182332.880000", "182332.883000", "182332.886000", "182332.890000", "182332.893000", "182332.896000", "182332.899000", "182332.903000", "182332.906000", "182332.909000", "182332.913000", "182332.916000", "182332.919000", "182332.922000", "182332.926000", "182332.929000", "182332.932000", "182332.935000", "182332.939000", "182411.282000", "182411.285000", "182411.297000", "182411.300000", "182411.304000", "182411.307000", "182411.310000", "182411.314000", "182411.317000", "182411.320000", "182411.323000", "182411.327000", "182411.330000", "182411.333000", "182411.336000", "182411.340000", "182411.343000", "182411.346000", "182411.350000", "182411.353000", "182411.356000", "182411.360000", "182411.363000", "182411.366000", "182411.369000", "182411.373000"],
      "InstanceNumber": [1, 2, 3, 4, 5, 6, 7, 8, 9, 10, 11, 12, 13, 14, 15, 16, 17, 18, 19, 20, 21, 22, 23, 24, 25, 26, 27, 28, 29, 30, 31, 32, 33, 34, 35, 36, 37, 38, 39, 40, 41, 42, 43, 44, 45, 46, 47, 48, 49, 50, 51, 52, 53, 54, 55, 56, 57, 58, 59, 60, 61, 62, 63, 64, 65, 66, 67, 68, 69, 70, 71, 72, 73, 74, 75, 76, 77, 78, 79, 80, 81, 82, 83, 84, 85, 86, 87, 88, 89, 90, 91, 92, 93, 94, 95, 96, 97, 98, 99, 100, 101, 102, 103, 104, 105, 106, 107, 108, 109, 110, 111, 112, 113, 114, 115, 116, 117, 118, 119, 120, 121, 122, 123, 124, 125, 126, 127, 128, 129, 130, 131, 132, 133, 134, 135, 136, 137, 138, 139, 140, 141, 142, 143, 144, 145, 146, 147, 148, 149, 150, 151, 152, 153, 154, 155, 156, 157, 158, 159, 160, 161, 162, 163, 164, 165, 166, 167, 168, 169, 170, 171, 172, 173, 174, 175, 176, 177, 178, 179, 180, 181, 182, 183, 184, 185, 186, 187, 188, 189, 190],
      "LargestImagePixelValue": [41755, 39486, 39100, 39645, 40399, 40132, 41423, 39102, 38432, 38238, 38198, 38370, 39375, 38181, 39425, 38242, 38907, 41394, 38126, 39808, 39993, 39488, 39433, 38671, 38368, 38006, 39604, 46597, 39957, 38885, 38568, 37182, 37834, 37943, 39604, 37275, 39766, 39825, 39853, 39783, 39457, 38632, 38467, 38860, 39366, 37898, 38278, 38121, 37875, 38451, 38614, 38500, 38935, 38994, 39399, 38440, 38173, 39132, 39995, 38986, 38340, 38323, 39080, 41270, 40977, 38845, 41599, 40152, 40593, 39616, 39816, 40382, 40612, 40604, 40502, 41532, 44429, 40841, 40351, 41083, 41380, 41555, 42568, 39156, 40740, 43946, 49635, 41924, 41829, 42317, 42600, 42088, 41874, 42741, 41494, 41435, 41851, 42921, 41208, 41504, 40943, 40721, 41735, 42222, 42295, 45928, 41893, 41368, 41655, 41458, 41083, 40632, 41190, 41230, 40550, 40770, 44518, 40298, 41207, 47094, 41060, 42224, 41310, 44583, 41609, 41814, 48420, 40786, 40811, 41176, 43860, 41314, 40467, 40910, 45540, 39233, 40423, 39865, 41681, 45561, 39913, 40323, 40383, 40726, 39689, 40197, 40331, 40664, 40720, 44508, 40563, 41817, 40341, 42541, 41193, 55051, 41298, 41428, 42828, 46666, 41647, 41723, 41951, 41064, 40932, 41618, 42184, 40608, 40152, 40875, 41357, 41032, 41408, 40630, 41324, 42671, 40623, 41557, 42581, 41991, 44361, 42867, 44632, 40571, 41103, 42090, 45315, 41996, 51130, 40163],
      "WindowCenter": [10323.0, 10284.0, 10269.0, 10254.0, 10246.0, 10238.0, 10254.0, 10244.0, 10267.0, 10273.0, 10264.0, 10250.0, 10245.0, 10243.0, 10288.0, 10272.0, 10264.0, 10289.0, 10256.0, 10286.0, 10274.0, 10250.0, 10240.0, 10228.0, 10229.0, 10229.0, 10248.0, 10310.0, 10259.0, 10252.0, 10241.0, 10224.0, 10257.0, 10278.0, 10281.0, 10235.0, 10239.0, 10230.0, 10227.0, 10240.0, 10267.0, 10282.0, 10277.0, 10289.0, 10285.0, 10247.0, 10241.0, 10234.0, 10236.0, 10256.0, 10268.0, 10259.0, 10256.0, 10264.0, 10273.0, 10259.0, 10251.0, 10263.0, 10276.0, 10266.0, 10250.0, 10249.0, 10245.0, 10286.0, 10275.0, 10247.0, 10290.0, 10284.0, 10309.0, 10275.0, 10256.0, 10238.0, 10235.0, 10238.0, 10249.0, 10286.0, 10318.0, 10281.0, 10261.0, 10256.0, 10261.0, 10282.0, 10292.0, 10242.0, 10248.0, 10283.0, 10323.0, 10258.0, 10264.0, 10271.0, 10286.0, 10285.0, 10268.0, 10271.0, 10261.0, 10251.0, 10273.0, 10323.0, 10317.0, 10309.0, 10295.0, 10281.0, 10272.0, 10274.0, 10280.0, 10327.0, 10291.0, 10295.0, 10322.0, 10336.0, 10332.0, 10308.0, 10296.0, 10296.0, 10289.0, 10271.0, 10320.0, 10289.0, 10304.0, 10349.0, 10275.0, 10284.0, 10269.0, 10308.0, 10283.0, 10290.0, 10346.0, 10287.0, 10313.0, 10318.0, 10351.0, 10312.0, 10291.0, 10302.0, 10360.0, 10305.0, 10316.0, 10306.0, 10310.0, 10329.0, 10279.0, 10277.0, 10295.0, 10309.0, 10304.0, 10308.0, 10298.0, 10291.0, 10275.0, 10306.0, 10260.0, 10286.0, 10279.0, 10310.0, 10299.0, 10403.0, 10274.0, 10270.0, 10297.0, 10320.0, 10277.0, 10277.0, 10288.0, 10281.0, 10266.0, 10271.0, 10266.0, 10243.0, 10248.0, 10278.0, 10313.0, 10319.0, 10291.0, 10275.0, 10262.0, 10272.0, 10270.0, 10299.0, 10334.0, 10336.0, 10347.0, 10328.0, 10327.0, 10291.0, 10299.0, 10319.0, 10358.0, 10307.0, 10372.0, 10264.0],
      "WindowWidth": [21899.0, 21804.0, 21766.0, 21718.0, 21693.0, 21675.0, 21718.0, 21692.0, 21751.0, 21765.0, 21744.0, 21706.0, 21692.0, 21697.0, 21797.0, 21769.0, 21743.0, 21787.0, 21726.0, 21789.0, 21760.0, 21711.0, 21683.0, 21660.0, 21663.0, 21663.0, 21698.0, 21822.0, 21731.0, 21713.0, 21692.0, 21661.0, 21739.0, 21789.0, 21781.0, 21691.0, 21686.0, 21660.0, 21654.0, 21689.0, 21751.0, 21791.0, 21783.0, 21806.0, 21794.0, 21713.0, 21695.0, 21682.0, 21687.0, 21729.0, 21755.0, 21735.0, 21726.0, 21745.0, 21765.0, 21736.0, 21717.0, 21740.0, 21768.0, 21750.0, 21714.0, 21711.0, 21694.0, 21795.0, 21758.0, 21702.0, 21789.0, 21784.0, 21840.0, 21769.0, 21724.0, 21676.0, 21679.0, 21675.0, 21707.0, 21782.0, 21853.0, 21782.0, 21725.0, 21711.0, 21721.0, 21779.0, 21794.0, 21689.0, 21692.0, 21772.0, 21835.0, 21710.0, 21726.0, 21737.0, 21771.0, 21770.0, 21732.0, 21741.0, 21731.0, 21696.0, 21754.0, 21870.0, 21853.0, 21832.0, 21806.0, 21776.0, 21746.0, 21747.0, 21762.0, 21873.0, 21788.0, 21802.0, 21861.0, 21897.0, 21891.0, 21835.0, 21805.0, 21807.0, 21796.0, 21750.0, 21866.0, 21794.0, 21830.0, 21908.0, 21756.0, 21770.0, 21737.0, 21827.0, 21784.0, 21802.0, 21898.0, 21794.0, 21859.0, 21859.0, 21933.0, 21845.0, 21799.0, 21824.0, 21953.0, 21836.0, 21854.0, 21831.0, 21842.0, 21873.0, 21774.0, 21768.0, 21816.0, 21837.0, 21838.0, 21833.0, 21807.0, 21801.0, 21756.0, 21819.0, 21728.0, 21789.0, 21773.0, 21836.0, 21813.0, 22003.0, 21752.0, 21743.0, 21807.0, 21842.0, 21756.0, 21752.0, 21775.0, 21767.0, 21731.0, 21747.0, 21733.0, 21679.0, 21694.0, 21761.0, 21837.0, 21856.0, 21787.0, 21755.0, 21723.0, 21751.0, 21746.0, 21815.0, 21892.0, 21904.0, 21918.0, 21879.0, 21864.0, 21794.0, 21816.0, 21854.0, 21945.0, 21829.0, 21949.0, 21736.0]
    },
    "slices": {}
  }
}