{
  "AcquisitionMatrixPE": 104,
  "AcquisitionNumber": 1,
  "AcquisitionTime": "17:44:6.147500",
  "BandwidthPerPixelPhaseEncode": 17.17,
  "BaseResolution": 104,
  "BodyPartExamined": "BRAIN",
  "CoilString": "HC1-7;NC1_2",
  "ConsistencyInfo": "N4_VE11C_LATEST_20160120",
  "ConversionSoftware": "dcm2niix",
  "ConversionSoftwareVersion": "v1.0.20190902",
  "DerivedVendorReportedEchoSpacing": 0.000560011,
  "DeviceSerialNumber": "167006",
  "DwellTime": 2.1e-06,
  "EchoTime": 0.037,
  "EchoTrainLength": 104,
  "EffectiveEchoSpacing": 0.000560011,
  "FlipAngle": 52,
  "HeudiconvVersion": "0.10.0",
  "ImageComments": "Unaliased_MB4_PE3_LB",
  "ImageOrientationPatientDICOM": [0.994468, 0.0957469, 0.0431908, -0.0733782, 0.927493, -0.366568],
  "ImageType": [
    "ORIGINAL",
    "PRIMARY",
    "M",
    "MB",
    "ND",
    "MOSAIC"
],
  "ImagingFrequency": 123.259,
  "InPlanePhaseEncodingDirectionDICOM": "COL",
  "InstitutionAddress": "Chemin_Queen-Mary_4565_Montreal_District_CA_H3W_1W5",
  "InstitutionName": "IUGM",
  "InstitutionalDepartmentName": "Department",
  "MRAcquisitionType": "2D",
  "MagneticFieldStrength": 3,
  "Manufacturer": "Siemens",
  "ManufacturersModelName": "Prisma_fit",
  "Modality": "MR",
  "MultibandAccelerationFactor": 4,
  "PartialFourier": 1,
  "PatientPosition": "HFS",
  "PercentPhaseFOV": 100,
  "PhaseEncodingDirection": "j",
  "PhaseEncodingSteps": 104,
  "PhaseResolution": 1,
  "PixelBandwidth": 2290,
  "ProcedureStepDescription": "memory_things",
  "ProtocolName": "func_task-things_run-3",
  "PulseSequenceDetails": "%CustomerSeq%_cmrr_mbep2d_bold",
  "ReceiveCoilActiveElements": "HC1-7;NC1,2",
  "ReceiveCoilName": "HeadNeck_64",
  "ReconMatrixPE": 104,
  "RepetitionTime": 1.49,
  "SAR": 0.069823,
  "ScanOptions": "FS",
  "ScanningSequence": "EP",
  "SequenceName": "epfid2d1_104",
  "SequenceVariant": "SK_SS",
  "SeriesDescription": "func_task-things_run-3",
  "SeriesNumber": 16,
  "ShimSetting": [639, -7188, -8832, 628, 75, 48, -58, 11],
  "SliceThickness": 2,
  "SliceTiming": [0, 0.785, 0.0975, 0.8825, 0.195, 0.98, 0.295, 1.0775, 0.3925, 1.175, 0.49, 1.275, 0.5875, 1.3725, 0.685, 0, 0.785, 0.0975, 0.8825, 0.195, 0.98, 0.295, 1.0775, 0.3925, 1.175, 0.49, 1.275, 0.5875, 1.3725, 0.685, 0, 0.785, 0.0975, 0.8825, 0.195, 0.98, 0.295, 1.0775, 0.3925, 1.175, 0.49, 1.275, 0.5875, 1.3725, 0.685, 0, 0.785, 0.0975, 0.8825, 0.195, 0.98, 0.295, 1.0775, 0.3925, 1.175, 0.49, 1.275, 0.5875, 1.3725, 0.685],
  "SoftwareVersions": "syngo_MR_E11",
  "SpacingBetweenSlices": 2,
  "StationName": "MRC35049",
  "TaskName": "things",
  "TotalReadoutTime": 0.0576811,
  "TxRefAmp": 312.19,
  "WipMemBlock": "3dfbc766-6055-4321-bbca-edd93791ee2a||Sequence: R016 ve11c/master r/e634e98; Dec 19 2017 11:00:25 by eja",
  "dcmmeta_affine": [
    [-1.9889365434646606, -0.14675630629062653, 0.15031380951404572, 109.10713195800781],
    [-0.19149382412433624, 1.8549861907958984, -0.7227421402931213, -49.697479248046875],
    [0.08638154715299606, 0.7331361770629883, 1.858776330947876, -70.28275299072266],
    [0.0, 0.0, 0.0, 1.0]
],
  "dcmmeta_reorient_transform": [
    [0.0, -1.0, 0.0, 103.0],
    [1.0, 0.0, 0.0, 0.0],
    [0.0, 0.0, 1.0, 0.0],
    [0.0, 0.0, 0.0, 1.0]
],
  "dcmmeta_shape": [104, 104, 60, 190],
  "dcmmeta_slice_dim": 2,
  "dcmmeta_version": 0.6,
  "global": {
    "const": {
      "AcquisitionMatrix": [104, 0, 0, 104],
      "AngioFlag": "N",
      "BitsAllocated": 16,
      "BitsStored": 16,
      "BodyPartExamined": "BRAIN",
      "Columns": 832,
      "EchoNumbers": 1,
      "EchoTime": 37.0,
      "EchoTrainLength": 104,
      "FlipAngle": 52.0,
      "HighBit": 15,
      "ImageOrientationPatient": [0.99446824289468, 0.095746910332, 0.04319077489275, -0.0733781505331, 0.92749311699224, -0.3665680904776],
      "ImagePositionPatient": [-764.544820066, -886.28484137513, 240.64896182962],
      "ImageType": [
        "ORIGINAL",
        "PRIMARY",
        "M",
        "MB",
        "ND",
        "MOSAIC"
],
      "ImagedNucleus": "1H",
      "ImagingFrequency": 123.258903,
      "InPlanePhaseEncodingDirection": "COL",
      "MRAcquisitionType": "2D",
      "MagneticFieldStrength": 3.0,
      "Manufacturer": "SIEMENS",
      "ManufacturerModelName": "Prisma_fit",
      "Modality": "MR",
      "NumberOfAverages": 1.0,
      "NumberOfPhaseEncodingSteps": 104,
      "PercentPhaseFieldOfView": 100.0,
      "PercentSampling": 100.0,
      "PerformedProcedureStepStartTime": "170217.592000",
      "PhotometricInterpretation": "MONOCHROME2",
      "PixelBandwidth": 2290.0,
      "PixelRepresentation": 0,
      "PixelSpacing": [2.0, 2.0],
      "ProtocolName": "func_task-things_run-3",
      "RepetitionTime": 1490.0,
      "Rows": 832,
      "SAR": 0.06982297156568,
      "SamplesPerPixel": 1,
      "ScanOptions": "FS",
      "ScanningSequence": "EP",
      "SequenceName": "epfid2d1_104",
      "SequenceVariant": [
        "SK",
        "SS"
],
      "SeriesDescription": "func_task-things_run-3",
      "SeriesNumber": 16,
      "SeriesTime": "174519.881000",
      "SliceLocation": -39.160571474815,
      "SliceThickness": 2.0,
      "SmallestImagePixelValue": 0,
      "SoftwareVersions": "syngo MR E11",
      "SpacingBetweenSlices": 1.9999999466076,
      "SpecificCharacterSet": "ISO_IR 100",
      "StudyID": "1",
      "StudyTime": "170217.435000",
      "TransmitCoilName": "Body",
      "VariableFlipAngleFlag": "N",
      "WindowCenterWidthExplanation": "Algo1",
      "dBdt": 0.0},
    "slices": {}
  },
  "time": {
    "samples": {
      "AcquisitionNumber": [1, 2, 3, 4, 5, 6, 7, 8, 9, 10, 11, 12, 13, 14, 15, 16, 17, 18, 19, 20, 21, 22, 23, 24, 25, 26, 27, 28, 29, 30, 31, 32, 33, 34, 35, 36, 37, 38, 39, 40, 41, 42, 43, 44, 45, 46, 47, 48, 49, 50, 51, 52, 53, 54, 55, 56, 57, 58, 59, 60, 61, 62, 63, 64, 65, 66, 67, 68, 69, 70, 71, 72, 73, 74, 75, 76, 77, 78, 79, 80, 81, 82, 83, 84, 85, 86, 87, 88, 89, 90, 91, 92, 93, 94, 95, 96, 97, 98, 99, 100, 101, 102, 103, 104, 105, 106, 107, 108, 109, 110, 111, 112, 113, 114, 115, 116, 117, 118, 119, 120, 121, 122, 123, 124, 125, 126, 127, 128, 129, 130, 131, 132, 133, 134, 135, 136, 137, 138, 139, 140, 141, 142, 143, 144, 145, 146, 147, 148, 149, 150, 151, 152, 153, 154, 155, 156, 157, 158, 159, 160, 161, 162, 163, 164, 165, 166, 167, 168, 169, 170, 171, 172, 173, 174, 175, 176, 177, 178, 179, 180, 181, 182, 183, 184, 185, 186, 187, 188, 189, 190],
      "AcquisitionTime": ["174406.147500", "174407.637500", "174409.127500", "174410.617500", "174412.107500", "174413.597500", "174415.087500", "174416.577500", "174418.067500", "174419.557500", "174421.047500", "174422.537500", "174424.027500", "174425.517500", "174427.007500", "174428.497500", "174429.987500", "174431.477500", "174432.967500", "174434.457500", "174435.947500", "174437.437500", "174438.927500", "174440.417500", "174441.907500", "174443.397500", "174444.887500", "174446.377500", "174447.867500", "174449.357500", "174450.847500", "174452.337500", "174453.827500", "174455.317500", "174456.807500", "174458.297500", "174459.787500", "174501.277500", "174502.767500", "174504.257500", "174505.747500", "174507.237500", "174508.727500", "174510.217500", "174511.707500", "174513.197500", "174514.687500", "174516.177500", "174517.667500", "174519.157500", "174520.647500", "174522.137500", "174523.627500", "174525.117500", "174526.607500", "174528.097500", "174529.587500", "174531.077500", "174532.567500", "174534.057500", "174535.547500", "174537.037500", "174538.527500", "174540.017500", "174541.507500", "174542.997500", "174544.487500", "174545.977500", "174547.467500", "174548.957500", "174550.447500", "174551.937500", "174553.427500", "174554.917500", "174556.407500", "174557.897500", "174559.387500", "174600.877500", "174602.367500", "174603.857500", "174605.347500", "174606.837500", "174608.327500", "174609.817500", "174611.307500", "174612.797500", "174614.287500", "174615.777500", "174617.267500", "174618.757500", "174620.247500", "174621.737500", "174623.227500", "174624.717500", "174626.207500", "174627.697500", "174629.187500", "174630.677500", "174632.167500", "174633.657500", "174635.147500", "174636.637500", "174638.127500", "174639.617500", "174641.107500", "174642.597500", "174644.087500", "174645.577500", "174647.067500", "174648.557500", "174650.047500", "174651.537500", "174653.027500", "174654.517500", "174656.007500", "174657.497500", "174658.987500", "174700.477500", "174701.967500", "174703.457500", "174704.947500", "174706.437500", "174707.927500", "174709.417500", "174710.907500", "174712.397500", "174713.887500", "174715.377500", "174716.867500", "174718.357500", "174719.847500", "174721.337500", "174722.827500", "174724.317500", "174725.807500", "174727.297500", "174728.787500", "174730.277500", "174731.767500", "174733.257500", "174734.747500", "174736.237500", "174737.727500", "174739.217500", "174740.707500", "174742.197500", "174743.687500", "174745.177500", "174746.667500", "174748.157500", "174749.647500", "174751.137500", "174752.627500", "174754.117500", "174755.607500", "174757.097500", "174758.587500", "174800.077500", "174801.567500", "174803.057500", "174804.547500", "174806.037500", "174807.527500", "174809.017500", "174810.507500", "174811.997500", "174813.487500", "174814.977500", "174816.467500", "174817.957500", "174819.447500", "174820.937500", "174822.427500", "174823.917500", "174825.407500", "174826.897500", "174828.387500", "174829.877500", "174831.367500", "174832.857500", "174834.347500", "174835.837500", "174837.327500", "174838.817500", "174840.307500", "174841.797500", "174843.287500", "174844.777500", "174846.267500", "174847.757500"],
      "ContentTime": ["174519.884000", "174519.887000", "174519.891000", "174519.894000", "174519.897000", "174519.900000", "174519.904000", "174519.909000", "174519.912000", "174519.915000", "174519.919000", "174519.922000", "174519.925000", "174519.928000", "174519.932000", "174519.935000", "174519.938000", "174519.941000", "174519.944000", "174519.948000", "174539.883000", "174539.887000", "174539.890000", "174539.893000", "174539.896000", "174539.900000", "174539.903000", "174539.906000", "174539.909000", "174539.913000", "174539.916000", "174539.919000", "174539.922000", "174539.926000", "174539.929000", "174539.932000", "174539.935000", "174539.939000", "174539.942000", "174539.945000", "174559.883000", "174559.887000", "174559.890000", "174559.893000", "174559.896000", "174559.899000", "174559.903000", "174559.906000", "174559.909000", "174559.913000", "174559.916000", "174559.919000", "174559.932000", "174559.935000", "174559.938000", "174559.942000", "174559.945000", "174559.948000", "174559.952000", "174559.955000", "174619.883000", "174619.887000", "174619.890000", "174619.893000", "174619.896000", "174619.900000", "174619.903000", "174619.906000", "174619.909000", "174619.913000", "174619.916000", "174619.919000", "174619.922000", "174619.926000", "174619.929000", "174619.932000", "174619.935000", "174619.939000", "174619.942000", "174619.945000", "174619.948000", "174639.883000", "174639.887000", "174639.890000", "174639.893000", "174639.896000", "174639.900000", "174639.903000", "174639.906000", "174639.909000", "174639.913000", "174639.916000", "174639.919000", "174639.922000", "174639.926000", "174639.929000", "174639.932000", "174639.935000", "174639.939000", "174639.942000", "174639.945000", "174719.882000", "174719.886000", "174719.889000", "174719.892000", "174719.895000", "174719.899000", "174719.902000", "174719.905000", "174719.908000", "174719.912000", "174719.915000", "174719.918000", "174719.922000", "174719.925000", "174719.928000", "174719.931000", "174719.935000", "174719.938000", "174719.941000", "174719.944000", "174719.948000", "174719.951000", "174719.954000", "174719.957000", "174719.961000", "174719.964000", "174719.967000", "174719.970000", "174759.883000", "174759.887000", "174759.890000", "174759.893000", "174759.897000", "174759.900000", "174759.903000", "174759.906000", "174759.910000", "174759.913000", "174759.916000", "174759.920000", "174759.923000", "174759.926000", "174759.929000", "174759.933000", "174759.936000", "174759.939000", "174759.942000", "174759.946000", "174759.949000", "174759.952000", "174759.956000", "174759.959000", "174759.962000", "174759.965000", "174759.969000", "174839.883000", "174839.927000", "174839.930000", "174839.933000", "174839.937000", "174839.940000", "174839.943000", "174839.947000", "174839.950000", "174839.953000", "174839.956000", "174839.960000", "174839.963000", "174839.966000", "174839.969000", "174839.973000", "174839.976000", "174839.979000", "174839.982000", "174839.986000", "174839.989000", "174839.992000", "174839.995000", "174840.000000", "174840.003000", "174840.006000", "174850.412000", "174850.416000", "174850.419000", "174850.422000", "174850.426000", "174850.429000", "174850.432000", "174850.436000"],
      "InstanceCreationTime": ["174519.884000", "174519.887000", "174519.891000", "174519.894000", "174519.897000", "174519.900000", "174519.904000", "174519.909000", "174519.912000", "174519.915000", "174519.919000", "174519.922000", "174519.925000", "174519.928000", "174519.932000", "174519.935000", "174519.938000", "174519.941000", "174519.944000", "174519.948000", "174539.883000", "174539.887000", "174539.890000", "174539.893000", "174539.896000", "174539.900000", "174539.903000", "174539.906000", "174539.909000", "174539.913000", "174539.916000", "174539.919000", "174539.922000", "174539.926000", "174539.929000", "174539.932000", "174539.935000", "174539.939000", "174539.942000", "174539.945000", "174559.883000", "174559.887000", "174559.890000", "174559.893000", "174559.896000", "174559.899000", "174559.903000", "174559.906000", "174559.909000", "174559.913000", "174559.916000", "174559.919000", "174559.932000", "174559.935000", "174559.938000", "174559.942000", "174559.945000", "174559.948000", "174559.952000", "174559.955000", "174619.883000", "174619.887000", "174619.890000", "174619.893000", "174619.896000", "174619.900000", "174619.903000", "174619.906000", "174619.909000", "174619.913000", "174619.916000", "174619.919000", "174619.922000", "174619.926000", "174619.929000", "174619.932000", "174619.935000", "174619.939000", "174619.942000", "174619.945000", "174619.948000", "174639.883000", "174639.887000", "174639.890000", "174639.893000", "174639.896000", "174639.900000", "174639.903000", "174639.906000", "174639.909000", "174639.913000", "174639.916000", "174639.919000", "174639.922000", "174639.926000", "174639.929000", "174639.932000", "174639.935000", "174639.939000", "174639.942000", "174639.945000", "174719.882000", "174719.886000", "174719.889000", "174719.892000", "174719.895000", "174719.899000", "174719.902000", "174719.905000", "174719.908000", "174719.912000", "174719.915000", "174719.918000", "174719.922000", "174719.925000", "174719.928000", "174719.931000", "174719.935000", "174719.938000", "174719.941000", "174719.944000", "174719.948000", "174719.951000", "174719.954000", "174719.957000", "174719.961000", "174719.964000", "174719.967000", "174719.970000", "174759.883000", "174759.887000", "174759.890000", "174759.893000", "174759.897000", "174759.900000", "174759.903000", "174759.906000", "174759.910000", "174759.913000", "174759.916000", "174759.920000", "174759.923000", "174759.926000", "174759.929000", "174759.933000", "174759.936000", "174759.939000", "174759.942000", "174759.946000", "174759.949000", "174759.952000", "174759.956000", "174759.959000", "174759.962000", "174759.965000", "174759.969000", "174839.883000", "174839.927000", "174839.930000", "174839.933000", "174839.937000", "174839.940000", "174839.943000", "174839.947000", "174839.950000", "174839.953000", "174839.956000", "174839.960000", "174839.963000", "174839.966000", "174839.969000", "174839.973000", "174839.976000", "174839.979000", "174839.982000", "174839.986000", "174839.989000", "174839.992000", "174839.995000", "174840.000000", "174840.003000", "174840.006000", "174850.412000", "174850.416000", "174850.419000", "174850.422000", "174850.426000", "174850.429000", "174850.432000", "174850.436000"],
      "InstanceNumber": [1, 2, 3, 4, 5, 6, 7, 8, 9, 10, 11, 12, 13, 14, 15, 16, 17, 18, 19, 20, 21, 22, 23, 24, 25, 26, 27, 28, 29, 30, 31, 32, 33, 34, 35, 36, 37, 38, 39, 40, 41, 42, 43, 44, 45, 46, 47, 48, 49, 50, 51, 52, 53, 54, 55, 56, 57, 58, 59, 60, 61, 62, 63, 64, 65, 66, 67, 68, 69, 70, 71, 72, 73, 74, 75, 76, 77, 78, 79, 80, 81, 82, 83, 84, 85, 86, 87, 88, 89, 90, 91, 92, 93, 94, 95, 96, 97, 98, 99, 100, 101, 102, 103, 104, 105, 106, 107, 108, 109, 110, 111, 112, 113, 114, 115, 116, 117, 118, 119, 120, 121, 122, 123, 124, 125, 126, 127, 128, 129, 130, 131, 132, 133, 134, 135, 136, 137, 138, 139, 140, 141, 142, 143, 144, 145, 146, 147, 148, 149, 150, 151, 152, 153, 154, 155, 156, 157, 158, 159, 160, 161, 162, 163, 164, 165, 166, 167, 168, 169, 170, 171, 172, 173, 174, 175, 176, 177, 178, 179, 180, 181, 182, 183, 184, 185, 186, 187, 188, 189, 190],
      "LargestImagePixelValue": [43538, 42671, 41637, 41471, 40822, 40699, 40203, 39774, 39901, 40281, 40330, 40416, 48597, 39225, 37826, 38461, 38403, 38597, 40217, 39506, 40731, 39966, 39113, 40151, 39185, 38947, 39970, 39455, 39079, 37880, 38127, 38903, 38260, 39001, 39026, 38021, 38589, 38615, 38504, 38362, 38084, 43289, 38887, 39636, 39269, 40256, 39998, 39752, 40426, 39916, 39197, 38966, 40063, 39874, 39262, 38690, 38512, 38763, 39254, 39245, 40511, 39387, 38929, 39446, 40085, 39932, 39271, 39507, 40019, 39716, 39170, 39513, 39347, 39655, 39343, 39562, 39197, 40361, 40938, 40289, 40379, 40155, 39759, 39784, 40298, 39117, 39000, 39176, 40587, 39134, 39048, 38928, 38852, 39562, 40084, 38670, 40203, 40123, 39938, 40127, 39448, 39403, 39367, 39223, 39551, 39965, 40922, 39956, 39621, 40207, 39767, 39145, 39102, 38701, 38641, 38325, 38691, 38387, 39444, 41581, 42230, 40848, 40890, 40927, 40331, 38771, 40324, 41255, 40410, 40243, 40535, 40752, 40666, 40518, 39620, 40513, 41028, 40291, 41264, 40773, 39687, 39917, 39444, 39564, 40155, 40072, 41112, 40346, 41154, 41262, 39491, 39783, 39163, 39300, 39925, 40881, 48492, 41026, 39642, 41154, 42396, 40609, 40251, 40544, 41439, 41124, 39596, 42542, 42350, 41165, 42919, 43123, 43998, 43507, 43999, 41969, 42201, 40250, 40155, 42011, 41550, 41879, 41968, 42584, 42517, 42302, 41139, 41317, 40350, 40535],
      "WindowCenter": [10363.0, 10315.0, 10307.0, 10295.0, 10277.0, 10280.0, 10291.0, 10301.0, 10293.0, 10307.0, 10322.0, 10306.0, 10384.0, 10295.0, 10256.0, 10273.0, 10276.0, 10273.0, 10272.0, 10242.0, 10253.0, 10250.0, 10267.0, 10304.0, 10302.0, 10307.0, 10298.0, 10281.0, 10287.0, 10299.0, 10327.0, 10334.0, 10311.0, 10294.0, 10286.0, 10275.0, 10285.0, 10293.0, 10296.0, 10307.0, 10310.0, 10368.0, 10307.0, 10313.0, 10307.0, 10320.0, 10321.0, 10323.0, 10325.0, 10311.0, 10297.0, 10288.0, 10302.0, 10309.0, 10314.0, 10320.0, 10307.0, 10298.0, 10297.0, 10288.0, 10289.0, 10271.0, 10298.0, 10319.0, 10339.0, 10331.0, 10302.0, 10289.0, 10278.0, 10283.0, 10299.0, 10311.0, 10295.0, 10291.0, 10301.0, 10299.0, 10260.0, 10264.0, 10280.0, 10309.0, 10314.0, 10297.0, 10281.0, 10284.0, 10294.0, 10276.0, 10285.0, 10284.0, 10295.0, 10277.0, 10268.0, 10276.0, 10288.0, 10303.0, 10302.0, 10288.0, 10294.0, 10299.0, 10324.0, 10309.0, 10297.0, 10289.0, 10277.0, 10274.0, 10292.0, 10317.0, 10324.0, 10299.0, 10276.0, 10274.0, 10271.0, 10278.0, 10303.0, 10309.0, 10311.0, 10298.0, 10292.0, 10270.0, 10279.0, 10318.0, 10371.0, 10367.0, 10360.0, 10354.0, 10326.0, 10305.0, 10322.0, 10332.0, 10311.0, 10303.0, 10315.0, 10325.0, 10335.0, 10326.0, 10296.0, 10307.0, 10321.0, 10326.0, 10349.0, 10327.0, 10297.0, 10293.0, 10297.0, 10312.0, 10332.0, 10321.0, 10321.0, 10300.0, 10310.0, 10329.0, 10309.0, 10312.0, 10292.0, 10279.0, 10296.0, 10328.0, 10420.0, 10359.0, 10335.0, 10349.0, 10345.0, 10320.0, 10320.0, 10315.0, 10293.0, 10319.0, 10340.0, 10387.0, 10353.0, 10308.0, 10302.0, 10310.0, 10316.0, 10317.0, 10317.0, 10282.0, 10276.0, 10256.0, 10276.0, 10309.0, 10310.0, 10319.0, 10321.0, 10327.0, 10328.0, 10315.0, 10315.0, 10323.0, 10319.0, 10317.0],
      "WindowWidth": [21982.0, 21859.0, 21835.0, 21814.0, 21766.0, 21764.0, 21793.0, 21824.0, 21796.0, 21830.0, 21869.0, 21832.0, 21991.0, 21814.0, 21723.0, 21757.0, 21767.0, 21755.0, 21746.0, 21682.0, 21710.0, 21699.0, 21748.0, 21837.0, 21830.0, 21843.0, 21822.0, 21774.0, 21789.0, 21827.0, 21892.0, 21903.0, 21851.0, 21807.0, 21793.0, 21775.0, 21799.0, 21807.0, 21817.0, 21844.0, 21855.0, 21973.0, 21851.0, 21849.0, 21842.0, 21869.0, 21865.0, 21872.0, 21870.0, 21845.0, 21826.0, 21793.0, 21824.0, 21839.0, 21859.0, 21871.0, 21845.0, 21820.0, 21816.0, 21796.0, 21790.0, 21760.0, 21818.0, 21869.0, 21906.0, 21888.0, 21826.0, 21795.0, 21767.0, 21775.0, 21822.0, 21848.0, 21813.0, 21799.0, 21824.0, 21818.0, 21731.0, 21729.0, 21772.0, 21842.0, 21852.0, 21813.0, 21779.0, 21787.0, 21806.0, 21768.0, 21790.0, 21792.0, 21806.0, 21770.0, 21749.0, 21769.0, 21800.0, 21829.0, 21826.0, 21796.0, 21804.0, 21820.0, 21877.0, 21845.0, 21819.0, 21802.0, 21771.0, 21760.0, 21805.0, 21864.0, 21875.0, 21818.0, 21766.0, 21754.0, 21752.0, 21777.0, 21828.0, 21848.0, 21853.0, 21827.0, 21810.0, 21762.0, 21774.0, 21856.0, 21980.0, 21975.0, 21957.0, 21952.0, 21880.0, 21835.0, 21872.0, 21889.0, 21845.0, 21832.0, 21852.0, 21875.0, 21903.0, 21879.0, 21816.0, 21834.0, 21869.0, 21881.0, 21937.0, 21883.0, 21821.0, 21811.0, 21825.0, 21857.0, 21906.0, 21871.0, 21863.0, 21822.0, 21840.0, 21885.0, 21851.0, 21855.0, 21816.0, 21782.0, 21814.0, 21886.0, 22086.0, 21954.0, 21908.0, 21932.0, 21920.0, 21869.0, 21875.0, 21862.0, 21806.0, 21862.0, 21924.0, 22016.0, 21935.0, 21842.0, 21813.0, 21837.0, 21846.0, 21845.0, 21859.0, 21777.0, 21757.0, 21722.0, 21774.0, 21838.0, 21839.0, 21857.0, 21862.0, 21874.0, 21875.0, 21847.0, 21861.0, 21880.0, 21873.0, 21869.0]
    },
    "slices": {}
  }
}