{
  "AcquisitionMatrixPE": 104,
  "AcquisitionNumber": 1,
  "AcquisitionTime": "17:44:6.147500",
  "BandwidthPerPixelPhaseEncode": 17.17,
  "BaseResolution": 104,
  "BodyPartExamined": "BRAIN",
  "CoilString": "HC1-7;NC1_2",
  "ConsistencyInfo": "N4_VE11C_LATEST_20160120",
  "ConversionSoftware": "dcm2niix",
  "ConversionSoftwareVersion": "v1.0.20190902",
  "DerivedVendorReportedEchoSpacing": 0.000560011,
  "DeviceSerialNumber": "167006",
  "DwellTime": 2.1e-06,
  "EchoTime": 0.037,
  "EchoTrainLength": 104,
  "EffectiveEchoSpacing": 0.000560011,
  "FlipAngle": 52,
  "HeudiconvVersion": "0.10.0",
  "ImageComments": "Unaliased_MB4_PE3_LB",
  "ImageOrientationPatientDICOM": [0.994468, 0.0957469, 0.0431908, -0.0733782, 0.927493, -0.366568],
  "ImageType": [
    "ORIGINAL",
    "PRIMARY",
    "P",
    "MB",
    "ND",
    "MOSAIC"
],
  "ImagingFrequency": 123.259,
  "InPlanePhaseEncodingDirectionDICOM": "COL",
  "InstitutionAddress": "Chemin_Queen-Mary_4565_Montreal_District_CA_H3W_1W5",
  "InstitutionName": "IUGM",
  "InstitutionalDepartmentName": "Department",
  "MRAcquisitionType": "2D",
  "MagneticFieldStrength": 3,
  "Manufacturer": "Siemens",
  "ManufacturersModelName": "Prisma_fit",
  "Modality": "MR",
  "MultibandAccelerationFactor": 4,
  "PartialFourier": 1,
  "PatientPosition": "HFS",
  "PercentPhaseFOV": 100,
  "PhaseEncodingDirection": "j",
  "PhaseEncodingSteps": 104,
  "PhaseResolution": 1,
  "PixelBandwidth": 2290,
  "ProcedureStepDescription": "memory_things",
  "ProtocolName": "func_task-things_run-3",
  "PulseSequenceDetails": "%CustomerSeq%_cmrr_mbep2d_bold",
  "ReceiveCoilActiveElements": "HC1-7;NC1,2",
  "ReceiveCoilName": "HeadNeck_64",
  "ReconMatrixPE": 104,
  "RepetitionTime": 1.49,
  "SAR": 0.069823,
  "ScanOptions": "FS",
  "ScanningSequence": "EP",
  "SequenceName": "epfid2d1_104",
  "SequenceVariant": "SK_SS",
  "SeriesDescription": "func_task-things_run-3",
  "SeriesNumber": 17,
  "ShimSetting": [639, -7188, -8832, 628, 75, 48, -58, 11],
  "SliceThickness": 2,
  "SliceTiming": [0, 0.785, 0.0975, 0.8825, 0.195, 0.98, 0.295, 1.0775, 0.3925, 1.175, 0.49, 1.275, 0.5875, 1.3725, 0.685, 0, 0.785, 0.0975, 0.8825, 0.195, 0.98, 0.295, 1.0775, 0.3925, 1.175, 0.49, 1.275, 0.5875, 1.3725, 0.685, 0, 0.785, 0.0975, 0.8825, 0.195, 0.98, 0.295, 1.0775, 0.3925, 1.175, 0.49, 1.275, 0.5875, 1.3725, 0.685, 0, 0.785, 0.0975, 0.8825, 0.195, 0.98, 0.295, 1.0775, 0.3925, 1.175, 0.49, 1.275, 0.5875, 1.3725, 0.685],
  "SoftwareVersions": "syngo_MR_E11",
  "SpacingBetweenSlices": 2,
  "StationName": "MRC35049",
  "TaskName": "things",
  "TotalReadoutTime": 0.0576811,
  "TxRefAmp": 312.19,
  "WipMemBlock": "3dfbc766-6055-4321-bbca-edd93791ee2a||Sequence: R016 ve11c/master r/e634e98; Dec 19 2017 11:00:25 by eja",
  "dcmmeta_affine": [
    [-1.9889365434646606, -0.14675630629062653, 0.15031380951404572, 109.10713195800781],
    [-0.19149382412433624, 1.8549861907958984, -0.7227421402931213, -49.697479248046875],
    [0.08638154715299606, 0.7331361770629883, 1.858776330947876, -70.28275299072266],
    [0.0, 0.0, 0.0, 1.0]
],
  "dcmmeta_reorient_transform": [
    [0.0, -1.0, 0.0, 103.0],
    [1.0, 0.0, 0.0, 0.0],
    [0.0, 0.0, 1.0, 0.0],
    [0.0, 0.0, 0.0, 1.0]
],
  "dcmmeta_shape": [104, 104, 60, 190],
  "dcmmeta_slice_dim": 2,
  "dcmmeta_version": 0.6,
  "global": {
    "const": {
      "AcquisitionMatrix": [104, 0, 0, 104],
      "AngioFlag": "N",
      "BitsAllocated": 16,
      "BitsStored": 16,
      "BodyPartExamined": "BRAIN",
      "Columns": 832,
      "EchoNumbers": 1,
      "EchoTime": 37.0,
      "EchoTrainLength": 104,
      "FlipAngle": 52.0,
      "HighBit": 15,
      "ImageOrientationPatient": [0.99446824289468, 0.095746910332, 0.04319077489275, -0.0733781505331, 0.92749311699224, -0.3665680904776],
      "ImagePositionPatient": [-764.544820066, -886.28484137513, 240.64896182962],
      "ImageType": [
        "ORIGINAL",
        "PRIMARY",
        "P",
        "MB",
        "ND",
        "MOSAIC"
],
      "ImagedNucleus": "1H",
      "ImagingFrequency": 123.258903,
      "InPlanePhaseEncodingDirection": "COL",
      "LargestImagePixelValue": 4095,
      "MRAcquisitionType": "2D",
      "MagneticFieldStrength": 3.0,
      "Manufacturer": "SIEMENS",
      "ManufacturerModelName": "Prisma_fit",
      "Modality": "MR",
      "NumberOfAverages": 1.0,
      "NumberOfPhaseEncodingSteps": 104,
      "PercentPhaseFieldOfView": 100.0,
      "PercentSampling": 100.0,
      "PerformedProcedureStepStartTime": "170217.592000",
      "PhotometricInterpretation": "MONOCHROME2",
      "PixelBandwidth": 2290.0,
      "PixelRepresentation": 0,
      "PixelSpacing": [2.0, 2.0],
      "ProtocolName": "func_task-things_run-3",
      "RepetitionTime": 1490.0,
      "RescaleIntercept": -4096.0,
      "RescaleSlope": 2.0,
      "RescaleType": "US",
      "Rows": 832,
      "SAR": 0.06982297156568,
      "SamplesPerPixel": 1,
      "ScanOptions": "FS",
      "ScanningSequence": "EP",
      "SequenceName": "epfid2d1_104",
      "SequenceVariant": [
        "SK",
        "SS"
],
      "SeriesDescription": "func_task-things_run-3",
      "SeriesNumber": 17,
      "SeriesTime": "174519.979000",
      "SliceLocation": -39.160571474815,
      "SliceThickness": 2.0,
      "SmallestImagePixelValue": 0,
      "SoftwareVersions": "syngo MR E11",
      "SpacingBetweenSlices": 1.9999999466076,
      "SpecificCharacterSet": "ISO_IR 100",
      "StudyID": "1",
      "StudyTime": "170217.435000",
      "TransmitCoilName": "Body",
      "VariableFlipAngleFlag": "N",
      "WindowCenterWidthExplanation": "Algo1",
      "dBdt": 0.0},
    "slices": {}
  },
  "time": {
    "samples": {
      "AcquisitionNumber": [1, 2, 3, 4, 5, 6, 7, 8, 9, 10, 11, 12, 13, 14, 15, 16, 17, 18, 19, 20, 21, 22, 23, 24, 25, 26, 27, 28, 29, 30, 31, 32, 33, 34, 35, 36, 37, 38, 39, 40, 41, 42, 43, 44, 45, 46, 47, 48, 49, 50, 51, 52, 53, 54, 55, 56, 57, 58, 59, 60, 61, 62, 63, 64, 65, 66, 67, 68, 69, 70, 71, 72, 73, 74, 75, 76, 77, 78, 79, 80, 81, 82, 83, 84, 85, 86, 87, 88, 89, 90, 91, 92, 93, 94, 95, 96, 97, 98, 99, 100, 101, 102, 103, 104, 105, 106, 107, 108, 109, 110, 111, 112, 113, 114, 115, 116, 117, 118, 119, 120, 121, 122, 123, 124, 125, 126, 127, 128, 129, 130, 131, 132, 133, 134, 135, 136, 137, 138, 139, 140, 141, 142, 143, 144, 145, 146, 147, 148, 149, 150, 151, 152, 153, 154, 155, 156, 157, 158, 159, 160, 161, 162, 163, 164, 165, 166, 167, 168, 169, 170, 171, 172, 173, 174, 175, 176, 177, 178, 179, 180, 181, 182, 183, 184, 185, 186, 187, 188, 189, 190],
      "AcquisitionTime": ["174406.147500", "174407.637500", "174409.127500", "174410.617500", "174412.107500", "174413.597500", "174415.087500", "174416.577500", "174418.067500", "174419.557500", "174421.047500", "174422.537500", "174424.027500", "174425.517500", "174427.007500", "174428.497500", "174429.987500", "174431.477500", "174432.967500", "174434.457500", "174435.947500", "174437.437500", "174438.927500", "174440.417500", "174441.907500", "174443.397500", "174444.887500", "174446.377500", "174447.867500", "174449.357500", "174450.847500", "174452.337500", "174453.827500", "174455.317500", "174456.807500", "174458.297500", "174459.787500", "174501.277500", "174502.767500", "174504.257500", "174505.747500", "174507.237500", "174508.727500", "174510.217500", "174511.707500", "174513.197500", "174514.687500", "174516.177500", "174517.667500", "174519.157500", "174520.647500", "174522.137500", "174523.627500", "174525.117500", "174526.607500", "174528.097500", "174529.587500", "174531.077500", "174532.567500", "174534.057500", "174535.547500", "174537.037500", "174538.527500", "174540.017500", "174541.507500", "174542.997500", "174544.487500", "174545.977500", "174547.467500", "174548.957500", "174550.447500", "174551.937500", "174553.427500", "174554.917500", "174556.407500", "174557.897500", "174559.387500", "174600.877500", "174602.367500", "174603.857500", "174605.347500", "174606.837500", "174608.327500", "174609.817500", "174611.307500", "174612.797500", "174614.287500", "174615.777500", "174617.267500", "174618.757500", "174620.247500", "174621.737500", "174623.227500", "174624.717500", "174626.207500", "174627.697500", "174629.187500", "174630.677500", "174632.167500", "174633.657500", "174635.147500", "174636.637500", "174638.127500", "174639.617500", "174641.107500", "174642.597500", "174644.087500", "174645.577500", "174647.067500", "174648.557500", "174650.047500", "174651.537500", "174653.027500", "174654.517500", "174656.007500", "174657.497500", "174658.987500", "174700.477500", "174701.967500", "174703.457500", "174704.947500", "174706.437500", "174707.927500", "174709.417500", "174710.907500", "174712.397500", "174713.887500", "174715.377500", "174716.867500", "174718.357500", "174719.847500", "174721.337500", "174722.827500", "174724.317500", "174725.807500", "174727.297500", "174728.787500", "174730.277500", "174731.767500", "174733.257500", "174734.747500", "174736.237500", "174737.727500", "174739.217500", "174740.707500", "174742.197500", "174743.687500", "174745.177500", "174746.667500", "174748.157500", "174749.647500", "174751.137500", "174752.627500", "174754.117500", "174755.607500", "174757.097500", "174758.587500", "174800.077500", "174801.567500", "174803.057500", "174804.547500", "174806.037500", "174807.527500", "174809.017500", "174810.507500", "174811.997500", "174813.487500", "174814.977500", "174816.467500", "174817.957500", "174819.447500", "174820.937500", "174822.427500", "174823.917500", "174825.407500", "174826.897500", "174828.387500", "174829.877500", "174831.367500", "174832.857500", "174834.347500", "174835.837500", "174837.327500", "174838.817500", "174840.307500", "174841.797500", "174843.287500", "174844.777500", "174846.267500", "174847.757500"],
      "ContentTime": ["174519.981000", "174519.984000", "174519.986000", "174519.989000", "174519.991000", "174519.994000", "174519.996000", "174519.998000", "174520.002000", "174520.004000", "174520.007000", "174520.009000", "174520.012000", "174520.014000", "174520.017000", "174520.019000", "174520.021000", "174520.024000", "174520.026000", "174520.029000", "174539.991000", "174539.994000", "174539.996000", "174540.000000", "174540.002000", "174540.004000", "174540.007000", "174540.010000", "174540.012000", "174540.014000", "174540.017000", "174540.019000", "174540.022000", "174540.024000", "174540.027000", "174540.029000", "174540.032000", "174540.034000", "174540.037000", "174540.039000", "174600.002000", "174600.005000", "174600.007000", "174600.010000", "174600.012000", "174600.015000", "174600.017000", "174600.020000", "174600.022000", "174600.025000", "174600.028000", "174600.030000", "174600.033000", "174600.035000", "174600.039000", "174600.042000", "174600.045000", "174600.047000", "174600.050000", "174600.052000", "174620.342000", "174620.345000", "174620.348000", "174620.350000", "174620.353000", "174620.355000", "174620.358000", "174620.360000", "174620.363000", "174620.365000", "174620.367000", "174620.370000", "174620.372000", "174620.375000", "174620.377000", "174620.380000", "174620.382000", "174620.385000", "174620.387000", "174620.390000", "174620.392000", "174639.993000", "174639.996000", "174640.006000", "174640.009000", "174640.011000", "174640.014000", "174640.016000", "174640.019000", "174640.021000", "174640.024000", "174640.026000", "174640.029000", "174640.031000", "174640.034000", "174640.036000", "174640.039000", "174640.041000", "174640.043000", "174640.046000", "174640.048000", "174720.024000", "174720.027000", "174720.029000", "174720.032000", "174720.034000", "174720.037000", "174720.039000", "174720.042000", "174720.044000", "174720.047000", "174720.049000", "174720.051000", "174720.054000", "174720.056000", "174720.059000", "174720.061000", "174720.064000", "174720.066000", "174720.069000", "174720.071000", "174720.074000", "174720.081000", "174720.083000", "174720.086000", "174720.088000", "174720.091000", "174720.093000", "174720.096000", "174800.015000", "174800.018000", "174800.020000", "174800.023000", "174800.026000", "174800.028000", "174800.030000", "174800.033000", "174800.036000", "174800.038000", "174800.040000", "174800.043000", "174800.045000", "174800.048000", "174800.050000", "174800.053000", "174800.055000", "174800.058000", "174800.060000", "174800.063000", "174800.065000", "174800.068000", "174800.070000", "174800.073000", "174800.075000", "174800.078000", "174800.080000", "174840.050000", "174840.052000", "174840.055000", "174840.057000", "174840.060000", "174840.062000", "174840.065000", "174840.067000", "174840.070000", "174840.072000", "174840.075000", "174840.077000", "174840.080000", "174840.082000", "174840.085000", "174840.087000", "174840.090000", "174840.092000", "174840.095000", "174840.097000", "174840.100000", "174840.102000", "174840.104000", "174840.107000", "174840.109000", "174840.112000", "174850.471000", "174850.474000", "174850.476000", "174850.479000", "174850.481000", "174850.484000", "174850.486000", "174850.489000"],
      "InstanceCreationTime": ["174519.981000", "174519.984000", "174519.986000", "174519.989000", "174519.991000", "174519.994000", "174519.996000", "174519.998000", "174520.002000", "174520.004000", "174520.007000", "174520.009000", "174520.012000", "174520.014000", "174520.017000", "174520.019000", "174520.021000", "174520.024000", "174520.026000", "174520.029000", "174539.991000", "174539.994000", "174539.996000", "174540.000000", "174540.002000", "174540.004000", "174540.007000", "174540.010000", "174540.012000", "174540.014000", "174540.017000", "174540.019000", "174540.022000", "174540.024000", "174540.027000", "174540.029000", "174540.032000", "174540.034000", "174540.037000", "174540.039000", "174600.002000", "174600.005000", "174600.007000", "174600.010000", "174600.012000", "174600.015000", "174600.017000", "174600.020000", "174600.022000", "174600.025000", "174600.028000", "174600.030000", "174600.033000", "174600.035000", "174600.039000", "174600.042000", "174600.045000", "174600.047000", "174600.050000", "174600.052000", "174620.342000", "174620.345000", "174620.348000", "174620.350000", "174620.353000", "174620.355000", "174620.358000", "174620.360000", "174620.363000", "174620.365000", "174620.367000", "174620.370000", "174620.372000", "174620.375000", "174620.377000", "174620.380000", "174620.382000", "174620.385000", "174620.387000", "174620.390000", "174620.392000", "174639.993000", "174639.996000", "174640.006000", "174640.009000", "174640.011000", "174640.014000", "174640.016000", "174640.019000", "174640.021000", "174640.024000", "174640.026000", "174640.029000", "174640.031000", "174640.034000", "174640.036000", "174640.039000", "174640.041000", "174640.043000", "174640.046000", "174640.048000", "174720.024000", "174720.027000", "174720.029000", "174720.032000", "174720.034000", "174720.037000", "174720.039000", "174720.042000", "174720.044000", "174720.047000", "174720.049000", "174720.051000", "174720.054000", "174720.056000", "174720.059000", "174720.061000", "174720.064000", "174720.066000", "174720.069000", "174720.071000", "174720.074000", "174720.081000", "174720.083000", "174720.086000", "174720.088000", "174720.091000", "174720.093000", "174720.096000", "174800.015000", "174800.018000", "174800.020000", "174800.023000", "174800.026000", "174800.028000", "174800.030000", "174800.033000", "174800.036000", "174800.038000", "174800.040000", "174800.043000", "174800.045000", "174800.048000", "174800.050000", "174800.053000", "174800.055000", "174800.058000", "174800.060000", "174800.063000", "174800.065000", "174800.068000", "174800.070000", "174800.073000", "174800.075000", "174800.078000", "174800.080000", "174840.050000", "174840.052000", "174840.055000", "174840.057000", "174840.060000", "174840.062000", "174840.065000", "174840.067000", "174840.070000", "174840.072000", "174840.075000", "174840.077000", "174840.080000", "174840.082000", "174840.085000", "174840.087000", "174840.090000", "174840.092000", "174840.095000", "174840.097000", "174840.100000", "174840.102000", "174840.104000", "174840.107000", "174840.109000", "174840.112000", "174850.471000", "174850.474000", "174850.476000", "174850.479000", "174850.481000", "174850.484000", "174850.486000", "174850.489000"],
      "InstanceNumber": [1, 2, 3, 4, 5, 6, 7, 8, 9, 10, 11, 12, 13, 14, 15, 16, 17, 18, 19, 20, 21, 22, 23, 24, 25, 26, 27, 28, 29, 30, 31, 32, 33, 34, 35, 36, 37, 38, 39, 40, 41, 42, 43, 44, 45, 46, 47, 48, 49, 50, 51, 52, 53, 54, 55, 56, 57, 58, 59, 60, 61, 62, 63, 64, 65, 66, 67, 68, 69, 70, 71, 72, 73, 74, 75, 76, 77, 78, 79, 80, 81, 82, 83, 84, 85, 86, 87, 88, 89, 90, 91, 92, 93, 94, 95, 96, 97, 98, 99, 100, 101, 102, 103, 104, 105, 106, 107, 108, 109, 110, 111, 112, 113, 114, 115, 116, 117, 118, 119, 120, 121, 122, 123, 124, 125, 126, 127, 128, 129, 130, 131, 132, 133, 134, 135, 136, 137, 138, 139, 140, 141, 142, 143, 144, 145, 146, 147, 148, 149, 150, 151, 152, 153, 154, 155, 156, 157, 158, 159, 160, 161, 162, 163, 164, 165, 166, 167, 168, 169, 170, 171, 172, 173, 174, 175, 176, 177, 178, 179, 180, 181, 182, 183, 184, 185, 186, 187, 188, 189, 190],
      "WindowCenter": [4842.0, 4848.0, 4872.0, 4846.0, 4838.0, 4836.0, 4844.0, 4842.0, 4834.0, 4846.0, 4846.0, 4844.0, 4850.0, 4846.0, 4842.0, 4844.0, 4844.0, 4836.0, 4844.0, 4844.0, 4844.0, 4846.0, 4848.0, 4844.0, 4840.0, 4840.0, 4846.0, 4842.0, 4844.0, 4836.0, 4844.0, 4846.0, 4844.0, 4844.0, 4844.0, 4838.0, 4840.0, 4840.0, 4840.0, 4834.0, 4840.0, 4844.0, 4846.0, 4842.0, 4844.0, 4836.0, 4842.0, 4836.0, 4838.0, 4838.0, 4838.0, 4840.0, 4838.0, 4838.0, 4844.0, 4844.0, 4834.0, 4806.0, 4836.0, 4842.0, 4846.0, 4848.0, 4842.0, 4806.0, 4802.0, 4836.0, 4846.0, 4844.0, 4834.0, 4806.0, 4842.0, 4846.0, 4838.0, 4842.0, 4842.0, 4842.0, 4838.0, 4802.0, 4806.0, 4834.0, 4848.0, 4866.0, 4846.0, 4846.0, 4832.0, 4800.0, 4806.0, 4846.0, 4844.0, 4838.0, 4804.0, 4804.0, 4834.0, 4846.0, 4844.0, 4840.0, 4804.0, 4802.0, 4832.0, 4842.0, 4840.0, 4838.0, 4834.0, 4804.0, 4808.0, 4838.0, 4840.0, 4842.0, 4846.0, 4842.0, 4834.0, 4802.0, 4802.0, 4806.0, 4840.0, 4842.0, 4840.0, 4842.0, 4806.0, 4804.0, 4836.0, 4840.0, 4844.0, 4840.0, 4808.0, 4804.0, 4832.0, 4840.0, 4840.0, 4844.0, 4810.0, 4812.0, 4840.0, 4840.0, 4848.0, 4838.0, 4804.0, 4800.0, 4808.0, 4842.0, 4846.0, 4846.0, 4836.0, 4834.0, 4840.0, 4838.0, 4836.0, 4836.0, 4836.0, 4808.0, 4804.0, 4834.0, 4840.0, 4840.0, 4844.0, 4844.0, 4840.0, 4808.0, 4836.0, 4836.0, 4800.0, 4804.0, 4832.0, 4844.0, 4810.0, 4782.0, 4804.0, 4834.0, 4876.0, 4874.0, 4878.0, 4874.0, 4838.0, 4804.0, 4806.0, 4806.0, 4802.0, 4836.0, 4842.0, 4842.0, 4846.0, 4842.0, 4836.0, 4838.0, 4838.0, 4806.0, 4802.0, 4806.0, 4836.0, 4842.0],
      "WindowWidth": [18644.0, 18646.0, 18678.0, 18646.0, 18638.0, 18630.0, 18642.0, 18642.0, 18632.0, 18646.0, 18646.0, 18648.0, 18656.0, 18646.0, 18642.0, 18638.0, 18640.0, 18632.0, 18642.0, 18642.0, 18642.0, 18646.0, 18644.0, 18642.0, 18642.0, 18638.0, 18644.0, 18638.0, 18644.0, 18634.0, 18644.0, 18644.0, 18648.0, 18646.0, 18640.0, 18636.0, 18636.0, 18640.0, 18636.0, 18634.0, 18636.0, 18640.0, 18644.0, 18640.0, 18642.0, 18636.0, 18646.0, 18636.0, 18636.0, 18634.0, 18636.0, 18638.0, 18640.0, 18634.0, 18644.0, 18646.0, 18638.0, 18596.0, 18634.0, 18638.0, 18650.0, 18642.0, 18640.0, 18598.0, 18598.0, 18642.0, 18644.0, 18644.0, 18632.0, 18594.0, 18646.0, 18644.0, 18640.0, 18644.0, 18642.0, 18640.0, 18638.0, 18598.0, 18604.0, 18636.0, 18650.0, 18678.0, 18646.0, 18644.0, 18632.0, 18594.0, 18594.0, 18648.0, 18642.0, 18640.0, 18602.0, 18598.0, 18644.0, 18646.0, 18650.0, 18644.0, 18602.0, 18598.0, 18636.0, 18642.0, 18638.0, 18638.0, 18634.0, 18600.0, 18600.0, 18638.0, 18646.0, 18648.0, 18646.0, 18644.0, 18638.0, 18596.0, 18596.0, 18600.0, 18636.0, 18650.0, 18642.0, 18646.0, 18604.0, 18596.0, 18634.0, 18642.0, 18648.0, 18638.0, 18598.0, 18596.0, 18632.0, 18638.0, 18640.0, 18646.0, 18602.0, 18602.0, 18640.0, 18636.0, 18644.0, 18634.0, 18596.0, 18590.0, 18602.0, 18644.0, 18648.0, 18650.0, 18640.0, 18632.0, 18636.0, 18640.0, 18638.0, 18636.0, 18634.0, 18598.0, 18594.0, 18634.0, 18640.0, 18640.0, 18650.0, 18646.0, 18642.0, 18596.0, 18640.0, 18640.0, 18592.0, 18596.0, 18634.0, 18644.0, 18606.0, 18572.0, 18600.0, 18636.0, 18684.0, 18678.0, 18688.0, 18684.0, 18638.0, 18592.0, 18594.0, 18598.0, 18592.0, 18640.0, 18644.0, 18644.0, 18650.0, 18648.0, 18638.0, 18634.0, 18638.0, 18600.0, 18596.0, 18600.0, 18636.0, 18646.0]
    },
    "slices": {}
  }
}