{
  "AcquisitionMatrixPE": 104,
  "AcquisitionNumber": 1,
  "AcquisitionTime": "18:14:17.727500",
  "BandwidthPerPixelPhaseEncode": 17.17,
  "BaseResolution": 104,
  "BodyPartExamined": "BRAIN",
  "CoilString": "HC1-7;NC1_2",
  "ConsistencyInfo": "N4_VE11C_LATEST_20160120",
  "ConversionSoftware": "dcm2niix",
  "ConversionSoftwareVersion": "v1.0.20190902",
  "DerivedVendorReportedEchoSpacing": 0.000560011,
  "DeviceSerialNumber": "167006",
  "DwellTime": 2.1e-06,
  "EchoTime": 0.037,
  "EchoTrainLength": 104,
  "EffectiveEchoSpacing": 0.000560011,
  "FlipAngle": 52,
  "HeudiconvVersion": "0.10.0",
  "ImageComments": "Unaliased_MB4_PE3_LB",
  "ImageOrientationPatientDICOM": [0.996017, 0.0803776, 0.0386044, -0.0610935, 0.930506, -0.361144],
  "ImageType": [
    "ORIGINAL",
    "PRIMARY",
    "M",
    "MB",
    "ND",
    "MOSAIC"
],
  "ImagingFrequency": 123.259,
  "InPlanePhaseEncodingDirectionDICOM": "COL",
  "InstitutionAddress": "Chemin_Queen-Mary_4565_Montreal_District_CA_H3W_1W5",
  "InstitutionName": "IUGM",
  "InstitutionalDepartmentName": "Department",
  "MRAcquisitionType": "2D",
  "MagneticFieldStrength": 3,
  "Manufacturer": "Siemens",
  "ManufacturersModelName": "Prisma_fit",
  "Modality": "MR",
  "MultibandAccelerationFactor": 4,
  "PartialFourier": 1,
  "PatientPosition": "HFS",
  "PercentPhaseFOV": 100,
  "PhaseEncodingDirection": "j",
  "PhaseEncodingSteps": 104,
  "PhaseResolution": 1,
  "PixelBandwidth": 2290,
  "ProcedureStepDescription": "memory_things",
  "ProtocolName": "func_task-things_run-5",
  "PulseSequenceDetails": "%CustomerSeq%_cmrr_mbep2d_bold",
  "ReceiveCoilActiveElements": "HC1-7;NC1,2",
  "ReceiveCoilName": "HeadNeck_64",
  "ReconMatrixPE": 104,
  "RepetitionTime": 1.49,
  "SAR": 0.0580043,
  "ScanOptions": "FS",
  "ScanningSequence": "EP",
  "SequenceName": "epfid2d1_104",
  "SequenceVariant": "SK_SS",
  "SeriesDescription": "func_task-things_run-5",
  "SeriesNumber": 30,
  "ShimSetting": [636, -7184, -8828, 632, 90, 54, -52, -7],
  "SliceThickness": 2,
  "SliceTiming": [0, 0.7825, 0.0975, 0.8825, 0.195, 0.98, 0.2925, 1.0775, 0.3925, 1.175, 0.49, 1.2725, 0.5875, 1.3725, 0.685, 0, 0.7825, 0.0975, 0.8825, 0.195, 0.98, 0.2925, 1.0775, 0.3925, 1.175, 0.49, 1.2725, 0.5875, 1.3725, 0.685, 0, 0.7825, 0.0975, 0.8825, 0.195, 0.98, 0.2925, 1.0775, 0.3925, 1.175, 0.49, 1.2725, 0.5875, 1.3725, 0.685, 0, 0.7825, 0.0975, 0.8825, 0.195, 0.98, 0.2925, 1.0775, 0.3925, 1.175, 0.49, 1.2725, 0.5875, 1.3725, 0.685],
  "SoftwareVersions": "syngo_MR_E11",
  "SpacingBetweenSlices": 2,
  "StationName": "MRC35049",
  "TaskName": "things",
  "TotalReadoutTime": 0.0576811,
  "TxRefAmp": 284.473,
  "WipMemBlock": "4ec32509-69c3-4e78-bdcc-9ac112dbed28||Sequence: R016 ve11c/master r/e634e98; Dec 19 2017 11:00:25 by eja",
  "dcmmeta_affine": [
    [-1.9920332431793213, -0.12218700349330902, 0.12989921867847443, 108.95304870605469],
    [-0.16075529158115387, 1.8610129356384277, -0.7146947383880615, -51.80233383178711],
    [0.07720885425806046, 0.7222887873649597, 1.8634209632873535, -66.84254455566406],
    [0.0, 0.0, 0.0, 1.0]
],
  "dcmmeta_reorient_transform": [
    [0.0, -1.0, 0.0, 103.0],
    [1.0, 0.0, 0.0, 0.0],
    [0.0, 0.0, 1.0, 0.0],
    [0.0, 0.0, 0.0, 1.0]
],
  "dcmmeta_shape": [104, 104, 60, 190],
  "dcmmeta_slice_dim": 2,
  "dcmmeta_version": 0.6,
  "global": {
    "const": {
      "AcquisitionMatrix": [104, 0, 0, 104],
      "AngioFlag": "N",
      "BitsAllocated": 16,
      "BitsStored": 16,
      "BodyPartExamined": "BRAIN",
      "Columns": 832,
      "EchoNumbers": 1,
      "EchoTime": 37.0,
      "EchoTrainLength": 104,
      "FlipAngle": 52.0,
      "HighBit": 15,
      "ImageOrientationPatient": [0.99601663261273, 0.08037764440249, 0.03860442771384, -0.0610935034108, 0.93050647607814, -0.3611444057682],
      "ImagePositionPatient": [-776.99182782403, -875.80564164565, 242.36230448107],
      "ImageType": [
        "ORIGINAL",
        "PRIMARY",
        "M",
        "MB",
        "ND",
        "MOSAIC"
],
      "ImagedNucleus": "1H",
      "ImagingFrequency": 123.258898,
      "InPlanePhaseEncodingDirection": "COL",
      "MRAcquisitionType": "2D",
      "MagneticFieldStrength": 3.0,
      "Manufacturer": "SIEMENS",
      "ManufacturerModelName": "Prisma_fit",
      "Modality": "MR",
      "NumberOfAverages": 1.0,
      "NumberOfPhaseEncodingSteps": 104,
      "PercentPhaseFieldOfView": 100.0,
      "PercentSampling": 100.0,
      "PerformedProcedureStepStartTime": "170217.592000",
      "PhotometricInterpretation": "MONOCHROME2",
      "PixelBandwidth": 2290.0,
      "PixelRepresentation": 0,
      "PixelSpacing": [2.0, 2.0],
      "ProtocolName": "func_task-things_run-5",
      "RepetitionTime": 1490.0,
      "Rows": 832,
      "SAR": 0.05800433708873,
      "SamplesPerPixel": 1,
      "ScanOptions": "FS",
      "ScanningSequence": "EP",
      "SequenceName": "epfid2d1_104",
      "SequenceVariant": [
        "SK",
        "SS"
],
      "SeriesDescription": "func_task-things_run-5",
      "SeriesNumber": 30,
      "SeriesTime": "181519.935000",
      "SliceLocation": -36.690017378811,
      "SliceThickness": 2.0,
      "SmallestImagePixelValue": 0,
      "SoftwareVersions": "syngo MR E11",
      "SpacingBetweenSlices": 2.0000000390516,
      "SpecificCharacterSet": "ISO_IR 100",
      "StudyID": "1",
      "StudyTime": "170217.435000",
      "TransmitCoilName": "Body",
      "VariableFlipAngleFlag": "N",
      "WindowCenterWidthExplanation": "Algo1",
      "dBdt": 0.0},
    "slices": {}
  },
  "time": {
    "samples": {
      "AcquisitionNumber": [1, 2, 3, 4, 5, 6, 7, 8, 9, 10, 11, 12, 13, 14, 15, 16, 17, 18, 19, 20, 21, 22, 23, 24, 25, 26, 27, 28, 29, 30, 31, 32, 33, 34, 35, 36, 37, 38, 39, 40, 41, 42, 43, 44, 45, 46, 47, 48, 49, 50, 51, 52, 53, 54, 55, 56, 57, 58, 59, 60, 61, 62, 63, 64, 65, 66, 67, 68, 69, 70, 71, 72, 73, 74, 75, 76, 77, 78, 79, 80, 81, 82, 83, 84, 85, 86, 87, 88, 89, 90, 91, 92, 93, 94, 95, 96, 97, 98, 99, 100, 101, 102, 103, 104, 105, 106, 107, 108, 109, 110, 111, 112, 113, 114, 115, 116, 117, 118, 119, 120, 121, 122, 123, 124, 125, 126, 127, 128, 129, 130, 131, 132, 133, 134, 135, 136, 137, 138, 139, 140, 141, 142, 143, 144, 145, 146, 147, 148, 149, 150, 151, 152, 153, 154, 155, 156, 157, 158, 159, 160, 161, 162, 163, 164, 165, 166, 167, 168, 169, 170, 171, 172, 173, 174, 175, 176, 177, 178, 179, 180, 181, 182, 183, 184, 185, 186, 187, 188, 189, 190],
      "AcquisitionTime": ["181417.727500", "181419.217500", "181420.707500", "181422.197500", "181423.687500", "181425.177500", "181426.667500", "181428.157500", "181429.647500", "181431.137500", "181432.627500", "181434.117500", "181435.607500", "181437.097500", "181438.587500", "181440.077500", "181441.567500", "181443.057500", "181444.547500", "181446.037500", "181447.527500", "181449.017500", "181450.507500", "181451.997500", "181453.487500", "181454.977500", "181456.467500", "181457.957500", "181459.447500", "181500.937500", "181502.427500", "181503.917500", "181505.407500", "181506.897500", "181508.387500", "181509.877500", "181511.367500", "181512.857500", "181514.347500", "181515.837500", "181517.327500", "181518.817500", "181520.307500", "181521.797500", "181523.287500", "181524.777500", "181526.267500", "181527.757500", "181529.247500", "181530.737500", "181532.227500", "181533.717500", "181535.207500", "181536.697500", "181538.187500", "181539.677500", "181541.167500", "181542.657500", "181544.147500", "181545.637500", "181547.127500", "181548.617500", "181550.107500", "181551.597500", "181553.087500", "181554.577500", "181556.067500", "181557.557500", "181559.047500", "181600.537500", "181602.027500", "181603.517500", "181605.007500", "181606.497500", "181607.987500", "181609.477500", "181610.967500", "181612.457500", "181613.947500", "181615.437500", "181616.927500", "181618.417500", "181619.907500", "181621.397500", "181622.887500", "181624.377500", "181625.867500", "181627.357500", "181628.847500", "181630.337500", "181631.827500", "181633.317500", "181634.807500", "181636.297500", "181637.787500", "181639.277500", "181640.767500", "181642.257500", "181643.747500", "181645.237500", "181646.727500", "181648.217500", "181649.707500", "181651.197500", "181652.687500", "181654.177500", "181655.667500", "181657.157500", "181658.647500", "181700.137500", "181701.627500", "181703.117500", "181704.607500", "181706.097500", "181707.587500", "181709.077500", "181710.567500", "181712.057500", "181713.547500", "181715.037500", "181716.527500", "181718.017500", "181719.507500", "181720.997500", "181722.487500", "181723.977500", "181725.467500", "181726.957500", "181728.447500", "181729.937500", "181731.427500", "181732.917500", "181734.407500", "181735.897500", "181737.387500", "181738.877500", "181740.367500", "181741.857500", "181743.347500", "181744.837500", "181746.327500", "181747.817500", "181749.307500", "181750.797500", "181752.287500", "181753.777500", "181755.267500", "181756.757500", "181758.247500", "181759.737500", "181801.227500", "181802.717500", "181804.207500", "181805.697500", "181807.187500", "181808.677500", "181810.167500", "181811.657500", "181813.147500", "181814.637500", "181816.127500", "181817.617500", "181819.107500", "181820.597500", "181822.087500", "181823.577500", "181825.067500", "181826.557500", "181828.047500", "181829.537500", "181831.027500", "181832.517500", "181834.007500", "181835.497500", "181836.987500", "181838.477500", "181839.967500", "181841.457500", "181842.947500", "181844.437500", "181845.927500", "181847.417500", "181848.907500", "181850.397500", "181851.887500", "181853.377500", "181854.867500", "181856.357500", "181857.847500", "181859.337500"],
      "ContentTime": ["181519.938000", "181519.942000", "181519.951000", "181519.958000", "181519.962000", "181519.965000", "181519.968000", "181519.971000", "181539.883000", "181539.887000", "181539.890000", "181539.893000", "181539.896000", "181539.900000", "181539.903000", "181539.907000", "181539.910000", "181539.913000", "181539.917000", "181539.920000", "181539.923000", "181539.927000", "181539.930000", "181539.933000", "181539.936000", "181539.940000", "181539.943000", "181539.946000", "181559.883000", "181559.887000", "181559.890000", "181559.893000", "181559.896000", "181559.905000", "181559.908000", "181559.911000", "181559.914000", "181559.917000", "181559.921000", "181559.924000", "181559.927000", "181559.930000", "181559.934000", "181559.937000", "181559.940000", "181559.943000", "181559.947000", "181559.950000", "181559.953000", "181619.883000", "181619.887000", "181619.890000", "181619.893000", "181619.896000", "181619.900000", "181619.903000", "181619.906000", "181619.920000", "181619.924000", "181619.927000", "181619.951000", "181619.954000", "181619.957000", "181619.961000", "181619.964000", "181619.967000", "181619.970000", "181619.974000", "181619.977000", "181639.885000", "181639.888000", "181639.892000", "181639.895000", "181639.898000", "181639.909000", "181639.912000", "181639.915000", "181639.919000", "181639.922000", "181639.925000", "181639.928000", "181639.932000", "181639.935000", "181639.938000", "181639.942000", "181639.946000", "181639.949000", "181639.952000", "181639.956000", "181719.882000", "181719.886000", "181719.889000", "181719.892000", "181719.896000", "181719.899000", "181719.902000", "181719.905000", "181719.909000", "181719.912000", "181719.915000", "181719.919000", "181719.922000", "181719.925000", "181719.928000", "181719.932000", "181719.935000", "181719.938000", "181719.941000", "181719.945000", "181719.948000", "181719.951000", "181719.954000", "181719.958000", "181719.961000", "181719.964000", "181719.967000", "181719.971000", "181719.974000", "181719.977000", "181719.981000", "181719.984000", "181759.883000", "181759.887000", "181759.890000", "181759.893000", "181759.896000", "181759.900000", "181759.903000", "181759.906000", "181759.910000", "181759.913000", "181759.916000", "181759.919000", "181759.923000", "181759.926000", "181759.929000", "181759.932000", "181759.936000", "181759.939000", "181759.942000", "181759.945000", "181759.949000", "181759.952000", "181759.955000", "181759.958000", "181759.962000", "181759.965000", "181759.969000", "181839.883000", "181839.887000", "181839.890000", "181839.893000", "181839.897000", "181839.918000", "181839.921000", "181839.924000", "181839.928000", "181839.931000", "181839.934000", "181839.937000", "181839.941000", "181839.944000", "181839.947000", "181839.950000", "181839.953000", "181839.957000", "181839.960000", "181839.963000", "181839.967000", "181839.970000", "181839.973000", "181839.976000", "181839.980000", "181839.983000", "181839.986000", "181901.692000", "181901.696000", "181901.699000", "181901.702000", "181901.706000", "181901.709000", "181901.712000", "181901.716000", "181901.719000", "181901.722000", "181901.725000", "181901.729000", "181901.732000", "181901.735000", "181901.738000"],
      "InstanceCreationTime": ["181519.938000", "181519.942000", "181519.951000", "181519.958000", "181519.962000", "181519.965000", "181519.968000", "181519.971000", "181539.883000", "181539.887000", "181539.890000", "181539.893000", "181539.896000", "181539.900000", "181539.903000", "181539.907000", "181539.910000", "181539.913000", "181539.917000", "181539.920000", "181539.923000", "181539.927000", "181539.930000", "181539.933000", "181539.936000", "181539.940000", "181539.943000", "181539.946000", "181559.883000", "181559.887000", "181559.890000", "181559.893000", "181559.896000", "181559.905000", "181559.908000", "181559.911000", "181559.914000", "181559.917000", "181559.921000", "181559.924000", "181559.927000", "181559.930000", "181559.934000", "181559.937000", "181559.940000", "181559.943000", "181559.947000", "181559.950000", "181559.953000", "181619.883000", "181619.887000", "181619.890000", "181619.893000", "181619.896000", "181619.900000", "181619.903000", "181619.906000", "181619.920000", "181619.924000", "181619.927000", "181619.951000", "181619.954000", "181619.957000", "181619.961000", "181619.964000", "181619.967000", "181619.970000", "181619.974000", "181619.977000", "181639.885000", "181639.888000", "181639.892000", "181639.895000", "181639.898000", "181639.909000", "181639.912000", "181639.915000", "181639.919000", "181639.922000", "181639.925000", "181639.928000", "181639.932000", "181639.935000", "181639.938000", "181639.942000", "181639.946000", "181639.949000", "181639.952000", "181639.956000", "181719.882000", "181719.886000", "181719.889000", "181719.892000", "181719.896000", "181719.899000", "181719.902000", "181719.905000", "181719.909000", "181719.912000", "181719.915000", "181719.919000", "181719.922000", "181719.925000", "181719.928000", "181719.932000", "181719.935000", "181719.938000", "181719.941000", "181719.945000", "181719.948000", "181719.951000", "181719.954000", "181719.958000", "181719.961000", "181719.964000", "181719.967000", "181719.971000", "181719.974000", "181719.977000", "181719.981000", "181719.984000", "181759.883000", "181759.887000", "181759.890000", "181759.893000", "181759.896000", "181759.900000", "181759.903000", "181759.906000", "181759.910000", "181759.913000", "181759.916000", "181759.919000", "181759.923000", "181759.926000", "181759.929000", "181759.932000", "181759.936000", "181759.939000", "181759.942000", "181759.945000", "181759.949000", "181759.952000", "181759.955000", "181759.958000", "181759.962000", "181759.965000", "181759.969000", "181839.883000", "181839.887000", "181839.890000", "181839.893000", "181839.897000", "181839.918000", "181839.921000", "181839.924000", "181839.928000", "181839.931000", "181839.934000", "181839.937000", "181839.941000", "181839.944000", "181839.947000", "181839.950000", "181839.953000", "181839.957000", "181839.960000", "181839.963000", "181839.967000", "181839.970000", "181839.973000", "181839.976000", "181839.980000", "181839.983000", "181839.986000", "181901.692000", "181901.696000", "181901.699000", "181901.702000", "181901.706000", "181901.709000", "181901.712000", "181901.716000", "181901.719000", "181901.722000", "181901.725000", "181901.729000", "181901.732000", "181901.735000", "181901.738000"],
      "InstanceNumber": [1, 2, 3, 4, 5, 6, 7, 8, 9, 10, 11, 12, 13, 14, 15, 16, 17, 18, 19, 20, 21, 22, 23, 24, 25, 26, 27, 28, 29, 30, 31, 32, 33, 34, 35, 36, 37, 38, 39, 40, 41, 42, 43, 44, 45, 46, 47, 48, 49, 50, 51, 52, 53, 54, 55, 56, 57, 58, 59, 60, 61, 62, 63, 64, 65, 66, 67, 68, 69, 70, 71, 72, 73, 74, 75, 76, 77, 78, 79, 80, 81, 82, 83, 84, 85, 86, 87, 88, 89, 90, 91, 92, 93, 94, 95, 96, 97, 98, 99, 100, 101, 102, 103, 104, 105, 106, 107, 108, 109, 110, 111, 112, 113, 114, 115, 116, 117, 118, 119, 120, 121, 122, 123, 124, 125, 126, 127, 128, 129, 130, 131, 132, 133, 134, 135, 136, 137, 138, 139, 140, 141, 142, 143, 144, 145, 146, 147, 148, 149, 150, 151, 152, 153, 154, 155, 156, 157, 158, 159, 160, 161, 162, 163, 164, 165, 166, 167, 168, 169, 170, 171, 172, 173, 174, 175, 176, 177, 178, 179, 180, 181, 182, 183, 184, 185, 186, 187, 188, 189, 190],
      "LargestImagePixelValue": [40652, 40686, 41560, 41281, 43927, 39997, 40564, 40752, 40773, 39304, 39446, 40643, 40843, 40452, 38903, 38246, 40188, 39566, 39707, 39237, 38814, 39296, 39196, 39007, 38763, 39100, 39425, 39224, 38691, 39526, 39639, 38948, 39668, 40357, 39866, 39602, 40210, 39303, 40404, 40069, 39802, 40107, 40108, 40016, 39898, 39901, 38790, 38765, 40146, 41684, 41718, 41766, 41071, 40883, 41247, 41426, 41211, 40615, 40817, 41673, 42053, 41446, 40987, 40448, 41860, 42980, 42823, 42528, 41835, 41438, 40494, 40712, 41851, 41773, 41181, 41210, 41107, 41111, 44171, 41178, 40606, 41347, 41127, 41366, 41290, 41104, 41402, 41586, 41440, 41221, 41142, 41129, 41569, 41054, 43006, 44044, 42833, 42687, 41124, 40140, 39866, 39613, 41654, 42876, 42192, 42212, 42583, 41266, 40423, 41719, 42541, 42549, 41686, 39528, 40254, 42504, 41010, 41127, 40415, 40213, 40365, 41532, 42535, 41928, 41584, 41224, 41974, 42244, 41797, 42091, 42549, 42225, 40079, 40579, 40808, 43025, 41629, 40171, 37499, 37491, 40795, 46960, 41540, 41604, 42116, 41935, 40674, 41050, 41170, 41130, 40537, 40148, 40263, 41826, 42154, 40833, 41498, 41967, 42204, 41863, 46246, 41349, 42236, 43022, 42375, 41971, 39765, 39804, 42822, 43289, 40855, 47215, 39532, 39225, 40514, 41140, 41008, 41263, 40360, 41925, 39227, 39125, 39061, 39269, 39146, 38498, 39281, 46834, 45309, 40178],
      "WindowCenter": [10329.0, 10303.0, 10313.0, 10300.0, 10307.0, 10257.0, 10276.0, 10296.0, 10305.0, 10286.0, 10278.0, 10294.0, 10303.0, 10280.0, 10244.0, 10237.0, 10267.0, 10274.0, 10264.0, 10248.0, 10233.0, 10240.0, 10259.0, 10253.0, 10245.0, 10241.0, 10250.0, 10251.0, 10242.0, 10244.0, 10253.0, 10259.0, 10265.0, 10273.0, 10265.0, 10256.0, 10266.0, 10272.0, 10287.0, 10290.0, 10295.0, 10298.0, 10284.0, 10281.0, 10270.0, 10272.0, 10271.0, 10284.0, 10303.0, 10318.0, 10293.0, 10282.0, 10277.0, 10271.0, 10283.0, 10289.0, 10282.0, 10268.0, 10269.0, 10289.0, 10307.0, 10284.0, 10258.0, 10248.0, 10288.0, 10321.0, 10295.0, 10267.0, 10251.0, 10236.0, 10230.0, 10227.0, 10253.0, 10254.0, 10236.0, 10211.0, 10203.0, 10217.0, 10272.0, 10261.0, 10261.0, 10274.0, 10267.0, 10254.0, 10253.0, 10263.0, 10273.0, 10263.0, 10252.0, 10253.0, 10265.0, 10266.0, 10275.0, 10274.0, 10297.0, 10298.0, 10270.0, 10248.0, 10238.0, 10241.0, 10243.0, 10243.0, 10277.0, 10297.0, 10273.0, 10254.0, 10249.0, 10246.0, 10254.0, 10282.0, 10282.0, 10253.0, 10242.0, 10230.0, 10251.0, 10290.0, 10277.0, 10255.0, 10223.0, 10212.0, 10229.0, 10254.0, 10287.0, 10282.0, 10258.0, 10244.0, 10256.0, 10272.0, 10272.0, 10265.0, 10269.0, 10268.0, 10247.0, 10262.0, 10283.0, 10308.0, 10281.0, 10252.0, 10214.0, 10206.0, 10243.0, 10306.0, 10243.0, 10245.0, 10278.0, 10297.0, 10282.0, 10257.0, 10238.0, 10225.0, 10209.0, 10201.0, 10217.0, 10262.0, 10292.0, 10271.0, 10261.0, 10265.0, 10271.0, 10257.0, 10297.0, 10251.0, 10272.0, 10290.0, 10286.0, 10280.0, 10253.0, 10260.0, 10283.0, 10287.0, 10257.0, 10306.0, 10220.0, 10215.0, 10249.0, 10285.0, 10292.0, 10281.0, 10256.0, 10265.0, 10234.0, 10240.0, 10254.0, 10251.0, 10236.0, 10229.0, 10255.0, 10337.0, 10322.0, 10261.0],
      "WindowWidth": [21916.0, 21835.0, 21852.0, 21822.0, 21828.0, 21720.0, 21760.0, 21806.0, 21823.0, 21787.0, 21763.0, 21798.0, 21820.0, 21768.0, 21688.0, 21675.0, 21738.0, 21757.0, 21732.0, 21696.0, 21662.0, 21679.0, 21725.0, 21713.0, 21696.0, 21680.0, 21705.0, 21707.0, 21688.0, 21687.0, 21709.0, 21729.0, 21737.0, 21757.0, 21736.0, 21715.0, 21734.0, 21754.0, 21784.0, 21794.0, 21813.0, 21809.0, 21780.0, 21772.0, 21745.0, 21753.0, 21760.0, 21788.0, 21827.0, 21849.0, 21791.0, 21764.0, 21757.0, 21749.0, 21776.0, 21782.0, 21766.0, 21738.0, 21740.0, 21782.0, 21824.0, 21773.0, 21709.0, 21694.0, 21777.0, 21865.0, 21796.0, 21727.0, 21692.0, 21661.0, 21647.0, 21639.0, 21693.0, 21702.0, 21658.0, 21605.0, 21587.0, 21619.0, 21742.0, 21718.0, 21721.0, 21748.0, 21734.0, 21701.0, 21699.0, 21728.0, 21754.0, 21729.0, 21701.0, 21701.0, 21739.0, 21735.0, 21750.0, 21751.0, 21795.0, 21796.0, 21738.0, 21687.0, 21668.0, 21684.0, 21683.0, 21679.0, 21751.0, 21793.0, 21744.0, 21700.0, 21687.0, 21686.0, 21704.0, 21760.0, 21764.0, 21694.0, 21682.0, 21658.0, 21703.0, 21780.0, 21760.0, 21705.0, 21632.0, 21609.0, 21652.0, 21699.0, 21776.0, 21763.0, 21706.0, 21679.0, 21708.0, 21744.0, 21741.0, 21724.0, 21731.0, 21728.0, 21696.0, 21731.0, 21777.0, 21826.0, 21766.0, 21701.0, 21634.0, 21613.0, 21682.0, 21817.0, 21682.0, 21686.0, 21768.0, 21801.0, 21769.0, 21715.0, 21660.0, 21629.0, 21598.0, 21582.0, 21622.0, 21722.0, 21798.0, 21742.0, 21719.0, 21725.0, 21740.0, 21710.0, 21798.0, 21695.0, 21741.0, 21782.0, 21776.0, 21760.0, 21712.0, 21729.0, 21769.0, 21772.0, 21710.0, 21815.0, 21632.0, 21626.0, 21697.0, 21781.0, 21802.0, 21770.0, 21716.0, 21740.0, 21676.0, 21690.0, 21725.0, 21713.0, 21680.0, 21665.0, 21721.0, 21898.0, 21860.0, 21729.0]
    },
    "slices": {}
  }
}