{
  "AcquisitionMatrixPE": 104,
  "AcquisitionNumber": 1,
  "AcquisitionTime": "17:32:19.945000",
  "BandwidthPerPixelPhaseEncode": 17.17,
  "BaseResolution": 104,
  "BodyPartExamined": "BRAIN",
  "CoilString": "HC1-7;NC1_2",
  "ConsistencyInfo": "N4_VE11C_LATEST_20160120",
  "ConversionSoftware": "dcm2niix",
  "ConversionSoftwareVersion": "v1.0.20190902",
  "DerivedVendorReportedEchoSpacing": 0.000560011,
  "DeviceSerialNumber": "167006",
  "DwellTime": 2.1e-06,
  "EchoTime": 0.037,
  "EchoTrainLength": 104,
  "EffectiveEchoSpacing": 0.000560011,
  "FlipAngle": 52,
  "HeudiconvVersion": "0.10.0",
  "ImageComments": "Unaliased_MB4_PE3_LB",
  "ImageOrientationPatientDICOM": [0.994468, 0.0957469, 0.0431908, -0.0733782, 0.927493, -0.366568],
  "ImageType": [
    "ORIGINAL",
    "PRIMARY",
    "P",
    "MB",
    "ND",
    "MOSAIC"
],
  "ImagingFrequency": 123.259,
  "InPlanePhaseEncodingDirectionDICOM": "COL",
  "InstitutionAddress": "Chemin_Queen-Mary_4565_Montreal_District_CA_H3W_1W5",
  "InstitutionName": "IUGM",
  "InstitutionalDepartmentName": "Department",
  "MRAcquisitionType": "2D",
  "MagneticFieldStrength": 3,
  "Manufacturer": "Siemens",
  "ManufacturersModelName": "Prisma_fit",
  "Modality": "MR",
  "MultibandAccelerationFactor": 4,
  "PartialFourier": 1,
  "PatientPosition": "HFS",
  "PercentPhaseFOV": 100,
  "PhaseEncodingDirection": "j",
  "PhaseEncodingSteps": 104,
  "PhaseResolution": 1,
  "PixelBandwidth": 2290,
  "ProcedureStepDescription": "memory_things",
  "ProtocolName": "func_task-things_run-2",
  "PulseSequenceDetails": "%CustomerSeq%_cmrr_mbep2d_bold",
  "ReceiveCoilActiveElements": "HC1-7;NC1,2",
  "ReceiveCoilName": "HeadNeck_64",
  "ReconMatrixPE": 104,
  "RepetitionTime": 1.49,
  "SAR": 0.069823,
  "ScanOptions": "FS",
  "ScanningSequence": "EP",
  "SequenceName": "epfid2d1_104",
  "SequenceVariant": "SK_SS",
  "SeriesDescription": "func_task-things_run-2",
  "SeriesNumber": 14,
  "ShimSetting": [639, -7188, -8832, 628, 75, 48, -58, 11],
  "SliceThickness": 2,
  "SliceTiming": [0, 0.785, 0.0975, 0.8825, 0.195, 0.98, 0.295, 1.0775, 0.3925, 1.175, 0.49, 1.275, 0.5875, 1.3725, 0.685, 0, 0.785, 0.0975, 0.8825, 0.195, 0.98, 0.295, 1.0775, 0.3925, 1.175, 0.49, 1.275, 0.5875, 1.3725, 0.685, 0, 0.785, 0.0975, 0.8825, 0.195, 0.98, 0.295, 1.0775, 0.3925, 1.175, 0.49, 1.275, 0.5875, 1.3725, 0.685, 0, 0.785, 0.0975, 0.8825, 0.195, 0.98, 0.295, 1.0775, 0.3925, 1.175, 0.49, 1.275, 0.5875, 1.3725, 0.685],
  "SoftwareVersions": "syngo_MR_E11",
  "SpacingBetweenSlices": 2,
  "StationName": "MRC35049",
  "TaskName": "things",
  "TotalReadoutTime": 0.0576811,
  "TxRefAmp": 312.19,
  "WipMemBlock": "eeabda4b-2be2-4dee-acce-0571ca234db2||Sequence: R016 ve11c/master r/e634e98; Dec 19 2017 11:00:25 by eja",
  "dcmmeta_affine": [
    [-1.9889365434646606, -0.14675630629062653, 0.15031380951404572, 109.10713195800781],
    [-0.19149382412433624, 1.8549861907958984, -0.7227421402931213, -49.697479248046875],
    [0.08638154715299606, 0.7331361770629883, 1.858776330947876, -70.28275299072266],
    [0.0, 0.0, 0.0, 1.0]
],
  "dcmmeta_reorient_transform": [
    [0.0, -1.0, 0.0, 103.0],
    [1.0, 0.0, 0.0, 0.0],
    [0.0, 0.0, 1.0, 0.0],
    [0.0, 0.0, 0.0, 1.0]
],
  "dcmmeta_shape": [104, 104, 60, 190],
  "dcmmeta_slice_dim": 2,
  "dcmmeta_version": 0.6,
  "global": {
    "const": {
      "AcquisitionMatrix": [104, 0, 0, 104],
      "AngioFlag": "N",
      "BitsAllocated": 16,
      "BitsStored": 16,
      "BodyPartExamined": "BRAIN",
      "Columns": 832,
      "EchoNumbers": 1,
      "EchoTime": 37.0,
      "EchoTrainLength": 104,
      "FlipAngle": 52.0,
      "HighBit": 15,
      "ImageOrientationPatient": [0.99446824289468, 0.095746910332, 0.04319077489275, -0.0733781505331, 0.92749311699224, -0.3665680904776],
      "ImagePositionPatient": [-764.544820066, -886.28484137513, 240.64896182962],
      "ImageType": [
        "ORIGINAL",
        "PRIMARY",
        "P",
        "MB",
        "ND",
        "MOSAIC"
],
      "ImagedNucleus": "1H",
      "ImagingFrequency": 123.258899,
      "InPlanePhaseEncodingDirection": "COL",
      "LargestImagePixelValue": 4095,
      "MRAcquisitionType": "2D",
      "MagneticFieldStrength": 3.0,
      "Manufacturer": "SIEMENS",
      "ManufacturerModelName": "Prisma_fit",
      "Modality": "MR",
      "NumberOfAverages": 1.0,
      "NumberOfPhaseEncodingSteps": 104,
      "PercentPhaseFieldOfView": 100.0,
      "PercentSampling": 100.0,
      "PerformedProcedureStepStartTime": "170217.592000",
      "PhotometricInterpretation": "MONOCHROME2",
      "PixelBandwidth": 2290.0,
      "PixelRepresentation": 0,
      "PixelSpacing": [2.0, 2.0],
      "ProtocolName": "func_task-things_run-2",
      "RepetitionTime": 1490.0,
      "RescaleIntercept": -4096.0,
      "RescaleSlope": 2.0,
      "RescaleType": "US",
      "Rows": 832,
      "SAR": 0.06982297156568,
      "SamplesPerPixel": 1,
      "ScanOptions": "FS",
      "ScanningSequence": "EP",
      "SequenceName": "epfid2d1_104",
      "SequenceVariant": [
        "SK",
        "SS"
],
      "SeriesDescription": "func_task-things_run-2",
      "SeriesNumber": 14,
      "SeriesTime": "173322.566000",
      "SliceLocation": -39.160571474815,
      "SliceThickness": 2.0,
      "SmallestImagePixelValue": 0,
      "SoftwareVersions": "syngo MR E11",
      "SpacingBetweenSlices": 1.9999999466076,
      "SpecificCharacterSet": "ISO_IR 100",
      "StudyID": "1",
      "StudyTime": "170217.435000",
      "TransmitCoilName": "Body",
      "VariableFlipAngleFlag": "N",
      "WindowCenterWidthExplanation": "Algo1",
      "dBdt": 0.0},
    "slices": {}
  },
  "time": {
    "samples": {
      "AcquisitionNumber": [1, 2, 3, 4, 5, 6, 7, 8, 9, 10, 11, 12, 13, 14, 15, 16, 17, 18, 19, 20, 21, 22, 23, 24, 25, 26, 27, 28, 29, 30, 31, 32, 33, 34, 35, 36, 37, 38, 39, 40, 41, 42, 43, 44, 45, 46, 47, 48, 49, 50, 51, 52, 53, 54, 55, 56, 57, 58, 59, 60, 61, 62, 63, 64, 65, 66, 67, 68, 69, 70, 71, 72, 73, 74, 75, 76, 77, 78, 79, 80, 81, 82, 83, 84, 85, 86, 87, 88, 89, 90, 91, 92, 93, 94, 95, 96, 97, 98, 99, 100, 101, 102, 103, 104, 105, 106, 107, 108, 109, 110, 111, 112, 113, 114, 115, 116, 117, 118, 119, 120, 121, 122, 123, 124, 125, 126, 127, 128, 129, 130, 131, 132, 133, 134, 135, 136, 137, 138, 139, 140, 141, 142, 143, 144, 145, 146, 147, 148, 149, 150, 151, 152, 153, 154, 155, 156, 157, 158, 159, 160, 161, 162, 163, 164, 165, 166, 167, 168, 169, 170, 171, 172, 173, 174, 175, 176, 177, 178, 179, 180, 181, 182, 183, 184, 185, 186, 187, 188, 189, 190],
      "AcquisitionTime": ["173219.945000", "173221.435000", "173222.925000", "173224.415000", "173225.905000", "173227.395000", "173228.885000", "173230.375000", "173231.865000", "173233.355000", "173234.845000", "173236.335000", "173237.825000", "173239.315000", "173240.805000", "173242.295000", "173243.785000", "173245.275000", "173246.765000", "173248.255000", "173249.745000", "173251.235000", "173252.725000", "173254.215000", "173255.705000", "173257.195000", "173258.685000", "173300.175000", "173301.665000", "173303.155000", "173304.645000", "173306.135000", "173307.625000", "173309.115000", "173310.605000", "173312.095000", "173313.585000", "173315.075000", "173316.565000", "173318.055000", "173319.545000", "173321.035000", "173322.525000", "173324.015000", "173325.505000", "173326.995000", "173328.485000", "173329.975000", "173331.465000", "173332.955000", "173334.445000", "173335.935000", "173337.425000", "173338.915000", "173340.405000", "173341.895000", "173343.385000", "173344.875000", "173346.365000", "173347.855000", "173349.345000", "173350.835000", "173352.325000", "173353.815000", "173355.305000", "173356.795000", "173358.285000", "173359.775000", "173401.265000", "173402.755000", "173404.245000", "173405.735000", "173407.225000", "173408.715000", "173410.205000", "173411.695000", "173413.185000", "173414.675000", "173416.165000", "173417.655000", "173419.145000", "173420.635000", "173422.125000", "173423.615000", "173425.105000", "173426.595000", "173428.085000", "173429.575000", "173431.065000", "173432.555000", "173434.045000", "173435.535000", "173437.025000", "173438.515000", "173440.005000", "173441.495000", "173442.985000", "173444.475000", "173445.965000", "173447.455000", "173448.945000", "173450.435000", "173451.925000", "173453.415000", "173454.905000", "173456.395000", "173457.885000", "173459.375000", "173500.865000", "173502.355000", "173503.845000", "173505.335000", "173506.825000", "173508.315000", "173509.805000", "173511.295000", "173512.785000", "173514.275000", "173515.765000", "173517.255000", "173518.745000", "173520.235000", "173521.725000", "173523.215000", "173524.705000", "173526.195000", "173527.685000", "173529.175000", "173530.665000", "173532.155000", "173533.645000", "173535.135000", "173536.625000", "173538.115000", "173539.605000", "173541.095000", "173542.585000", "173544.075000", "173545.565000", "173547.055000", "173548.545000", "173550.035000", "173551.525000", "173553.015000", "173554.505000", "173555.995000", "173557.485000", "173558.975000", "173600.465000", "173601.955000", "173603.445000", "173604.935000", "173606.425000", "173607.915000", "173609.405000", "173610.895000", "173612.385000", "173613.875000", "173615.365000", "173616.855000", "173618.345000", "173619.835000", "173621.325000", "173622.815000", "173624.305000", "173625.795000", "173627.285000", "173628.775000", "173630.265000", "173631.755000", "173633.245000", "173634.735000", "173636.225000", "173637.715000", "173639.205000", "173640.695000", "173642.185000", "173643.675000", "173645.165000", "173646.655000", "173648.145000", "173649.635000", "173651.125000", "173652.615000", "173654.105000", "173655.595000", "173657.085000", "173658.575000", "173700.065000", "173701.555000"],
      "ContentTime": ["173322.568000", "173322.571000", "173322.576000", "173322.578000", "173322.581000", "173322.583000", "173322.585000", "173322.588000", "173322.590000", "173342.590000", "173342.592000", "173342.595000", "173342.597000", "173342.600000", "173342.602000", "173342.605000", "173342.607000", "173342.610000", "173342.613000", "173342.615000", "173342.617000", "173342.620000", "173342.622000", "173342.625000", "173342.627000", "173342.634000", "173342.637000", "173342.639000", "173342.642000", "173402.594000", "173402.597000", "173402.599000", "173402.602000", "173402.604000", "173402.607000", "173402.609000", "173402.612000", "173402.614000", "173402.617000", "173402.619000", "173402.622000", "173402.624000", "173402.627000", "173402.629000", "173402.631000", "173402.634000", "173402.636000", "173402.639000", "173402.641000", "173422.599000", "173422.602000", "173422.604000", "173422.607000", "173422.610000", "173422.613000", "173422.615000", "173422.618000", "173422.620000", "173422.623000", "173422.626000", "173422.628000", "173422.631000", "173422.633000", "173422.636000", "173422.638000", "173422.641000", "173422.644000", "173422.646000", "173422.648000", "173442.598000", "173442.601000", "173442.603000", "173442.606000", "173442.608000", "173442.611000", "173442.613000", "173442.616000", "173442.618000", "173442.621000", "173442.623000", "173442.626000", "173442.628000", "173442.631000", "173442.633000", "173442.636000", "173442.638000", "173442.640000", "173442.643000", "173442.645000", "173442.648000", "173522.658000", "173522.661000", "173522.663000", "173522.666000", "173522.668000", "173522.671000", "173522.673000", "173522.676000", "173522.678000", "173522.681000", "173522.683000", "173522.686000", "173522.688000", "173522.691000", "173522.693000", "173522.696000", "173522.698000", "173522.701000", "173522.703000", "173522.706000", "173522.708000", "173522.711000", "173522.713000", "173522.716000", "173522.718000", "173522.720000", "173522.723000", "173522.725000", "173522.728000", "173522.730000", "173522.733000", "173522.735000", "173602.621000", "173602.625000", "173602.628000", "173602.631000", "173602.633000", "173602.636000", "173602.638000", "173602.641000", "173602.643000", "173602.646000", "173602.648000", "173602.651000", "173602.653000", "173602.655000", "173602.658000", "173602.660000", "173602.663000", "173602.665000", "173602.668000", "173602.670000", "173602.673000", "173602.675000", "173602.678000", "173602.680000", "173602.683000", "173602.685000", "173642.627000", "173642.630000", "173642.633000", "173642.635000", "173642.638000", "173642.640000", "173642.643000", "173642.645000", "173642.648000", "173642.650000", "173642.653000", "173642.655000", "173642.658000", "173642.660000", "173642.662000", "173642.665000", "173642.667000", "173642.670000", "173642.672000", "173642.675000", "173642.677000", "173642.680000", "173642.682000", "173642.685000", "173642.687000", "173642.690000", "173642.692000", "173703.869000", "173703.872000", "173703.875000", "173703.877000", "173703.880000", "173703.882000", "173703.885000", "173703.887000", "173703.890000", "173703.892000", "173703.895000", "173703.897000", "173703.900000", "173703.902000", "173703.905000"],
      "InstanceCreationTime": ["173322.568000", "173322.571000", "173322.576000", "173322.578000", "173322.581000", "173322.583000", "173322.585000", "173322.588000", "173322.590000", "173342.590000", "173342.592000", "173342.595000", "173342.597000", "173342.600000", "173342.602000", "173342.605000", "173342.607000", "173342.610000", "173342.613000", "173342.615000", "173342.617000", "173342.620000", "173342.622000", "173342.625000", "173342.627000", "173342.634000", "173342.637000", "173342.639000", "173342.642000", "173402.594000", "173402.597000", "173402.599000", "173402.602000", "173402.604000", "173402.607000", "173402.609000", "173402.612000", "173402.614000", "173402.617000", "173402.619000", "173402.622000", "173402.624000", "173402.627000", "173402.629000", "173402.631000", "173402.634000", "173402.636000", "173402.639000", "173402.641000", "173422.599000", "173422.602000", "173422.604000", "173422.607000", "173422.610000", "173422.613000", "173422.615000", "173422.618000", "173422.620000", "173422.623000", "173422.626000", "173422.628000", "173422.631000", "173422.633000", "173422.636000", "173422.638000", "173422.641000", "173422.644000", "173422.646000", "173422.648000", "173442.598000", "173442.601000", "173442.603000", "173442.606000", "173442.608000", "173442.611000", "173442.613000", "173442.616000", "173442.618000", "173442.621000", "173442.623000", "173442.626000", "173442.628000", "173442.631000", "173442.633000", "173442.636000", "173442.638000", "173442.640000", "173442.643000", "173442.645000", "173442.648000", "173522.658000", "173522.661000", "173522.663000", "173522.666000", "173522.668000", "173522.671000", "173522.673000", "173522.676000", "173522.678000", "173522.681000", "173522.683000", "173522.686000", "173522.688000", "173522.691000", "173522.693000", "173522.696000", "173522.698000", "173522.701000", "173522.703000", "173522.706000", "173522.708000", "173522.711000", "173522.713000", "173522.716000", "173522.718000", "173522.720000", "173522.723000", "173522.725000", "173522.728000", "173522.730000", "173522.733000", "173522.735000", "173602.621000", "173602.625000", "173602.628000", "173602.631000", "173602.633000", "173602.636000", "173602.638000", "173602.641000", "173602.643000", "173602.646000", "173602.648000", "173602.651000", "173602.653000", "173602.655000", "173602.658000", "173602.660000", "173602.663000", "173602.665000", "173602.668000", "173602.670000", "173602.673000", "173602.675000", "173602.678000", "173602.680000", "173602.683000", "173602.685000", "173642.627000", "173642.630000", "173642.633000", "173642.635000", "173642.638000", "173642.640000", "173642.643000", "173642.645000", "173642.648000", "173642.650000", "173642.653000", "173642.655000", "173642.658000", "173642.660000", "173642.662000", "173642.665000", "173642.667000", "173642.670000", "173642.672000", "173642.675000", "173642.677000", "173642.680000", "173642.682000", "173642.685000", "173642.687000", "173642.690000", "173642.692000", "173703.869000", "173703.872000", "173703.875000", "173703.877000", "173703.880000", "173703.882000", "173703.885000", "173703.887000", "173703.890000", "173703.892000", "173703.895000", "173703.897000", "173703.900000", "173703.902000", "173703.905000"],
      "InstanceNumber": [1, 2, 3, 4, 5, 6, 7, 8, 9, 10, 11, 12, 13, 14, 15, 16, 17, 18, 19, 20, 21, 22, 23, 24, 25, 26, 27, 28, 29, 30, 31, 32, 33, 34, 35, 36, 37, 38, 39, 40, 41, 42, 43, 44, 45, 46, 47, 48, 49, 50, 51, 52, 53, 54, 55, 56, 57, 58, 59, 60, 61, 62, 63, 64, 65, 66, 67, 68, 69, 70, 71, 72, 73, 74, 75, 76, 77, 78, 79, 80, 81, 82, 83, 84, 85, 86, 87, 88, 89, 90, 91, 92, 93, 94, 95, 96, 97, 98, 99, 100, 101, 102, 103, 104, 105, 106, 107, 108, 109, 110, 111, 112, 113, 114, 115, 116, 117, 118, 119, 120, 121, 122, 123, 124, 125, 126, 127, 128, 129, 130, 131, 132, 133, 134, 135, 136, 137, 138, 139, 140, 141, 142, 143, 144, 145, 146, 147, 148, 149, 150, 151, 152, 153, 154, 155, 156, 157, 158, 159, 160, 161, 162, 163, 164, 165, 166, 167, 168, 169, 170, 171, 172, 173, 174, 175, 176, 177, 178, 179, 180, 181, 182, 183, 184, 185, 186, 187, 188, 189, 190],
      "WindowCenter": [4802.0, 4778.0, 4786.0, 4780.0, 4780.0, 4778.0, 4802.0, 4780.0, 4778.0, 4782.0, 4782.0, 4782.0, 4802.0, 4804.0, 4780.0, 4780.0, 4804.0, 4778.0, 4782.0, 4780.0, 4778.0, 4782.0, 4780.0, 4804.0, 4784.0, 4778.0, 4778.0, 4780.0, 4780.0, 4780.0, 4802.0, 4780.0, 4782.0, 4780.0, 4780.0, 4782.0, 4782.0, 4782.0, 4780.0, 4778.0, 4810.0, 4782.0, 4804.0, 4780.0, 4782.0, 4782.0, 4804.0, 4780.0, 4802.0, 4802.0, 4802.0, 4782.0, 4806.0, 4780.0, 4782.0, 4780.0, 4782.0, 4780.0, 4782.0, 4778.0, 4782.0, 4804.0, 4802.0, 4780.0, 4806.0, 4806.0, 4782.0, 4780.0, 4804.0, 4784.0, 4802.0, 4780.0, 4782.0, 4784.0, 4782.0, 4778.0, 4782.0, 4806.0, 4780.0, 4782.0, 4782.0, 4804.0, 4782.0, 4780.0, 4804.0, 4782.0, 4780.0, 4782.0, 4782.0, 4780.0, 4784.0, 4806.0, 4784.0, 4784.0, 4784.0, 4780.0, 4782.0, 4804.0, 4804.0, 4780.0, 4780.0, 4780.0, 4784.0, 4782.0, 4780.0, 4780.0, 4780.0, 4782.0, 4780.0, 4780.0, 4780.0, 4782.0, 4782.0, 4784.0, 4780.0, 4780.0, 4780.0, 4776.0, 4780.0, 4778.0, 4780.0, 4782.0, 4780.0, 4782.0, 4780.0, 4782.0, 4782.0, 4778.0, 4780.0, 4778.0, 4780.0, 4776.0, 4780.0, 4778.0, 4780.0, 4782.0, 4780.0, 4776.0, 4776.0, 4780.0, 4782.0, 4808.0, 4784.0, 4782.0, 4788.0, 4780.0, 4780.0, 4782.0, 4778.0, 4778.0, 4776.0, 4782.0, 4784.0, 4780.0, 4780.0, 4780.0, 4780.0, 4780.0, 4780.0, 4778.0, 4782.0, 4778.0, 4782.0, 4782.0, 4782.0, 4784.0, 4782.0, 4782.0, 4784.0, 4782.0, 4782.0, 4782.0, 4786.0, 4806.0, 4780.0, 4782.0, 4780.0, 4778.0, 4804.0, 4782.0, 4782.0, 4782.0, 4780.0, 4782.0, 4782.0, 4784.0, 4780.0, 4780.0, 4780.0, 4780.0],
      "WindowWidth": [18590.0, 18554.0, 18564.0, 18560.0, 18562.0, 18560.0, 18592.0, 18560.0, 18560.0, 18562.0, 18564.0, 18564.0, 18590.0, 18592.0, 18562.0, 18562.0, 18590.0, 18558.0, 18558.0, 18558.0, 18560.0, 18562.0, 18556.0, 18594.0, 18562.0, 18564.0, 18556.0, 18556.0, 18560.0, 18564.0, 18590.0, 18560.0, 18562.0, 18558.0, 18558.0, 18560.0, 18560.0, 18560.0, 18558.0, 18554.0, 18602.0, 18564.0, 18598.0, 18560.0, 18562.0, 18564.0, 18590.0, 18556.0, 18590.0, 18590.0, 18592.0, 18560.0, 18596.0, 18562.0, 18558.0, 18558.0, 18564.0, 18558.0, 18562.0, 18562.0, 18562.0, 18592.0, 18592.0, 18560.0, 18592.0, 18594.0, 18560.0, 18558.0, 18592.0, 18564.0, 18590.0, 18560.0, 18564.0, 18560.0, 18560.0, 18560.0, 18558.0, 18592.0, 18558.0, 18562.0, 18556.0, 18592.0, 18562.0, 18562.0, 18592.0, 18564.0, 18560.0, 18560.0, 18560.0, 18560.0, 18560.0, 18594.0, 18560.0, 18562.0, 18558.0, 18562.0, 18558.0, 18592.0, 18586.0, 18558.0, 18558.0, 18562.0, 18560.0, 18566.0, 18558.0, 18564.0, 18562.0, 18564.0, 18564.0, 18562.0, 18560.0, 18562.0, 18564.0, 18568.0, 18562.0, 18560.0, 18564.0, 18558.0, 18562.0, 18568.0, 18560.0, 18568.0, 18564.0, 18566.0, 18566.0, 18564.0, 18566.0, 18560.0, 18562.0, 18562.0, 18566.0, 18554.0, 18562.0, 18564.0, 18562.0, 18568.0, 18564.0, 18560.0, 18558.0, 18562.0, 18562.0, 18598.0, 18566.0, 18560.0, 18570.0, 18564.0, 18562.0, 18566.0, 18564.0, 18558.0, 18560.0, 18562.0, 18566.0, 18562.0, 18564.0, 18564.0, 18562.0, 18558.0, 18560.0, 18558.0, 18566.0, 18556.0, 18568.0, 18562.0, 18564.0, 18568.0, 18566.0, 18564.0, 18566.0, 18562.0, 18560.0, 18562.0, 18564.0, 18592.0, 18560.0, 18566.0, 18560.0, 18560.0, 18592.0, 18566.0, 18562.0, 18568.0, 18564.0, 18564.0, 18564.0, 18564.0, 18560.0, 18566.0, 18562.0, 18566.0]
    },
    "slices": {}
  }
}