{
  "AcquisitionMatrixPE": 104,
  "AcquisitionNumber": 1,
  "AcquisitionTime": "14:25:10.735000",
  "BandwidthPerPixelPhaseEncode": 17.17,
  "BaseResolution": 104,
  "BodyPartExamined": "BRAIN",
  "CoilString": "HC1-7;NC1_2",
  "ConsistencyInfo": "N4_VE11C_LATEST_20160120",
  "ConversionSoftware": "dcm2niix",
  "ConversionSoftwareVersion": "v1.0.20190902",
  "DerivedVendorReportedEchoSpacing": 0.000560011,
  "DeviceSerialNumber": "167006",
  "DwellTime": 2.1e-06,
  "EchoTime": 0.037,
  "EchoTrainLength": 104,
  "EffectiveEchoSpacing": 0.000560011,
  "FlipAngle": 52,
  "ImageComments": "Unaliased_MB4_PE3_LB",
  "ImageOrientationPatientDICOM": [0.999021, 0.0137993, 0.0420409, -0.00226669, 0.964839, -0.262832],
  "ImageType": [
    "ORIGINAL",
    "PRIMARY",
    "P",
    "MB",
    "ND",
    "MOSAIC"
],
  "ImagingFrequency": 123.259,
  "InPlanePhaseEncodingDirectionDICOM": "COL",
  "InstitutionAddress": "Chemin_Queen-Mary_4565_Montreal_District_CA_H3W_1W5",
  "InstitutionName": "IUGM",
  "InstitutionalDepartmentName": "Department",
  "MRAcquisitionType": "2D",
  "MagneticFieldStrength": 3,
  "Manufacturer": "Siemens",
  "ManufacturersModelName": "Prisma_fit",
  "Modality": "MR",
  "MultibandAccelerationFactor": 4,
  "PartialFourier": 1,
  "PatientPosition": "HFS",
  "PercentPhaseFOV": 100,
  "PhaseEncodingDirection": "j",
  "PhaseEncodingSteps": 104,
  "PhaseResolution": 1,
  "PixelBandwidth": 2290,
  "ProcedureStepDescription": "memory_things",
  "ProtocolName": "func_task-things_run-5",
  "PulseSequenceDetails": "%CustomerSeq%_cmrr_mbep2d_bold",
  "ReceiveCoilActiveElements": "HC1-7;NC1,2",
  "ReceiveCoilName": "HeadNeck_64",
  "ReconMatrixPE": 104,
  "RepetitionTime": 1.49,
  "SAR": 0.0382207,
  "ScanOptions": "FS",
  "ScanningSequence": "EP",
  "SequenceName": "epfid2d1_104",
  "SequenceVariant": "SK_SS",
  "SeriesDescription": "func_task-things_run-5",
  "SeriesNumber": 26,
  "ShimSetting": [640, -7199, -8809, 708, 64, 36, 37, 6],
  "SliceThickness": 2,
  "SliceTiming": [0, 0.785, 0.0975, 0.8825, 0.195, 0.98, 0.295, 1.0775, 0.3925, 1.175, 0.49, 1.275, 0.5875, 1.3725, 0.685, 0, 0.785, 0.0975, 0.8825, 0.195, 0.98, 0.295, 1.0775, 0.3925, 1.175, 0.49, 1.275, 0.5875, 1.3725, 0.685, 0, 0.785, 0.0975, 0.8825, 0.195, 0.98, 0.295, 1.0775, 0.3925, 1.175, 0.49, 1.275, 0.5875, 1.3725, 0.685, 0, 0.785, 0.0975, 0.8825, 0.195, 0.98, 0.295, 1.0775, 0.3925, 1.175, 0.49, 1.275, 0.5875, 1.3725, 0.685],
  "SoftwareVersions": "syngo_MR_E11",
  "SpacingBetweenSlices": 2,
  "StationName": "MRC35049",
  "TaskName": "things",
  "TotalReadoutTime": 0.0576811,
  "TxRefAmp": 215.881,
  "WipMemBlock": "ce9a4676-48b9-4b97-982c-887bf516bd70||Sequence: R016 ve11c/master r/e634e98; Dec 19 2017 11:00:25 by eja",
  "dcmmeta_affine": [
    [-1.9980411529541016, -0.004533377941697836, 0.0883791372179985, 106.60104370117188],
    [-0.027598680928349495, 1.9296780824661255, -0.524958074092865, -72.72903442382812],
    [0.0840817242860794, 0.5256634950637817, 1.9278507232666016, -70.37113189697266],
    [0.0, 0.0, 0.0, 1.0]
],
  "dcmmeta_reorient_transform": [
    [0.0, -1.0, 0.0, 103.0],
    [1.0, 0.0, 0.0, 0.0],
    [0.0, 0.0, 1.0, 0.0],
    [0.0, 0.0, 0.0, 1.0]
],
  "dcmmeta_shape": [104, 104, 60, 190],
  "dcmmeta_slice_dim": 2,
  "dcmmeta_version": 0.6,
  "global": {
    "const": {
      "AcquisitionMatrix": [104, 0, 0, 104],
      "AngioFlag": "N",
      "BitsAllocated": 16,
      "BitsStored": 16,
      "BodyPartExamined": "BRAIN",
      "Columns": 832,
      "EchoNumbers": 1,
      "EchoTime": 37.0,
      "EchoTrainLength": 104,
      "FlipAngle": 52.0,
      "HighBit": 15,
      "ImageOrientationPatient": [0.99902059244855, 0.01379934072632, 0.04204086178065, -0.0022666890563, 0.96483901903714, -0.2628317512482],
      "ImagePositionPatient": [-831.77095115168, -838.47652976717, 144.5079756339],
      "ImageType": [
        "ORIGINAL",
        "PRIMARY",
        "P",
        "MB",
        "ND",
        "MOSAIC"
],
      "ImagedNucleus": "1H",
      "ImagingFrequency": 123.25898,
      "InPlanePhaseEncodingDirection": "COL",
      "LargestImagePixelValue": 4095,
      "MRAcquisitionType": "2D",
      "MagneticFieldStrength": 3.0,
      "Manufacturer": "SIEMENS",
      "ManufacturerModelName": "Prisma_fit",
      "Modality": "MR",
      "NumberOfAverages": 1.0,
      "NumberOfPhaseEncodingSteps": 104,
      "PercentPhaseFieldOfView": 100.0,
      "PercentSampling": 100.0,
      "PerformedProcedureStepStartTime": "130354.233000",
      "PhotometricInterpretation": "MONOCHROME2",
      "PixelBandwidth": 2290.0,
      "PixelRepresentation": 0,
      "PixelSpacing": [2.0, 2.0],
      "ProtocolName": "func_task-things_run-5",
      "RepetitionTime": 1490.0,
      "RescaleIntercept": -4096.0,
      "RescaleSlope": 2.0,
      "RescaleType": "US",
      "Rows": 832,
      "SAR": 0.03822069864303,
      "SamplesPerPixel": 1,
      "ScanOptions": "FS",
      "ScanningSequence": "EP",
      "SequenceName": "epfid2d1_104",
      "SequenceVariant": [
        "SK",
        "SS"
],
      "SeriesDescription": "func_task-things_run-5",
      "SeriesNumber": 26,
      "SeriesTime": "142643.938000",
      "SliceLocation": -44.032015844653,
      "SliceThickness": 2.0,
      "SmallestImagePixelValue": 0,
      "SoftwareVersions": "syngo MR E11",
      "SpacingBetweenSlices": 2.0000000329685,
      "SpecificCharacterSet": "ISO_IR 100",
      "StudyID": "1",
      "StudyTime": "130354.050000",
      "TransmitCoilName": "Body",
      "VariableFlipAngleFlag": "N",
      "WindowCenterWidthExplanation": "Algo1",
      "dBdt": 0.0},
    "slices": {}
  },
  "time": {
    "samples": {
      "AcquisitionNumber": [1, 2, 3, 4, 5, 6, 7, 8, 9, 10, 11, 12, 13, 14, 15, 16, 17, 18, 19, 20, 21, 22, 23, 24, 25, 26, 27, 28, 29, 30, 31, 32, 33, 34, 35, 36, 37, 38, 39, 40, 41, 42, 43, 44, 45, 46, 47, 48, 49, 50, 51, 52, 53, 54, 55, 56, 57, 58, 59, 60, 61, 62, 63, 64, 65, 66, 67, 68, 69, 70, 71, 72, 73, 74, 75, 76, 77, 78, 79, 80, 81, 82, 83, 84, 85, 86, 87, 88, 89, 90, 91, 92, 93, 94, 95, 96, 97, 98, 99, 100, 101, 102, 103, 104, 105, 106, 107, 108, 109, 110, 111, 112, 113, 114, 115, 116, 117, 118, 119, 120, 121, 122, 123, 124, 125, 126, 127, 128, 129, 130, 131, 132, 133, 134, 135, 136, 137, 138, 139, 140, 141, 142, 143, 144, 145, 146, 147, 148, 149, 150, 151, 152, 153, 154, 155, 156, 157, 158, 159, 160, 161, 162, 163, 164, 165, 166, 167, 168, 169, 170, 171, 172, 173, 174, 175, 176, 177, 178, 179, 180, 181, 182, 183, 184, 185, 186, 187, 188, 189, 190],
      "AcquisitionTime": ["142510.735000", "142512.225000", "142513.715000", "142515.205000", "142516.695000", "142518.185000", "142519.675000", "142521.165000", "142522.655000", "142524.145000", "142525.635000", "142527.125000", "142528.615000", "142530.105000", "142531.595000", "142533.085000", "142534.575000", "142536.065000", "142537.555000", "142539.045000", "142540.535000", "142542.025000", "142543.515000", "142545.005000", "142546.495000", "142547.985000", "142549.475000", "142550.965000", "142552.455000", "142553.945000", "142555.435000", "142556.925000", "142558.415000", "142559.905000", "142601.395000", "142602.885000", "142604.375000", "142605.865000", "142607.355000", "142608.845000", "142610.335000", "142611.825000", "142613.315000", "142614.805000", "142616.295000", "142617.785000", "142619.275000", "142620.765000", "142622.255000", "142623.745000", "142625.235000", "142626.725000", "142628.215000", "142629.705000", "142631.195000", "142632.685000", "142634.175000", "142635.665000", "142637.155000", "142638.645000", "142640.135000", "142641.625000", "142643.115000", "142644.605000", "142646.095000", "142647.585000", "142649.075000", "142650.565000", "142652.055000", "142653.545000", "142655.035000", "142656.525000", "142658.015000", "142659.505000", "142700.995000", "142702.485000", "142703.975000", "142705.465000", "142706.955000", "142708.445000", "142709.935000", "142711.425000", "142712.915000", "142714.405000", "142715.895000", "142717.385000", "142718.875000", "142720.365000", "142721.855000", "142723.345000", "142724.835000", "142726.325000", "142727.815000", "142729.305000", "142730.795000", "142732.285000", "142733.775000", "142735.265000", "142736.755000", "142738.245000", "142739.735000", "142741.225000", "142742.715000", "142744.205000", "142745.695000", "142747.185000", "142748.675000", "142750.165000", "142751.655000", "142753.145000", "142754.635000", "142756.125000", "142757.615000", "142759.105000", "142800.595000", "142802.085000", "142803.575000", "142805.065000", "142806.555000", "142808.045000", "142809.535000", "142811.025000", "142812.515000", "142814.005000", "142815.495000", "142816.985000", "142818.475000", "142819.965000", "142821.455000", "142822.945000", "142824.435000", "142825.925000", "142827.415000", "142828.905000", "142830.395000", "142831.885000", "142833.375000", "142834.865000", "142836.355000", "142837.845000", "142839.335000", "142840.825000", "142842.315000", "142843.805000", "142845.295000", "142846.785000", "142848.275000", "142849.765000", "142851.255000", "142852.745000", "142854.235000", "142855.725000", "142857.215000", "142858.705000", "142900.195000", "142901.685000", "142903.175000", "142904.665000", "142906.155000", "142907.645000", "142909.135000", "142910.625000", "142912.115000", "142913.605000", "142915.095000", "142916.585000", "142918.075000", "142919.565000", "142921.055000", "142922.545000", "142924.035000", "142925.525000", "142927.015000", "142928.505000", "142929.995000", "142931.485000", "142932.975000", "142934.465000", "142935.955000", "142937.445000", "142938.935000", "142940.425000", "142941.915000", "142943.405000", "142944.895000", "142946.385000", "142947.875000", "142949.365000", "142950.855000", "142952.345000"],
      "ContentTime": ["142643.940000", "142643.943000", "142643.945000", "142643.948000", "142643.951000", "142643.961000", "142643.963000", "142643.966000", "142643.968000", "142643.971000", "142643.973000", "142643.976000", "142643.978000", "142643.981000", "142643.983000", "142643.986000", "142643.988000", "142643.991000", "142643.993000", "142643.995000", "142643.998000", "142644.002000", "142644.004000", "142644.007000", "142644.009000", "142644.012000", "142644.014000", "142644.017000", "142644.019000", "142644.022000", "142644.024000", "142644.027000", "142644.029000", "142644.032000", "142644.034000", "142644.037000", "142644.039000", "142644.042000", "142644.044000", "142703.806000", "142703.809000", "142703.811000", "142703.814000", "142703.816000", "142703.819000", "142703.821000", "142703.824000", "142703.826000", "142703.829000", "142703.831000", "142703.840000", "142703.843000", "142703.845000", "142703.848000", "142703.850000", "142703.853000", "142703.855000", "142703.857000", "142703.860000", "142703.862000", "142724.307000", "142724.310000", "142724.312000", "142724.315000", "142724.317000", "142724.320000", "142724.322000", "142724.325000", "142724.327000", "142724.330000", "142724.332000", "142724.335000", "142724.337000", "142724.340000", "142724.342000", "142724.345000", "142724.347000", "142724.350000", "142724.352000", "142724.355000", "142743.816000", "142743.818000", "142743.821000", "142743.824000", "142743.826000", "142743.828000", "142743.831000", "142743.833000", "142743.836000", "142743.838000", "142743.841000", "142743.843000", "142743.846000", "142743.848000", "142743.851000", "142743.853000", "142743.856000", "142743.858000", "142743.861000", "142743.863000", "142823.817000", "142823.820000", "142823.823000", "142823.825000", "142823.828000", "142823.830000", "142823.833000", "142823.835000", "142823.838000", "142823.840000", "142823.843000", "142823.845000", "142823.848000", "142823.850000", "142823.853000", "142823.855000", "142823.858000", "142823.860000", "142823.863000", "142823.865000", "142823.868000", "142823.870000", "142823.873000", "142823.875000", "142823.878000", "142823.880000", "142823.883000", "142823.885000", "142903.831000", "142903.833000", "142903.836000", "142903.838000", "142903.841000", "142903.843000", "142903.846000", "142903.849000", "142903.851000", "142903.853000", "142903.856000", "142903.858000", "142903.861000", "142903.863000", "142903.866000", "142903.868000", "142903.871000", "142903.873000", "142903.876000", "142903.878000", "142903.881000", "142903.883000", "142903.886000", "142903.889000", "142903.891000", "142903.893000", "142903.896000", "142943.833000", "142943.836000", "142943.838000", "142943.841000", "142943.843000", "142943.846000", "142943.849000", "142943.851000", "142943.853000", "142943.856000", "142943.859000", "142943.861000", "142943.863000", "142943.866000", "142943.869000", "142943.871000", "142943.873000", "142943.876000", "142943.878000", "142943.881000", "142943.883000", "142943.886000", "142943.888000", "142943.891000", "142943.893000", "142943.896000", "142943.899000", "142954.961000", "142954.964000", "142954.974000", "142954.976000", "142954.979000", "142954.981000", "142954.984000", "142954.986000"],
      "InstanceCreationTime": ["142643.940000", "142643.943000", "142643.945000", "142643.948000", "142643.951000", "142643.961000", "142643.963000", "142643.966000", "142643.968000", "142643.971000", "142643.973000", "142643.976000", "142643.978000", "142643.981000", "142643.983000", "142643.986000", "142643.988000", "142643.991000", "142643.993000", "142643.995000", "142643.998000", "142644.002000", "142644.004000", "142644.007000", "142644.009000", "142644.012000", "142644.014000", "142644.017000", "142644.019000", "142644.022000", "142644.024000", "142644.027000", "142644.029000", "142644.032000", "142644.034000", "142644.037000", "142644.039000", "142644.042000", "142644.044000", "142703.806000", "142703.809000", "142703.811000", "142703.814000", "142703.816000", "142703.819000", "142703.821000", "142703.824000", "142703.826000", "142703.829000", "142703.831000", "142703.840000", "142703.843000", "142703.845000", "142703.848000", "142703.850000", "142703.853000", "142703.855000", "142703.857000", "142703.860000", "142703.862000", "142724.307000", "142724.310000", "142724.312000", "142724.315000", "142724.317000", "142724.320000", "142724.322000", "142724.325000", "142724.327000", "142724.330000", "142724.332000", "142724.335000", "142724.337000", "142724.340000", "142724.342000", "142724.345000", "142724.347000", "142724.350000", "142724.352000", "142724.355000", "142743.816000", "142743.818000", "142743.821000", "142743.824000", "142743.826000", "142743.828000", "142743.831000", "142743.833000", "142743.836000", "142743.838000", "142743.841000", "142743.843000", "142743.846000", "142743.848000", "142743.851000", "142743.853000", "142743.856000", "142743.858000", "142743.861000", "142743.863000", "142823.817000", "142823.820000", "142823.823000", "142823.825000", "142823.828000", "142823.830000", "142823.833000", "142823.835000", "142823.838000", "142823.840000", "142823.843000", "142823.845000", "142823.848000", "142823.850000", "142823.853000", "142823.855000", "142823.858000", "142823.860000", "142823.863000", "142823.865000", "142823.868000", "142823.870000", "142823.873000", "142823.875000", "142823.878000", "142823.880000", "142823.883000", "142823.885000", "142903.831000", "142903.833000", "142903.836000", "142903.838000", "142903.841000", "142903.843000", "142903.846000", "142903.849000", "142903.851000", "142903.853000", "142903.856000", "142903.858000", "142903.861000", "142903.863000", "142903.866000", "142903.868000", "142903.871000", "142903.873000", "142903.876000", "142903.878000", "142903.881000", "142903.883000", "142903.886000", "142903.889000", "142903.891000", "142903.893000", "142903.896000", "142943.833000", "142943.836000", "142943.838000", "142943.841000", "142943.843000", "142943.846000", "142943.849000", "142943.851000", "142943.853000", "142943.856000", "142943.859000", "142943.861000", "142943.863000", "142943.866000", "142943.869000", "142943.871000", "142943.873000", "142943.876000", "142943.878000", "142943.881000", "142943.883000", "142943.886000", "142943.888000", "142943.891000", "142943.893000", "142943.896000", "142943.899000", "142954.961000", "142954.964000", "142954.974000", "142954.976000", "142954.979000", "142954.981000", "142954.984000", "142954.986000"],
      "InstanceNumber": [1, 2, 3, 4, 5, 6, 7, 8, 9, 10, 11, 12, 13, 14, 15, 16, 17, 18, 19, 20, 21, 22, 23, 24, 25, 26, 27, 28, 29, 30, 31, 32, 33, 34, 35, 36, 37, 38, 39, 40, 41, 42, 43, 44, 45, 46, 47, 48, 49, 50, 51, 52, 53, 54, 55, 56, 57, 58, 59, 60, 61, 62, 63, 64, 65, 66, 67, 68, 69, 70, 71, 72, 73, 74, 75, 76, 77, 78, 79, 80, 81, 82, 83, 84, 85, 86, 87, 88, 89, 90, 91, 92, 93, 94, 95, 96, 97, 98, 99, 100, 101, 102, 103, 104, 105, 106, 107, 108, 109, 110, 111, 112, 113, 114, 115, 116, 117, 118, 119, 120, 121, 122, 123, 124, 125, 126, 127, 128, 129, 130, 131, 132, 133, 134, 135, 136, 137, 138, 139, 140, 141, 142, 143, 144, 145, 146, 147, 148, 149, 150, 151, 152, 153, 154, 155, 156, 157, 158, 159, 160, 161, 162, 163, 164, 165, 166, 167, 168, 169, 170, 171, 172, 173, 174, 175, 176, 177, 178, 179, 180, 181, 182, 183, 184, 185, 186, 187, 188, 189, 190],
      "WindowCenter": [4858.0, 4858.0, 4858.0, 4860.0, 4860.0, 4856.0, 4862.0, 4860.0, 4858.0, 4854.0, 4858.0, 4856.0, 4856.0, 4856.0, 4862.0, 4856.0, 4860.0, 4858.0, 4860.0, 4860.0, 4856.0, 4858.0, 4858.0, 4860.0, 4856.0, 4858.0, 4860.0, 4858.0, 4858.0, 4860.0, 4860.0, 4858.0, 4858.0, 4860.0, 4860.0, 4864.0, 4860.0, 4860.0, 4858.0, 4858.0, 4858.0, 4862.0, 4858.0, 4854.0, 4858.0, 4860.0, 4860.0, 4858.0, 4858.0, 4858.0, 4860.0, 4860.0, 4858.0, 4860.0, 4860.0, 4860.0, 4858.0, 4860.0, 4860.0, 4860.0, 4856.0, 4862.0, 4856.0, 4858.0, 4858.0, 4860.0, 4860.0, 4860.0, 4858.0, 4858.0, 4860.0, 4860.0, 4860.0, 4858.0, 4862.0, 4856.0, 4860.0, 4858.0, 4862.0, 4858.0, 4862.0, 4860.0, 4860.0, 4864.0, 4860.0, 4860.0, 4858.0, 4862.0, 4858.0, 4858.0, 4862.0, 4862.0, 4860.0, 4862.0, 4862.0, 4860.0, 4858.0, 4862.0, 4856.0, 4858.0, 4864.0, 4856.0, 4862.0, 4862.0, 4858.0, 4862.0, 4862.0, 4862.0, 4858.0, 4860.0, 4860.0, 4862.0, 4858.0, 4860.0, 4860.0, 4860.0, 4858.0, 4860.0, 4858.0, 4860.0, 4858.0, 4864.0, 4858.0, 4858.0, 4856.0, 4860.0, 4856.0, 4860.0, 4864.0, 4858.0, 4858.0, 4860.0, 4858.0, 4858.0, 4858.0, 4854.0, 4862.0, 4858.0, 4858.0, 4862.0, 4862.0, 4858.0, 4858.0, 4860.0, 4860.0, 4862.0, 4862.0, 4860.0, 4858.0, 4860.0, 4858.0, 4856.0, 4862.0, 4860.0, 4860.0, 4860.0, 4858.0, 4856.0, 4856.0, 4858.0, 4860.0, 4860.0, 4858.0, 4860.0, 4860.0, 4862.0, 4860.0, 4860.0, 4862.0, 4862.0, 4860.0, 4860.0, 4860.0, 4860.0, 4860.0, 4860.0, 4860.0, 4860.0, 4858.0, 4860.0, 4862.0, 4860.0, 4860.0, 4858.0, 4860.0, 4862.0, 4858.0, 4860.0, 4860.0, 4860.0],
      "WindowWidth": [18596.0, 18598.0, 18592.0, 18596.0, 18600.0, 18602.0, 18604.0, 18600.0, 18598.0, 18596.0, 18596.0, 18596.0, 18602.0, 18598.0, 18604.0, 18602.0, 18598.0, 18596.0, 18600.0, 18600.0, 18594.0, 18600.0, 18600.0, 18600.0, 18598.0, 18598.0, 18602.0, 18598.0, 18598.0, 18602.0, 18600.0, 18604.0, 18600.0, 18594.0, 18600.0, 18604.0, 18596.0, 18600.0, 18602.0, 18600.0, 18598.0, 18604.0, 18598.0, 18602.0, 18598.0, 18600.0, 18602.0, 18604.0, 18602.0, 18598.0, 18602.0, 18602.0, 18596.0, 18598.0, 18600.0, 18594.0, 18594.0, 18600.0, 18598.0, 18602.0, 18594.0, 18596.0, 18598.0, 18598.0, 18598.0, 18604.0, 18604.0, 18602.0, 18600.0, 18598.0, 18604.0, 18602.0, 18596.0, 18600.0, 18598.0, 18598.0, 18604.0, 18598.0, 18602.0, 18598.0, 18602.0, 18602.0, 18602.0, 18604.0, 18600.0, 18594.0, 18598.0, 18598.0, 18598.0, 18594.0, 18602.0, 18602.0, 18600.0, 18600.0, 18608.0, 18600.0, 18594.0, 18600.0, 18600.0, 18600.0, 18606.0, 18594.0, 18602.0, 18602.0, 18600.0, 18602.0, 18600.0, 18602.0, 18600.0, 18598.0, 18602.0, 18606.0, 18602.0, 18604.0, 18598.0, 18602.0, 18600.0, 18598.0, 18600.0, 18604.0, 18596.0, 18604.0, 18600.0, 18600.0, 18598.0, 18598.0, 18596.0, 18602.0, 18602.0, 18604.0, 18602.0, 18598.0, 18592.0, 18600.0, 18598.0, 18592.0, 18604.0, 18600.0, 18604.0, 18600.0, 18598.0, 18598.0, 18600.0, 18600.0, 18598.0, 18602.0, 18602.0, 18598.0, 18596.0, 18602.0, 18600.0, 18590.0, 18604.0, 18598.0, 18608.0, 18608.0, 18604.0, 18596.0, 18594.0, 18596.0, 18606.0, 18600.0, 18598.0, 18602.0, 18600.0, 18600.0, 18602.0, 18600.0, 18598.0, 18604.0, 18604.0, 18600.0, 18600.0, 18604.0, 18604.0, 18596.0, 18596.0, 18606.0, 18600.0, 18602.0, 18600.0, 18602.0, 18600.0, 18600.0, 18600.0, 18604.0, 18598.0, 18600.0, 18604.0, 18600.0]
    },
    "slices": {}
  }
}