{
  "AcquisitionMatrixPE": 104,
  "AcquisitionNumber": 1,
  "AcquisitionTime": "14:19:3.307500",
  "BandwidthPerPixelPhaseEncode": 17.17,
  "BaseResolution": 104,
  "BodyPartExamined": "BRAIN",
  "CoilString": "HC1-7;NC1_2",
  "ConsistencyInfo": "N4_VE11C_LATEST_20160120",
  "ConversionSoftware": "dcm2niix",
  "ConversionSoftwareVersion": "v1.0.20190902",
  "DerivedVendorReportedEchoSpacing": 0.000560011,
  "DeviceSerialNumber": "167006",
  "DwellTime": 2.1e-06,
  "EchoTime": 0.037,
  "EchoTrainLength": 104,
  "EffectiveEchoSpacing": 0.000560011,
  "FlipAngle": 52,
  "ImageComments": "Unaliased_MB4_PE3_LB",
  "ImageOrientationPatientDICOM": [0.999021, 0.0137993, 0.0420409, -0.00226669, 0.964839, -0.262832],
  "ImageType": [
    "ORIGINAL",
    "PRIMARY",
    "P",
    "MB",
    "ND",
    "MOSAIC"
],
  "ImagingFrequency": 123.259,
  "InPlanePhaseEncodingDirectionDICOM": "COL",
  "InstitutionAddress": "Chemin_Queen-Mary_4565_Montreal_District_CA_H3W_1W5",
  "InstitutionName": "IUGM",
  "InstitutionalDepartmentName": "Department",
  "MRAcquisitionType": "2D",
  "MagneticFieldStrength": 3,
  "Manufacturer": "Siemens",
  "ManufacturersModelName": "Prisma_fit",
  "Modality": "MR",
  "MultibandAccelerationFactor": 4,
  "PartialFourier": 1,
  "PatientPosition": "HFS",
  "PercentPhaseFOV": 100,
  "PhaseEncodingDirection": "j",
  "PhaseEncodingSteps": 104,
  "PhaseResolution": 1,
  "PixelBandwidth": 2290,
  "ProcedureStepDescription": "memory_things",
  "ProtocolName": "func_task-things_run-4",
  "PulseSequenceDetails": "%CustomerSeq%_cmrr_mbep2d_bold",
  "ReceiveCoilActiveElements": "HC1-7;NC1,2",
  "ReceiveCoilName": "HeadNeck_64",
  "ReconMatrixPE": 104,
  "RepetitionTime": 1.49,
  "SAR": 0.0382207,
  "ScanOptions": "FS",
  "ScanningSequence": "EP",
  "SequenceName": "epfid2d1_104",
  "SequenceVariant": "SK_SS",
  "SeriesDescription": "func_task-things_run-4",
  "SeriesNumber": 23,
  "ShimSetting": [640, -7199, -8809, 708, 64, 36, 37, 6],
  "SliceThickness": 2,
  "SliceTiming": [0, 0.7825, 0.0975, 0.88, 0.195, 0.98, 0.2925, 1.0775, 0.39, 1.175, 0.49, 1.2725, 0.5875, 1.37, 0.685, 0, 0.7825, 0.0975, 0.88, 0.195, 0.98, 0.2925, 1.0775, 0.39, 1.175, 0.49, 1.2725, 0.5875, 1.37, 0.685, 0, 0.7825, 0.0975, 0.88, 0.195, 0.98, 0.2925, 1.0775, 0.39, 1.175, 0.49, 1.2725, 0.5875, 1.37, 0.685, 0, 0.7825, 0.0975, 0.88, 0.195, 0.98, 0.2925, 1.0775, 0.39, 1.175, 0.49, 1.2725, 0.5875, 1.37, 0.685],
  "SoftwareVersions": "syngo_MR_E11",
  "SpacingBetweenSlices": 2,
  "StationName": "MRC35049",
  "TaskName": "things",
  "TotalReadoutTime": 0.0576811,
  "TxRefAmp": 215.881,
  "WipMemBlock": "939b6746-6c12-4dde-9961-fe2c22d26b7e||Sequence: R016 ve11c/master r/e634e98; Dec 19 2017 11:00:25 by eja",
  "dcmmeta_affine": [
    [-1.9980411529541016, -0.004533377941697836, 0.0883791372179985, 106.60104370117188],
    [-0.027598680928349495, 1.9296780824661255, -0.524958074092865, -72.72903442382812],
    [0.0840817242860794, 0.5256634950637817, 1.9278507232666016, -70.37113189697266],
    [0.0, 0.0, 0.0, 1.0]
],
  "dcmmeta_reorient_transform": [
    [0.0, -1.0, 0.0, 103.0],
    [1.0, 0.0, 0.0, 0.0],
    [0.0, 0.0, 1.0, 0.0],
    [0.0, 0.0, 0.0, 1.0]
],
  "dcmmeta_shape": [104, 104, 60, 190],
  "dcmmeta_slice_dim": 2,
  "dcmmeta_version": 0.6,
  "global": {
    "const": {
      "AcquisitionMatrix": [104, 0, 0, 104],
      "AngioFlag": "N",
      "BitsAllocated": 16,
      "BitsStored": 16,
      "BodyPartExamined": "BRAIN",
      "Columns": 832,
      "EchoNumbers": 1,
      "EchoTime": 37.0,
      "EchoTrainLength": 104,
      "FlipAngle": 52.0,
      "HighBit": 15,
      "ImageOrientationPatient": [0.99902059244855, 0.01379934072632, 0.04204086178065, -0.0022666890563, 0.96483901903714, -0.2628317512482],
      "ImagePositionPatient": [-831.77095115168, -838.47652976717, 144.5079756339],
      "ImageType": [
        "ORIGINAL",
        "PRIMARY",
        "P",
        "MB",
        "ND",
        "MOSAIC"
],
      "ImagedNucleus": "1H",
      "ImagingFrequency": 123.258978,
      "InPlanePhaseEncodingDirection": "COL",
      "LargestImagePixelValue": 4095,
      "MRAcquisitionType": "2D",
      "MagneticFieldStrength": 3.0,
      "Manufacturer": "SIEMENS",
      "ManufacturerModelName": "Prisma_fit",
      "Modality": "MR",
      "NumberOfAverages": 1.0,
      "NumberOfPhaseEncodingSteps": 104,
      "PercentPhaseFieldOfView": 100.0,
      "PercentSampling": 100.0,
      "PerformedProcedureStepStartTime": "130354.233000",
      "PhotometricInterpretation": "MONOCHROME2",
      "PixelBandwidth": 2290.0,
      "PixelRepresentation": 0,
      "PixelSpacing": [2.0, 2.0],
      "ProtocolName": "func_task-things_run-4",
      "RepetitionTime": 1490.0,
      "RescaleIntercept": -4096.0,
      "RescaleSlope": 2.0,
      "RescaleType": "US",
      "Rows": 832,
      "SAR": 0.03822069864303,
      "SamplesPerPixel": 1,
      "ScanOptions": "FS",
      "ScanningSequence": "EP",
      "SequenceName": "epfid2d1_104",
      "SequenceVariant": [
        "SK",
        "SS"
],
      "SeriesDescription": "func_task-things_run-4",
      "SeriesNumber": 23,
      "SeriesTime": "142023.840000",
      "SliceLocation": -44.032015844653,
      "SliceThickness": 2.0,
      "SmallestImagePixelValue": 0,
      "SoftwareVersions": "syngo MR E11",
      "SpacingBetweenSlices": 2.0000000329685,
      "SpecificCharacterSet": "ISO_IR 100",
      "StudyID": "1",
      "StudyTime": "130354.050000",
      "TransmitCoilName": "Body",
      "VariableFlipAngleFlag": "N",
      "WindowCenterWidthExplanation": "Algo1",
      "dBdt": 0.0},
    "slices": {}
  },
  "time": {
    "samples": {
      "AcquisitionNumber": [1, 2, 3, 4, 5, 6, 7, 8, 9, 10, 11, 12, 13, 14, 15, 16, 17, 18, 19, 20, 21, 22, 23, 24, 25, 26, 27, 28, 29, 30, 31, 32, 33, 34, 35, 36, 37, 38, 39, 40, 41, 42, 43, 44, 45, 46, 47, 48, 49, 50, 51, 52, 53, 54, 55, 56, 57, 58, 59, 60, 61, 62, 63, 64, 65, 66, 67, 68, 69, 70, 71, 72, 73, 74, 75, 76, 77, 78, 79, 80, 81, 82, 83, 84, 85, 86, 87, 88, 89, 90, 91, 92, 93, 94, 95, 96, 97, 98, 99, 100, 101, 102, 103, 104, 105, 106, 107, 108, 109, 110, 111, 112, 113, 114, 115, 116, 117, 118, 119, 120, 121, 122, 123, 124, 125, 126, 127, 128, 129, 130, 131, 132, 133, 134, 135, 136, 137, 138, 139, 140, 141, 142, 143, 144, 145, 146, 147, 148, 149, 150, 151, 152, 153, 154, 155, 156, 157, 158, 159, 160, 161, 162, 163, 164, 165, 166, 167, 168, 169, 170, 171, 172, 173, 174, 175, 176, 177, 178, 179, 180, 181, 182, 183, 184, 185, 186, 187, 188, 189, 190],
      "AcquisitionTime": ["141903.307500", "141904.797500", "141906.287500", "141907.777500", "141909.267500", "141910.757500", "141912.247500", "141913.737500", "141915.227500", "141916.717500", "141918.207500", "141919.697500", "141921.187500", "141922.677500", "141924.167500", "141925.657500", "141927.147500", "141928.637500", "141930.127500", "141931.617500", "141933.107500", "141934.597500", "141936.087500", "141937.577500", "141939.067500", "141940.557500", "141942.047500", "141943.537500", "141945.027500", "141946.517500", "141948.007500", "141949.497500", "141950.987500", "141952.477500", "141953.967500", "141955.457500", "141956.947500", "141958.437500", "141959.927500", "142001.417500", "142002.907500", "142004.397500", "142005.887500", "142007.377500", "142008.867500", "142010.357500", "142011.847500", "142013.337500", "142014.827500", "142016.317500", "142017.807500", "142019.297500", "142020.787500", "142022.277500", "142023.767500", "142025.257500", "142026.747500", "142028.237500", "142029.727500", "142031.217500", "142032.707500", "142034.197500", "142035.687500", "142037.177500", "142038.667500", "142040.157500", "142041.647500", "142043.137500", "142044.627500", "142046.117500", "142047.607500", "142049.097500", "142050.587500", "142052.077500", "142053.567500", "142055.057500", "142056.547500", "142058.037500", "142059.527500", "142101.017500", "142102.507500", "142103.997500", "142105.487500", "142106.977500", "142108.467500", "142109.957500", "142111.447500", "142112.937500", "142114.427500", "142115.917500", "142117.407500", "142118.897500", "142120.387500", "142121.877500", "142123.367500", "142124.857500", "142126.347500", "142127.837500", "142129.327500", "142130.817500", "142132.307500", "142133.797500", "142135.287500", "142136.777500", "142138.267500", "142139.757500", "142141.247500", "142142.737500", "142144.227500", "142145.717500", "142147.207500", "142148.697500", "142150.187500", "142151.677500", "142153.167500", "142154.657500", "142156.147500", "142157.637500", "142159.127500", "142200.617500", "142202.107500", "142203.597500", "142205.087500", "142206.577500", "142208.067500", "142209.557500", "142211.047500", "142212.537500", "142214.027500", "142215.517500", "142217.007500", "142218.497500", "142219.987500", "142221.477500", "142222.967500", "142224.457500", "142225.947500", "142227.437500", "142228.927500", "142230.417500", "142231.907500", "142233.397500", "142234.887500", "142236.377500", "142237.867500", "142239.357500", "142240.847500", "142242.337500", "142243.827500", "142245.317500", "142246.807500", "142248.297500", "142249.787500", "142251.277500", "142252.767500", "142254.257500", "142255.747500", "142257.237500", "142258.727500", "142300.217500", "142301.707500", "142303.197500", "142304.687500", "142306.177500", "142307.667500", "142309.157500", "142310.647500", "142312.137500", "142313.627500", "142315.117500", "142316.607500", "142318.097500", "142319.587500", "142321.077500", "142322.567500", "142324.057500", "142325.547500", "142327.037500", "142328.527500", "142330.017500", "142331.507500", "142332.997500", "142334.487500", "142335.977500", "142337.467500", "142338.957500", "142340.447500", "142341.937500", "142343.427500", "142344.917500"],
      "ContentTime": ["142023.842000", "142023.845000", "142023.847000", "142023.850000", "142023.852000", "142023.855000", "142023.857000", "142023.860000", "142023.862000", "142023.865000", "142023.867000", "142023.870000", "142023.872000", "142023.875000", "142023.878000", "142023.880000", "142023.883000", "142023.886000", "142023.889000", "142023.892000", "142023.895000", "142023.899000", "142023.902000", "142023.904000", "142023.908000", "142023.910000", "142023.913000", "142043.776000", "142043.779000", "142043.791000", "142043.793000", "142043.796000", "142043.798000", "142043.801000", "142043.803000", "142043.806000", "142043.808000", "142043.811000", "142043.813000", "142043.815000", "142043.818000", "142043.820000", "142043.823000", "142043.825000", "142043.828000", "142043.830000", "142043.833000", "142103.770000", "142103.772000", "142103.775000", "142103.777000", "142103.780000", "142103.782000", "142103.785000", "142103.787000", "142103.790000", "142103.792000", "142103.795000", "142103.797000", "142103.800000", "142103.802000", "142103.805000", "142103.807000", "142103.810000", "142103.812000", "142103.815000", "142103.817000", "142103.820000", "142123.769000", "142123.771000", "142123.774000", "142123.776000", "142123.779000", "142123.781000", "142123.783000", "142123.786000", "142123.789000", "142123.791000", "142123.793000", "142123.796000", "142123.798000", "142123.801000", "142123.803000", "142123.806000", "142123.808000", "142123.811000", "142123.813000", "142123.816000", "142203.811000", "142203.814000", "142203.817000", "142203.819000", "142203.822000", "142203.824000", "142203.827000", "142203.829000", "142203.832000", "142203.834000", "142203.836000", "142203.839000", "142203.842000", "142203.844000", "142203.847000", "142203.849000", "142203.852000", "142203.854000", "142203.857000", "142203.860000", "142203.863000", "142203.865000", "142203.869000", "142203.872000", "142203.885000", "142203.888000", "142203.890000", "142203.893000", "142203.895000", "142203.898000", "142203.901000", "142203.903000", "142243.785000", "142243.788000", "142243.790000", "142243.793000", "142243.795000", "142243.798000", "142243.800000", "142243.803000", "142243.805000", "142243.808000", "142243.810000", "142243.813000", "142243.815000", "142243.818000", "142243.820000", "142243.823000", "142243.825000", "142243.828000", "142243.830000", "142243.833000", "142243.835000", "142243.852000", "142243.855000", "142243.857000", "142243.860000", "142243.862000", "142243.865000", "142324.260000", "142324.263000", "142324.265000", "142324.268000", "142324.271000", "142324.273000", "142324.276000", "142324.278000", "142324.281000", "142324.283000", "142324.286000", "142324.288000", "142324.291000", "142324.293000", "142324.296000", "142324.298000", "142324.301000", "142324.303000", "142324.306000", "142324.308000", "142324.311000", "142324.313000", "142324.316000", "142324.319000", "142324.322000", "142324.325000", "142324.327000", "142346.836000", "142346.838000", "142346.841000", "142346.844000", "142346.856000", "142346.859000", "142346.861000", "142346.864000", "142346.866000", "142346.869000", "142346.871000", "142346.874000", "142346.876000", "142346.879000", "142346.881000", "142346.884000"],
      "InstanceCreationTime": ["142023.842000", "142023.845000", "142023.847000", "142023.850000", "142023.852000", "142023.855000", "142023.857000", "142023.860000", "142023.862000", "142023.865000", "142023.867000", "142023.870000", "142023.872000", "142023.875000", "142023.878000", "142023.880000", "142023.883000", "142023.886000", "142023.889000", "142023.892000", "142023.895000", "142023.899000", "142023.902000", "142023.904000", "142023.908000", "142023.910000", "142023.913000", "142043.776000", "142043.779000", "142043.791000", "142043.793000", "142043.796000", "142043.798000", "142043.801000", "142043.803000", "142043.806000", "142043.808000", "142043.811000", "142043.813000", "142043.815000", "142043.818000", "142043.820000", "142043.823000", "142043.825000", "142043.828000", "142043.830000", "142043.833000", "142103.770000", "142103.772000", "142103.775000", "142103.777000", "142103.780000", "142103.782000", "142103.785000", "142103.787000", "142103.790000", "142103.792000", "142103.795000", "142103.797000", "142103.800000", "142103.802000", "142103.805000", "142103.807000", "142103.810000", "142103.812000", "142103.815000", "142103.817000", "142103.820000", "142123.769000", "142123.771000", "142123.774000", "142123.776000", "142123.779000", "142123.781000", "142123.783000", "142123.786000", "142123.789000", "142123.791000", "142123.793000", "142123.796000", "142123.798000", "142123.801000", "142123.803000", "142123.806000", "142123.808000", "142123.811000", "142123.813000", "142123.816000", "142203.811000", "142203.814000", "142203.817000", "142203.819000", "142203.822000", "142203.824000", "142203.827000", "142203.829000", "142203.832000", "142203.834000", "142203.836000", "142203.839000", "142203.842000", "142203.844000", "142203.847000", "142203.849000", "142203.852000", "142203.854000", "142203.857000", "142203.860000", "142203.863000", "142203.865000", "142203.869000", "142203.872000", "142203.885000", "142203.888000", "142203.890000", "142203.893000", "142203.895000", "142203.898000", "142203.901000", "142203.903000", "142243.785000", "142243.788000", "142243.790000", "142243.793000", "142243.795000", "142243.798000", "142243.800000", "142243.803000", "142243.805000", "142243.808000", "142243.810000", "142243.813000", "142243.815000", "142243.818000", "142243.820000", "142243.823000", "142243.825000", "142243.828000", "142243.830000", "142243.833000", "142243.835000", "142243.852000", "142243.855000", "142243.857000", "142243.860000", "142243.862000", "142243.865000", "142324.260000", "142324.263000", "142324.265000", "142324.268000", "142324.271000", "142324.273000", "142324.276000", "142324.278000", "142324.281000", "142324.283000", "142324.286000", "142324.288000", "142324.291000", "142324.293000", "142324.296000", "142324.298000", "142324.301000", "142324.303000", "142324.306000", "142324.308000", "142324.311000", "142324.313000", "142324.316000", "142324.319000", "142324.322000", "142324.325000", "142324.327000", "142346.836000", "142346.838000", "142346.841000", "142346.844000", "142346.856000", "142346.859000", "142346.861000", "142346.864000", "142346.866000", "142346.869000", "142346.871000", "142346.874000", "142346.876000", "142346.879000", "142346.881000", "142346.884000"],
      "InstanceNumber": [1, 2, 3, 4, 5, 6, 7, 8, 9, 10, 11, 12, 13, 14, 15, 16, 17, 18, 19, 20, 21, 22, 23, 24, 25, 26, 27, 28, 29, 30, 31, 32, 33, 34, 35, 36, 37, 38, 39, 40, 41, 42, 43, 44, 45, 46, 47, 48, 49, 50, 51, 52, 53, 54, 55, 56, 57, 58, 59, 60, 61, 62, 63, 64, 65, 66, 67, 68, 69, 70, 71, 72, 73, 74, 75, 76, 77, 78, 79, 80, 81, 82, 83, 84, 85, 86, 87, 88, 89, 90, 91, 92, 93, 94, 95, 96, 97, 98, 99, 100, 101, 102, 103, 104, 105, 106, 107, 108, 109, 110, 111, 112, 113, 114, 115, 116, 117, 118, 119, 120, 121, 122, 123, 124, 125, 126, 127, 128, 129, 130, 131, 132, 133, 134, 135, 136, 137, 138, 139, 140, 141, 142, 143, 144, 145, 146, 147, 148, 149, 150, 151, 152, 153, 154, 155, 156, 157, 158, 159, 160, 161, 162, 163, 164, 165, 166, 167, 168, 169, 170, 171, 172, 173, 174, 175, 176, 177, 178, 179, 180, 181, 182, 183, 184, 185, 186, 187, 188, 189, 190],
      "WindowCenter": [4860.0, 4858.0, 4858.0, 4860.0, 4860.0, 4836.0, 4860.0, 4862.0, 4856.0, 4860.0, 4862.0, 4860.0, 4858.0, 4858.0, 4858.0, 4860.0, 4858.0, 4860.0, 4858.0, 4858.0, 4858.0, 4860.0, 4860.0, 4858.0, 4860.0, 4860.0, 4858.0, 4858.0, 4860.0, 4860.0, 4862.0, 4858.0, 4860.0, 4862.0, 4862.0, 4858.0, 4860.0, 4858.0, 4858.0, 4862.0, 4860.0, 4860.0, 4860.0, 4862.0, 4858.0, 4858.0, 4860.0, 4860.0, 4858.0, 4860.0, 4856.0, 4858.0, 4862.0, 4860.0, 4856.0, 4862.0, 4858.0, 4862.0, 4858.0, 4858.0, 4856.0, 4858.0, 4860.0, 4862.0, 4858.0, 4860.0, 4860.0, 4858.0, 4864.0, 4860.0, 4862.0, 4860.0, 4858.0, 4860.0, 4860.0, 4860.0, 4860.0, 4860.0, 4860.0, 4860.0, 4858.0, 4864.0, 4858.0, 4860.0, 4862.0, 4858.0, 4862.0, 4858.0, 4858.0, 4864.0, 4858.0, 4862.0, 4860.0, 4860.0, 4860.0, 4860.0, 4858.0, 4858.0, 4860.0, 4864.0, 4858.0, 4858.0, 4860.0, 4836.0, 4856.0, 4860.0, 4862.0, 4860.0, 4860.0, 4862.0, 4858.0, 4862.0, 4860.0, 4860.0, 4862.0, 4860.0, 4860.0, 4836.0, 4860.0, 4860.0, 4862.0, 4860.0, 4862.0, 4856.0, 4860.0, 4862.0, 4858.0, 4860.0, 4862.0, 4862.0, 4856.0, 4858.0, 4860.0, 4860.0, 4858.0, 4860.0, 4862.0, 4858.0, 4860.0, 4860.0, 4860.0, 4860.0, 4862.0, 4856.0, 4856.0, 4860.0, 4862.0, 4860.0, 4860.0, 4860.0, 4858.0, 4860.0, 4860.0, 4858.0, 4860.0, 4860.0, 4858.0, 4858.0, 4860.0, 4860.0, 4858.0, 4864.0, 4858.0, 4862.0, 4862.0, 4862.0, 4862.0, 4856.0, 4862.0, 4858.0, 4862.0, 4858.0, 4860.0, 4862.0, 4862.0, 4860.0, 4858.0, 4858.0, 4858.0, 4858.0, 4862.0, 4858.0, 4862.0, 4864.0, 4862.0, 4860.0, 4860.0, 4858.0, 4860.0, 4858.0],
      "WindowWidth": [18600.0, 18600.0, 18594.0, 18598.0, 18602.0, 18570.0, 18600.0, 18600.0, 18600.0, 18598.0, 18600.0, 18598.0, 18596.0, 18600.0, 18594.0, 18596.0, 18598.0, 18600.0, 18594.0, 18596.0, 18596.0, 18596.0, 18600.0, 18598.0, 18596.0, 18598.0, 18592.0, 18594.0, 18602.0, 18602.0, 18596.0, 18592.0, 18598.0, 18604.0, 18596.0, 18598.0, 18598.0, 18596.0, 18600.0, 18596.0, 18602.0, 18602.0, 18604.0, 18600.0, 18594.0, 18594.0, 18594.0, 18598.0, 18598.0, 18596.0, 18600.0, 18596.0, 18598.0, 18596.0, 18598.0, 18602.0, 18592.0, 18606.0, 18598.0, 18600.0, 18596.0, 18594.0, 18596.0, 18606.0, 18594.0, 18596.0, 18600.0, 18596.0, 18602.0, 18596.0, 18596.0, 18600.0, 18596.0, 18598.0, 18596.0, 18602.0, 18598.0, 18592.0, 18598.0, 18600.0, 18594.0, 18602.0, 18598.0, 18596.0, 18598.0, 18596.0, 18598.0, 18596.0, 18600.0, 18594.0, 18596.0, 18598.0, 18594.0, 18598.0, 18596.0, 18598.0, 18598.0, 18596.0, 18594.0, 18598.0, 18592.0, 18598.0, 18602.0, 18564.0, 18598.0, 18602.0, 18598.0, 18598.0, 18600.0, 18604.0, 18600.0, 18600.0, 18596.0, 18598.0, 18600.0, 18600.0, 18598.0, 18566.0, 18600.0, 18594.0, 18602.0, 18600.0, 18600.0, 18596.0, 18596.0, 18594.0, 18596.0, 18598.0, 18600.0, 18596.0, 18594.0, 18600.0, 18598.0, 18600.0, 18600.0, 18600.0, 18600.0, 18594.0, 18598.0, 18600.0, 18596.0, 18594.0, 18598.0, 18598.0, 18596.0, 18602.0, 18598.0, 18598.0, 18604.0, 18602.0, 18598.0, 18600.0, 18598.0, 18596.0, 18602.0, 18600.0, 18596.0, 18602.0, 18596.0, 18602.0, 18600.0, 18602.0, 18596.0, 18602.0, 18596.0, 18602.0, 18596.0, 18590.0, 18602.0, 18600.0, 18600.0, 18602.0, 18596.0, 18602.0, 18602.0, 18596.0, 18600.0, 18596.0, 18596.0, 18598.0, 18600.0, 18600.0, 18606.0, 18600.0, 18602.0, 18596.0, 18596.0, 18598.0, 18594.0, 18596.0]
    },
    "slices": {}
  }
}