{
  "AcquisitionMatrixPE": 104,
  "AcquisitionNumber": 1,
  "AcquisitionTime": "14:31:19.610000",
  "BandwidthPerPixelPhaseEncode": 17.17,
  "BaseResolution": 104,
  "BodyPartExamined": "BRAIN",
  "CoilString": "HC1-7;NC1_2",
  "ConsistencyInfo": "N4_VE11C_LATEST_20160120",
  "ConversionSoftware": "dcm2niix",
  "ConversionSoftwareVersion": "v1.0.20190902",
  "DerivedVendorReportedEchoSpacing": 0.000560011,
  "DeviceSerialNumber": "167006",
  "DwellTime": 2.1e-06,
  "EchoTime": 0.037,
  "EchoTrainLength": 104,
  "EffectiveEchoSpacing": 0.000560011,
  "FlipAngle": 52,
  "ImageComments": "Unaliased_MB4_PE3_LB",
  "ImageOrientationPatientDICOM": [0.999021, 0.0137993, 0.0420409, -0.00226669, 0.964839, -0.262832],
  "ImageType": [
    "ORIGINAL",
    "PRIMARY",
    "P",
    "MB",
    "ND",
    "MOSAIC"
],
  "ImagingFrequency": 123.259,
  "InPlanePhaseEncodingDirectionDICOM": "COL",
  "InstitutionAddress": "Chemin_Queen-Mary_4565_Montreal_District_CA_H3W_1W5",
  "InstitutionName": "IUGM",
  "InstitutionalDepartmentName": "Department",
  "MRAcquisitionType": "2D",
  "MagneticFieldStrength": 3,
  "Manufacturer": "Siemens",
  "ManufacturersModelName": "Prisma_fit",
  "Modality": "MR",
  "MultibandAccelerationFactor": 4,
  "PartialFourier": 1,
  "PatientPosition": "HFS",
  "PercentPhaseFOV": 100,
  "PhaseEncodingDirection": "j",
  "PhaseEncodingSteps": 104,
  "PhaseResolution": 1,
  "PixelBandwidth": 2290,
  "ProcedureStepDescription": "memory_things",
  "ProtocolName": "func_task-things_run-6",
  "PulseSequenceDetails": "%CustomerSeq%_cmrr_mbep2d_bold",
  "ReceiveCoilActiveElements": "HC1-7;NC1,2",
  "ReceiveCoilName": "HeadNeck_64",
  "ReconMatrixPE": 104,
  "RepetitionTime": 1.49,
  "SAR": 0.0382207,
  "ScanOptions": "FS",
  "ScanningSequence": "EP",
  "SequenceName": "epfid2d1_104",
  "SequenceVariant": "SK_SS",
  "SeriesDescription": "func_task-things_run-6",
  "SeriesNumber": 29,
  "ShimSetting": [640, -7199, -8809, 708, 64, 36, 37, 6],
  "SliceThickness": 2,
  "SliceTiming": [0, 0.785, 0.0975, 0.8825, 0.1975, 0.98, 0.295, 1.0775, 0.3925, 1.1775, 0.49, 1.275, 0.5875, 1.3725, 0.6875, 0, 0.785, 0.0975, 0.8825, 0.1975, 0.98, 0.295, 1.0775, 0.3925, 1.1775, 0.49, 1.275, 0.5875, 1.3725, 0.6875, 0, 0.785, 0.0975, 0.8825, 0.1975, 0.98, 0.295, 1.0775, 0.3925, 1.1775, 0.49, 1.275, 0.5875, 1.3725, 0.6875, 0, 0.785, 0.0975, 0.8825, 0.1975, 0.98, 0.295, 1.0775, 0.3925, 1.1775, 0.49, 1.275, 0.5875, 1.3725, 0.6875],
  "SoftwareVersions": "syngo_MR_E11",
  "SpacingBetweenSlices": 2,
  "StationName": "MRC35049",
  "TaskName": "things",
  "TotalReadoutTime": 0.0576811,
  "TxRefAmp": 215.881,
  "WipMemBlock": "c2971974-5dfc-4d7e-b408-27c6baeb853c||Sequence: R016 ve11c/master r/e634e98; Dec 19 2017 11:00:25 by eja",
  "dcmmeta_affine": [
    [-1.9980411529541016, -0.004533377941697836, 0.0883791372179985, 106.60104370117188],
    [-0.027598680928349495, 1.9296780824661255, -0.524958074092865, -72.72903442382812],
    [0.0840817242860794, 0.5256634950637817, 1.9278507232666016, -70.37113189697266],
    [0.0, 0.0, 0.0, 1.0]
],
  "dcmmeta_reorient_transform": [
    [0.0, -1.0, 0.0, 103.0],
    [1.0, 0.0, 0.0, 0.0],
    [0.0, 0.0, 1.0, 0.0],
    [0.0, 0.0, 0.0, 1.0]
],
  "dcmmeta_shape": [104, 104, 60, 190],
  "dcmmeta_slice_dim": 2,
  "dcmmeta_version": 0.6,
  "global": {
    "const": {
      "AcquisitionMatrix": [104, 0, 0, 104],
      "AngioFlag": "N",
      "BitsAllocated": 16,
      "BitsStored": 16,
      "BodyPartExamined": "BRAIN",
      "Columns": 832,
      "EchoNumbers": 1,
      "EchoTime": 37.0,
      "EchoTrainLength": 104,
      "FlipAngle": 52.0,
      "HighBit": 15,
      "ImageOrientationPatient": [0.99902059244855, 0.01379934072632, 0.04204086178065, -0.0022666890563, 0.96483901903714, -0.2628317512482],
      "ImagePositionPatient": [-831.77095115168, -838.47652976717, 144.5079756339],
      "ImageType": [
        "ORIGINAL",
        "PRIMARY",
        "P",
        "MB",
        "ND",
        "MOSAIC"
],
      "ImagedNucleus": "1H",
      "ImagingFrequency": 123.258982,
      "InPlanePhaseEncodingDirection": "COL",
      "LargestImagePixelValue": 4095,
      "MRAcquisitionType": "2D",
      "MagneticFieldStrength": 3.0,
      "Manufacturer": "SIEMENS",
      "ManufacturerModelName": "Prisma_fit",
      "Modality": "MR",
      "NumberOfAverages": 1.0,
      "NumberOfPhaseEncodingSteps": 104,
      "PercentPhaseFieldOfView": 100.0,
      "PercentSampling": 100.0,
      "PerformedProcedureStepStartTime": "130354.233000",
      "PhotometricInterpretation": "MONOCHROME2",
      "PixelBandwidth": 2290.0,
      "PixelRepresentation": 0,
      "PixelSpacing": [2.0, 2.0],
      "ProtocolName": "func_task-things_run-6",
      "RepetitionTime": 1490.0,
      "RescaleIntercept": -4096.0,
      "RescaleSlope": 2.0,
      "RescaleType": "US",
      "Rows": 832,
      "SAR": 0.03822069864303,
      "SamplesPerPixel": 1,
      "ScanOptions": "FS",
      "ScanningSequence": "EP",
      "SequenceName": "epfid2d1_104",
      "SequenceVariant": [
        "SK",
        "SS"
],
      "SeriesDescription": "func_task-things_run-6",
      "SeriesNumber": 29,
      "SeriesTime": "143229.057000",
      "SliceLocation": -44.032015844653,
      "SliceThickness": 2.0,
      "SmallestImagePixelValue": 0,
      "SoftwareVersions": "syngo MR E11",
      "SpacingBetweenSlices": 2.0000000329685,
      "SpecificCharacterSet": "ISO_IR 100",
      "StudyID": "1",
      "StudyTime": "130354.050000",
      "TransmitCoilName": "Body",
      "VariableFlipAngleFlag": "N",
      "WindowCenterWidthExplanation": "Algo1",
      "dBdt": 0.0},
    "slices": {}
  },
  "time": {
    "samples": {
      "AcquisitionNumber": [1, 2, 3, 4, 5, 6, 7, 8, 9, 10, 11, 12, 13, 14, 15, 16, 17, 18, 19, 20, 21, 22, 23, 24, 25, 26, 27, 28, 29, 30, 31, 32, 33, 34, 35, 36, 37, 38, 39, 40, 41, 42, 43, 44, 45, 46, 47, 48, 49, 50, 51, 52, 53, 54, 55, 56, 57, 58, 59, 60, 61, 62, 63, 64, 65, 66, 67, 68, 69, 70, 71, 72, 73, 74, 75, 76, 77, 78, 79, 80, 81, 82, 83, 84, 85, 86, 87, 88, 89, 90, 91, 92, 93, 94, 95, 96, 97, 98, 99, 100, 101, 102, 103, 104, 105, 106, 107, 108, 109, 110, 111, 112, 113, 114, 115, 116, 117, 118, 119, 120, 121, 122, 123, 124, 125, 126, 127, 128, 129, 130, 131, 132, 133, 134, 135, 136, 137, 138, 139, 140, 141, 142, 143, 144, 145, 146, 147, 148, 149, 150, 151, 152, 153, 154, 155, 156, 157, 158, 159, 160, 161, 162, 163, 164, 165, 166, 167, 168, 169, 170, 171, 172, 173, 174, 175, 176, 177, 178, 179, 180, 181, 182, 183, 184, 185, 186, 187, 188, 189, 190],
      "AcquisitionTime": ["143119.610000", "143121.100000", "143122.590000", "143124.080000", "143125.570000", "143127.060000", "143128.550000", "143130.040000", "143131.530000", "143133.020000", "143134.510000", "143136.000000", "143137.490000", "143138.980000", "143140.470000", "143141.960000", "143143.450000", "143144.940000", "143146.430000", "143147.920000", "143149.410000", "143150.900000", "143152.390000", "143153.880000", "143155.370000", "143156.860000", "143158.350000", "143159.840000", "143201.330000", "143202.820000", "143204.310000", "143205.800000", "143207.290000", "143208.780000", "143210.270000", "143211.760000", "143213.250000", "143214.740000", "143216.230000", "143217.720000", "143219.210000", "143220.700000", "143222.190000", "143223.680000", "143225.170000", "143226.660000", "143228.150000", "143229.640000", "143231.130000", "143232.620000", "143234.110000", "143235.600000", "143237.090000", "143238.580000", "143240.070000", "143241.560000", "143243.050000", "143244.540000", "143246.030000", "143247.520000", "143249.010000", "143250.500000", "143251.990000", "143253.480000", "143254.970000", "143256.460000", "143257.950000", "143259.440000", "143300.930000", "143302.420000", "143303.910000", "143305.400000", "143306.890000", "143308.380000", "143309.870000", "143311.360000", "143312.850000", "143314.340000", "143315.830000", "143317.320000", "143318.810000", "143320.300000", "143321.790000", "143323.280000", "143324.770000", "143326.260000", "143327.750000", "143329.240000", "143330.730000", "143332.220000", "143333.710000", "143335.200000", "143336.690000", "143338.180000", "143339.670000", "143341.160000", "143342.650000", "143344.140000", "143345.630000", "143347.120000", "143348.610000", "143350.100000", "143351.590000", "143353.080000", "143354.570000", "143356.060000", "143357.550000", "143359.040000", "143400.530000", "143402.020000", "143403.510000", "143405.000000", "143406.490000", "143407.980000", "143409.470000", "143410.960000", "143412.450000", "143413.940000", "143415.430000", "143416.920000", "143418.410000", "143419.900000", "143421.390000", "143422.880000", "143424.370000", "143425.860000", "143427.350000", "143428.840000", "143430.330000", "143431.820000", "143433.310000", "143434.800000", "143436.290000", "143437.780000", "143439.270000", "143440.760000", "143442.250000", "143443.740000", "143445.230000", "143446.720000", "143448.210000", "143449.700000", "143451.190000", "143452.680000", "143454.170000", "143455.660000", "143457.150000", "143458.640000", "143500.130000", "143501.620000", "143503.110000", "143504.600000", "143506.090000", "143507.580000", "143509.070000", "143510.560000", "143512.050000", "143513.540000", "143515.030000", "143516.520000", "143518.010000", "143519.500000", "143520.990000", "143522.480000", "143523.970000", "143525.460000", "143526.950000", "143528.440000", "143529.930000", "143531.420000", "143532.910000", "143534.400000", "143535.890000", "143537.380000", "143538.870000", "143540.360000", "143541.850000", "143543.340000", "143544.830000", "143546.320000", "143547.810000", "143549.300000", "143550.790000", "143552.280000", "143553.770000", "143555.260000", "143556.750000", "143558.240000", "143559.730000", "143601.220000"],
      "ContentTime": ["143229.059000", "143229.062000", "143229.064000", "143229.067000", "143229.069000", "143229.072000", "143229.074000", "143229.077000", "143229.079000", "143229.082000", "143229.084000", "143229.094000", "143229.096000", "143229.099000", "143229.101000", "143229.104000", "143249.029000", "143249.032000", "143249.034000", "143249.037000", "143249.040000", "143249.043000", "143249.047000", "143249.051000", "143249.054000", "143249.057000", "143249.059000", "143249.062000", "143249.065000", "143249.067000", "143249.070000", "143249.072000", "143249.075000", "143249.077000", "143249.080000", "143249.082000", "143309.044000", "143309.047000", "143309.049000", "143309.052000", "143309.054000", "143309.057000", "143309.059000", "143309.062000", "143309.064000", "143309.067000", "143309.069000", "143309.073000", "143309.075000", "143309.078000", "143309.080000", "143309.083000", "143309.085000", "143309.088000", "143309.090000", "143309.092000", "143309.095000", "143329.044000", "143329.046000", "143329.049000", "143329.052000", "143329.054000", "143329.056000", "143329.059000", "143329.061000", "143329.064000", "143329.066000", "143329.069000", "143329.071000", "143329.074000", "143329.076000", "143329.079000", "143329.081000", "143329.084000", "143329.086000", "143329.089000", "143329.091000", "143349.037000", "143349.040000", "143349.048000", "143349.050000", "143349.053000", "143349.055000", "143349.058000", "143349.060000", "143349.063000", "143349.065000", "143349.068000", "143349.070000", "143349.073000", "143349.075000", "143349.078000", "143349.080000", "143349.083000", "143349.085000", "143349.088000", "143349.090000", "143429.091000", "143429.093000", "143429.096000", "143429.098000", "143429.101000", "143429.103000", "143429.106000", "143429.108000", "143429.111000", "143429.113000", "143429.116000", "143429.118000", "143429.121000", "143429.123000", "143429.126000", "143429.128000", "143429.131000", "143429.133000", "143429.136000", "143429.138000", "143429.141000", "143429.143000", "143429.146000", "143429.148000", "143429.151000", "143429.153000", "143429.156000", "143429.159000", "143429.161000", "143509.070000", "143509.073000", "143509.075000", "143509.078000", "143509.080000", "143509.083000", "143509.085000", "143509.088000", "143509.090000", "143509.092000", "143509.095000", "143509.098000", "143509.100000", "143509.102000", "143509.105000", "143509.107000", "143509.110000", "143509.113000", "143509.115000", "143509.118000", "143509.120000", "143509.123000", "143509.125000", "143509.128000", "143509.130000", "143509.133000", "143509.135000", "143549.078000", "143549.080000", "143549.083000", "143549.085000", "143549.088000", "143549.091000", "143549.093000", "143549.095000", "143549.098000", "143549.100000", "143549.103000", "143549.105000", "143549.108000", "143549.110000", "143549.113000", "143549.115000", "143549.118000", "143549.120000", "143549.123000", "143549.125000", "143549.128000", "143549.131000", "143549.133000", "143549.135000", "143549.138000", "143549.141000", "143549.143000", "143602.989000", "143602.991000", "143602.994000", "143602.996000", "143603.000000", "143603.002000", "143603.005000", "143603.007000", "143603.010000", "143603.013000"],
      "InstanceCreationTime": ["143229.059000", "143229.062000", "143229.064000", "143229.067000", "143229.069000", "143229.072000", "143229.074000", "143229.077000", "143229.079000", "143229.082000", "143229.084000", "143229.094000", "143229.096000", "143229.099000", "143229.101000", "143229.104000", "143249.029000", "143249.032000", "143249.034000", "143249.037000", "143249.040000", "143249.043000", "143249.047000", "143249.051000", "143249.054000", "143249.057000", "143249.059000", "143249.062000", "143249.065000", "143249.067000", "143249.070000", "143249.072000", "143249.075000", "143249.077000", "143249.080000", "143249.082000", "143309.044000", "143309.047000", "143309.049000", "143309.052000", "143309.054000", "143309.057000", "143309.059000", "143309.062000", "143309.064000", "143309.067000", "143309.069000", "143309.073000", "143309.075000", "143309.078000", "143309.080000", "143309.083000", "143309.085000", "143309.088000", "143309.090000", "143309.092000", "143309.095000", "143329.044000", "143329.046000", "143329.049000", "143329.052000", "143329.054000", "143329.056000", "143329.059000", "143329.061000", "143329.064000", "143329.066000", "143329.069000", "143329.071000", "143329.074000", "143329.076000", "143329.079000", "143329.081000", "143329.084000", "143329.086000", "143329.089000", "143329.091000", "143349.037000", "143349.040000", "143349.048000", "143349.050000", "143349.053000", "143349.055000", "143349.058000", "143349.060000", "143349.063000", "143349.065000", "143349.068000", "143349.070000", "143349.073000", "143349.075000", "143349.078000", "143349.080000", "143349.083000", "143349.085000", "143349.088000", "143349.090000", "143429.091000", "143429.093000", "143429.096000", "143429.098000", "143429.101000", "143429.103000", "143429.106000", "143429.108000", "143429.111000", "143429.113000", "143429.116000", "143429.118000", "143429.121000", "143429.123000", "143429.126000", "143429.128000", "143429.131000", "143429.133000", "143429.136000", "143429.138000", "143429.141000", "143429.143000", "143429.146000", "143429.148000", "143429.151000", "143429.153000", "143429.156000", "143429.159000", "143429.161000", "143509.070000", "143509.073000", "143509.075000", "143509.078000", "143509.080000", "143509.083000", "143509.085000", "143509.088000", "143509.090000", "143509.092000", "143509.095000", "143509.098000", "143509.100000", "143509.102000", "143509.105000", "143509.107000", "143509.110000", "143509.113000", "143509.115000", "143509.118000", "143509.120000", "143509.123000", "143509.125000", "143509.128000", "143509.130000", "143509.133000", "143509.135000", "143549.078000", "143549.080000", "143549.083000", "143549.085000", "143549.088000", "143549.091000", "143549.093000", "143549.095000", "143549.098000", "143549.100000", "143549.103000", "143549.105000", "143549.108000", "143549.110000", "143549.113000", "143549.115000", "143549.118000", "143549.120000", "143549.123000", "143549.125000", "143549.128000", "143549.131000", "143549.133000", "143549.135000", "143549.138000", "143549.141000", "143549.143000", "143602.989000", "143602.991000", "143602.994000", "143602.996000", "143603.000000", "143603.002000", "143603.005000", "143603.007000", "143603.010000", "143603.013000"],
      "InstanceNumber": [1, 2, 3, 4, 5, 6, 7, 8, 9, 10, 11, 12, 13, 14, 15, 16, 17, 18, 19, 20, 21, 22, 23, 24, 25, 26, 27, 28, 29, 30, 31, 32, 33, 34, 35, 36, 37, 38, 39, 40, 41, 42, 43, 44, 45, 46, 47, 48, 49, 50, 51, 52, 53, 54, 55, 56, 57, 58, 59, 60, 61, 62, 63, 64, 65, 66, 67, 68, 69, 70, 71, 72, 73, 74, 75, 76, 77, 78, 79, 80, 81, 82, 83, 84, 85, 86, 87, 88, 89, 90, 91, 92, 93, 94, 95, 96, 97, 98, 99, 100, 101, 102, 103, 104, 105, 106, 107, 108, 109, 110, 111, 112, 113, 114, 115, 116, 117, 118, 119, 120, 121, 122, 123, 124, 125, 126, 127, 128, 129, 130, 131, 132, 133, 134, 135, 136, 137, 138, 139, 140, 141, 142, 143, 144, 145, 146, 147, 148, 149, 150, 151, 152, 153, 154, 155, 156, 157, 158, 159, 160, 161, 162, 163, 164, 165, 166, 167, 168, 169, 170, 171, 172, 173, 174, 175, 176, 177, 178, 179, 180, 181, 182, 183, 184, 185, 186, 187, 188, 189, 190],
      "WindowCenter": [4856.0, 4860.0, 4854.0, 4860.0, 4856.0, 4860.0, 4858.0, 4856.0, 4856.0, 4852.0, 4856.0, 4858.0, 4860.0, 4858.0, 4858.0, 4858.0, 4858.0, 4856.0, 4858.0, 4858.0, 4860.0, 4858.0, 4860.0, 4858.0, 4860.0, 4854.0, 4858.0, 4858.0, 4858.0, 4858.0, 4858.0, 4856.0, 4856.0, 4860.0, 4858.0, 4858.0, 4858.0, 4860.0, 4858.0, 4858.0, 4856.0, 4860.0, 4860.0, 4858.0, 4858.0, 4832.0, 4864.0, 4862.0, 4856.0, 4858.0, 4858.0, 4858.0, 4858.0, 4860.0, 4858.0, 4862.0, 4860.0, 4858.0, 4858.0, 4856.0, 4858.0, 4862.0, 4858.0, 4856.0, 4860.0, 4860.0, 4860.0, 4856.0, 4858.0, 4856.0, 4860.0, 4860.0, 4858.0, 4856.0, 4856.0, 4860.0, 4860.0, 4858.0, 4860.0, 4860.0, 4862.0, 4854.0, 4860.0, 4860.0, 4856.0, 4858.0, 4860.0, 4858.0, 4858.0, 4860.0, 4858.0, 4862.0, 4858.0, 4858.0, 4856.0, 4858.0, 4860.0, 4860.0, 4858.0, 4858.0, 4856.0, 4856.0, 4858.0, 4858.0, 4856.0, 4858.0, 4858.0, 4860.0, 4862.0, 4860.0, 4860.0, 4856.0, 4856.0, 4858.0, 4860.0, 4856.0, 4858.0, 4856.0, 4860.0, 4858.0, 4860.0, 4856.0, 4858.0, 4860.0, 4854.0, 4858.0, 4858.0, 4858.0, 4858.0, 4858.0, 4858.0, 4858.0, 4856.0, 4858.0, 4856.0, 4858.0, 4858.0, 4860.0, 4856.0, 4860.0, 4858.0, 4858.0, 4858.0, 4858.0, 4856.0, 4856.0, 4856.0, 4858.0, 4862.0, 4856.0, 4856.0, 4858.0, 4858.0, 4856.0, 4858.0, 4856.0, 4858.0, 4860.0, 4858.0, 4860.0, 4858.0, 4856.0, 4856.0, 4858.0, 4860.0, 4860.0, 4858.0, 4856.0, 4860.0, 4856.0, 4862.0, 4858.0, 4858.0, 4860.0, 4856.0, 4860.0, 4858.0, 4832.0, 4858.0, 4860.0, 4858.0, 4854.0, 4860.0, 4856.0, 4858.0, 4856.0, 4858.0, 4854.0, 4856.0, 4856.0],
      "WindowWidth": [18596.0, 18596.0, 18592.0, 18602.0, 18590.0, 18602.0, 18602.0, 18596.0, 18594.0, 18598.0, 18598.0, 18596.0, 18602.0, 18592.0, 18598.0, 18596.0, 18596.0, 18600.0, 18598.0, 18592.0, 18602.0, 18594.0, 18600.0, 18594.0, 18600.0, 18598.0, 18598.0, 18592.0, 18602.0, 18600.0, 18596.0, 18596.0, 18596.0, 18592.0, 18598.0, 18602.0, 18596.0, 18598.0, 18598.0, 18596.0, 18592.0, 18598.0, 18596.0, 18594.0, 18600.0, 18568.0, 18600.0, 18590.0, 18600.0, 18598.0, 18594.0, 18598.0, 18596.0, 18600.0, 18592.0, 18594.0, 18596.0, 18598.0, 18600.0, 18598.0, 18596.0, 18600.0, 18594.0, 18596.0, 18600.0, 18598.0, 18600.0, 18598.0, 18596.0, 18596.0, 18596.0, 18600.0, 18596.0, 18596.0, 18594.0, 18602.0, 18602.0, 18594.0, 18598.0, 18600.0, 18602.0, 18598.0, 18596.0, 18600.0, 18592.0, 18598.0, 18600.0, 18596.0, 18600.0, 18598.0, 18598.0, 18602.0, 18600.0, 18598.0, 18594.0, 18600.0, 18596.0, 18600.0, 18596.0, 18600.0, 18600.0, 18600.0, 18596.0, 18600.0, 18596.0, 18604.0, 18600.0, 18600.0, 18600.0, 18596.0, 18600.0, 18592.0, 18598.0, 18598.0, 18600.0, 18596.0, 18598.0, 18602.0, 18600.0, 18602.0, 18600.0, 18600.0, 18598.0, 18598.0, 18590.0, 18602.0, 18598.0, 18600.0, 18596.0, 18594.0, 18594.0, 18598.0, 18590.0, 18598.0, 18598.0, 18600.0, 18594.0, 18602.0, 18594.0, 18596.0, 18596.0, 18596.0, 18598.0, 18598.0, 18594.0, 18598.0, 18600.0, 18600.0, 18606.0, 18596.0, 18600.0, 18600.0, 18604.0, 18596.0, 18600.0, 18598.0, 18602.0, 18598.0, 18596.0, 18604.0, 18596.0, 18600.0, 18596.0, 18594.0, 18600.0, 18602.0, 18600.0, 18596.0, 18602.0, 18598.0, 18598.0, 18602.0, 18596.0, 18598.0, 18598.0, 18602.0, 18598.0, 18564.0, 18602.0, 18598.0, 18602.0, 18596.0, 18602.0, 18594.0, 18598.0, 18598.0, 18600.0, 18590.0, 18598.0, 18594.0]
    },
    "slices": {}
  }
}