{
  "AcquisitionMatrixPE": 104,
  "AcquisitionNumber": 1,
  "AcquisitionTime": "14:19:3.307500",
  "BandwidthPerPixelPhaseEncode": 17.17,
  "BaseResolution": 104,
  "BodyPartExamined": "BRAIN",
  "CoilString": "HC1-7;NC1_2",
  "ConsistencyInfo": "N4_VE11C_LATEST_20160120",
  "ConversionSoftware": "dcm2niix",
  "ConversionSoftwareVersion": "v1.0.20190902",
  "DerivedVendorReportedEchoSpacing": 0.000560011,
  "DeviceSerialNumber": "167006",
  "DwellTime": 2.1e-06,
  "EchoTime": 0.037,
  "EchoTrainLength": 104,
  "EffectiveEchoSpacing": 0.000560011,
  "FlipAngle": 52,
  "ImageComments": "Unaliased_MB4_PE3_LB",
  "ImageOrientationPatientDICOM": [0.999021, 0.0137993, 0.0420409, -0.00226669, 0.964839, -0.262832],
  "ImageType": [
    "ORIGINAL",
    "PRIMARY",
    "M",
    "MB",
    "ND",
    "MOSAIC"
],
  "ImagingFrequency": 123.259,
  "InPlanePhaseEncodingDirectionDICOM": "COL",
  "InstitutionAddress": "Chemin_Queen-Mary_4565_Montreal_District_CA_H3W_1W5",
  "InstitutionName": "IUGM",
  "InstitutionalDepartmentName": "Department",
  "MRAcquisitionType": "2D",
  "MagneticFieldStrength": 3,
  "Manufacturer": "Siemens",
  "ManufacturersModelName": "Prisma_fit",
  "Modality": "MR",
  "MultibandAccelerationFactor": 4,
  "PartialFourier": 1,
  "PatientPosition": "HFS",
  "PercentPhaseFOV": 100,
  "PhaseEncodingDirection": "j",
  "PhaseEncodingSteps": 104,
  "PhaseResolution": 1,
  "PixelBandwidth": 2290,
  "ProcedureStepDescription": "memory_things",
  "ProtocolName": "func_task-things_run-4",
  "PulseSequenceDetails": "%CustomerSeq%_cmrr_mbep2d_bold",
  "ReceiveCoilActiveElements": "HC1-7;NC1,2",
  "ReceiveCoilName": "HeadNeck_64",
  "ReconMatrixPE": 104,
  "RepetitionTime": 1.49,
  "SAR": 0.0382207,
  "ScanOptions": "FS",
  "ScanningSequence": "EP",
  "SequenceName": "epfid2d1_104",
  "SequenceVariant": "SK_SS",
  "SeriesDescription": "func_task-things_run-4",
  "SeriesNumber": 22,
  "ShimSetting": [640, -7199, -8809, 708, 64, 36, 37, 6],
  "SliceThickness": 2,
  "SliceTiming": [0, 0.7825, 0.0975, 0.88, 0.195, 0.98, 0.2925, 1.0775, 0.39, 1.175, 0.49, 1.2725, 0.5875, 1.37, 0.685, 0, 0.7825, 0.0975, 0.88, 0.195, 0.98, 0.2925, 1.0775, 0.39, 1.175, 0.49, 1.2725, 0.5875, 1.37, 0.685, 0, 0.7825, 0.0975, 0.88, 0.195, 0.98, 0.2925, 1.0775, 0.39, 1.175, 0.49, 1.2725, 0.5875, 1.37, 0.685, 0, 0.7825, 0.0975, 0.88, 0.195, 0.98, 0.2925, 1.0775, 0.39, 1.175, 0.49, 1.2725, 0.5875, 1.37, 0.685],
  "SoftwareVersions": "syngo_MR_E11",
  "SpacingBetweenSlices": 2,
  "StationName": "MRC35049",
  "TaskName": "things",
  "TotalReadoutTime": 0.0576811,
  "TxRefAmp": 215.881,
  "WipMemBlock": "939b6746-6c12-4dde-9961-fe2c22d26b7e||Sequence: R016 ve11c/master r/e634e98; Dec 19 2017 11:00:25 by eja",
  "dcmmeta_affine": [
    [-1.9980411529541016, -0.004533377941697836, 0.0883791372179985, 106.60104370117188],
    [-0.027598680928349495, 1.9296780824661255, -0.524958074092865, -72.72903442382812],
    [0.0840817242860794, 0.5256634950637817, 1.9278507232666016, -70.37113189697266],
    [0.0, 0.0, 0.0, 1.0]
],
  "dcmmeta_reorient_transform": [
    [0.0, -1.0, 0.0, 103.0],
    [1.0, 0.0, 0.0, 0.0],
    [0.0, 0.0, 1.0, 0.0],
    [0.0, 0.0, 0.0, 1.0]
],
  "dcmmeta_shape": [104, 104, 60, 190],
  "dcmmeta_slice_dim": 2,
  "dcmmeta_version": 0.6,
  "global": {
    "const": {
      "AcquisitionMatrix": [104, 0, 0, 104],
      "AngioFlag": "N",
      "BitsAllocated": 16,
      "BitsStored": 16,
      "BodyPartExamined": "BRAIN",
      "Columns": 832,
      "EchoNumbers": 1,
      "EchoTime": 37.0,
      "EchoTrainLength": 104,
      "FlipAngle": 52.0,
      "HighBit": 15,
      "ImageOrientationPatient": [0.99902059244855, 0.01379934072632, 0.04204086178065, -0.0022666890563, 0.96483901903714, -0.2628317512482],
      "ImagePositionPatient": [-831.77095115168, -838.47652976717, 144.5079756339],
      "ImageType": [
        "ORIGINAL",
        "PRIMARY",
        "M",
        "MB",
        "ND",
        "MOSAIC"
],
      "ImagedNucleus": "1H",
      "ImagingFrequency": 123.258978,
      "InPlanePhaseEncodingDirection": "COL",
      "MRAcquisitionType": "2D",
      "MagneticFieldStrength": 3.0,
      "Manufacturer": "SIEMENS",
      "ManufacturerModelName": "Prisma_fit",
      "Modality": "MR",
      "NumberOfAverages": 1.0,
      "NumberOfPhaseEncodingSteps": 104,
      "PercentPhaseFieldOfView": 100.0,
      "PercentSampling": 100.0,
      "PerformedProcedureStepStartTime": "130354.233000",
      "PhotometricInterpretation": "MONOCHROME2",
      "PixelBandwidth": 2290.0,
      "PixelRepresentation": 0,
      "PixelSpacing": [2.0, 2.0],
      "ProtocolName": "func_task-things_run-4",
      "RepetitionTime": 1490.0,
      "Rows": 832,
      "SAR": 0.03822069864303,
      "SamplesPerPixel": 1,
      "ScanOptions": "FS",
      "ScanningSequence": "EP",
      "SequenceName": "epfid2d1_104",
      "SequenceVariant": [
        "SK",
        "SS"
],
      "SeriesDescription": "func_task-things_run-4",
      "SeriesNumber": 22,
      "SeriesTime": "142023.682000",
      "SliceLocation": -44.032015844653,
      "SliceThickness": 2.0,
      "SmallestImagePixelValue": 0,
      "SoftwareVersions": "syngo MR E11",
      "SpacingBetweenSlices": 2.0000000329685,
      "SpecificCharacterSet": "ISO_IR 100",
      "StudyID": "1",
      "StudyTime": "130354.050000",
      "TransmitCoilName": "Body",
      "VariableFlipAngleFlag": "N",
      "WindowCenterWidthExplanation": "Algo1",
      "dBdt": 0.0},
    "slices": {}
  },
  "time": {
    "samples": {
      "AcquisitionNumber": [1, 2, 3, 4, 5, 6, 7, 8, 9, 10, 11, 12, 13, 14, 15, 16, 17, 18, 19, 20, 21, 22, 23, 24, 25, 26, 27, 28, 29, 30, 31, 32, 33, 34, 35, 36, 37, 38, 39, 40, 41, 42, 43, 44, 45, 46, 47, 48, 49, 50, 51, 52, 53, 54, 55, 56, 57, 58, 59, 60, 61, 62, 63, 64, 65, 66, 67, 68, 69, 70, 71, 72, 73, 74, 75, 76, 77, 78, 79, 80, 81, 82, 83, 84, 85, 86, 87, 88, 89, 90, 91, 92, 93, 94, 95, 96, 97, 98, 99, 100, 101, 102, 103, 104, 105, 106, 107, 108, 109, 110, 111, 112, 113, 114, 115, 116, 117, 118, 119, 120, 121, 122, 123, 124, 125, 126, 127, 128, 129, 130, 131, 132, 133, 134, 135, 136, 137, 138, 139, 140, 141, 142, 143, 144, 145, 146, 147, 148, 149, 150, 151, 152, 153, 154, 155, 156, 157, 158, 159, 160, 161, 162, 163, 164, 165, 166, 167, 168, 169, 170, 171, 172, 173, 174, 175, 176, 177, 178, 179, 180, 181, 182, 183, 184, 185, 186, 187, 188, 189, 190],
      "AcquisitionTime": ["141903.307500", "141904.797500", "141906.287500", "141907.777500", "141909.267500", "141910.757500", "141912.247500", "141913.737500", "141915.227500", "141916.717500", "141918.207500", "141919.697500", "141921.187500", "141922.677500", "141924.167500", "141925.657500", "141927.147500", "141928.637500", "141930.127500", "141931.617500", "141933.107500", "141934.597500", "141936.087500", "141937.577500", "141939.067500", "141940.557500", "141942.047500", "141943.537500", "141945.027500", "141946.517500", "141948.007500", "141949.497500", "141950.987500", "141952.477500", "141953.967500", "141955.457500", "141956.947500", "141958.437500", "141959.927500", "142001.417500", "142002.907500", "142004.397500", "142005.887500", "142007.377500", "142008.867500", "142010.357500", "142011.847500", "142013.337500", "142014.827500", "142016.317500", "142017.807500", "142019.297500", "142020.787500", "142022.277500", "142023.767500", "142025.257500", "142026.747500", "142028.237500", "142029.727500", "142031.217500", "142032.707500", "142034.197500", "142035.687500", "142037.177500", "142038.667500", "142040.157500", "142041.647500", "142043.137500", "142044.627500", "142046.117500", "142047.607500", "142049.097500", "142050.587500", "142052.077500", "142053.567500", "142055.057500", "142056.547500", "142058.037500", "142059.527500", "142101.017500", "142102.507500", "142103.997500", "142105.487500", "142106.977500", "142108.467500", "142109.957500", "142111.447500", "142112.937500", "142114.427500", "142115.917500", "142117.407500", "142118.897500", "142120.387500", "142121.877500", "142123.367500", "142124.857500", "142126.347500", "142127.837500", "142129.327500", "142130.817500", "142132.307500", "142133.797500", "142135.287500", "142136.777500", "142138.267500", "142139.757500", "142141.247500", "142142.737500", "142144.227500", "142145.717500", "142147.207500", "142148.697500", "142150.187500", "142151.677500", "142153.167500", "142154.657500", "142156.147500", "142157.637500", "142159.127500", "142200.617500", "142202.107500", "142203.597500", "142205.087500", "142206.577500", "142208.067500", "142209.557500", "142211.047500", "142212.537500", "142214.027500", "142215.517500", "142217.007500", "142218.497500", "142219.987500", "142221.477500", "142222.967500", "142224.457500", "142225.947500", "142227.437500", "142228.927500", "142230.417500", "142231.907500", "142233.397500", "142234.887500", "142236.377500", "142237.867500", "142239.357500", "142240.847500", "142242.337500", "142243.827500", "142245.317500", "142246.807500", "142248.297500", "142249.787500", "142251.277500", "142252.767500", "142254.257500", "142255.747500", "142257.237500", "142258.727500", "142300.217500", "142301.707500", "142303.197500", "142304.687500", "142306.177500", "142307.667500", "142309.157500", "142310.647500", "142312.137500", "142313.627500", "142315.117500", "142316.607500", "142318.097500", "142319.587500", "142321.077500", "142322.567500", "142324.057500", "142325.547500", "142327.037500", "142328.527500", "142330.017500", "142331.507500", "142332.997500", "142334.487500", "142335.977500", "142337.467500", "142338.957500", "142340.447500", "142341.937500", "142343.427500", "142344.917500"],
      "ContentTime": ["142023.685000", "142023.699000", "142023.703000", "142023.706000", "142023.709000", "142023.712000", "142023.716000", "142023.719000", "142023.722000", "142023.725000", "142023.729000", "142023.732000", "142023.735000", "142023.761000", "142023.764000", "142023.767000", "142023.771000", "142023.774000", "142023.777000", "142023.781000", "142023.784000", "142023.787000", "142023.790000", "142023.794000", "142023.797000", "142023.800000", "142023.803000", "142043.649000", "142043.653000", "142043.656000", "142043.660000", "142043.664000", "142043.668000", "142043.672000", "142043.675000", "142043.678000", "142043.682000", "142043.685000", "142043.702000", "142043.705000", "142043.708000", "142043.712000", "142043.715000", "142043.718000", "142043.721000", "142043.725000", "142043.728000", "142103.648000", "142103.652000", "142103.655000", "142103.658000", "142103.661000", "142103.665000", "142103.668000", "142103.671000", "142103.675000", "142103.678000", "142103.681000", "142103.685000", "142103.688000", "142103.693000", "142103.696000", "142103.706000", "142103.709000", "142103.712000", "142103.715000", "142103.719000", "142103.722000", "142123.647000", "142123.651000", "142123.654000", "142123.657000", "142123.661000", "142123.664000", "142123.667000", "142123.670000", "142123.674000", "142123.677000", "142123.680000", "142123.684000", "142123.687000", "142123.700000", "142123.703000", "142123.706000", "142123.710000", "142123.713000", "142123.716000", "142123.719000", "142203.647000", "142203.651000", "142203.654000", "142203.657000", "142203.661000", "142203.664000", "142203.667000", "142203.671000", "142203.674000", "142203.677000", "142203.680000", "142203.684000", "142203.687000", "142203.690000", "142203.694000", "142203.697000", "142203.700000", "142203.704000", "142203.707000", "142203.710000", "142203.714000", "142203.717000", "142203.720000", "142203.723000", "142203.727000", "142203.731000", "142203.734000", "142203.737000", "142203.741000", "142203.744000", "142203.747000", "142203.750000", "142243.648000", "142243.652000", "142243.655000", "142243.658000", "142243.662000", "142243.665000", "142243.668000", "142243.672000", "142243.675000", "142243.678000", "142243.682000", "142243.685000", "142243.688000", "142243.692000", "142243.695000", "142243.698000", "142243.701000", "142243.705000", "142243.708000", "142243.711000", "142243.715000", "142243.718000", "142243.721000", "142243.724000", "142243.728000", "142243.731000", "142243.734000", "142323.648000", "142323.652000", "142323.655000", "142323.659000", "142323.662000", "142323.665000", "142323.669000", "142323.672000", "142323.675000", "142323.678000", "142323.682000", "142323.685000", "142323.688000", "142323.691000", "142323.695000", "142323.698000", "142323.701000", "142323.705000", "142323.708000", "142323.716000", "142323.719000", "142323.723000", "142323.726000", "142323.729000", "142323.733000", "142323.736000", "142323.739000", "142346.743000", "142346.746000", "142346.750000", "142346.753000", "142346.756000", "142346.760000", "142346.763000", "142346.766000", "142346.770000", "142346.773000", "142346.776000", "142346.780000", "142346.783000", "142346.787000", "142346.790000", "142346.793000"],
      "InstanceCreationTime": ["142023.685000", "142023.699000", "142023.703000", "142023.706000", "142023.709000", "142023.712000", "142023.716000", "142023.719000", "142023.722000", "142023.725000", "142023.729000", "142023.732000", "142023.735000", "142023.761000", "142023.764000", "142023.767000", "142023.771000", "142023.774000", "142023.777000", "142023.781000", "142023.784000", "142023.787000", "142023.790000", "142023.794000", "142023.797000", "142023.800000", "142023.803000", "142043.649000", "142043.653000", "142043.656000", "142043.660000", "142043.664000", "142043.668000", "142043.672000", "142043.675000", "142043.678000", "142043.682000", "142043.685000", "142043.702000", "142043.705000", "142043.708000", "142043.712000", "142043.715000", "142043.718000", "142043.721000", "142043.725000", "142043.728000", "142103.648000", "142103.652000", "142103.655000", "142103.658000", "142103.661000", "142103.665000", "142103.668000", "142103.671000", "142103.675000", "142103.678000", "142103.681000", "142103.685000", "142103.688000", "142103.693000", "142103.696000", "142103.706000", "142103.709000", "142103.712000", "142103.715000", "142103.719000", "142103.722000", "142123.647000", "142123.651000", "142123.654000", "142123.657000", "142123.661000", "142123.664000", "142123.667000", "142123.670000", "142123.674000", "142123.677000", "142123.680000", "142123.684000", "142123.687000", "142123.700000", "142123.703000", "142123.706000", "142123.710000", "142123.713000", "142123.716000", "142123.719000", "142203.647000", "142203.651000", "142203.654000", "142203.657000", "142203.661000", "142203.664000", "142203.667000", "142203.671000", "142203.674000", "142203.677000", "142203.680000", "142203.684000", "142203.687000", "142203.690000", "142203.694000", "142203.697000", "142203.700000", "142203.704000", "142203.707000", "142203.710000", "142203.714000", "142203.717000", "142203.720000", "142203.723000", "142203.727000", "142203.731000", "142203.734000", "142203.737000", "142203.741000", "142203.744000", "142203.747000", "142203.750000", "142243.648000", "142243.652000", "142243.655000", "142243.658000", "142243.662000", "142243.665000", "142243.668000", "142243.672000", "142243.675000", "142243.678000", "142243.682000", "142243.685000", "142243.688000", "142243.692000", "142243.695000", "142243.698000", "142243.701000", "142243.705000", "142243.708000", "142243.711000", "142243.715000", "142243.718000", "142243.721000", "142243.724000", "142243.728000", "142243.731000", "142243.734000", "142323.648000", "142323.652000", "142323.655000", "142323.659000", "142323.662000", "142323.665000", "142323.669000", "142323.672000", "142323.675000", "142323.678000", "142323.682000", "142323.685000", "142323.688000", "142323.691000", "142323.695000", "142323.698000", "142323.701000", "142323.705000", "142323.708000", "142323.716000", "142323.719000", "142323.723000", "142323.726000", "142323.729000", "142323.733000", "142323.736000", "142323.739000", "142346.743000", "142346.746000", "142346.750000", "142346.753000", "142346.756000", "142346.760000", "142346.763000", "142346.766000", "142346.770000", "142346.773000", "142346.776000", "142346.780000", "142346.783000", "142346.787000", "142346.790000", "142346.793000"],
      "InstanceNumber": [1, 2, 3, 4, 5, 6, 7, 8, 9, 10, 11, 12, 13, 14, 15, 16, 17, 18, 19, 20, 21, 22, 23, 24, 25, 26, 27, 28, 29, 30, 31, 32, 33, 34, 35, 36, 37, 38, 39, 40, 41, 42, 43, 44, 45, 46, 47, 48, 49, 50, 51, 52, 53, 54, 55, 56, 57, 58, 59, 60, 61, 62, 63, 64, 65, 66, 67, 68, 69, 70, 71, 72, 73, 74, 75, 76, 77, 78, 79, 80, 81, 82, 83, 84, 85, 86, 87, 88, 89, 90, 91, 92, 93, 94, 95, 96, 97, 98, 99, 100, 101, 102, 103, 104, 105, 106, 107, 108, 109, 110, 111, 112, 113, 114, 115, 116, 117, 118, 119, 120, 121, 122, 123, 124, 125, 126, 127, 128, 129, 130, 131, 132, 133, 134, 135, 136, 137, 138, 139, 140, 141, 142, 143, 144, 145, 146, 147, 148, 149, 150, 151, 152, 153, 154, 155, 156, 157, 158, 159, 160, 161, 162, 163, 164, 165, 166, 167, 168, 169, 170, 171, 172, 173, 174, 175, 176, 177, 178, 179, 180, 181, 182, 183, 184, 185, 186, 187, 188, 189, 190],
      "LargestImagePixelValue": [40038, 39002, 38479, 37775, 37371, 37432, 37374, 37493, 37909, 37964, 37975, 37499, 37536, 37900, 37507, 37577, 37784, 38198, 37533, 37405, 37703, 37516, 37547, 37784, 37398, 37525, 37650, 37387, 37367, 37711, 37612, 37593, 37798, 37334, 37654, 37539, 37811, 37949, 37995, 37699, 37035, 37821, 37435, 37155, 37629, 37824, 37798, 37764, 37396, 37320, 37886, 37741, 37924, 38017, 37677, 37855, 37659, 37778, 37976, 37935, 37264, 37278, 37221, 37743, 37859, 37936, 38439, 38047, 38083, 37369, 37628, 37475, 37799, 37660, 38081, 38027, 37761, 37393, 37511, 37690, 37904, 37982, 37467, 37726, 37790, 37625, 37647, 37857, 38108, 37849, 37573, 37406, 37765, 38117, 37711, 37744, 37881, 38382, 37613, 37806, 38317, 37877, 38013, 37984, 38329, 38012, 37917, 37397, 37850, 37817, 37948, 38254, 38159, 37661, 37541, 37747, 37960, 37679, 37575, 37938, 37598, 37628, 37479, 38208, 38188, 37788, 37420, 37961, 37776, 38227, 38197, 37936, 37809, 37786, 37712, 37769, 37583, 37591, 37610, 37627, 37486, 37647, 37366, 37889, 37830, 37464, 37165, 37426, 37693, 37973, 38239, 37845, 38179, 37477, 37388, 37830, 37975, 37827, 38087, 37779, 37987, 38000, 37010, 37407, 37575, 37844, 38394, 37517, 38065, 37962, 37866, 38267, 37467, 37678, 37541, 37940, 38738, 38301, 37661, 38000, 38006, 37967, 38384, 38226, 38264, 37684, 37735, 37915, 38019, 37988],
      "WindowCenter": [10223.0, 10193.0, 10177.0, 10184.0, 10184.0, 10176.0, 10161.0, 10151.0, 10138.0, 10134.0, 10129.0, 10139.0, 10148.0, 10148.0, 10140.0, 10131.0, 10138.0, 10144.0, 10139.0, 10139.0, 10136.0, 10130.0, 10140.0, 10147.0, 10156.0, 10156.0, 10156.0, 10143.0, 10138.0, 10129.0, 10126.0, 10131.0, 10145.0, 10133.0, 10128.0, 10120.0, 10128.0, 10150.0, 10160.0, 10163.0, 10150.0, 10153.0, 10149.0, 10143.0, 10155.0, 10157.0, 10149.0, 10139.0, 10131.0, 10131.0, 10136.0, 10145.0, 10154.0, 10153.0, 10132.0, 10128.0, 10122.0, 10135.0, 10160.0, 10187.0, 10179.0, 10155.0, 10121.0, 10104.0, 10087.0, 10098.0, 10123.0, 10166.0, 10188.0, 10177.0, 10158.0, 10134.0, 10122.0, 10120.0, 10127.0, 10153.0, 10165.0, 10153.0, 10143.0, 10139.0, 10130.0, 10144.0, 10156.0, 10160.0, 10155.0, 10139.0, 10124.0, 10131.0, 10160.0, 10165.0, 10152.0, 10143.0, 10147.0, 10153.0, 10149.0, 10149.0, 10149.0, 10163.0, 10160.0, 10152.0, 10138.0, 10114.0, 10109.0, 10117.0, 10135.0, 10145.0, 10148.0, 10147.0, 10146.0, 10138.0, 10145.0, 10152.0, 10146.0, 10132.0, 10122.0, 10128.0, 10122.0, 10120.0, 10130.0, 10152.0, 10141.0, 10130.0, 10121.0, 10127.0, 10138.0, 10141.0, 10139.0, 10136.0, 10116.0, 10119.0, 10134.0, 10139.0, 10149.0, 10141.0, 10140.0, 10138.0, 10133.0, 10147.0, 10163.0, 10166.0, 10151.0, 10134.0, 10121.0, 10136.0, 10155.0, 10159.0, 10135.0, 10107.0, 10094.0, 10092.0, 10100.0, 10126.0, 10144.0, 10136.0, 10142.0, 10150.0, 10148.0, 10135.0, 10136.0, 10138.0, 10155.0, 10167.0, 10153.0, 10143.0, 10141.0, 10147.0, 10146.0, 10125.0, 10114.0, 10119.0, 10135.0, 10151.0, 10150.0, 10139.0, 10108.0, 10120.0, 10144.0, 10155.0, 10140.0, 10116.0, 10104.0, 10109.0, 10134.0, 10162.0, 10165.0, 10145.0, 10125.0, 10112.0, 10125.0, 10145.0],
      "WindowWidth": [21771.0, 21680.0, 21633.0, 21643.0, 21639.0, 21619.0, 21581.0, 21557.0, 21526.0, 21516.0, 21507.0, 21532.0, 21553.0, 21552.0, 21534.0, 21513.0, 21527.0, 21540.0, 21534.0, 21531.0, 21522.0, 21510.0, 21532.0, 21548.0, 21572.0, 21572.0, 21571.0, 21544.0, 21528.0, 21506.0, 21497.0, 21515.0, 21541.0, 21517.0, 21503.0, 21485.0, 21502.0, 21552.0, 21575.0, 21585.0, 21560.0, 21562.0, 21555.0, 21542.0, 21566.0, 21571.0, 21553.0, 21529.0, 21511.0, 21510.0, 21522.0, 21540.0, 21563.0, 21558.0, 21513.0, 21502.0, 21490.0, 21519.0, 21574.0, 21640.0, 21625.0, 21565.0, 21486.0, 21443.0, 21407.0, 21432.0, 21491.0, 21589.0, 21643.0, 21618.0, 21573.0, 21516.0, 21487.0, 21483.0, 21501.0, 21559.0, 21589.0, 21563.0, 21539.0, 21528.0, 21509.0, 21538.0, 21572.0, 21581.0, 21563.0, 21526.0, 21493.0, 21509.0, 21574.0, 21588.0, 21561.0, 21540.0, 21546.0, 21558.0, 21554.0, 21552.0, 21552.0, 21579.0, 21577.0, 21560.0, 21523.0, 21469.0, 21455.0, 21475.0, 21515.0, 21541.0, 21551.0, 21546.0, 21542.0, 21524.0, 21540.0, 21557.0, 21544.0, 21513.0, 21491.0, 21501.0, 21492.0, 21487.0, 21509.0, 21555.0, 21534.0, 21505.0, 21486.0, 21499.0, 21525.0, 21533.0, 21527.0, 21519.0, 21478.0, 21481.0, 21512.0, 21530.0, 21554.0, 21537.0, 21532.0, 21526.0, 21516.0, 21549.0, 21587.0, 21593.0, 21560.0, 21518.0, 21487.0, 21520.0, 21565.0, 21573.0, 21519.0, 21453.0, 21422.0, 21417.0, 21435.0, 21495.0, 21539.0, 21526.0, 21538.0, 21554.0, 21549.0, 21523.0, 21520.0, 21526.0, 21566.0, 21595.0, 21565.0, 21538.0, 21532.0, 21544.0, 21540.0, 21494.0, 21469.0, 21482.0, 21519.0, 21553.0, 21553.0, 21525.0, 21457.0, 21479.0, 21536.0, 21562.0, 21528.0, 21475.0, 21444.0, 21456.0, 21514.0, 21581.0, 21587.0, 21543.0, 21494.0, 21462.0, 21492.0, 21540.0]
    },
    "slices": {}
  }
}