{
  "AcquisitionMatrixPE": 104,
  "AcquisitionNumber": 1,
  "AcquisitionTime": "14:31:19.610000",
  "BandwidthPerPixelPhaseEncode": 17.17,
  "BaseResolution": 104,
  "BodyPartExamined": "BRAIN",
  "CoilString": "HC1-7;NC1_2",
  "ConsistencyInfo": "N4_VE11C_LATEST_20160120",
  "ConversionSoftware": "dcm2niix",
  "ConversionSoftwareVersion": "v1.0.20190902",
  "DerivedVendorReportedEchoSpacing": 0.000560011,
  "DeviceSerialNumber": "167006",
  "DwellTime": 2.1e-06,
  "EchoTime": 0.037,
  "EchoTrainLength": 104,
  "EffectiveEchoSpacing": 0.000560011,
  "FlipAngle": 52,
  "ImageComments": "Unaliased_MB4_PE3_LB",
  "ImageOrientationPatientDICOM": [0.999021, 0.0137993, 0.0420409, -0.00226669, 0.964839, -0.262832],
  "ImageType": [
    "ORIGINAL",
    "PRIMARY",
    "M",
    "MB",
    "ND",
    "MOSAIC"
],
  "ImagingFrequency": 123.259,
  "InPlanePhaseEncodingDirectionDICOM": "COL",
  "InstitutionAddress": "Chemin_Queen-Mary_4565_Montreal_District_CA_H3W_1W5",
  "InstitutionName": "IUGM",
  "InstitutionalDepartmentName": "Department",
  "MRAcquisitionType": "2D",
  "MagneticFieldStrength": 3,
  "Manufacturer": "Siemens",
  "ManufacturersModelName": "Prisma_fit",
  "Modality": "MR",
  "MultibandAccelerationFactor": 4,
  "PartialFourier": 1,
  "PatientPosition": "HFS",
  "PercentPhaseFOV": 100,
  "PhaseEncodingDirection": "j",
  "PhaseEncodingSteps": 104,
  "PhaseResolution": 1,
  "PixelBandwidth": 2290,
  "ProcedureStepDescription": "memory_things",
  "ProtocolName": "func_task-things_run-6",
  "PulseSequenceDetails": "%CustomerSeq%_cmrr_mbep2d_bold",
  "ReceiveCoilActiveElements": "HC1-7;NC1,2",
  "ReceiveCoilName": "HeadNeck_64",
  "ReconMatrixPE": 104,
  "RepetitionTime": 1.49,
  "SAR": 0.0382207,
  "ScanOptions": "FS",
  "ScanningSequence": "EP",
  "SequenceName": "epfid2d1_104",
  "SequenceVariant": "SK_SS",
  "SeriesDescription": "func_task-things_run-6",
  "SeriesNumber": 28,
  "ShimSetting": [640, -7199, -8809, 708, 64, 36, 37, 6],
  "SliceThickness": 2,
  "SliceTiming": [0, 0.785, 0.0975, 0.8825, 0.1975, 0.98, 0.295, 1.0775, 0.3925, 1.1775, 0.49, 1.275, 0.5875, 1.3725, 0.6875, 0, 0.785, 0.0975, 0.8825, 0.1975, 0.98, 0.295, 1.0775, 0.3925, 1.1775, 0.49, 1.275, 0.5875, 1.3725, 0.6875, 0, 0.785, 0.0975, 0.8825, 0.1975, 0.98, 0.295, 1.0775, 0.3925, 1.1775, 0.49, 1.275, 0.5875, 1.3725, 0.6875, 0, 0.785, 0.0975, 0.8825, 0.1975, 0.98, 0.295, 1.0775, 0.3925, 1.1775, 0.49, 1.275, 0.5875, 1.3725, 0.6875],
  "SoftwareVersions": "syngo_MR_E11",
  "SpacingBetweenSlices": 2,
  "StationName": "MRC35049",
  "TaskName": "things",
  "TotalReadoutTime": 0.0576811,
  "TxRefAmp": 215.881,
  "WipMemBlock": "c2971974-5dfc-4d7e-b408-27c6baeb853c||Sequence: R016 ve11c/master r/e634e98; Dec 19 2017 11:00:25 by eja",
  "dcmmeta_affine": [
    [-1.9980411529541016, -0.004533377941697836, 0.0883791372179985, 106.60104370117188],
    [-0.027598680928349495, 1.9296780824661255, -0.524958074092865, -72.72903442382812],
    [0.0840817242860794, 0.5256634950637817, 1.9278507232666016, -70.37113189697266],
    [0.0, 0.0, 0.0, 1.0]
],
  "dcmmeta_reorient_transform": [
    [0.0, -1.0, 0.0, 103.0],
    [1.0, 0.0, 0.0, 0.0],
    [0.0, 0.0, 1.0, 0.0],
    [0.0, 0.0, 0.0, 1.0]
],
  "dcmmeta_shape": [104, 104, 60, 190],
  "dcmmeta_slice_dim": 2,
  "dcmmeta_version": 0.6,
  "global": {
    "const": {
      "AcquisitionMatrix": [104, 0, 0, 104],
      "AngioFlag": "N",
      "BitsAllocated": 16,
      "BitsStored": 16,
      "BodyPartExamined": "BRAIN",
      "Columns": 832,
      "EchoNumbers": 1,
      "EchoTime": 37.0,
      "EchoTrainLength": 104,
      "FlipAngle": 52.0,
      "HighBit": 15,
      "ImageOrientationPatient": [0.99902059244855, 0.01379934072632, 0.04204086178065, -0.0022666890563, 0.96483901903714, -0.2628317512482],
      "ImagePositionPatient": [-831.77095115168, -838.47652976717, 144.5079756339],
      "ImageType": [
        "ORIGINAL",
        "PRIMARY",
        "M",
        "MB",
        "ND",
        "MOSAIC"
],
      "ImagedNucleus": "1H",
      "ImagingFrequency": 123.258982,
      "InPlanePhaseEncodingDirection": "COL",
      "MRAcquisitionType": "2D",
      "MagneticFieldStrength": 3.0,
      "Manufacturer": "SIEMENS",
      "ManufacturerModelName": "Prisma_fit",
      "Modality": "MR",
      "NumberOfAverages": 1.0,
      "NumberOfPhaseEncodingSteps": 104,
      "PercentPhaseFieldOfView": 100.0,
      "PercentSampling": 100.0,
      "PerformedProcedureStepStartTime": "130354.233000",
      "PhotometricInterpretation": "MONOCHROME2",
      "PixelBandwidth": 2290.0,
      "PixelRepresentation": 0,
      "PixelSpacing": [2.0, 2.0],
      "ProtocolName": "func_task-things_run-6",
      "RepetitionTime": 1490.0,
      "Rows": 832,
      "SAR": 0.03822069864303,
      "SamplesPerPixel": 1,
      "ScanOptions": "FS",
      "ScanningSequence": "EP",
      "SequenceName": "epfid2d1_104",
      "SequenceVariant": [
        "SK",
        "SS"
],
      "SeriesDescription": "func_task-things_run-6",
      "SeriesNumber": 28,
      "SeriesTime": "143228.959000",
      "SliceLocation": -44.032015844653,
      "SliceThickness": 2.0,
      "SmallestImagePixelValue": 0,
      "SoftwareVersions": "syngo MR E11",
      "SpacingBetweenSlices": 2.0000000329685,
      "SpecificCharacterSet": "ISO_IR 100",
      "StudyID": "1",
      "StudyTime": "130354.050000",
      "TransmitCoilName": "Body",
      "VariableFlipAngleFlag": "N",
      "WindowCenterWidthExplanation": "Algo1",
      "dBdt": 0.0},
    "slices": {}
  },
  "time": {
    "samples": {
      "AcquisitionNumber": [1, 2, 3, 4, 5, 6, 7, 8, 9, 10, 11, 12, 13, 14, 15, 16, 17, 18, 19, 20, 21, 22, 23, 24, 25, 26, 27, 28, 29, 30, 31, 32, 33, 34, 35, 36, 37, 38, 39, 40, 41, 42, 43, 44, 45, 46, 47, 48, 49, 50, 51, 52, 53, 54, 55, 56, 57, 58, 59, 60, 61, 62, 63, 64, 65, 66, 67, 68, 69, 70, 71, 72, 73, 74, 75, 76, 77, 78, 79, 80, 81, 82, 83, 84, 85, 86, 87, 88, 89, 90, 91, 92, 93, 94, 95, 96, 97, 98, 99, 100, 101, 102, 103, 104, 105, 106, 107, 108, 109, 110, 111, 112, 113, 114, 115, 116, 117, 118, 119, 120, 121, 122, 123, 124, 125, 126, 127, 128, 129, 130, 131, 132, 133, 134, 135, 136, 137, 138, 139, 140, 141, 142, 143, 144, 145, 146, 147, 148, 149, 150, 151, 152, 153, 154, 155, 156, 157, 158, 159, 160, 161, 162, 163, 164, 165, 166, 167, 168, 169, 170, 171, 172, 173, 174, 175, 176, 177, 178, 179, 180, 181, 182, 183, 184, 185, 186, 187, 188, 189, 190],
      "AcquisitionTime": ["143119.610000", "143121.100000", "143122.590000", "143124.080000", "143125.570000", "143127.060000", "143128.550000", "143130.040000", "143131.530000", "143133.020000", "143134.510000", "143136.000000", "143137.490000", "143138.980000", "143140.470000", "143141.960000", "143143.450000", "143144.940000", "143146.430000", "143147.920000", "143149.410000", "143150.900000", "143152.390000", "143153.880000", "143155.370000", "143156.860000", "143158.350000", "143159.840000", "143201.330000", "143202.820000", "143204.310000", "143205.800000", "143207.290000", "143208.780000", "143210.270000", "143211.760000", "143213.250000", "143214.740000", "143216.230000", "143217.720000", "143219.210000", "143220.700000", "143222.190000", "143223.680000", "143225.170000", "143226.660000", "143228.150000", "143229.640000", "143231.130000", "143232.620000", "143234.110000", "143235.600000", "143237.090000", "143238.580000", "143240.070000", "143241.560000", "143243.050000", "143244.540000", "143246.030000", "143247.520000", "143249.010000", "143250.500000", "143251.990000", "143253.480000", "143254.970000", "143256.460000", "143257.950000", "143259.440000", "143300.930000", "143302.420000", "143303.910000", "143305.400000", "143306.890000", "143308.380000", "143309.870000", "143311.360000", "143312.850000", "143314.340000", "143315.830000", "143317.320000", "143318.810000", "143320.300000", "143321.790000", "143323.280000", "143324.770000", "143326.260000", "143327.750000", "143329.240000", "143330.730000", "143332.220000", "143333.710000", "143335.200000", "143336.690000", "143338.180000", "143339.670000", "143341.160000", "143342.650000", "143344.140000", "143345.630000", "143347.120000", "143348.610000", "143350.100000", "143351.590000", "143353.080000", "143354.570000", "143356.060000", "143357.550000", "143359.040000", "143400.530000", "143402.020000", "143403.510000", "143405.000000", "143406.490000", "143407.980000", "143409.470000", "143410.960000", "143412.450000", "143413.940000", "143415.430000", "143416.920000", "143418.410000", "143419.900000", "143421.390000", "143422.880000", "143424.370000", "143425.860000", "143427.350000", "143428.840000", "143430.330000", "143431.820000", "143433.310000", "143434.800000", "143436.290000", "143437.780000", "143439.270000", "143440.760000", "143442.250000", "143443.740000", "143445.230000", "143446.720000", "143448.210000", "143449.700000", "143451.190000", "143452.680000", "143454.170000", "143455.660000", "143457.150000", "143458.640000", "143500.130000", "143501.620000", "143503.110000", "143504.600000", "143506.090000", "143507.580000", "143509.070000", "143510.560000", "143512.050000", "143513.540000", "143515.030000", "143516.520000", "143518.010000", "143519.500000", "143520.990000", "143522.480000", "143523.970000", "143525.460000", "143526.950000", "143528.440000", "143529.930000", "143531.420000", "143532.910000", "143534.400000", "143535.890000", "143537.380000", "143538.870000", "143540.360000", "143541.850000", "143543.340000", "143544.830000", "143546.320000", "143547.810000", "143549.300000", "143550.790000", "143552.280000", "143553.770000", "143555.260000", "143556.750000", "143558.240000", "143559.730000", "143601.220000"],
      "ContentTime": ["143228.962000", "143228.965000", "143228.969000", "143228.972000", "143228.975000", "143228.978000", "143228.982000", "143228.985000", "143228.988000", "143228.992000", "143228.995000", "143228.998000", "143229.003000", "143229.006000", "143229.009000", "143229.012000", "143248.927000", "143248.931000", "143248.934000", "143248.937000", "143248.940000", "143248.944000", "143248.947000", "143248.950000", "143248.954000", "143248.962000", "143248.965000", "143248.969000", "143248.972000", "143248.975000", "143248.978000", "143248.982000", "143248.985000", "143248.988000", "143248.992000", "143248.995000", "143308.926000", "143308.930000", "143308.933000", "143308.936000", "143308.940000", "143308.943000", "143308.946000", "143308.949000", "143308.953000", "143308.956000", "143308.959000", "143308.963000", "143308.966000", "143308.969000", "143308.972000", "143308.976000", "143308.979000", "143308.982000", "143308.986000", "143308.989000", "143308.992000", "143328.927000", "143328.931000", "143328.934000", "143328.937000", "143328.941000", "143328.944000", "143328.947000", "143328.950000", "143328.954000", "143328.957000", "143328.960000", "143328.963000", "143328.967000", "143328.970000", "143328.974000", "143328.977000", "143328.980000", "143328.992000", "143328.996000", "143328.999000", "143348.927000", "143348.931000", "143348.934000", "143348.937000", "143348.941000", "143348.944000", "143348.948000", "143348.951000", "143348.954000", "143348.957000", "143348.961000", "143348.964000", "143348.967000", "143348.970000", "143348.974000", "143348.977000", "143348.980000", "143348.984000", "143348.987000", "143348.990000", "143428.927000", "143428.931000", "143428.934000", "143428.937000", "143428.941000", "143428.944000", "143428.947000", "143428.951000", "143428.954000", "143428.957000", "143428.961000", "143428.966000", "143428.971000", "143428.975000", "143428.979000", "143428.982000", "143428.986000", "143428.990000", "143428.993000", "143428.996000", "143429.001000", "143429.004000", "143429.008000", "143429.011000", "143429.014000", "143429.017000", "143429.021000", "143429.024000", "143429.027000", "143508.927000", "143508.931000", "143508.934000", "143508.938000", "143508.941000", "143508.944000", "143508.947000", "143508.951000", "143508.954000", "143508.957000", "143508.961000", "143508.964000", "143508.967000", "143508.970000", "143508.974000", "143508.977000", "143508.980000", "143508.983000", "143508.987000", "143508.990000", "143508.993000", "143508.997000", "143509.001000", "143509.005000", "143509.008000", "143509.011000", "143509.014000", "143548.927000", "143548.931000", "143548.934000", "143548.938000", "143548.941000", "143548.944000", "143548.948000", "143548.951000", "143548.954000", "143548.958000", "143548.961000", "143548.964000", "143548.967000", "143548.971000", "143548.974000", "143548.977000", "143548.981000", "143548.984000", "143548.987000", "143548.991000", "143548.994000", "143548.997000", "143549.014000", "143549.017000", "143549.020000", "143549.024000", "143549.027000", "143602.902000", "143602.905000", "143602.909000", "143602.912000", "143602.915000", "143602.919000", "143602.922000", "143602.925000", "143602.929000", "143602.932000"],
      "InstanceCreationTime": ["143228.962000", "143228.965000", "143228.969000", "143228.972000", "143228.975000", "143228.978000", "143228.982000", "143228.985000", "143228.988000", "143228.992000", "143228.995000", "143228.998000", "143229.003000", "143229.006000", "143229.009000", "143229.012000", "143248.927000", "143248.931000", "143248.934000", "143248.937000", "143248.940000", "143248.944000", "143248.947000", "143248.950000", "143248.954000", "143248.962000", "143248.965000", "143248.969000", "143248.972000", "143248.975000", "143248.978000", "143248.982000", "143248.985000", "143248.988000", "143248.992000", "143248.995000", "143308.926000", "143308.930000", "143308.933000", "143308.936000", "143308.940000", "143308.943000", "143308.946000", "143308.949000", "143308.953000", "143308.956000", "143308.959000", "143308.963000", "143308.966000", "143308.969000", "143308.972000", "143308.976000", "143308.979000", "143308.982000", "143308.986000", "143308.989000", "143308.992000", "143328.927000", "143328.931000", "143328.934000", "143328.937000", "143328.941000", "143328.944000", "143328.947000", "143328.950000", "143328.954000", "143328.957000", "143328.960000", "143328.963000", "143328.967000", "143328.970000", "143328.974000", "143328.977000", "143328.980000", "143328.992000", "143328.996000", "143328.999000", "143348.927000", "143348.931000", "143348.934000", "143348.937000", "143348.941000", "143348.944000", "143348.948000", "143348.951000", "143348.954000", "143348.957000", "143348.961000", "143348.964000", "143348.967000", "143348.970000", "143348.974000", "143348.977000", "143348.980000", "143348.984000", "143348.987000", "143348.990000", "143428.927000", "143428.931000", "143428.934000", "143428.937000", "143428.941000", "143428.944000", "143428.947000", "143428.951000", "143428.954000", "143428.957000", "143428.961000", "143428.966000", "143428.971000", "143428.975000", "143428.979000", "143428.982000", "143428.986000", "143428.990000", "143428.993000", "143428.996000", "143429.001000", "143429.004000", "143429.008000", "143429.011000", "143429.014000", "143429.017000", "143429.021000", "143429.024000", "143429.027000", "143508.927000", "143508.931000", "143508.934000", "143508.938000", "143508.941000", "143508.944000", "143508.947000", "143508.951000", "143508.954000", "143508.957000", "143508.961000", "143508.964000", "143508.967000", "143508.970000", "143508.974000", "143508.977000", "143508.980000", "143508.983000", "143508.987000", "143508.990000", "143508.993000", "143508.997000", "143509.001000", "143509.005000", "143509.008000", "143509.011000", "143509.014000", "143548.927000", "143548.931000", "143548.934000", "143548.938000", "143548.941000", "143548.944000", "143548.948000", "143548.951000", "143548.954000", "143548.958000", "143548.961000", "143548.964000", "143548.967000", "143548.971000", "143548.974000", "143548.977000", "143548.981000", "143548.984000", "143548.987000", "143548.991000", "143548.994000", "143548.997000", "143549.014000", "143549.017000", "143549.020000", "143549.024000", "143549.027000", "143602.902000", "143602.905000", "143602.909000", "143602.912000", "143602.915000", "143602.919000", "143602.922000", "143602.925000", "143602.929000", "143602.932000"],
      "InstanceNumber": [1, 2, 3, 4, 5, 6, 7, 8, 9, 10, 11, 12, 13, 14, 15, 16, 17, 18, 19, 20, 21, 22, 23, 24, 25, 26, 27, 28, 29, 30, 31, 32, 33, 34, 35, 36, 37, 38, 39, 40, 41, 42, 43, 44, 45, 46, 47, 48, 49, 50, 51, 52, 53, 54, 55, 56, 57, 58, 59, 60, 61, 62, 63, 64, 65, 66, 67, 68, 69, 70, 71, 72, 73, 74, 75, 76, 77, 78, 79, 80, 81, 82, 83, 84, 85, 86, 87, 88, 89, 90, 91, 92, 93, 94, 95, 96, 97, 98, 99, 100, 101, 102, 103, 104, 105, 106, 107, 108, 109, 110, 111, 112, 113, 114, 115, 116, 117, 118, 119, 120, 121, 122, 123, 124, 125, 126, 127, 128, 129, 130, 131, 132, 133, 134, 135, 136, 137, 138, 139, 140, 141, 142, 143, 144, 145, 146, 147, 148, 149, 150, 151, 152, 153, 154, 155, 156, 157, 158, 159, 160, 161, 162, 163, 164, 165, 166, 167, 168, 169, 170, 171, 172, 173, 174, 175, 176, 177, 178, 179, 180, 181, 182, 183, 184, 185, 186, 187, 188, 189, 190],
      "LargestImagePixelValue": [39612, 38813, 38215, 38462, 38223, 38397, 37925, 38093, 37884, 37944, 38101, 37451, 37474, 36930, 37188, 37465, 37260, 37532, 37223, 37484, 37728, 37452, 37688, 37240, 37669, 37515, 37989, 37818, 37542, 37492, 37283, 36941, 37782, 37323, 37155, 37426, 37708, 37781, 37992, 37445, 37543, 37703, 37926, 37602, 37687, 37528, 37237, 37292, 37382, 37667, 37703, 37652, 37340, 37546, 37303, 37486, 37034, 37455, 37217, 37206, 37591, 37115, 37017, 37355, 37437, 37840, 37689, 37678, 37218, 37660, 37009, 37168, 37447, 38243, 38171, 37446, 37363, 37390, 37133, 37033, 37739, 37963, 37879, 37495, 38073, 37527, 37600, 36730, 37736, 37293, 37724, 37859, 37924, 37927, 37329, 37127, 37380, 37255, 37808, 37960, 37903, 37524, 37421, 37369, 37580, 37786, 37683, 37640, 37755, 37684, 37558, 37856, 37663, 37449, 38198, 37714, 37966, 37963, 38001, 37199, 37257, 37431, 36978, 37372, 36825, 36854, 37447, 37407, 37401, 37452, 37875, 37560, 37694, 37884, 38002, 38043, 37553, 37020, 37328, 37630, 38161, 37612, 37984, 38086, 37893, 38284, 37678, 37560, 37661, 37725, 37224, 37449, 37391, 37252, 36993, 37885, 37411, 37448, 37590, 37389, 37847, 37845, 37588, 37494, 37290, 37923, 37615, 37468, 38068, 37677, 37563, 37467, 37871, 37428, 37435, 37562, 37676, 38020, 37958, 37373, 37493, 38094, 37891, 37809, 37970, 37791, 37294, 37852, 37397, 37790],
      "WindowCenter": [10183.0, 10117.0, 10078.0, 10100.0, 10110.0, 10116.0, 10108.0, 10107.0, 10103.0, 10115.0, 10125.0, 10130.0, 10136.0, 10131.0, 10140.0, 10164.0, 10166.0, 10151.0, 10133.0, 10137.0, 10147.0, 10155.0, 10161.0, 10141.0, 10136.0, 10120.0, 10130.0, 10143.0, 10157.0, 10158.0, 10151.0, 10143.0, 10156.0, 10166.0, 10160.0, 10141.0, 10120.0, 10111.0, 10123.0, 10135.0, 10137.0, 10131.0, 10133.0, 10125.0, 10128.0, 10144.0, 10142.0, 10133.0, 10121.0, 10126.0, 10127.0, 10143.0, 10147.0, 10148.0, 10147.0, 10147.0, 10149.0, 10155.0, 10142.0, 10133.0, 10138.0, 10146.0, 10149.0, 10147.0, 10140.0, 10145.0, 10143.0, 10143.0, 10149.0, 10170.0, 10158.0, 10126.0, 10105.0, 10103.0, 10106.0, 10129.0, 10156.0, 10167.0, 10153.0, 10141.0, 10130.0, 10119.0, 10118.0, 10120.0, 10142.0, 10148.0, 10156.0, 10143.0, 10130.0, 10113.0, 10101.0, 10093.0, 10114.0, 10133.0, 10147.0, 10150.0, 10147.0, 10125.0, 10112.0, 10109.0, 10123.0, 10143.0, 10154.0, 10140.0, 10124.0, 10127.0, 10127.0, 10128.0, 10128.0, 10127.0, 10114.0, 10118.0, 10133.0, 10131.0, 10129.0, 10113.0, 10109.0, 10117.0, 10133.0, 10140.0, 10148.0, 10148.0, 10151.0, 10164.0, 10163.0, 10162.0, 10151.0, 10146.0, 10148.0, 10155.0, 10156.0, 10143.0, 10128.0, 10124.0, 10132.0, 10150.0, 10149.0, 10149.0, 10139.0, 10131.0, 10120.0, 10103.0, 10107.0, 10115.0, 10124.0, 10140.0, 10137.0, 10137.0, 10138.0, 10128.0, 10123.0, 10136.0, 10146.0, 10140.0, 10133.0, 10136.0, 10131.0, 10141.0, 10135.0, 10114.0, 10103.0, 10119.0, 10139.0, 10150.0, 10140.0, 10128.0, 10128.0, 10137.0, 10136.0, 10129.0, 10130.0, 10146.0, 10161.0, 10157.0, 10141.0, 10132.0, 10129.0, 10134.0, 10144.0, 10150.0, 10149.0, 10147.0, 10147.0, 10130.0, 10128.0, 10137.0, 10147.0, 10139.0, 10115.0, 10101.0],
      "WindowWidth": [21673.0, 21500.0, 21398.0, 21440.0, 21461.0, 21471.0, 21454.0, 21452.0, 21446.0, 21470.0, 21494.0, 21509.0, 21519.0, 21510.0, 21531.0, 21584.0, 21589.0, 21554.0, 21512.0, 21517.0, 21543.0, 21559.0, 21571.0, 21530.0, 21515.0, 21481.0, 21501.0, 21533.0, 21571.0, 21573.0, 21558.0, 21540.0, 21567.0, 21590.0, 21577.0, 21531.0, 21479.0, 21458.0, 21484.0, 21513.0, 21520.0, 21508.0, 21506.0, 21490.0, 21501.0, 21536.0, 21537.0, 21513.0, 21484.0, 21493.0, 21496.0, 21533.0, 21545.0, 21550.0, 21546.0, 21546.0, 21549.0, 21560.0, 21533.0, 21515.0, 21525.0, 21542.0, 21551.0, 21545.0, 21531.0, 21538.0, 21532.0, 21531.0, 21553.0, 21596.0, 21569.0, 21498.0, 21445.0, 21435.0, 21448.0, 21505.0, 21567.0, 21594.0, 21562.0, 21530.0, 21500.0, 21475.0, 21474.0, 21484.0, 21529.0, 21548.0, 21565.0, 21534.0, 21500.0, 21462.0, 21435.0, 21420.0, 21464.0, 21509.0, 21547.0, 21555.0, 21542.0, 21493.0, 21458.0, 21452.0, 21484.0, 21534.0, 21558.0, 21529.0, 21492.0, 21493.0, 21494.0, 21498.0, 21498.0, 21494.0, 21467.0, 21474.0, 21510.0, 21507.0, 21498.0, 21463.0, 21452.0, 21472.0, 21509.0, 21531.0, 21547.0, 21549.0, 21556.0, 21586.0, 21588.0, 21583.0, 21555.0, 21539.0, 21546.0, 21561.0, 21562.0, 21534.0, 21496.0, 21483.0, 21504.0, 21546.0, 21548.0, 21549.0, 21523.0, 21506.0, 21478.0, 21441.0, 21448.0, 21466.0, 21489.0, 21523.0, 21522.0, 21522.0, 21524.0, 21501.0, 21490.0, 21519.0, 21540.0, 21529.0, 21512.0, 21515.0, 21508.0, 21530.0, 21518.0, 21468.0, 21439.0, 21477.0, 21525.0, 21551.0, 21525.0, 21495.0, 21495.0, 21518.0, 21516.0, 21500.0, 21504.0, 21539.0, 21574.0, 21567.0, 21531.0, 21510.0, 21500.0, 21511.0, 21535.0, 21552.0, 21548.0, 21542.0, 21539.0, 21502.0, 21493.0, 21516.0, 21539.0, 21521.0, 21465.0, 21432.0]
    },
    "slices": {}
  }
}