{
  "AcquisitionMatrixPE": 104,
  "AcquisitionNumber": 1,
  "AcquisitionTime": "14:06:43.952500",
  "BandwidthPerPixelPhaseEncode": 17.17,
  "BaseResolution": 104,
  "BodyPartExamined": "BRAIN",
  "CoilString": "HC1-7;NC1_2",
  "ConsistencyInfo": "N4_VE11C_LATEST_20160120",
  "ConversionSoftware": "dcm2niix",
  "ConversionSoftwareVersion": "v1.0.20190902",
  "DerivedVendorReportedEchoSpacing": 0.000560011,
  "DeviceSerialNumber": "167006",
  "DwellTime": 2.1e-06,
  "EchoTime": 0.037,
  "EchoTrainLength": 104,
  "EffectiveEchoSpacing": 0.000560011,
  "FlipAngle": 52,
  "ImageComments": "Unaliased_MB4_PE3_LB",
  "ImageOrientationPatientDICOM": [0.999021, 0.0137993, 0.0420409, -0.00226669, 0.964839, -0.262832],
  "ImageType": [
    "ORIGINAL",
    "PRIMARY",
    "P",
    "MB",
    "ND",
    "MOSAIC"
],
  "ImagingFrequency": 123.259,
  "InPlanePhaseEncodingDirectionDICOM": "COL",
  "InstitutionAddress": "Chemin_Queen-Mary_4565_Montreal_District_CA_H3W_1W5",
  "InstitutionName": "IUGM",
  "InstitutionalDepartmentName": "Department",
  "MRAcquisitionType": "2D",
  "MagneticFieldStrength": 3,
  "Manufacturer": "Siemens",
  "ManufacturersModelName": "Prisma_fit",
  "Modality": "MR",
  "MultibandAccelerationFactor": 4,
  "PartialFourier": 1,
  "PatientPosition": "HFS",
  "PercentPhaseFOV": 100,
  "PhaseEncodingDirection": "j",
  "PhaseEncodingSteps": 104,
  "PhaseResolution": 1,
  "PixelBandwidth": 2290,
  "ProcedureStepDescription": "memory_things",
  "ProtocolName": "func_task-things_run-2",
  "PulseSequenceDetails": "%CustomerSeq%_cmrr_mbep2d_bold",
  "ReceiveCoilActiveElements": "HC1-7;NC1,2",
  "ReceiveCoilName": "HeadNeck_64",
  "ReconMatrixPE": 104,
  "RepetitionTime": 1.49,
  "SAR": 0.0382207,
  "ScanOptions": "FS",
  "ScanningSequence": "EP",
  "SequenceName": "epfid2d1_104",
  "SequenceVariant": "SK_SS",
  "SeriesDescription": "func_task-things_run-2",
  "SeriesNumber": 17,
  "ShimSetting": [640, -7199, -8809, 708, 64, 36, 37, 6],
  "SliceThickness": 2,
  "SliceTiming": [0, 0.785, 0.1, 0.8825, 0.1975, 0.98, 0.295, 1.08, 0.3925, 1.1775, 0.49, 1.275, 0.59, 1.3725, 0.6875, 0, 0.785, 0.1, 0.8825, 0.1975, 0.98, 0.295, 1.08, 0.3925, 1.1775, 0.49, 1.275, 0.59, 1.3725, 0.6875, 0, 0.785, 0.1, 0.8825, 0.1975, 0.98, 0.295, 1.08, 0.3925, 1.1775, 0.49, 1.275, 0.59, 1.3725, 0.6875, 0, 0.785, 0.1, 0.8825, 0.1975, 0.98, 0.295, 1.08, 0.3925, 1.1775, 0.49, 1.275, 0.59, 1.3725, 0.6875],
  "SoftwareVersions": "syngo_MR_E11",
  "SpacingBetweenSlices": 2,
  "StationName": "MRC35049",
  "TaskName": "things",
  "TotalReadoutTime": 0.0576811,
  "TxRefAmp": 215.881,
  "WipMemBlock": "59e89b18-1071-491e-a8cd-2cc1db547fe2||Sequence: R016 ve11c/master r/e634e98; Dec 19 2017 11:00:25 by eja",
  "dcmmeta_affine": [
    [-1.9980411529541016, -0.004533377941697836, 0.0883791372179985, 106.60104370117188],
    [-0.027598680928349495, 1.9296780824661255, -0.524958074092865, -72.72903442382812],
    [0.0840817242860794, 0.5256634950637817, 1.9278507232666016, -70.37113189697266],
    [0.0, 0.0, 0.0, 1.0]
],
  "dcmmeta_reorient_transform": [
    [0.0, -1.0, 0.0, 103.0],
    [1.0, 0.0, 0.0, 0.0],
    [0.0, 0.0, 1.0, 0.0],
    [0.0, 0.0, 0.0, 1.0]
],
  "dcmmeta_shape": [104, 104, 60, 190],
  "dcmmeta_slice_dim": 2,
  "dcmmeta_version": 0.6,
  "global": {
    "const": {
      "AcquisitionMatrix": [104, 0, 0, 104],
      "AngioFlag": "N",
      "BitsAllocated": 16,
      "BitsStored": 16,
      "BodyPartExamined": "BRAIN",
      "Columns": 832,
      "EchoNumbers": 1,
      "EchoTime": 37.0,
      "EchoTrainLength": 104,
      "FlipAngle": 52.0,
      "HighBit": 15,
      "ImageOrientationPatient": [0.99902059244855, 0.01379934072632, 0.04204086178065, -0.0022666890563, 0.96483901903714, -0.2628317512482],
      "ImagePositionPatient": [-831.77095115168, -838.47652976717, 144.5079756339],
      "ImageType": [
        "ORIGINAL",
        "PRIMARY",
        "P",
        "MB",
        "ND",
        "MOSAIC"
],
      "ImagedNucleus": "1H",
      "ImagingFrequency": 123.258968,
      "InPlanePhaseEncodingDirection": "COL",
      "LargestImagePixelValue": 4095,
      "MRAcquisitionType": "2D",
      "MagneticFieldStrength": 3.0,
      "Manufacturer": "SIEMENS",
      "ManufacturerModelName": "Prisma_fit",
      "Modality": "MR",
      "NumberOfAverages": 1.0,
      "NumberOfPhaseEncodingSteps": 104,
      "PercentPhaseFieldOfView": 100.0,
      "PercentSampling": 100.0,
      "PerformedProcedureStepStartTime": "130354.233000",
      "PhotometricInterpretation": "MONOCHROME2",
      "PixelBandwidth": 2290.0,
      "PixelRepresentation": 0,
      "PixelSpacing": [2.0, 2.0],
      "ProtocolName": "func_task-things_run-2",
      "RepetitionTime": 1490.0,
      "RescaleIntercept": -4096.0,
      "RescaleSlope": 2.0,
      "RescaleType": "US",
      "Rows": 832,
      "SAR": 0.03822069864303,
      "SamplesPerPixel": 1,
      "ScanOptions": "FS",
      "ScanningSequence": "EP",
      "SequenceName": "epfid2d1_104",
      "SequenceVariant": [
        "SK",
        "SS"
],
      "SeriesDescription": "func_task-things_run-2",
      "SeriesNumber": 17,
      "SeriesTime": "140803.888000",
      "SliceLocation": -44.032015844653,
      "SliceThickness": 2.0,
      "SmallestImagePixelValue": 0,
      "SoftwareVersions": "syngo MR E11",
      "SpacingBetweenSlices": 2.0000000329685,
      "SpecificCharacterSet": "ISO_IR 100",
      "StudyID": "1",
      "StudyTime": "130354.050000",
      "TransmitCoilName": "Body",
      "VariableFlipAngleFlag": "N",
      "WindowCenterWidthExplanation": "Algo1",
      "dBdt": 0.0},
    "slices": {}
  },
  "time": {
    "samples": {
      "AcquisitionNumber": [1, 2, 3, 4, 5, 6, 7, 8, 9, 10, 11, 12, 13, 14, 15, 16, 17, 18, 19, 20, 21, 22, 23, 24, 25, 26, 27, 28, 29, 30, 31, 32, 33, 34, 35, 36, 37, 38, 39, 40, 41, 42, 43, 44, 45, 46, 47, 48, 49, 50, 51, 52, 53, 54, 55, 56, 57, 58, 59, 60, 61, 62, 63, 64, 65, 66, 67, 68, 69, 70, 71, 72, 73, 74, 75, 76, 77, 78, 79, 80, 81, 82, 83, 84, 85, 86, 87, 88, 89, 90, 91, 92, 93, 94, 95, 96, 97, 98, 99, 100, 101, 102, 103, 104, 105, 106, 107, 108, 109, 110, 111, 112, 113, 114, 115, 116, 117, 118, 119, 120, 121, 122, 123, 124, 125, 126, 127, 128, 129, 130, 131, 132, 133, 134, 135, 136, 137, 138, 139, 140, 141, 142, 143, 144, 145, 146, 147, 148, 149, 150, 151, 152, 153, 154, 155, 156, 157, 158, 159, 160, 161, 162, 163, 164, 165, 166, 167, 168, 169, 170, 171, 172, 173, 174, 175, 176, 177, 178, 179, 180, 181, 182, 183, 184, 185, 186, 187, 188, 189, 190],
      "AcquisitionTime": ["140643.952500", "140645.442500", "140646.932500", "140648.422500", "140649.912500", "140651.402500", "140652.892500", "140654.382500", "140655.872500", "140657.362500", "140658.852500", "140700.342500", "140701.832500", "140703.322500", "140704.812500", "140706.302500", "140707.792500", "140709.282500", "140710.772500", "140712.262500", "140713.752500", "140715.242500", "140716.732500", "140718.222500", "140719.712500", "140721.202500", "140722.692500", "140724.182500", "140725.672500", "140727.162500", "140728.652500", "140730.142500", "140731.632500", "140733.122500", "140734.612500", "140736.102500", "140737.592500", "140739.082500", "140740.572500", "140742.062500", "140743.552500", "140745.042500", "140746.532500", "140748.022500", "140749.512500", "140751.002500", "140752.492500", "140753.982500", "140755.472500", "140756.962500", "140758.452500", "140759.942500", "140801.432500", "140802.922500", "140804.412500", "140805.902500", "140807.392500", "140808.882500", "140810.372500", "140811.862500", "140813.352500", "140814.842500", "140816.332500", "140817.822500", "140819.312500", "140820.802500", "140822.292500", "140823.782500", "140825.272500", "140826.762500", "140828.252500", "140829.742500", "140831.232500", "140832.722500", "140834.212500", "140835.702500", "140837.192500", "140838.682500", "140840.172500", "140841.662500", "140843.152500", "140844.642500", "140846.132500", "140847.622500", "140849.112500", "140850.602500", "140852.092500", "140853.582500", "140855.072500", "140856.562500", "140858.052500", "140859.542500", "140901.032500", "140902.522500", "140904.012500", "140905.502500", "140906.992500", "140908.482500", "140909.972500", "140911.462500", "140912.952500", "140914.442500", "140915.932500", "140917.422500", "140918.912500", "140920.402500", "140921.892500", "140923.382500", "140924.872500", "140926.362500", "140927.852500", "140929.342500", "140930.832500", "140932.322500", "140933.812500", "140935.302500", "140936.792500", "140938.282500", "140939.772500", "140941.262500", "140942.752500", "140944.242500", "140945.732500", "140947.222500", "140948.712500", "140950.202500", "140951.692500", "140953.182500", "140954.672500", "140956.162500", "140957.652500", "140959.142500", "141000.632500", "141002.122500", "141003.612500", "141005.102500", "141006.592500", "141008.082500", "141009.572500", "141011.062500", "141012.552500", "141014.042500", "141015.532500", "141017.022500", "141018.512500", "141020.002500", "141021.492500", "141022.982500", "141024.472500", "141025.962500", "141027.452500", "141028.942500", "141030.432500", "141031.922500", "141033.412500", "141034.902500", "141036.392500", "141037.882500", "141039.372500", "141040.862500", "141042.352500", "141043.842500", "141045.332500", "141046.822500", "141048.312500", "141049.802500", "141051.292500", "141052.782500", "141054.272500", "141055.762500", "141057.252500", "141058.742500", "141100.232500", "141101.722500", "141103.212500", "141104.702500", "141106.192500", "141107.682500", "141109.172500", "141110.662500", "141112.152500", "141113.642500", "141115.132500", "141116.622500", "141118.112500", "141119.602500", "141121.092500", "141122.582500", "141124.072500", "141125.562500"],
      "ContentTime": ["140803.890000", "140803.893000", "140803.895000", "140803.898000", "140803.901000", "140803.903000", "140803.905000", "140803.908000", "140803.910000", "140803.913000", "140803.915000", "140803.918000", "140803.920000", "140803.923000", "140803.925000", "140803.928000", "140803.930000", "140803.933000", "140803.935000", "140803.938000", "140803.940000", "140803.943000", "140803.945000", "140803.948000", "140803.951000", "140803.953000", "140823.825000", "140823.828000", "140823.830000", "140823.833000", "140823.842000", "140823.844000", "140823.846000", "140823.849000", "140823.852000", "140823.854000", "140823.856000", "140823.859000", "140823.861000", "140823.864000", "140823.866000", "140823.869000", "140823.871000", "140823.874000", "140823.876000", "140823.879000", "140843.813000", "140843.816000", "140843.818000", "140843.821000", "140843.824000", "140843.826000", "140843.828000", "140843.831000", "140843.833000", "140843.836000", "140843.838000", "140843.841000", "140843.843000", "140843.846000", "140843.848000", "140843.851000", "140843.853000", "140843.856000", "140843.858000", "140843.861000", "140843.863000", "140904.220000", "140904.223000", "140904.225000", "140904.228000", "140904.230000", "140904.233000", "140904.235000", "140904.238000", "140904.240000", "140904.243000", "140904.245000", "140904.248000", "140904.250000", "140904.252000", "140904.255000", "140904.257000", "140904.260000", "140904.262000", "140904.265000", "140904.267000", "140923.788000", "140923.791000", "140923.794000", "140923.796000", "140923.799000", "140923.801000", "140923.804000", "140923.806000", "140923.815000", "140923.817000", "140923.820000", "140923.822000", "140923.825000", "140923.827000", "140923.830000", "140923.832000", "140923.835000", "140923.837000", "140923.840000", "140923.842000", "141003.830000", "141003.833000", "141003.835000", "141003.838000", "141003.840000", "141003.843000", "141003.845000", "141003.848000", "141003.850000", "141003.853000", "141003.855000", "141003.858000", "141003.862000", "141003.865000", "141003.867000", "141003.869000", "141003.872000", "141003.874000", "141003.877000", "141003.879000", "141003.882000", "141003.885000", "141003.887000", "141003.889000", "141003.892000", "141003.894000", "141043.826000", "141043.829000", "141043.831000", "141043.841000", "141043.844000", "141043.846000", "141043.849000", "141043.852000", "141043.854000", "141043.857000", "141043.859000", "141043.862000", "141043.864000", "141043.867000", "141043.869000", "141043.872000", "141043.874000", "141043.876000", "141043.879000", "141043.882000", "141043.884000", "141043.886000", "141043.889000", "141043.892000", "141043.894000", "141043.896000", "141043.899000", "141103.768000", "141103.771000", "141103.779000", "141103.782000", "141103.784000", "141103.787000", "141103.789000", "141103.792000", "141103.794000", "141103.797000", "141103.799000", "141103.802000", "141103.804000", "141103.807000", "141127.352000", "141127.354000", "141127.357000", "141127.359000", "141127.371000", "141127.374000", "141127.376000", "141127.379000", "141127.381000", "141127.384000", "141127.386000", "141127.389000", "141127.391000", "141127.394000", "141127.396000", "141127.399000"],
      "InstanceCreationTime": ["140803.890000", "140803.893000", "140803.895000", "140803.898000", "140803.901000", "140803.903000", "140803.905000", "140803.908000", "140803.910000", "140803.913000", "140803.915000", "140803.918000", "140803.920000", "140803.923000", "140803.925000", "140803.928000", "140803.930000", "140803.933000", "140803.935000", "140803.938000", "140803.940000", "140803.943000", "140803.945000", "140803.948000", "140803.951000", "140803.953000", "140823.825000", "140823.828000", "140823.830000", "140823.833000", "140823.842000", "140823.844000", "140823.846000", "140823.849000", "140823.852000", "140823.854000", "140823.856000", "140823.859000", "140823.861000", "140823.864000", "140823.866000", "140823.869000", "140823.871000", "140823.874000", "140823.876000", "140823.879000", "140843.813000", "140843.816000", "140843.818000", "140843.821000", "140843.824000", "140843.826000", "140843.828000", "140843.831000", "140843.833000", "140843.836000", "140843.838000", "140843.841000", "140843.843000", "140843.846000", "140843.848000", "140843.851000", "140843.853000", "140843.856000", "140843.858000", "140843.861000", "140843.863000", "140904.220000", "140904.223000", "140904.225000", "140904.228000", "140904.230000", "140904.233000", "140904.235000", "140904.238000", "140904.240000", "140904.243000", "140904.245000", "140904.248000", "140904.250000", "140904.252000", "140904.255000", "140904.257000", "140904.260000", "140904.262000", "140904.265000", "140904.267000", "140923.788000", "140923.791000", "140923.794000", "140923.796000", "140923.799000", "140923.801000", "140923.804000", "140923.806000", "140923.815000", "140923.817000", "140923.820000", "140923.822000", "140923.825000", "140923.827000", "140923.830000", "140923.832000", "140923.835000", "140923.837000", "140923.840000", "140923.842000", "141003.830000", "141003.833000", "141003.835000", "141003.838000", "141003.840000", "141003.843000", "141003.845000", "141003.848000", "141003.850000", "141003.853000", "141003.855000", "141003.858000", "141003.862000", "141003.865000", "141003.867000", "141003.869000", "141003.872000", "141003.874000", "141003.877000", "141003.879000", "141003.882000", "141003.885000", "141003.887000", "141003.889000", "141003.892000", "141003.894000", "141043.826000", "141043.829000", "141043.831000", "141043.841000", "141043.844000", "141043.846000", "141043.849000", "141043.852000", "141043.854000", "141043.857000", "141043.859000", "141043.862000", "141043.864000", "141043.867000", "141043.869000", "141043.872000", "141043.874000", "141043.876000", "141043.879000", "141043.882000", "141043.884000", "141043.886000", "141043.889000", "141043.892000", "141043.894000", "141043.896000", "141043.899000", "141103.768000", "141103.771000", "141103.779000", "141103.782000", "141103.784000", "141103.787000", "141103.789000", "141103.792000", "141103.794000", "141103.797000", "141103.799000", "141103.802000", "141103.804000", "141103.807000", "141127.352000", "141127.354000", "141127.357000", "141127.359000", "141127.371000", "141127.374000", "141127.376000", "141127.379000", "141127.381000", "141127.384000", "141127.386000", "141127.389000", "141127.391000", "141127.394000", "141127.396000", "141127.399000"],
      "InstanceNumber": [1, 2, 3, 4, 5, 6, 7, 8, 9, 10, 11, 12, 13, 14, 15, 16, 17, 18, 19, 20, 21, 22, 23, 24, 25, 26, 27, 28, 29, 30, 31, 32, 33, 34, 35, 36, 37, 38, 39, 40, 41, 42, 43, 44, 45, 46, 47, 48, 49, 50, 51, 52, 53, 54, 55, 56, 57, 58, 59, 60, 61, 62, 63, 64, 65, 66, 67, 68, 69, 70, 71, 72, 73, 74, 75, 76, 77, 78, 79, 80, 81, 82, 83, 84, 85, 86, 87, 88, 89, 90, 91, 92, 93, 94, 95, 96, 97, 98, 99, 100, 101, 102, 103, 104, 105, 106, 107, 108, 109, 110, 111, 112, 113, 114, 115, 116, 117, 118, 119, 120, 121, 122, 123, 124, 125, 126, 127, 128, 129, 130, 131, 132, 133, 134, 135, 136, 137, 138, 139, 140, 141, 142, 143, 144, 145, 146, 147, 148, 149, 150, 151, 152, 153, 154, 155, 156, 157, 158, 159, 160, 161, 162, 163, 164, 165, 166, 167, 168, 169, 170, 171, 172, 173, 174, 175, 176, 177, 178, 179, 180, 181, 182, 183, 184, 185, 186, 187, 188, 189, 190],
      "WindowCenter": [4886.0, 4888.0, 4882.0, 4880.0, 4884.0, 4886.0, 4886.0, 4884.0, 4888.0, 4886.0, 4886.0, 4886.0, 4884.0, 4884.0, 4884.0, 4884.0, 4884.0, 4884.0, 4884.0, 4884.0, 4890.0, 4886.0, 4886.0, 4886.0, 4884.0, 4886.0, 4886.0, 4880.0, 4886.0, 4884.0, 4888.0, 4886.0, 4884.0, 4886.0, 4888.0, 4886.0, 4888.0, 4884.0, 4884.0, 4888.0, 4884.0, 4886.0, 4888.0, 4884.0, 4884.0, 4884.0, 4886.0, 4910.0, 4884.0, 4886.0, 4884.0, 4886.0, 4884.0, 4884.0, 4886.0, 4886.0, 4884.0, 4886.0, 4886.0, 4886.0, 4886.0, 4884.0, 4886.0, 4886.0, 4886.0, 4886.0, 4886.0, 4884.0, 4908.0, 4882.0, 4906.0, 4884.0, 4884.0, 4886.0, 4886.0, 4882.0, 4888.0, 4884.0, 4890.0, 4886.0, 4886.0, 4910.0, 4884.0, 4908.0, 4882.0, 4888.0, 4886.0, 4886.0, 4884.0, 4884.0, 4884.0, 4908.0, 4908.0, 4886.0, 4884.0, 4884.0, 4886.0, 4886.0, 4884.0, 4890.0, 4886.0, 4886.0, 4886.0, 4884.0, 4886.0, 4886.0, 4882.0, 4884.0, 4886.0, 4906.0, 4882.0, 4884.0, 4910.0, 4884.0, 4884.0, 4884.0, 4910.0, 4886.0, 4906.0, 4882.0, 4906.0, 4886.0, 4884.0, 4884.0, 4882.0, 4884.0, 4884.0, 4910.0, 4884.0, 4908.0, 4884.0, 4910.0, 4886.0, 4886.0, 4884.0, 4908.0, 4884.0, 4884.0, 4884.0, 4884.0, 4908.0, 4884.0, 4884.0, 4908.0, 4884.0, 4908.0, 4886.0, 4888.0, 4884.0, 4884.0, 4884.0, 4908.0, 4886.0, 4884.0, 4888.0, 4886.0, 4884.0, 4910.0, 4908.0, 4908.0, 4908.0, 4884.0, 4882.0, 4884.0, 4882.0, 4906.0, 4884.0, 4906.0, 4884.0, 4908.0, 4886.0, 4886.0, 4908.0, 4908.0, 4908.0, 4886.0, 4906.0, 4886.0, 4906.0, 4910.0, 4906.0, 4884.0, 4884.0, 4886.0, 4910.0, 4908.0, 4886.0, 4886.0, 4884.0, 4886.0],
      "WindowWidth": [18642.0, 18654.0, 18644.0, 18648.0, 18644.0, 18646.0, 18646.0, 18642.0, 18646.0, 18640.0, 18648.0, 18652.0, 18648.0, 18654.0, 18646.0, 18650.0, 18650.0, 18646.0, 18646.0, 18650.0, 18648.0, 18652.0, 18652.0, 18650.0, 18650.0, 18650.0, 18646.0, 18644.0, 18652.0, 18654.0, 18652.0, 18648.0, 18646.0, 18650.0, 18652.0, 18652.0, 18646.0, 18652.0, 18650.0, 18654.0, 18652.0, 18646.0, 18650.0, 18656.0, 18652.0, 18652.0, 18650.0, 18680.0, 18644.0, 18650.0, 18650.0, 18654.0, 18650.0, 18644.0, 18652.0, 18648.0, 18646.0, 18650.0, 18650.0, 18648.0, 18652.0, 18648.0, 18652.0, 18652.0, 18654.0, 18648.0, 18650.0, 18652.0, 18682.0, 18650.0, 18684.0, 18650.0, 18652.0, 18658.0, 18654.0, 18652.0, 18648.0, 18648.0, 18652.0, 18650.0, 18650.0, 18684.0, 18652.0, 18686.0, 18648.0, 18660.0, 18650.0, 18652.0, 18652.0, 18656.0, 18648.0, 18684.0, 18684.0, 18654.0, 18654.0, 18646.0, 18656.0, 18652.0, 18652.0, 18652.0, 18650.0, 18650.0, 18652.0, 18652.0, 18650.0, 18652.0, 18650.0, 18654.0, 18646.0, 18680.0, 18652.0, 18650.0, 18682.0, 18646.0, 18652.0, 18656.0, 18682.0, 18652.0, 18686.0, 18654.0, 18688.0, 18646.0, 18648.0, 18656.0, 18652.0, 18646.0, 18646.0, 18688.0, 18648.0, 18684.0, 18646.0, 18684.0, 18648.0, 18652.0, 18652.0, 18684.0, 18652.0, 18654.0, 18652.0, 18648.0, 18682.0, 18644.0, 18650.0, 18688.0, 18650.0, 18684.0, 18654.0, 18652.0, 18654.0, 18650.0, 18650.0, 18692.0, 18652.0, 18656.0, 18654.0, 18654.0, 18652.0, 18686.0, 18680.0, 18688.0, 18686.0, 18654.0, 18650.0, 18654.0, 18654.0, 18682.0, 18654.0, 18688.0, 18650.0, 18686.0, 18656.0, 18652.0, 18686.0, 18686.0, 18688.0, 18652.0, 18684.0, 18650.0, 18684.0, 18686.0, 18686.0, 18650.0, 18652.0, 18652.0, 18678.0, 18678.0, 18650.0, 18648.0, 18652.0, 18654.0]
    },
    "slices": {}
  }
}