{
  "AcquisitionMatrixPE": 104,
  "AcquisitionNumber": 1,
  "AcquisitionTime": "14:12:55.315000",
  "BandwidthPerPixelPhaseEncode": 17.17,
  "BaseResolution": 104,
  "BodyPartExamined": "BRAIN",
  "CoilString": "HC1-7;NC1_2",
  "ConsistencyInfo": "N4_VE11C_LATEST_20160120",
  "ConversionSoftware": "dcm2niix",
  "ConversionSoftwareVersion": "v1.0.20190902",
  "DerivedVendorReportedEchoSpacing": 0.000560011,
  "DeviceSerialNumber": "167006",
  "DwellTime": 2.1e-06,
  "EchoTime": 0.037,
  "EchoTrainLength": 104,
  "EffectiveEchoSpacing": 0.000560011,
  "FlipAngle": 52,
  "ImageComments": "Unaliased_MB4_PE3_LB",
  "ImageOrientationPatientDICOM": [0.999021, 0.0137993, 0.0420409, -0.00226669, 0.964839, -0.262832],
  "ImageType": [
    "ORIGINAL",
    "PRIMARY",
    "P",
    "MB",
    "ND",
    "MOSAIC"
],
  "ImagingFrequency": 123.259,
  "InPlanePhaseEncodingDirectionDICOM": "COL",
  "InstitutionAddress": "Chemin_Queen-Mary_4565_Montreal_District_CA_H3W_1W5",
  "InstitutionName": "IUGM",
  "InstitutionalDepartmentName": "Department",
  "MRAcquisitionType": "2D",
  "MagneticFieldStrength": 3,
  "Manufacturer": "Siemens",
  "ManufacturersModelName": "Prisma_fit",
  "Modality": "MR",
  "MultibandAccelerationFactor": 4,
  "PartialFourier": 1,
  "PatientPosition": "HFS",
  "PercentPhaseFOV": 100,
  "PhaseEncodingDirection": "j",
  "PhaseEncodingSteps": 104,
  "PhaseResolution": 1,
  "PixelBandwidth": 2290,
  "ProcedureStepDescription": "memory_things",
  "ProtocolName": "func_task-things_run-3",
  "PulseSequenceDetails": "%CustomerSeq%_cmrr_mbep2d_bold",
  "ReceiveCoilActiveElements": "HC1-7;NC1,2",
  "ReceiveCoilName": "HeadNeck_64",
  "ReconMatrixPE": 104,
  "RepetitionTime": 1.49,
  "SAR": 0.0382207,
  "ScanOptions": "FS",
  "ScanningSequence": "EP",
  "SequenceName": "epfid2d1_104",
  "SequenceVariant": "SK_SS",
  "SeriesDescription": "func_task-things_run-3",
  "SeriesNumber": 20,
  "ShimSetting": [640, -7199, -8809, 708, 64, 36, 37, 6],
  "SliceThickness": 2,
  "SliceTiming": [0, 0.785, 0.1, 0.8825, 0.1975, 0.98, 0.295, 1.08, 0.3925, 1.1775, 0.49, 1.275, 0.59, 1.3725, 0.6875, 0, 0.785, 0.1, 0.8825, 0.1975, 0.98, 0.295, 1.08, 0.3925, 1.1775, 0.49, 1.275, 0.59, 1.3725, 0.6875, 0, 0.785, 0.1, 0.8825, 0.1975, 0.98, 0.295, 1.08, 0.3925, 1.1775, 0.49, 1.275, 0.59, 1.3725, 0.6875, 0, 0.785, 0.1, 0.8825, 0.1975, 0.98, 0.295, 1.08, 0.3925, 1.1775, 0.49, 1.275, 0.59, 1.3725, 0.6875],
  "SoftwareVersions": "syngo_MR_E11",
  "SpacingBetweenSlices": 2,
  "StationName": "MRC35049",
  "TaskName": "things",
  "TotalReadoutTime": 0.0576811,
  "TxRefAmp": 215.881,
  "WipMemBlock": "b1b30ee1-d4ff-4b8f-901b-77f7a64d47e9||Sequence: R016 ve11c/master r/e634e98; Dec 19 2017 11:00:25 by eja",
  "dcmmeta_affine": [
    [-1.9980411529541016, -0.004533377941697836, 0.0883791372179985, 106.60104370117188],
    [-0.027598680928349495, 1.9296780824661255, -0.524958074092865, -72.72903442382812],
    [0.0840817242860794, 0.5256634950637817, 1.9278507232666016, -70.37113189697266],
    [0.0, 0.0, 0.0, 1.0]
],
  "dcmmeta_reorient_transform": [
    [0.0, -1.0, 0.0, 103.0],
    [1.0, 0.0, 0.0, 0.0],
    [0.0, 0.0, 1.0, 0.0],
    [0.0, 0.0, 0.0, 1.0]
],
  "dcmmeta_shape": [104, 104, 60, 190],
  "dcmmeta_slice_dim": 2,
  "dcmmeta_version": 0.6,
  "global": {
    "const": {
      "AcquisitionMatrix": [104, 0, 0, 104],
      "AngioFlag": "N",
      "BitsAllocated": 16,
      "BitsStored": 16,
      "BodyPartExamined": "BRAIN",
      "Columns": 832,
      "EchoNumbers": 1,
      "EchoTime": 37.0,
      "EchoTrainLength": 104,
      "FlipAngle": 52.0,
      "HighBit": 15,
      "ImageOrientationPatient": [0.99902059244855, 0.01379934072632, 0.04204086178065, -0.0022666890563, 0.96483901903714, -0.2628317512482],
      "ImagePositionPatient": [-831.77095115168, -838.47652976717, 144.5079756339],
      "ImageType": [
        "ORIGINAL",
        "PRIMARY",
        "P",
        "MB",
        "ND",
        "MOSAIC"
],
      "ImagedNucleus": "1H",
      "ImagingFrequency": 123.258975,
      "InPlanePhaseEncodingDirection": "COL",
      "LargestImagePixelValue": 4095,
      "MRAcquisitionType": "2D",
      "MagneticFieldStrength": 3.0,
      "Manufacturer": "SIEMENS",
      "ManufacturerModelName": "Prisma_fit",
      "Modality": "MR",
      "NumberOfAverages": 1.0,
      "NumberOfPhaseEncodingSteps": 104,
      "PercentPhaseFieldOfView": 100.0,
      "PercentSampling": 100.0,
      "PerformedProcedureStepStartTime": "130354.233000",
      "PhotometricInterpretation": "MONOCHROME2",
      "PixelBandwidth": 2290.0,
      "PixelRepresentation": 0,
      "PixelSpacing": [2.0, 2.0],
      "ProtocolName": "func_task-things_run-3",
      "RepetitionTime": 1490.0,
      "RescaleIntercept": -4096.0,
      "RescaleSlope": 2.0,
      "RescaleType": "US",
      "Rows": 832,
      "SAR": 0.03822069864303,
      "SamplesPerPixel": 1,
      "ScanOptions": "FS",
      "ScanningSequence": "EP",
      "SequenceName": "epfid2d1_104",
      "SequenceVariant": [
        "SK",
        "SS"
],
      "SeriesDescription": "func_task-things_run-3",
      "SeriesNumber": 20,
      "SeriesTime": "141409.087000",
      "SliceLocation": -44.032015844653,
      "SliceThickness": 2.0,
      "SmallestImagePixelValue": 0,
      "SoftwareVersions": "syngo MR E11",
      "SpacingBetweenSlices": 2.0000000329685,
      "SpecificCharacterSet": "ISO_IR 100",
      "StudyID": "1",
      "StudyTime": "130354.050000",
      "TransmitCoilName": "Body",
      "VariableFlipAngleFlag": "N",
      "WindowCenterWidthExplanation": "Algo1",
      "dBdt": 0.0},
    "slices": {}
  },
  "time": {
    "samples": {
      "AcquisitionNumber": [1, 2, 3, 4, 5, 6, 7, 8, 9, 10, 11, 12, 13, 14, 15, 16, 17, 18, 19, 20, 21, 22, 23, 24, 25, 26, 27, 28, 29, 30, 31, 32, 33, 34, 35, 36, 37, 38, 39, 40, 41, 42, 43, 44, 45, 46, 47, 48, 49, 50, 51, 52, 53, 54, 55, 56, 57, 58, 59, 60, 61, 62, 63, 64, 65, 66, 67, 68, 69, 70, 71, 72, 73, 74, 75, 76, 77, 78, 79, 80, 81, 82, 83, 84, 85, 86, 87, 88, 89, 90, 91, 92, 93, 94, 95, 96, 97, 98, 99, 100, 101, 102, 103, 104, 105, 106, 107, 108, 109, 110, 111, 112, 113, 114, 115, 116, 117, 118, 119, 120, 121, 122, 123, 124, 125, 126, 127, 128, 129, 130, 131, 132, 133, 134, 135, 136, 137, 138, 139, 140, 141, 142, 143, 144, 145, 146, 147, 148, 149, 150, 151, 152, 153, 154, 155, 156, 157, 158, 159, 160, 161, 162, 163, 164, 165, 166, 167, 168, 169, 170, 171, 172, 173, 174, 175, 176, 177, 178, 179, 180, 181, 182, 183, 184, 185, 186, 187, 188, 189, 190],
      "AcquisitionTime": ["141255.315000", "141256.805000", "141258.295000", "141259.785000", "141301.275000", "141302.765000", "141304.255000", "141305.745000", "141307.235000", "141308.725000", "141310.215000", "141311.705000", "141313.195000", "141314.685000", "141316.175000", "141317.665000", "141319.155000", "141320.645000", "141322.135000", "141323.625000", "141325.115000", "141326.605000", "141328.095000", "141329.585000", "141331.075000", "141332.565000", "141334.055000", "141335.545000", "141337.035000", "141338.525000", "141340.015000", "141341.505000", "141342.995000", "141344.485000", "141345.975000", "141347.465000", "141348.955000", "141350.445000", "141351.935000", "141353.425000", "141354.915000", "141356.405000", "141357.895000", "141359.385000", "141400.875000", "141402.365000", "141403.855000", "141405.345000", "141406.835000", "141408.325000", "141409.815000", "141411.305000", "141412.795000", "141414.285000", "141415.775000", "141417.265000", "141418.755000", "141420.245000", "141421.735000", "141423.225000", "141424.715000", "141426.205000", "141427.695000", "141429.185000", "141430.675000", "141432.165000", "141433.655000", "141435.145000", "141436.635000", "141438.125000", "141439.615000", "141441.105000", "141442.595000", "141444.085000", "141445.575000", "141447.065000", "141448.555000", "141450.045000", "141451.535000", "141453.025000", "141454.515000", "141456.005000", "141457.495000", "141458.985000", "141500.475000", "141501.965000", "141503.455000", "141504.945000", "141506.435000", "141507.925000", "141509.415000", "141510.905000", "141512.395000", "141513.885000", "141515.375000", "141516.865000", "141518.355000", "141519.845000", "141521.335000", "141522.825000", "141524.315000", "141525.805000", "141527.295000", "141528.785000", "141530.275000", "141531.765000", "141533.255000", "141534.745000", "141536.235000", "141537.725000", "141539.215000", "141540.705000", "141542.195000", "141543.685000", "141545.175000", "141546.665000", "141548.155000", "141549.645000", "141551.135000", "141552.625000", "141554.115000", "141555.605000", "141557.095000", "141558.585000", "141600.075000", "141601.565000", "141603.055000", "141604.545000", "141606.035000", "141607.525000", "141609.015000", "141610.505000", "141611.995000", "141613.485000", "141614.975000", "141616.465000", "141617.955000", "141619.445000", "141620.935000", "141622.425000", "141623.915000", "141625.405000", "141626.895000", "141628.385000", "141629.875000", "141631.365000", "141632.855000", "141634.345000", "141635.835000", "141637.325000", "141638.815000", "141640.305000", "141641.795000", "141643.285000", "141644.775000", "141646.265000", "141647.755000", "141649.245000", "141650.735000", "141652.225000", "141653.715000", "141655.205000", "141656.695000", "141658.185000", "141659.675000", "141701.165000", "141702.655000", "141704.145000", "141705.635000", "141707.125000", "141708.615000", "141710.105000", "141711.595000", "141713.085000", "141714.575000", "141716.065000", "141717.555000", "141719.045000", "141720.535000", "141722.025000", "141723.515000", "141725.005000", "141726.495000", "141727.985000", "141729.475000", "141730.965000", "141732.455000", "141733.945000", "141735.435000", "141736.925000"],
      "ContentTime": ["141409.089000", "141409.092000", "141409.094000", "141409.097000", "141409.099000", "141409.102000", "141409.104000", "141409.107000", "141409.109000", "141409.111000", "141409.114000", "141409.117000", "141409.119000", "141409.121000", "141409.124000", "141409.126000", "141409.129000", "141409.131000", "141409.134000", "141409.136000", "141429.029000", "141429.032000", "141429.035000", "141429.037000", "141429.040000", "141429.042000", "141429.045000", "141429.047000", "141429.050000", "141429.052000", "141429.055000", "141429.057000", "141429.060000", "141429.062000", "141429.065000", "141429.067000", "141429.070000", "141429.072000", "141429.075000", "141429.077000", "141449.040000", "141449.043000", "141449.045000", "141449.048000", "141449.050000", "141449.053000", "141449.055000", "141449.058000", "141449.060000", "141449.063000", "141449.065000", "141449.068000", "141449.070000", "141449.073000", "141449.075000", "141449.078000", "141449.080000", "141449.082000", "141449.085000", "141449.087000", "141509.040000", "141509.043000", "141509.046000", "141509.048000", "141509.051000", "141509.053000", "141509.056000", "141509.058000", "141509.061000", "141509.063000", "141509.066000", "141509.068000", "141509.071000", "141509.073000", "141509.076000", "141509.078000", "141509.081000", "141509.083000", "141509.085000", "141509.088000", "141529.039000", "141529.041000", "141529.044000", "141529.046000", "141529.049000", "141529.051000", "141529.054000", "141529.056000", "141529.059000", "141529.067000", "141529.070000", "141529.072000", "141529.075000", "141529.077000", "141529.080000", "141529.082000", "141529.085000", "141529.087000", "141529.090000", "141529.092000", "141529.094000", "141609.075000", "141609.078000", "141609.080000", "141609.083000", "141609.085000", "141609.088000", "141609.090000", "141609.093000", "141609.095000", "141609.098000", "141609.100000", "141609.102000", "141609.105000", "141609.107000", "141609.110000", "141609.112000", "141609.115000", "141609.117000", "141609.120000", "141609.122000", "141609.125000", "141609.127000", "141609.130000", "141609.132000", "141609.135000", "141609.137000", "141609.140000", "141609.142000", "141649.071000", "141649.074000", "141649.076000", "141649.079000", "141649.081000", "141649.084000", "141649.086000", "141649.089000", "141649.091000", "141649.094000", "141649.096000", "141649.099000", "141649.101000", "141649.104000", "141649.106000", "141649.109000", "141649.111000", "141649.114000", "141649.116000", "141649.119000", "141649.121000", "141649.124000", "141649.126000", "141649.129000", "141649.131000", "141649.134000", "141649.136000", "141729.062000", "141729.065000", "141729.067000", "141729.070000", "141729.072000", "141729.075000", "141729.077000", "141729.080000", "141729.082000", "141729.085000", "141729.087000", "141729.090000", "141729.092000", "141729.095000", "141729.097000", "141729.100000", "141729.102000", "141729.104000", "141729.107000", "141729.109000", "141729.112000", "141729.114000", "141729.117000", "141729.119000", "141729.122000", "141729.124000", "141729.127000", "141739.034000", "141739.037000", "141739.039000", "141739.042000", "141739.044000", "141739.059000", "141739.062000"],
      "InstanceCreationTime": ["141409.089000", "141409.092000", "141409.094000", "141409.097000", "141409.099000", "141409.102000", "141409.104000", "141409.107000", "141409.109000", "141409.111000", "141409.114000", "141409.117000", "141409.119000", "141409.121000", "141409.124000", "141409.126000", "141409.129000", "141409.131000", "141409.134000", "141409.136000", "141429.029000", "141429.032000", "141429.035000", "141429.037000", "141429.040000", "141429.042000", "141429.045000", "141429.047000", "141429.050000", "141429.052000", "141429.055000", "141429.057000", "141429.060000", "141429.062000", "141429.065000", "141429.067000", "141429.070000", "141429.072000", "141429.075000", "141429.077000", "141449.040000", "141449.043000", "141449.045000", "141449.048000", "141449.050000", "141449.053000", "141449.055000", "141449.058000", "141449.060000", "141449.063000", "141449.065000", "141449.068000", "141449.070000", "141449.073000", "141449.075000", "141449.078000", "141449.080000", "141449.082000", "141449.085000", "141449.087000", "141509.040000", "141509.043000", "141509.046000", "141509.048000", "141509.051000", "141509.053000", "141509.056000", "141509.058000", "141509.061000", "141509.063000", "141509.066000", "141509.068000", "141509.071000", "141509.073000", "141509.076000", "141509.078000", "141509.081000", "141509.083000", "141509.085000", "141509.088000", "141529.039000", "141529.041000", "141529.044000", "141529.046000", "141529.049000", "141529.051000", "141529.054000", "141529.056000", "141529.059000", "141529.067000", "141529.070000", "141529.072000", "141529.075000", "141529.077000", "141529.080000", "141529.082000", "141529.085000", "141529.087000", "141529.090000", "141529.092000", "141529.094000", "141609.075000", "141609.078000", "141609.080000", "141609.083000", "141609.085000", "141609.088000", "141609.090000", "141609.093000", "141609.095000", "141609.098000", "141609.100000", "141609.102000", "141609.105000", "141609.107000", "141609.110000", "141609.112000", "141609.115000", "141609.117000", "141609.120000", "141609.122000", "141609.125000", "141609.127000", "141609.130000", "141609.132000", "141609.135000", "141609.137000", "141609.140000", "141609.142000", "141649.071000", "141649.074000", "141649.076000", "141649.079000", "141649.081000", "141649.084000", "141649.086000", "141649.089000", "141649.091000", "141649.094000", "141649.096000", "141649.099000", "141649.101000", "141649.104000", "141649.106000", "141649.109000", "141649.111000", "141649.114000", "141649.116000", "141649.119000", "141649.121000", "141649.124000", "141649.126000", "141649.129000", "141649.131000", "141649.134000", "141649.136000", "141729.062000", "141729.065000", "141729.067000", "141729.070000", "141729.072000", "141729.075000", "141729.077000", "141729.080000", "141729.082000", "141729.085000", "141729.087000", "141729.090000", "141729.092000", "141729.095000", "141729.097000", "141729.100000", "141729.102000", "141729.104000", "141729.107000", "141729.109000", "141729.112000", "141729.114000", "141729.117000", "141729.119000", "141729.122000", "141729.124000", "141729.127000", "141739.034000", "141739.037000", "141739.039000", "141739.042000", "141739.044000", "141739.059000", "141739.062000"],
      "InstanceNumber": [1, 2, 3, 4, 5, 6, 7, 8, 9, 10, 11, 12, 13, 14, 15, 16, 17, 18, 19, 20, 21, 22, 23, 24, 25, 26, 27, 28, 29, 30, 31, 32, 33, 34, 35, 36, 37, 38, 39, 40, 41, 42, 43, 44, 45, 46, 47, 48, 49, 50, 51, 52, 53, 54, 55, 56, 57, 58, 59, 60, 61, 62, 63, 64, 65, 66, 67, 68, 69, 70, 71, 72, 73, 74, 75, 76, 77, 78, 79, 80, 81, 82, 83, 84, 85, 86, 87, 88, 89, 90, 91, 92, 93, 94, 95, 96, 97, 98, 99, 100, 101, 102, 103, 104, 105, 106, 107, 108, 109, 110, 111, 112, 113, 114, 115, 116, 117, 118, 119, 120, 121, 122, 123, 124, 125, 126, 127, 128, 129, 130, 131, 132, 133, 134, 135, 136, 137, 138, 139, 140, 141, 142, 143, 144, 145, 146, 147, 148, 149, 150, 151, 152, 153, 154, 155, 156, 157, 158, 159, 160, 161, 162, 163, 164, 165, 166, 167, 168, 169, 170, 171, 172, 173, 174, 175, 176, 177, 178, 179, 180, 181, 182, 183, 184, 185, 186, 187, 188, 189, 190],
      "WindowCenter": [4858.0, 4860.0, 4858.0, 4858.0, 4862.0, 4860.0, 4856.0, 4854.0, 4860.0, 4860.0, 4860.0, 4860.0, 4862.0, 4862.0, 4862.0, 4860.0, 4856.0, 4862.0, 4860.0, 4858.0, 4860.0, 4854.0, 4864.0, 4862.0, 4864.0, 4860.0, 4860.0, 4860.0, 4860.0, 4858.0, 4860.0, 4858.0, 4858.0, 4858.0, 4860.0, 4860.0, 4862.0, 4860.0, 4858.0, 4866.0, 4864.0, 4860.0, 4858.0, 4860.0, 4860.0, 4862.0, 4862.0, 4862.0, 4862.0, 4862.0, 4858.0, 4862.0, 4862.0, 4862.0, 4858.0, 4860.0, 4862.0, 4860.0, 4858.0, 4860.0, 4860.0, 4858.0, 4860.0, 4860.0, 4858.0, 4858.0, 4862.0, 4858.0, 4862.0, 4858.0, 4862.0, 4858.0, 4860.0, 4860.0, 4860.0, 4862.0, 4860.0, 4862.0, 4862.0, 4860.0, 4860.0, 4858.0, 4860.0, 4860.0, 4858.0, 4860.0, 4860.0, 4864.0, 4862.0, 4860.0, 4864.0, 4862.0, 4862.0, 4860.0, 4860.0, 4860.0, 4860.0, 4860.0, 4860.0, 4864.0, 4860.0, 4860.0, 4858.0, 4860.0, 4858.0, 4858.0, 4862.0, 4862.0, 4858.0, 4860.0, 4864.0, 4860.0, 4860.0, 4862.0, 4862.0, 4862.0, 4860.0, 4858.0, 4860.0, 4860.0, 4860.0, 4860.0, 4858.0, 4860.0, 4860.0, 4862.0, 4862.0, 4862.0, 4864.0, 4860.0, 4858.0, 4862.0, 4858.0, 4864.0, 4858.0, 4862.0, 4856.0, 4860.0, 4862.0, 4862.0, 4862.0, 4860.0, 4860.0, 4860.0, 4856.0, 4864.0, 4860.0, 4860.0, 4862.0, 4864.0, 4858.0, 4864.0, 4860.0, 4862.0, 4862.0, 4864.0, 4864.0, 4862.0, 4862.0, 4862.0, 4860.0, 4862.0, 4860.0, 4860.0, 4860.0, 4862.0, 4858.0, 4862.0, 4860.0, 4864.0, 4862.0, 4860.0, 4858.0, 4862.0, 4860.0, 4862.0, 4860.0, 4860.0, 4860.0, 4860.0, 4858.0, 4862.0, 4858.0, 4862.0, 4862.0, 4860.0, 4860.0, 4860.0, 4862.0, 4862.0],
      "WindowWidth": [18598.0, 18594.0, 18598.0, 18594.0, 18602.0, 18596.0, 18598.0, 18596.0, 18596.0, 18594.0, 18600.0, 18600.0, 18598.0, 18604.0, 18600.0, 18594.0, 18598.0, 18598.0, 18600.0, 18594.0, 18598.0, 18596.0, 18602.0, 18598.0, 18602.0, 18594.0, 18596.0, 18600.0, 18598.0, 18594.0, 18590.0, 18594.0, 18592.0, 18600.0, 18596.0, 18594.0, 18604.0, 18598.0, 18594.0, 18600.0, 18602.0, 18598.0, 18594.0, 18594.0, 18596.0, 18600.0, 18596.0, 18602.0, 18596.0, 18596.0, 18598.0, 18602.0, 18594.0, 18604.0, 18598.0, 18598.0, 18602.0, 18594.0, 18600.0, 18602.0, 18600.0, 18596.0, 18594.0, 18598.0, 18598.0, 18592.0, 18600.0, 18590.0, 18596.0, 18602.0, 18594.0, 18590.0, 18602.0, 18598.0, 18592.0, 18596.0, 18598.0, 18596.0, 18594.0, 18598.0, 18600.0, 18596.0, 18596.0, 18590.0, 18596.0, 18596.0, 18594.0, 18606.0, 18596.0, 18594.0, 18600.0, 18600.0, 18596.0, 18600.0, 18600.0, 18600.0, 18596.0, 18596.0, 18598.0, 18602.0, 18598.0, 18598.0, 18602.0, 18598.0, 18594.0, 18596.0, 18598.0, 18598.0, 18596.0, 18598.0, 18598.0, 18594.0, 18596.0, 18596.0, 18602.0, 18602.0, 18596.0, 18598.0, 18598.0, 18602.0, 18596.0, 18596.0, 18598.0, 18594.0, 18594.0, 18596.0, 18596.0, 18602.0, 18596.0, 18596.0, 18594.0, 18598.0, 18596.0, 18602.0, 18598.0, 18596.0, 18598.0, 18598.0, 18600.0, 18604.0, 18602.0, 18604.0, 18598.0, 18602.0, 18594.0, 18600.0, 18598.0, 18596.0, 18604.0, 18598.0, 18600.0, 18600.0, 18594.0, 18598.0, 18600.0, 18594.0, 18600.0, 18602.0, 18604.0, 18602.0, 18596.0, 18596.0, 18598.0, 18598.0, 18598.0, 18596.0, 18600.0, 18602.0, 18602.0, 18600.0, 18600.0, 18598.0, 18596.0, 18604.0, 18598.0, 18604.0, 18606.0, 18602.0, 18598.0, 18598.0, 18598.0, 18596.0, 18596.0, 18600.0, 18596.0, 18594.0, 18598.0, 18606.0, 18602.0, 18600.0]
    },
    "slices": {}
  }
}