{
  "AcquisitionMatrixPE": 104,
  "AcquisitionNumber": 1,
  "AcquisitionTime": "14:25:10.735000",
  "BandwidthPerPixelPhaseEncode": 17.17,
  "BaseResolution": 104,
  "BodyPartExamined": "BRAIN",
  "CoilString": "HC1-7;NC1_2",
  "ConsistencyInfo": "N4_VE11C_LATEST_20160120",
  "ConversionSoftware": "dcm2niix",
  "ConversionSoftwareVersion": "v1.0.20190902",
  "DerivedVendorReportedEchoSpacing": 0.000560011,
  "DeviceSerialNumber": "167006",
  "DwellTime": 2.1e-06,
  "EchoTime": 0.037,
  "EchoTrainLength": 104,
  "EffectiveEchoSpacing": 0.000560011,
  "FlipAngle": 52,
  "ImageComments": "Unaliased_MB4_PE3_LB",
  "ImageOrientationPatientDICOM": [0.999021, 0.0137993, 0.0420409, -0.00226669, 0.964839, -0.262832],
  "ImageType": [
    "ORIGINAL",
    "PRIMARY",
    "M",
    "MB",
    "ND",
    "MOSAIC"
],
  "ImagingFrequency": 123.259,
  "InPlanePhaseEncodingDirectionDICOM": "COL",
  "InstitutionAddress": "Chemin_Queen-Mary_4565_Montreal_District_CA_H3W_1W5",
  "InstitutionName": "IUGM",
  "InstitutionalDepartmentName": "Department",
  "MRAcquisitionType": "2D",
  "MagneticFieldStrength": 3,
  "Manufacturer": "Siemens",
  "ManufacturersModelName": "Prisma_fit",
  "Modality": "MR",
  "MultibandAccelerationFactor": 4,
  "PartialFourier": 1,
  "PatientPosition": "HFS",
  "PercentPhaseFOV": 100,
  "PhaseEncodingDirection": "j",
  "PhaseEncodingSteps": 104,
  "PhaseResolution": 1,
  "PixelBandwidth": 2290,
  "ProcedureStepDescription": "memory_things",
  "ProtocolName": "func_task-things_run-5",
  "PulseSequenceDetails": "%CustomerSeq%_cmrr_mbep2d_bold",
  "ReceiveCoilActiveElements": "HC1-7;NC1,2",
  "ReceiveCoilName": "HeadNeck_64",
  "ReconMatrixPE": 104,
  "RepetitionTime": 1.49,
  "SAR": 0.0382207,
  "ScanOptions": "FS",
  "ScanningSequence": "EP",
  "SequenceName": "epfid2d1_104",
  "SequenceVariant": "SK_SS",
  "SeriesDescription": "func_task-things_run-5",
  "SeriesNumber": 25,
  "ShimSetting": [640, -7199, -8809, 708, 64, 36, 37, 6],
  "SliceThickness": 2,
  "SliceTiming": [0, 0.785, 0.0975, 0.8825, 0.195, 0.98, 0.295, 1.0775, 0.3925, 1.175, 0.49, 1.275, 0.5875, 1.3725, 0.685, 0, 0.785, 0.0975, 0.8825, 0.195, 0.98, 0.295, 1.0775, 0.3925, 1.175, 0.49, 1.275, 0.5875, 1.3725, 0.685, 0, 0.785, 0.0975, 0.8825, 0.195, 0.98, 0.295, 1.0775, 0.3925, 1.175, 0.49, 1.275, 0.5875, 1.3725, 0.685, 0, 0.785, 0.0975, 0.8825, 0.195, 0.98, 0.295, 1.0775, 0.3925, 1.175, 0.49, 1.275, 0.5875, 1.3725, 0.685],
  "SoftwareVersions": "syngo_MR_E11",
  "SpacingBetweenSlices": 2,
  "StationName": "MRC35049",
  "TaskName": "things",
  "TotalReadoutTime": 0.0576811,
  "TxRefAmp": 215.881,
  "WipMemBlock": "ce9a4676-48b9-4b97-982c-887bf516bd70||Sequence: R016 ve11c/master r/e634e98; Dec 19 2017 11:00:25 by eja",
  "dcmmeta_affine": [
    [-1.9980411529541016, -0.004533377941697836, 0.0883791372179985, 106.60104370117188],
    [-0.027598680928349495, 1.9296780824661255, -0.524958074092865, -72.72903442382812],
    [0.0840817242860794, 0.5256634950637817, 1.9278507232666016, -70.37113189697266],
    [0.0, 0.0, 0.0, 1.0]
],
  "dcmmeta_reorient_transform": [
    [0.0, -1.0, 0.0, 103.0],
    [1.0, 0.0, 0.0, 0.0],
    [0.0, 0.0, 1.0, 0.0],
    [0.0, 0.0, 0.0, 1.0]
],
  "dcmmeta_shape": [104, 104, 60, 190],
  "dcmmeta_slice_dim": 2,
  "dcmmeta_version": 0.6,
  "global": {
    "const": {
      "AcquisitionMatrix": [104, 0, 0, 104],
      "AngioFlag": "N",
      "BitsAllocated": 16,
      "BitsStored": 16,
      "BodyPartExamined": "BRAIN",
      "Columns": 832,
      "EchoNumbers": 1,
      "EchoTime": 37.0,
      "EchoTrainLength": 104,
      "FlipAngle": 52.0,
      "HighBit": 15,
      "ImageOrientationPatient": [0.99902059244855, 0.01379934072632, 0.04204086178065, -0.0022666890563, 0.96483901903714, -0.2628317512482],
      "ImagePositionPatient": [-831.77095115168, -838.47652976717, 144.5079756339],
      "ImageType": [
        "ORIGINAL",
        "PRIMARY",
        "M",
        "MB",
        "ND",
        "MOSAIC"
],
      "ImagedNucleus": "1H",
      "ImagingFrequency": 123.25898,
      "InPlanePhaseEncodingDirection": "COL",
      "MRAcquisitionType": "2D",
      "MagneticFieldStrength": 3.0,
      "Manufacturer": "SIEMENS",
      "ManufacturerModelName": "Prisma_fit",
      "Modality": "MR",
      "NumberOfAverages": 1.0,
      "NumberOfPhaseEncodingSteps": 104,
      "PercentPhaseFieldOfView": 100.0,
      "PercentSampling": 100.0,
      "PerformedProcedureStepStartTime": "130354.233000",
      "PhotometricInterpretation": "MONOCHROME2",
      "PixelBandwidth": 2290.0,
      "PixelRepresentation": 0,
      "PixelSpacing": [2.0, 2.0],
      "ProtocolName": "func_task-things_run-5",
      "RepetitionTime": 1490.0,
      "Rows": 832,
      "SAR": 0.03822069864303,
      "SamplesPerPixel": 1,
      "ScanOptions": "FS",
      "ScanningSequence": "EP",
      "SequenceName": "epfid2d1_104",
      "SequenceVariant": [
        "SK",
        "SS"
],
      "SeriesDescription": "func_task-things_run-5",
      "SeriesNumber": 25,
      "SeriesTime": "142643.726000",
      "SliceLocation": -44.032015844653,
      "SliceThickness": 2.0,
      "SmallestImagePixelValue": 0,
      "SoftwareVersions": "syngo MR E11",
      "SpacingBetweenSlices": 2.0000000329685,
      "SpecificCharacterSet": "ISO_IR 100",
      "StudyID": "1",
      "StudyTime": "130354.050000",
      "TransmitCoilName": "Body",
      "VariableFlipAngleFlag": "N",
      "WindowCenterWidthExplanation": "Algo1",
      "dBdt": 0.0},
    "slices": {}
  },
  "time": {
    "samples": {
      "AcquisitionNumber": [1, 2, 3, 4, 5, 6, 7, 8, 9, 10, 11, 12, 13, 14, 15, 16, 17, 18, 19, 20, 21, 22, 23, 24, 25, 26, 27, 28, 29, 30, 31, 32, 33, 34, 35, 36, 37, 38, 39, 40, 41, 42, 43, 44, 45, 46, 47, 48, 49, 50, 51, 52, 53, 54, 55, 56, 57, 58, 59, 60, 61, 62, 63, 64, 65, 66, 67, 68, 69, 70, 71, 72, 73, 74, 75, 76, 77, 78, 79, 80, 81, 82, 83, 84, 85, 86, 87, 88, 89, 90, 91, 92, 93, 94, 95, 96, 97, 98, 99, 100, 101, 102, 103, 104, 105, 106, 107, 108, 109, 110, 111, 112, 113, 114, 115, 116, 117, 118, 119, 120, 121, 122, 123, 124, 125, 126, 127, 128, 129, 130, 131, 132, 133, 134, 135, 136, 137, 138, 139, 140, 141, 142, 143, 144, 145, 146, 147, 148, 149, 150, 151, 152, 153, 154, 155, 156, 157, 158, 159, 160, 161, 162, 163, 164, 165, 166, 167, 168, 169, 170, 171, 172, 173, 174, 175, 176, 177, 178, 179, 180, 181, 182, 183, 184, 185, 186, 187, 188, 189, 190],
      "AcquisitionTime": ["142510.735000", "142512.225000", "142513.715000", "142515.205000", "142516.695000", "142518.185000", "142519.675000", "142521.165000", "142522.655000", "142524.145000", "142525.635000", "142527.125000", "142528.615000", "142530.105000", "142531.595000", "142533.085000", "142534.575000", "142536.065000", "142537.555000", "142539.045000", "142540.535000", "142542.025000", "142543.515000", "142545.005000", "142546.495000", "142547.985000", "142549.475000", "142550.965000", "142552.455000", "142553.945000", "142555.435000", "142556.925000", "142558.415000", "142559.905000", "142601.395000", "142602.885000", "142604.375000", "142605.865000", "142607.355000", "142608.845000", "142610.335000", "142611.825000", "142613.315000", "142614.805000", "142616.295000", "142617.785000", "142619.275000", "142620.765000", "142622.255000", "142623.745000", "142625.235000", "142626.725000", "142628.215000", "142629.705000", "142631.195000", "142632.685000", "142634.175000", "142635.665000", "142637.155000", "142638.645000", "142640.135000", "142641.625000", "142643.115000", "142644.605000", "142646.095000", "142647.585000", "142649.075000", "142650.565000", "142652.055000", "142653.545000", "142655.035000", "142656.525000", "142658.015000", "142659.505000", "142700.995000", "142702.485000", "142703.975000", "142705.465000", "142706.955000", "142708.445000", "142709.935000", "142711.425000", "142712.915000", "142714.405000", "142715.895000", "142717.385000", "142718.875000", "142720.365000", "142721.855000", "142723.345000", "142724.835000", "142726.325000", "142727.815000", "142729.305000", "142730.795000", "142732.285000", "142733.775000", "142735.265000", "142736.755000", "142738.245000", "142739.735000", "142741.225000", "142742.715000", "142744.205000", "142745.695000", "142747.185000", "142748.675000", "142750.165000", "142751.655000", "142753.145000", "142754.635000", "142756.125000", "142757.615000", "142759.105000", "142800.595000", "142802.085000", "142803.575000", "142805.065000", "142806.555000", "142808.045000", "142809.535000", "142811.025000", "142812.515000", "142814.005000", "142815.495000", "142816.985000", "142818.475000", "142819.965000", "142821.455000", "142822.945000", "142824.435000", "142825.925000", "142827.415000", "142828.905000", "142830.395000", "142831.885000", "142833.375000", "142834.865000", "142836.355000", "142837.845000", "142839.335000", "142840.825000", "142842.315000", "142843.805000", "142845.295000", "142846.785000", "142848.275000", "142849.765000", "142851.255000", "142852.745000", "142854.235000", "142855.725000", "142857.215000", "142858.705000", "142900.195000", "142901.685000", "142903.175000", "142904.665000", "142906.155000", "142907.645000", "142909.135000", "142910.625000", "142912.115000", "142913.605000", "142915.095000", "142916.585000", "142918.075000", "142919.565000", "142921.055000", "142922.545000", "142924.035000", "142925.525000", "142927.015000", "142928.505000", "142929.995000", "142931.485000", "142932.975000", "142934.465000", "142935.955000", "142937.445000", "142938.935000", "142940.425000", "142941.915000", "142943.405000", "142944.895000", "142946.385000", "142947.875000", "142949.365000", "142950.855000", "142952.345000"],
      "ContentTime": ["142643.729000", "142643.733000", "142643.736000", "142643.740000", "142643.743000", "142643.746000", "142643.750000", "142643.753000", "142643.756000", "142643.760000", "142643.763000", "142643.766000", "142643.777000", "142643.780000", "142643.783000", "142643.787000", "142643.794000", "142643.797000", "142643.801000", "142643.804000", "142643.807000", "142643.811000", "142643.814000", "142643.817000", "142643.821000", "142643.824000", "142643.827000", "142643.830000", "142643.834000", "142643.837000", "142643.850000", "142643.853000", "142643.857000", "142643.860000", "142643.863000", "142643.866000", "142643.870000", "142643.873000", "142643.876000", "142703.686000", "142703.690000", "142703.693000", "142703.696000", "142703.700000", "142703.703000", "142703.706000", "142703.710000", "142703.713000", "142703.716000", "142703.720000", "142703.723000", "142703.726000", "142703.729000", "142703.733000", "142703.736000", "142703.739000", "142703.743000", "142703.746000", "142703.749000", "142703.752000", "142723.687000", "142723.691000", "142723.694000", "142723.697000", "142723.701000", "142723.704000", "142723.707000", "142723.711000", "142723.714000", "142723.717000", "142723.721000", "142723.724000", "142723.727000", "142723.730000", "142723.734000", "142723.737000", "142723.740000", "142723.745000", "142723.748000", "142723.751000", "142743.687000", "142743.691000", "142743.694000", "142743.697000", "142743.701000", "142743.704000", "142743.707000", "142743.710000", "142743.714000", "142743.717000", "142743.720000", "142743.724000", "142743.727000", "142743.730000", "142743.750000", "142743.753000", "142743.756000", "142743.759000", "142743.763000", "142743.766000", "142823.686000", "142823.690000", "142823.693000", "142823.696000", "142823.700000", "142823.703000", "142823.706000", "142823.710000", "142823.713000", "142823.716000", "142823.720000", "142823.723000", "142823.726000", "142823.730000", "142823.733000", "142823.736000", "142823.740000", "142823.743000", "142823.746000", "142823.749000", "142823.753000", "142823.756000", "142823.759000", "142823.763000", "142823.766000", "142823.769000", "142823.773000", "142823.776000", "142903.686000", "142903.690000", "142903.695000", "142903.698000", "142903.701000", "142903.705000", "142903.708000", "142903.711000", "142903.715000", "142903.718000", "142903.721000", "142903.725000", "142903.728000", "142903.732000", "142903.735000", "142903.738000", "142903.742000", "142903.745000", "142903.748000", "142903.752000", "142903.755000", "142903.758000", "142903.762000", "142903.765000", "142903.769000", "142903.772000", "142903.776000", "142943.687000", "142943.691000", "142943.694000", "142943.697000", "142943.701000", "142943.704000", "142943.707000", "142943.711000", "142943.714000", "142943.717000", "142943.721000", "142943.724000", "142943.727000", "142943.731000", "142943.734000", "142943.737000", "142943.741000", "142943.744000", "142943.747000", "142943.763000", "142943.766000", "142943.770000", "142943.773000", "142943.776000", "142943.779000", "142943.783000", "142943.786000", "142954.874000", "142954.878000", "142954.881000", "142954.884000", "142954.888000", "142954.891000", "142954.895000", "142954.898000"],
      "InstanceCreationTime": ["142643.729000", "142643.733000", "142643.736000", "142643.740000", "142643.743000", "142643.746000", "142643.750000", "142643.753000", "142643.756000", "142643.760000", "142643.763000", "142643.766000", "142643.777000", "142643.780000", "142643.783000", "142643.787000", "142643.794000", "142643.797000", "142643.801000", "142643.804000", "142643.807000", "142643.811000", "142643.814000", "142643.817000", "142643.821000", "142643.824000", "142643.827000", "142643.830000", "142643.834000", "142643.837000", "142643.850000", "142643.853000", "142643.857000", "142643.860000", "142643.863000", "142643.866000", "142643.870000", "142643.873000", "142643.876000", "142703.686000", "142703.690000", "142703.693000", "142703.696000", "142703.700000", "142703.703000", "142703.706000", "142703.710000", "142703.713000", "142703.716000", "142703.720000", "142703.723000", "142703.726000", "142703.729000", "142703.733000", "142703.736000", "142703.739000", "142703.743000", "142703.746000", "142703.749000", "142703.752000", "142723.687000", "142723.691000", "142723.694000", "142723.697000", "142723.701000", "142723.704000", "142723.707000", "142723.711000", "142723.714000", "142723.717000", "142723.721000", "142723.724000", "142723.727000", "142723.730000", "142723.734000", "142723.737000", "142723.740000", "142723.745000", "142723.748000", "142723.751000", "142743.687000", "142743.691000", "142743.694000", "142743.697000", "142743.701000", "142743.704000", "142743.707000", "142743.710000", "142743.714000", "142743.717000", "142743.720000", "142743.724000", "142743.727000", "142743.730000", "142743.750000", "142743.753000", "142743.756000", "142743.759000", "142743.763000", "142743.766000", "142823.686000", "142823.690000", "142823.693000", "142823.696000", "142823.700000", "142823.703000", "142823.706000", "142823.710000", "142823.713000", "142823.716000", "142823.720000", "142823.723000", "142823.726000", "142823.730000", "142823.733000", "142823.736000", "142823.740000", "142823.743000", "142823.746000", "142823.749000", "142823.753000", "142823.756000", "142823.759000", "142823.763000", "142823.766000", "142823.769000", "142823.773000", "142823.776000", "142903.686000", "142903.690000", "142903.695000", "142903.698000", "142903.701000", "142903.705000", "142903.708000", "142903.711000", "142903.715000", "142903.718000", "142903.721000", "142903.725000", "142903.728000", "142903.732000", "142903.735000", "142903.738000", "142903.742000", "142903.745000", "142903.748000", "142903.752000", "142903.755000", "142903.758000", "142903.762000", "142903.765000", "142903.769000", "142903.772000", "142903.776000", "142943.687000", "142943.691000", "142943.694000", "142943.697000", "142943.701000", "142943.704000", "142943.707000", "142943.711000", "142943.714000", "142943.717000", "142943.721000", "142943.724000", "142943.727000", "142943.731000", "142943.734000", "142943.737000", "142943.741000", "142943.744000", "142943.747000", "142943.763000", "142943.766000", "142943.770000", "142943.773000", "142943.776000", "142943.779000", "142943.783000", "142943.786000", "142954.874000", "142954.878000", "142954.881000", "142954.884000", "142954.888000", "142954.891000", "142954.895000", "142954.898000"],
      "InstanceNumber": [1, 2, 3, 4, 5, 6, 7, 8, 9, 10, 11, 12, 13, 14, 15, 16, 17, 18, 19, 20, 21, 22, 23, 24, 25, 26, 27, 28, 29, 30, 31, 32, 33, 34, 35, 36, 37, 38, 39, 40, 41, 42, 43, 44, 45, 46, 47, 48, 49, 50, 51, 52, 53, 54, 55, 56, 57, 58, 59, 60, 61, 62, 63, 64, 65, 66, 67, 68, 69, 70, 71, 72, 73, 74, 75, 76, 77, 78, 79, 80, 81, 82, 83, 84, 85, 86, 87, 88, 89, 90, 91, 92, 93, 94, 95, 96, 97, 98, 99, 100, 101, 102, 103, 104, 105, 106, 107, 108, 109, 110, 111, 112, 113, 114, 115, 116, 117, 118, 119, 120, 121, 122, 123, 124, 125, 126, 127, 128, 129, 130, 131, 132, 133, 134, 135, 136, 137, 138, 139, 140, 141, 142, 143, 144, 145, 146, 147, 148, 149, 150, 151, 152, 153, 154, 155, 156, 157, 158, 159, 160, 161, 162, 163, 164, 165, 166, 167, 168, 169, 170, 171, 172, 173, 174, 175, 176, 177, 178, 179, 180, 181, 182, 183, 184, 185, 186, 187, 188, 189, 190],
      "LargestImagePixelValue": [40433, 39442, 38984, 39055, 38515, 38277, 37538, 38409, 37820, 38166, 38316, 38280, 38017, 38288, 37880, 37810, 37641, 38219, 38015, 37845, 38024, 37543, 37948, 37824, 37992, 37830, 37909, 37863, 37475, 37714, 37802, 37716, 38271, 37765, 37508, 36851, 37645, 37873, 37828, 38516, 38453, 37805, 37943, 38393, 38188, 37916, 38139, 38137, 38359, 38170, 37854, 38009, 37824, 37502, 37824, 37622, 37516, 37652, 38214, 37829, 37557, 37485, 38182, 37790, 37962, 37674, 38236, 37712, 38255, 38073, 37883, 37691, 37547, 38269, 38041, 37778, 38035, 37922, 37461, 37647, 37676, 38457, 37565, 37917, 37884, 38209, 38235, 38664, 38095, 38400, 38003, 38083, 38072, 37893, 37589, 38247, 38143, 38137, 38028, 37750, 37446, 37919, 37486, 38019, 37429, 38113, 37994, 38128, 38410, 38193, 38239, 37866, 38157, 38189, 37900, 37711, 37797, 37515, 37872, 37434, 38136, 37888, 37748, 37357, 37820, 37991, 37570, 37130, 37499, 37250, 37716, 37850, 37969, 37870, 38104, 37469, 37996, 37988, 38278, 38595, 37854, 38015, 37570, 37924, 37841, 38003, 37983, 38011, 37681, 38013, 37532, 37665, 37996, 37798, 37425, 38291, 37869, 37917, 37387, 37909, 37757, 37803, 37878, 37555, 37743, 37463, 37722, 38117, 38131, 37638, 37692, 37567, 38378, 38080, 37921, 37774, 37605, 37530, 37713, 38103, 37844, 37682, 37379, 37870, 37910, 37706, 37749, 37347, 37678, 37420],
      "WindowCenter": [10192.0, 10134.0, 10095.0, 10107.0, 10135.0, 10155.0, 10158.0, 10150.0, 10126.0, 10121.0, 10121.0, 10128.0, 10145.0, 10154.0, 10149.0, 10141.0, 10132.0, 10136.0, 10144.0, 10141.0, 10146.0, 10142.0, 10148.0, 10142.0, 10139.0, 10148.0, 10164.0, 10160.0, 10150.0, 10124.0, 10114.0, 10126.0, 10151.0, 10166.0, 10171.0, 10149.0, 10136.0, 10125.0, 10132.0, 10137.0, 10136.0, 10139.0, 10140.0, 10139.0, 10124.0, 10113.0, 10119.0, 10122.0, 10126.0, 10128.0, 10139.0, 10156.0, 10159.0, 10153.0, 10134.0, 10132.0, 10132.0, 10140.0, 10155.0, 10159.0, 10146.0, 10143.0, 10139.0, 10133.0, 10147.0, 10143.0, 10139.0, 10131.0, 10137.0, 10139.0, 10120.0, 10143.0, 10131.0, 10135.0, 10129.0, 10130.0, 10138.0, 10140.0, 10135.0, 10139.0, 10140.0, 10145.0, 10135.0, 10122.0, 10098.0, 10104.0, 10120.0, 10142.0, 10131.0, 10121.0, 10118.0, 10125.0, 10139.0, 10149.0, 10137.0, 10130.0, 10113.0, 10112.0, 10136.0, 10149.0, 10150.0, 10148.0, 10150.0, 10151.0, 10136.0, 10122.0, 10105.0, 10105.0, 10126.0, 10131.0, 10147.0, 10134.0, 10125.0, 10123.0, 10130.0, 10147.0, 10159.0, 10159.0, 10151.0, 10152.0, 10156.0, 10159.0, 10159.0, 10145.0, 10143.0, 10157.0, 10161.0, 10155.0, 10138.0, 10127.0, 10119.0, 10122.0, 10131.0, 10134.0, 10140.0, 10125.0, 10122.0, 10112.0, 10110.0, 10118.0, 10132.0, 10142.0, 10121.0, 10106.0, 10088.0, 10101.0, 10121.0, 10139.0, 10134.0, 10124.0, 10107.0, 10114.0, 10132.0, 10132.0, 10124.0, 10127.0, 10124.0, 10135.0, 10129.0, 10124.0, 10115.0, 10125.0, 10141.0, 10144.0, 10136.0, 10119.0, 10107.0, 10106.0, 10121.0, 10133.0, 10132.0, 10116.0, 10111.0, 10113.0, 10122.0, 10134.0, 10129.0, 10119.0, 10115.0, 10137.0, 10150.0, 10154.0, 10147.0, 10134.0, 10131.0, 10153.0, 10156.0, 10143.0, 10132.0, 10110.0],
      "WindowWidth": [21692.0, 21540.0, 21438.0, 21456.0, 21522.0, 21569.0, 21577.0, 21556.0, 21503.0, 21487.0, 21487.0, 21505.0, 21544.0, 21564.0, 21556.0, 21534.0, 21513.0, 21519.0, 21539.0, 21534.0, 21545.0, 21538.0, 21549.0, 21534.0, 21527.0, 21547.0, 21585.0, 21579.0, 21552.0, 21493.0, 21470.0, 21495.0, 21553.0, 21594.0, 21605.0, 21556.0, 21521.0, 21497.0, 21513.0, 21523.0, 21514.0, 21525.0, 21529.0, 21526.0, 21492.0, 21465.0, 21478.0, 21485.0, 21493.0, 21500.0, 21527.0, 21566.0, 21574.0, 21563.0, 21517.0, 21510.0, 21513.0, 21532.0, 21565.0, 21575.0, 21547.0, 21535.0, 21524.0, 21516.0, 21547.0, 21538.0, 21524.0, 21508.0, 21520.0, 21529.0, 21484.0, 21539.0, 21511.0, 21512.0, 21504.0, 21507.0, 21524.0, 21532.0, 21524.0, 21529.0, 21530.0, 21538.0, 21520.0, 21485.0, 21433.0, 21444.0, 21482.0, 21530.0, 21507.0, 21482.0, 21474.0, 21492.0, 21528.0, 21552.0, 21525.0, 21502.0, 21465.0, 21466.0, 21520.0, 21554.0, 21555.0, 21546.0, 21550.0, 21554.0, 21521.0, 21484.0, 21446.0, 21448.0, 21493.0, 21509.0, 21543.0, 21517.0, 21495.0, 21490.0, 21506.0, 21547.0, 21576.0, 21576.0, 21557.0, 21558.0, 21566.0, 21574.0, 21573.0, 21544.0, 21536.0, 21567.0, 21579.0, 21568.0, 21530.0, 21501.0, 21482.0, 21486.0, 21508.0, 21515.0, 21527.0, 21493.0, 21485.0, 21459.0, 21455.0, 21473.0, 21512.0, 21535.0, 21488.0, 21449.0, 21406.0, 21435.0, 21485.0, 21527.0, 21517.0, 21492.0, 21451.0, 21467.0, 21510.0, 21510.0, 21490.0, 21492.0, 21491.0, 21517.0, 21505.0, 21489.0, 21469.0, 21496.0, 21531.0, 21540.0, 21520.0, 21480.0, 21450.0, 21449.0, 21483.0, 21515.0, 21510.0, 21471.0, 21457.0, 21464.0, 21488.0, 21517.0, 21506.0, 21482.0, 21469.0, 21519.0, 21554.0, 21564.0, 21549.0, 21514.0, 21506.0, 21552.0, 21560.0, 21529.0, 21505.0, 21458.0]
    },
    "slices": {}
  }
}