{
  "AcquisitionMatrixPE": 104,
  "AcquisitionNumber": 1,
  "AcquisitionTime": "14:03:44.962500",
  "BandwidthPerPixelPhaseEncode": 17.17,
  "BaseResolution": 104,
  "BodyPartExamined": "BRAIN",
  "CoilString": "HC1-7;NC1_2",
  "ConsistencyInfo": "N4_VE11C_LATEST_20160120",
  "ConversionSoftware": "dcm2niix",
  "ConversionSoftwareVersion": "v1.0.20190902",
  "DerivedVendorReportedEchoSpacing": 0.000560011,
  "DeviceSerialNumber": "167006",
  "DwellTime": 2.1e-06,
  "EchoTime": 0.037,
  "EchoTrainLength": 104,
  "EffectiveEchoSpacing": 0.000560011,
  "FlipAngle": 52,
  "ImageComments": "Unaliased_MB4_PE3_LB",
  "ImageOrientationPatientDICOM": [0.999808, 0.00477727, 0.0190055, 0.0001745, 0.967622, -0.252404],
  "ImageType": [
    "ORIGINAL",
    "PRIMARY",
    "M",
    "MB",
    "ND",
    "MOSAIC"
],
  "ImagingFrequency": 123.259,
  "InPlanePhaseEncodingDirectionDICOM": "COL",
  "InstitutionAddress": "Chemin_Queen-Mary_4565_Montreal_District_CA_H3W_1W5",
  "InstitutionName": "IUGM",
  "InstitutionalDepartmentName": "Department",
  "MRAcquisitionType": "2D",
  "MagneticFieldStrength": 3,
  "Manufacturer": "Siemens",
  "ManufacturersModelName": "Prisma_fit",
  "Modality": "MR",
  "MultibandAccelerationFactor": 4,
  "PartialFourier": 1,
  "PatientPosition": "HFS",
  "PercentPhaseFOV": 100,
  "PhaseEncodingDirection": "j",
  "PhaseEncodingSteps": 104,
  "PhaseResolution": 1,
  "PixelBandwidth": 2290,
  "ProcedureStepDescription": "memory_things",
  "ProtocolName": "func_task-things_run-6",
  "PulseSequenceDetails": "%CustomerSeq%_cmrr_mbep2d_bold",
  "ReceiveCoilActiveElements": "HC1-7;NC1,2",
  "ReceiveCoilName": "HeadNeck_64",
  "ReconMatrixPE": 104,
  "RepetitionTime": 1.49,
  "SAR": 0.0483908,
  "ScanOptions": "FS",
  "ScanningSequence": "EP",
  "SequenceName": "epfid2d1_104",
  "SequenceVariant": "SK_SS",
  "SeriesDescription": "func_task-things_run-6",
  "SeriesNumber": 25,
  "ShimSetting": [634, -7210, -8764, 717, 51, 20, 54, -10],
  "SliceThickness": 2,
  "SliceTiming": [0, 0.785, 0.0975, 0.8825, 0.195, 0.98, 0.295, 1.0775, 0.3925, 1.175, 0.49, 1.275, 0.5875, 1.3725, 0.685, 0, 0.785, 0.0975, 0.8825, 0.195, 0.98, 0.295, 1.0775, 0.3925, 1.175, 0.49, 1.275, 0.5875, 1.3725, 0.685, 0, 0.785, 0.0975, 0.8825, 0.195, 0.98, 0.295, 1.0775, 0.3925, 1.175, 0.49, 1.275, 0.5875, 1.3725, 0.685, 0, 0.785, 0.0975, 0.8825, 0.195, 0.98, 0.295, 1.0775, 0.3925, 1.175, 0.49, 1.275, 0.5875, 1.3725, 0.685],
  "SoftwareVersions": "syngo_MR_E11",
  "SpacingBetweenSlices": 2,
  "StationName": "MRC35049",
  "TaskName": "things",
  "TotalReadoutTime": 0.0576811,
  "TxRefAmp": 233.671,
  "WipMemBlock": "d2ab3630-8499-4a4d-b050-f2d6c594ca29||Sequence: R016 ve11c/master r/e634e98; Dec 19 2017 11:00:25 by eja",
  "dcmmeta_affine": [
    [-1.9996159076690674, 0.0003490002709440887, 0.039191823452711105, 108.1073226928711],
    [-0.009554533287882805, 1.9352439641952515, -0.5047174692153931, -74.38790130615234],
    [0.038010939955711365, 0.5048077702522278, 1.9348706007003784, -58.15380859375],
    [0.0, 0.0, 0.0, 1.0]
],
  "dcmmeta_reorient_transform": [
    [0.0, -1.0, 0.0, 103.0],
    [1.0, 0.0, 0.0, 0.0],
    [0.0, 0.0, 1.0, 0.0],
    [0.0, 0.0, 0.0, 1.0]
],
  "dcmmeta_shape": [104, 104, 60, 190],
  "dcmmeta_slice_dim": 2,
  "dcmmeta_version": 0.6,
  "global": {
    "const": {
      "AcquisitionMatrix": [104, 0, 0, 104],
      "AngioFlag": "N",
      "BitsAllocated": 16,
      "BitsStored": 16,
      "BodyPartExamined": "BRAIN",
      "Columns": 832,
      "EchoNumbers": 1,
      "EchoTime": 37.0,
      "EchoTrainLength": 104,
      "FlipAngle": 52.0,
      "HighBit": 15,
      "ImageOrientationPatient": [0.99980796646558, 0.00477726643656, 0.01900547072179, 0.00017450013683, 0.96762195696734, -0.2524038786239],
      "ImagePositionPatient": [-836.13050613106, -832.84885414365, 163.75543039167],
      "ImageType": [
        "ORIGINAL",
        "PRIMARY",
        "M",
        "MB",
        "ND",
        "MOSAIC"
],
      "ImagedNucleus": "1H",
      "ImagingFrequency": 123.258925,
      "InPlanePhaseEncodingDirection": "COL",
      "MRAcquisitionType": "2D",
      "MagneticFieldStrength": 3.0,
      "Manufacturer": "SIEMENS",
      "ManufacturerModelName": "Prisma_fit",
      "Modality": "MR",
      "NumberOfAverages": 1.0,
      "NumberOfPhaseEncodingSteps": 104,
      "PercentPhaseFieldOfView": 100.0,
      "PercentSampling": 100.0,
      "PerformedProcedureStepStartTime": "125811.868000",
      "PhotometricInterpretation": "MONOCHROME2",
      "PixelBandwidth": 2290.0,
      "PixelRepresentation": 0,
      "PixelSpacing": [2.0, 2.0],
      "ProtocolName": "func_task-things_run-6",
      "RepetitionTime": 1490.0,
      "Rows": 832,
      "SAR": 0.04839084328241,
      "SamplesPerPixel": 1,
      "ScanOptions": "FS",
      "ScanningSequence": "EP",
      "SequenceName": "epfid2d1_104",
      "SequenceVariant": [
        "SK",
        "SS"
],
      "SeriesDescription": "func_task-things_run-6",
      "SeriesNumber": 25,
      "SeriesTime": "140511.398000",
      "SliceLocation": -35.369150583078,
      "SliceThickness": 2.0,
      "SmallestImagePixelValue": 0,
      "SoftwareVersions": "syngo MR E11",
      "SpacingBetweenSlices": 1.9999999579229,
      "SpecificCharacterSet": "ISO_IR 100",
      "StudyID": "1",
      "StudyTime": "125811.763000",
      "TransmitCoilName": "Body",
      "VariableFlipAngleFlag": "N",
      "WindowCenterWidthExplanation": "Algo1",
      "dBdt": 0.0},
    "slices": {}
  },
  "time": {
    "samples": {
      "AcquisitionNumber": [1, 2, 3, 4, 5, 6, 7, 8, 9, 10, 11, 12, 13, 14, 15, 16, 17, 18, 19, 20, 21, 22, 23, 24, 25, 26, 27, 28, 29, 30, 31, 32, 33, 34, 35, 36, 37, 38, 39, 40, 41, 42, 43, 44, 45, 46, 47, 48, 49, 50, 51, 52, 53, 54, 55, 56, 57, 58, 59, 60, 61, 62, 63, 64, 65, 66, 67, 68, 69, 70, 71, 72, 73, 74, 75, 76, 77, 78, 79, 80, 81, 82, 83, 84, 85, 86, 87, 88, 89, 90, 91, 92, 93, 94, 95, 96, 97, 98, 99, 100, 101, 102, 103, 104, 105, 106, 107, 108, 109, 110, 111, 112, 113, 114, 115, 116, 117, 118, 119, 120, 121, 122, 123, 124, 125, 126, 127, 128, 129, 130, 131, 132, 133, 134, 135, 136, 137, 138, 139, 140, 141, 142, 143, 144, 145, 146, 147, 148, 149, 150, 151, 152, 153, 154, 155, 156, 157, 158, 159, 160, 161, 162, 163, 164, 165, 166, 167, 168, 169, 170, 171, 172, 173, 174, 175, 176, 177, 178, 179, 180, 181, 182, 183, 184, 185, 186, 187, 188, 189, 190],
      "AcquisitionTime": ["140344.962500", "140346.452500", "140347.942500", "140349.432500", "140350.922500", "140352.412500", "140353.902500", "140355.392500", "140356.882500", "140358.372500", "140359.862500", "140401.352500", "140402.842500", "140404.332500", "140405.822500", "140407.312500", "140408.802500", "140410.292500", "140411.782500", "140413.272500", "140414.762500", "140416.252500", "140417.742500", "140419.232500", "140420.722500", "140422.212500", "140423.702500", "140425.192500", "140426.682500", "140428.172500", "140429.662500", "140431.152500", "140432.642500", "140434.132500", "140435.622500", "140437.112500", "140438.602500", "140440.092500", "140441.582500", "140443.072500", "140444.562500", "140446.052500", "140447.542500", "140449.032500", "140450.522500", "140452.012500", "140453.502500", "140454.992500", "140456.482500", "140457.972500", "140459.462500", "140500.952500", "140502.442500", "140503.932500", "140505.422500", "140506.912500", "140508.402500", "140509.892500", "140511.382500", "140512.872500", "140514.362500", "140515.852500", "140517.342500", "140518.832500", "140520.322500", "140521.812500", "140523.302500", "140524.792500", "140526.282500", "140527.772500", "140529.262500", "140530.752500", "140532.242500", "140533.732500", "140535.222500", "140536.712500", "140538.202500", "140539.692500", "140541.182500", "140542.672500", "140544.162500", "140545.652500", "140547.142500", "140548.632500", "140550.122500", "140551.612500", "140553.102500", "140554.592500", "140556.082500", "140557.572500", "140559.062500", "140600.552500", "140602.042500", "140603.532500", "140605.022500", "140606.512500", "140608.002500", "140609.492500", "140610.982500", "140612.472500", "140613.962500", "140615.452500", "140616.942500", "140618.432500", "140619.922500", "140621.412500", "140622.902500", "140624.392500", "140625.882500", "140627.372500", "140628.862500", "140630.352500", "140631.842500", "140633.332500", "140634.822500", "140636.312500", "140637.802500", "140639.292500", "140640.782500", "140642.272500", "140643.762500", "140645.252500", "140646.742500", "140648.232500", "140649.722500", "140651.212500", "140652.702500", "140654.192500", "140655.682500", "140657.172500", "140658.662500", "140700.152500", "140701.642500", "140703.132500", "140704.622500", "140706.112500", "140707.602500", "140709.092500", "140710.582500", "140712.072500", "140713.562500", "140715.052500", "140716.542500", "140718.032500", "140719.522500", "140721.012500", "140722.502500", "140723.992500", "140725.482500", "140726.972500", "140728.462500", "140729.952500", "140731.442500", "140732.932500", "140734.422500", "140735.912500", "140737.402500", "140738.892500", "140740.382500", "140741.872500", "140743.362500", "140744.852500", "140746.342500", "140747.832500", "140749.322500", "140750.812500", "140752.302500", "140753.792500", "140755.282500", "140756.772500", "140758.262500", "140759.752500", "140801.242500", "140802.732500", "140804.222500", "140805.712500", "140807.202500", "140808.692500", "140810.182500", "140811.672500", "140813.162500", "140814.652500", "140816.142500", "140817.632500", "140819.122500", "140820.612500", "140822.102500", "140823.592500", "140825.082500", "140826.572500"],
      "ContentTime": ["140511.401000", "140511.405000", "140511.408000", "140511.411000", "140511.415000", "140511.418000", "140511.421000", "140511.425000", "140511.428000", "140511.431000", "140511.434000", "140511.438000", "140511.441000", "140511.444000", "140511.448000", "140511.451000", "140511.454000", "140511.457000", "140511.461000", "140511.464000", "140511.467000", "140511.471000", "140511.474000", "140511.477000", "140511.481000", "140511.484000", "140511.487000", "140511.490000", "140511.494000", "140511.497000", "140511.500000", "140511.504000", "140511.507000", "140511.510000", "140531.361000", "140531.365000", "140531.368000", "140531.371000", "140531.375000", "140531.378000", "140531.381000", "140531.384000", "140531.388000", "140531.391000", "140531.394000", "140531.398000", "140531.401000", "140531.404000", "140531.413000", "140531.416000", "140531.419000", "140531.422000", "140531.426000", "140531.429000", "140551.361000", "140551.365000", "140551.368000", "140551.371000", "140551.374000", "140551.378000", "140551.381000", "140551.384000", "140551.387000", "140551.391000", "140551.394000", "140551.397000", "140551.400000", "140551.404000", "140551.407000", "140551.410000", "140551.413000", "140551.417000", "140551.420000", "140551.423000", "140611.360000", "140611.364000", "140611.367000", "140611.370000", "140611.373000", "140611.377000", "140611.380000", "140611.383000", "140611.387000", "140611.390000", "140611.394000", "140611.397000", "140611.400000", "140611.404000", "140611.407000", "140611.410000", "140611.413000", "140611.417000", "140611.420000", "140611.423000", "140651.360000", "140651.364000", "140651.367000", "140651.370000", "140651.374000", "140651.377000", "140651.380000", "140651.383000", "140651.387000", "140651.390000", "140651.393000", "140651.397000", "140651.400000", "140651.403000", "140651.406000", "140651.410000", "140651.413000", "140651.416000", "140651.419000", "140651.423000", "140651.426000", "140651.429000", "140651.432000", "140651.436000", "140651.439000", "140651.442000", "140651.445000", "140651.449000", "140651.452000", "140651.455000", "140731.361000", "140731.365000", "140731.368000", "140731.371000", "140731.375000", "140731.378000", "140731.382000", "140731.385000", "140731.388000", "140731.391000", "140731.395000", "140731.398000", "140731.401000", "140731.419000", "140731.422000", "140731.425000", "140731.429000", "140731.432000", "140731.435000", "140731.438000", "140731.442000", "140731.445000", "140731.449000", "140731.452000", "140731.455000", "140731.458000", "140731.462000", "140811.361000", "140811.365000", "140811.368000", "140811.372000", "140811.375000", "140811.378000", "140811.382000", "140811.385000", "140811.388000", "140811.392000", "140811.395000", "140811.398000", "140811.402000", "140811.405000", "140811.408000", "140811.412000", "140811.415000", "140811.418000", "140811.422000", "140811.425000", "140811.428000", "140811.431000", "140811.435000", "140811.438000", "140811.441000", "140811.445000", "140811.448000", "140828.519000", "140828.522000", "140828.526000", "140828.529000", "140828.537000", "140828.540000", "140828.543000", "140828.547000", "140828.550000", "140828.553000", "140828.557000", "140828.560000"],
      "InstanceCreationTime": ["140511.401000", "140511.405000", "140511.408000", "140511.411000", "140511.415000", "140511.418000", "140511.421000", "140511.425000", "140511.428000", "140511.431000", "140511.434000", "140511.438000", "140511.441000", "140511.444000", "140511.448000", "140511.451000", "140511.454000", "140511.457000", "140511.461000", "140511.464000", "140511.467000", "140511.471000", "140511.474000", "140511.477000", "140511.481000", "140511.484000", "140511.487000", "140511.490000", "140511.494000", "140511.497000", "140511.500000", "140511.504000", "140511.507000", "140511.510000", "140531.361000", "140531.365000", "140531.368000", "140531.371000", "140531.375000", "140531.378000", "140531.381000", "140531.384000", "140531.388000", "140531.391000", "140531.394000", "140531.398000", "140531.401000", "140531.404000", "140531.413000", "140531.416000", "140531.419000", "140531.422000", "140531.426000", "140531.429000", "140551.361000", "140551.365000", "140551.368000", "140551.371000", "140551.374000", "140551.378000", "140551.381000", "140551.384000", "140551.387000", "140551.391000", "140551.394000", "140551.397000", "140551.400000", "140551.404000", "140551.407000", "140551.410000", "140551.413000", "140551.417000", "140551.420000", "140551.423000", "140611.360000", "140611.364000", "140611.367000", "140611.370000", "140611.373000", "140611.377000", "140611.380000", "140611.383000", "140611.387000", "140611.390000", "140611.394000", "140611.397000", "140611.400000", "140611.404000", "140611.407000", "140611.410000", "140611.413000", "140611.417000", "140611.420000", "140611.423000", "140651.360000", "140651.364000", "140651.367000", "140651.370000", "140651.374000", "140651.377000", "140651.380000", "140651.383000", "140651.387000", "140651.390000", "140651.393000", "140651.397000", "140651.400000", "140651.403000", "140651.406000", "140651.410000", "140651.413000", "140651.416000", "140651.419000", "140651.423000", "140651.426000", "140651.429000", "140651.432000", "140651.436000", "140651.439000", "140651.442000", "140651.445000", "140651.449000", "140651.452000", "140651.455000", "140731.361000", "140731.365000", "140731.368000", "140731.371000", "140731.375000", "140731.378000", "140731.382000", "140731.385000", "140731.388000", "140731.391000", "140731.395000", "140731.398000", "140731.401000", "140731.419000", "140731.422000", "140731.425000", "140731.429000", "140731.432000", "140731.435000", "140731.438000", "140731.442000", "140731.445000", "140731.449000", "140731.452000", "140731.455000", "140731.458000", "140731.462000", "140811.361000", "140811.365000", "140811.368000", "140811.372000", "140811.375000", "140811.378000", "140811.382000", "140811.385000", "140811.388000", "140811.392000", "140811.395000", "140811.398000", "140811.402000", "140811.405000", "140811.408000", "140811.412000", "140811.415000", "140811.418000", "140811.422000", "140811.425000", "140811.428000", "140811.431000", "140811.435000", "140811.438000", "140811.441000", "140811.445000", "140811.448000", "140828.519000", "140828.522000", "140828.526000", "140828.529000", "140828.537000", "140828.540000", "140828.543000", "140828.547000", "140828.550000", "140828.553000", "140828.557000", "140828.560000"],
      "InstanceNumber": [1, 2, 3, 4, 5, 6, 7, 8, 9, 10, 11, 12, 13, 14, 15, 16, 17, 18, 19, 20, 21, 22, 23, 24, 25, 26, 27, 28, 29, 30, 31, 32, 33, 34, 35, 36, 37, 38, 39, 40, 41, 42, 43, 44, 45, 46, 47, 48, 49, 50, 51, 52, 53, 54, 55, 56, 57, 58, 59, 60, 61, 62, 63, 64, 65, 66, 67, 68, 69, 70, 71, 72, 73, 74, 75, 76, 77, 78, 79, 80, 81, 82, 83, 84, 85, 86, 87, 88, 89, 90, 91, 92, 93, 94, 95, 96, 97, 98, 99, 100, 101, 102, 103, 104, 105, 106, 107, 108, 109, 110, 111, 112, 113, 114, 115, 116, 117, 118, 119, 120, 121, 122, 123, 124, 125, 126, 127, 128, 129, 130, 131, 132, 133, 134, 135, 136, 137, 138, 139, 140, 141, 142, 143, 144, 145, 146, 147, 148, 149, 150, 151, 152, 153, 154, 155, 156, 157, 158, 159, 160, 161, 162, 163, 164, 165, 166, 167, 168, 169, 170, 171, 172, 173, 174, 175, 176, 177, 178, 179, 180, 181, 182, 183, 184, 185, 186, 187, 188, 189, 190],
      "LargestImagePixelValue": [41260, 40382, 39790, 39033, 38716, 38978, 39003, 39298, 39242, 38877, 39316, 39089, 39196, 39431, 39683, 39451, 39257, 39632, 39263, 39295, 39548, 39356, 39516, 39561, 39596, 39363, 39756, 39840, 39728, 39353, 39420, 39507, 39817, 39226, 39432, 38957, 38959, 39461, 39249, 39360, 39076, 39373, 39638, 39679, 39639, 39438, 39460, 39240, 39172, 39514, 39400, 39203, 39533, 39467, 39481, 39406, 39028, 39623, 39419, 39634, 39566, 39589, 39013, 39355, 39133, 39405, 39268, 39571, 39419, 38904, 39783, 39574, 39163, 38825, 39030, 39036, 38914, 39508, 38841, 38934, 39172, 39197, 39422, 38772, 39321, 39427, 39239, 39384, 39407, 39361, 39284, 39179, 39390, 38896, 39406, 39352, 39475, 38810, 38753, 39455, 39854, 39054, 39352, 39665, 39580, 39118, 39113, 39454, 39179, 39491, 39347, 39656, 39469, 39328, 39023, 38884, 39519, 39911, 39487, 39372, 39154, 39227, 39268, 39316, 38958, 38576, 39345, 39152, 39336, 39173, 39456, 39555, 39460, 39323, 39195, 39808, 39790, 39528, 38962, 39656, 39310, 39484, 39189, 39170, 39112, 39277, 39133, 39228, 39305, 39711, 39523, 39427, 39525, 39504, 39219, 39110, 39510, 39699, 39184, 38634, 39610, 39063, 39146, 39449, 39190, 39413, 39503, 39304, 39387, 39293, 39236, 39232, 39231, 38856, 39103, 39344, 39188, 39137, 39199, 39223, 38935, 39157, 39415, 39261, 39284, 39298, 39264, 39389, 38876, 39659],
      "WindowCenter": [10126.0, 10064.0, 10016.0, 9982.0, 9969.0, 9984.0, 9990.0, 10007.0, 10028.0, 10036.0, 10059.0, 10080.0, 10091.0, 10099.0, 10109.0, 10080.0, 10098.0, 10107.0, 10115.0, 10113.0, 10110.0, 10093.0, 10097.0, 10096.0, 10107.0, 10103.0, 10102.0, 10088.0, 10078.0, 10086.0, 10116.0, 10101.0, 10089.0, 10071.0, 10063.0, 10063.0, 10073.0, 10072.0, 10063.0, 10061.0, 10072.0, 10082.0, 10080.0, 10081.0, 10097.0, 10099.0, 10099.0, 10082.0, 10065.0, 10061.0, 10076.0, 10098.0, 10096.0, 10085.0, 10074.0, 10062.0, 10056.0, 10071.0, 10070.0, 10081.0, 10093.0, 10080.0, 10083.0, 10081.0, 10065.0, 10072.0, 10091.0, 10081.0, 10082.0, 10077.0, 10098.0, 10074.0, 10048.0, 10032.0, 10038.0, 10069.0, 10066.0, 10083.0, 10067.0, 10058.0, 10040.0, 10038.0, 10026.0, 10041.0, 10072.0, 10075.0, 10047.0, 10046.0, 10060.0, 10073.0, 10082.0, 10102.0, 10103.0, 10086.0, 10067.0, 10058.0, 10071.0, 10082.0, 10078.0, 10075.0, 10110.0, 10063.0, 10075.0, 10074.0, 10073.0, 10058.0, 10057.0, 10072.0, 10075.0, 10083.0, 10074.0, 10084.0, 10054.0, 10080.0, 10092.0, 10085.0, 10069.0, 10083.0, 10054.0, 10071.0, 10081.0, 10067.0, 10056.0, 10057.0, 10037.0, 10039.0, 10061.0, 10099.0, 10119.0, 10069.0, 10057.0, 10071.0, 10065.0, 10072.0, 10068.0, 10054.0, 10053.0, 10055.0, 10056.0, 10070.0, 10085.0, 10102.0, 10065.0, 10059.0, 10050.0, 10055.0, 10054.0, 10045.0, 10069.0, 10097.0, 10091.0, 10070.0, 10058.0, 10040.0, 10047.0, 10049.0, 10046.0, 10061.0, 10065.0, 10053.0, 10054.0, 10048.0, 10040.0, 10066.0, 10045.0, 10087.0, 10101.0, 10102.0, 10092.0, 10062.0, 10042.0, 10023.0, 10025.0, 10038.0, 10029.0, 10027.0, 10020.0, 10022.0, 10005.0, 10019.0, 10031.0, 10039.0, 10047.0, 10046.0, 10053.0, 10071.0, 10087.0, 10080.0, 10064.0, 10054.0],
      "WindowWidth": [21570.0, 21408.0, 21285.0, 21203.0, 21169.0, 21201.0, 21212.0, 21251.0, 21302.0, 21321.0, 21369.0, 21417.0, 21445.0, 21461.0, 21484.0, 21417.0, 21461.0, 21482.0, 21498.0, 21499.0, 21491.0, 21453.0, 21458.0, 21456.0, 21482.0, 21474.0, 21468.0, 21433.0, 21409.0, 21430.0, 21502.0, 21466.0, 21433.0, 21391.0, 21377.0, 21378.0, 21402.0, 21399.0, 21378.0, 21372.0, 21399.0, 21421.0, 21415.0, 21419.0, 21457.0, 21460.0, 21458.0, 21420.0, 21380.0, 21371.0, 21404.0, 21460.0, 21453.0, 21430.0, 21403.0, 21373.0, 21358.0, 21392.0, 21393.0, 21419.0, 21448.0, 21415.0, 21423.0, 21416.0, 21383.0, 21397.0, 21442.0, 21419.0, 21421.0, 21410.0, 21455.0, 21402.0, 21341.0, 21307.0, 21320.0, 21390.0, 21387.0, 21425.0, 21390.0, 21367.0, 21323.0, 21321.0, 21291.0, 21330.0, 21398.0, 21407.0, 21340.0, 21337.0, 21368.0, 21401.0, 21423.0, 21472.0, 21471.0, 21427.0, 21384.0, 21364.0, 21393.0, 21423.0, 21415.0, 21405.0, 21485.0, 21378.0, 21405.0, 21400.0, 21398.0, 21365.0, 21363.0, 21399.0, 21406.0, 21422.0, 21402.0, 21427.0, 21356.0, 21418.0, 21445.0, 21430.0, 21391.0, 21421.0, 21353.0, 21390.0, 21415.0, 21382.0, 21355.0, 21360.0, 21314.0, 21323.0, 21371.0, 21460.0, 21506.0, 21392.0, 21360.0, 21392.0, 21383.0, 21398.0, 21390.0, 21354.0, 21351.0, 21358.0, 21360.0, 21390.0, 21429.0, 21468.0, 21379.0, 21368.0, 21348.0, 21358.0, 21354.0, 21338.0, 21389.0, 21455.0, 21439.0, 21392.0, 21363.0, 21324.0, 21339.0, 21347.0, 21336.0, 21369.0, 21380.0, 21356.0, 21354.0, 21342.0, 21323.0, 21384.0, 21337.0, 21431.0, 21467.0, 21466.0, 21442.0, 21378.0, 21330.0, 21286.0, 21288.0, 21318.0, 21297.0, 21292.0, 21275.0, 21284.0, 21247.0, 21276.0, 21305.0, 21323.0, 21339.0, 21337.0, 21351.0, 21395.0, 21430.0, 21415.0, 21376.0, 21353.0]
    },
    "slices": {}
  }
}