{
  "AcquisitionMatrixPE": 104,
  "AcquisitionNumber": 1,
  "AcquisitionTime": "13:57:36.567500",
  "BandwidthPerPixelPhaseEncode": 17.17,
  "BaseResolution": 104,
  "BodyPartExamined": "BRAIN",
  "CoilString": "HC1-7;NC1_2",
  "ConsistencyInfo": "N4_VE11C_LATEST_20160120",
  "ConversionSoftware": "dcm2niix",
  "ConversionSoftwareVersion": "v1.0.20190902",
  "DerivedVendorReportedEchoSpacing": 0.000560011,
  "DeviceSerialNumber": "167006",
  "DwellTime": 2.1e-06,
  "EchoTime": 0.037,
  "EchoTrainLength": 104,
  "EffectiveEchoSpacing": 0.000560011,
  "FlipAngle": 52,
  "ImageComments": "Unaliased_MB4_PE3_LB",
  "ImageOrientationPatientDICOM": [0.999808, 0.00477727, 0.0190055, 0.0001745, 0.967622, -0.252404],
  "ImageType": [
    "ORIGINAL",
    "PRIMARY",
    "M",
    "MB",
    "ND",
    "MOSAIC"
],
  "ImagingFrequency": 123.259,
  "InPlanePhaseEncodingDirectionDICOM": "COL",
  "InstitutionAddress": "Chemin_Queen-Mary_4565_Montreal_District_CA_H3W_1W5",
  "InstitutionName": "IUGM",
  "InstitutionalDepartmentName": "Department",
  "MRAcquisitionType": "2D",
  "MagneticFieldStrength": 3,
  "Manufacturer": "Siemens",
  "ManufacturersModelName": "Prisma_fit",
  "Modality": "MR",
  "MultibandAccelerationFactor": 4,
  "PartialFourier": 1,
  "PatientPosition": "HFS",
  "PercentPhaseFOV": 100,
  "PhaseEncodingDirection": "j",
  "PhaseEncodingSteps": 104,
  "PhaseResolution": 1,
  "PixelBandwidth": 2290,
  "ProcedureStepDescription": "memory_things",
  "ProtocolName": "func_task-things_run-5",
  "PulseSequenceDetails": "%CustomerSeq%_cmrr_mbep2d_bold",
  "ReceiveCoilActiveElements": "HC1-7;NC1,2",
  "ReceiveCoilName": "HeadNeck_64",
  "ReconMatrixPE": 104,
  "RepetitionTime": 1.49,
  "SAR": 0.0483908,
  "ScanOptions": "FS",
  "ScanningSequence": "EP",
  "SequenceName": "epfid2d1_104",
  "SequenceVariant": "SK_SS",
  "SeriesDescription": "func_task-things_run-5",
  "SeriesNumber": 22,
  "ShimSetting": [634, -7210, -8764, 717, 51, 20, 54, -10],
  "SliceThickness": 2,
  "SliceTiming": [0, 0.785, 0.0975, 0.8825, 0.195, 0.98, 0.295, 1.0775, 0.3925, 1.175, 0.49, 1.275, 0.5875, 1.3725, 0.685, 0, 0.785, 0.0975, 0.8825, 0.195, 0.98, 0.295, 1.0775, 0.3925, 1.175, 0.49, 1.275, 0.5875, 1.3725, 0.685, 0, 0.785, 0.0975, 0.8825, 0.195, 0.98, 0.295, 1.0775, 0.3925, 1.175, 0.49, 1.275, 0.5875, 1.3725, 0.685, 0, 0.785, 0.0975, 0.8825, 0.195, 0.98, 0.295, 1.0775, 0.3925, 1.175, 0.49, 1.275, 0.5875, 1.3725, 0.685],
  "SoftwareVersions": "syngo_MR_E11",
  "SpacingBetweenSlices": 2,
  "StationName": "MRC35049",
  "TaskName": "things",
  "TotalReadoutTime": 0.0576811,
  "TxRefAmp": 233.671,
  "WipMemBlock": "15e83939-3350-4a54-8f0c-2c180f4f2c48||Sequence: R016 ve11c/master r/e634e98; Dec 19 2017 11:00:25 by eja",
  "dcmmeta_affine": [
    [-1.9996159076690674, 0.0003490002709440887, 0.039191823452711105, 108.1073226928711],
    [-0.009554533287882805, 1.9352439641952515, -0.5047174692153931, -74.38790130615234],
    [0.038010939955711365, 0.5048077702522278, 1.9348706007003784, -58.15380859375],
    [0.0, 0.0, 0.0, 1.0]
],
  "dcmmeta_reorient_transform": [
    [0.0, -1.0, 0.0, 103.0],
    [1.0, 0.0, 0.0, 0.0],
    [0.0, 0.0, 1.0, 0.0],
    [0.0, 0.0, 0.0, 1.0]
],
  "dcmmeta_shape": [104, 104, 60, 190],
  "dcmmeta_slice_dim": 2,
  "dcmmeta_version": 0.6,
  "global": {
    "const": {
      "AcquisitionMatrix": [104, 0, 0, 104],
      "AngioFlag": "N",
      "BitsAllocated": 16,
      "BitsStored": 16,
      "BodyPartExamined": "BRAIN",
      "Columns": 832,
      "EchoNumbers": 1,
      "EchoTime": 37.0,
      "EchoTrainLength": 104,
      "FlipAngle": 52.0,
      "HighBit": 15,
      "ImageOrientationPatient": [0.99980796646558, 0.00477726643656, 0.01900547072179, 0.00017450013683, 0.96762195696734, -0.2524038786239],
      "ImagePositionPatient": [-836.13050613106, -832.84885414365, 163.75543039167],
      "ImageType": [
        "ORIGINAL",
        "PRIMARY",
        "M",
        "MB",
        "ND",
        "MOSAIC"
],
      "ImagedNucleus": "1H",
      "ImagingFrequency": 123.258924,
      "InPlanePhaseEncodingDirection": "COL",
      "MRAcquisitionType": "2D",
      "MagneticFieldStrength": 3.0,
      "Manufacturer": "SIEMENS",
      "ManufacturerModelName": "Prisma_fit",
      "Modality": "MR",
      "NumberOfAverages": 1.0,
      "NumberOfPhaseEncodingSteps": 104,
      "PercentPhaseFieldOfView": 100.0,
      "PercentSampling": 100.0,
      "PerformedProcedureStepStartTime": "125811.868000",
      "PhotometricInterpretation": "MONOCHROME2",
      "PixelBandwidth": 2290.0,
      "PixelRepresentation": 0,
      "PixelSpacing": [2.0, 2.0],
      "ProtocolName": "func_task-things_run-5",
      "RepetitionTime": 1490.0,
      "Rows": 832,
      "SAR": 0.04839084328241,
      "SamplesPerPixel": 1,
      "ScanOptions": "FS",
      "ScanningSequence": "EP",
      "SequenceName": "epfid2d1_104",
      "SequenceVariant": [
        "SK",
        "SS"
],
      "SeriesDescription": "func_task-things_run-5",
      "SeriesNumber": 22,
      "SeriesTime": "135846.498000",
      "SliceLocation": -35.369150583078,
      "SliceThickness": 2.0,
      "SmallestImagePixelValue": 0,
      "SoftwareVersions": "syngo MR E11",
      "SpacingBetweenSlices": 1.9999999579229,
      "SpecificCharacterSet": "ISO_IR 100",
      "StudyID": "1",
      "StudyTime": "125811.763000",
      "TransmitCoilName": "Body",
      "VariableFlipAngleFlag": "N",
      "WindowCenterWidthExplanation": "Algo1",
      "dBdt": 0.0},
    "slices": {}
  },
  "time": {
    "samples": {
      "AcquisitionNumber": [1, 2, 3, 4, 5, 6, 7, 8, 9, 10, 11, 12, 13, 14, 15, 16, 17, 18, 19, 20, 21, 22, 23, 24, 25, 26, 27, 28, 29, 30, 31, 32, 33, 34, 35, 36, 37, 38, 39, 40, 41, 42, 43, 44, 45, 46, 47, 48, 49, 50, 51, 52, 53, 54, 55, 56, 57, 58, 59, 60, 61, 62, 63, 64, 65, 66, 67, 68, 69, 70, 71, 72, 73, 74, 75, 76, 77, 78, 79, 80, 81, 82, 83, 84, 85, 86, 87, 88, 89, 90, 91, 92, 93, 94, 95, 96, 97, 98, 99, 100, 101, 102, 103, 104, 105, 106, 107, 108, 109, 110, 111, 112, 113, 114, 115, 116, 117, 118, 119, 120, 121, 122, 123, 124, 125, 126, 127, 128, 129, 130, 131, 132, 133, 134, 135, 136, 137, 138, 139, 140, 141, 142, 143, 144, 145, 146, 147, 148, 149, 150, 151, 152, 153, 154, 155, 156, 157, 158, 159, 160, 161, 162, 163, 164, 165, 166, 167, 168, 169, 170, 171, 172, 173, 174, 175, 176, 177, 178, 179, 180, 181, 182, 183, 184, 185, 186, 187, 188, 189, 190],
      "AcquisitionTime": ["135736.567500", "135738.057500", "135739.547500", "135741.037500", "135742.527500", "135744.017500", "135745.507500", "135746.997500", "135748.487500", "135749.977500", "135751.467500", "135752.957500", "135754.447500", "135755.937500", "135757.427500", "135758.917500", "135800.407500", "135801.897500", "135803.387500", "135804.877500", "135806.367500", "135807.857500", "135809.347500", "135810.837500", "135812.327500", "135813.817500", "135815.307500", "135816.797500", "135818.287500", "135819.777500", "135821.267500", "135822.757500", "135824.247500", "135825.737500", "135827.227500", "135828.717500", "135830.207500", "135831.697500", "135833.187500", "135834.677500", "135836.167500", "135837.657500", "135839.147500", "135840.637500", "135842.127500", "135843.617500", "135845.107500", "135846.597500", "135848.087500", "135849.577500", "135851.067500", "135852.557500", "135854.047500", "135855.537500", "135857.027500", "135858.517500", "135900.007500", "135901.497500", "135902.987500", "135904.477500", "135905.967500", "135907.457500", "135908.947500", "135910.437500", "135911.927500", "135913.417500", "135914.907500", "135916.397500", "135917.887500", "135919.377500", "135920.867500", "135922.357500", "135923.847500", "135925.337500", "135926.827500", "135928.317500", "135929.807500", "135931.297500", "135932.787500", "135934.277500", "135935.767500", "135937.257500", "135938.747500", "135940.237500", "135941.727500", "135943.217500", "135944.707500", "135946.197500", "135947.687500", "135949.177500", "135950.667500", "135952.157500", "135953.647500", "135955.137500", "135956.627500", "135958.117500", "135959.607500", "140001.097500", "140002.587500", "140004.077500", "140005.567500", "140007.057500", "140008.547500", "140010.037500", "140011.527500", "140013.017500", "140014.507500", "140015.997500", "140017.487500", "140018.977500", "140020.467500", "140021.957500", "140023.447500", "140024.937500", "140026.427500", "140027.917500", "140029.407500", "140030.897500", "140032.387500", "140033.877500", "140035.367500", "140036.857500", "140038.347500", "140039.837500", "140041.327500", "140042.817500", "140044.307500", "140045.797500", "140047.287500", "140048.777500", "140050.267500", "140051.757500", "140053.247500", "140054.737500", "140056.227500", "140057.717500", "140059.207500", "140100.697500", "140102.187500", "140103.677500", "140105.167500", "140106.657500", "140108.147500", "140109.637500", "140111.127500", "140112.617500", "140114.107500", "140115.597500", "140117.087500", "140118.577500", "140120.067500", "140121.557500", "140123.047500", "140124.537500", "140126.027500", "140127.517500", "140129.007500", "140130.497500", "140131.987500", "140133.477500", "140134.967500", "140136.457500", "140137.947500", "140139.437500", "140140.927500", "140142.417500", "140143.907500", "140145.397500", "140146.887500", "140148.377500", "140149.867500", "140151.357500", "140152.847500", "140154.337500", "140155.827500", "140157.317500", "140158.807500", "140200.297500", "140201.787500", "140203.277500", "140204.767500", "140206.257500", "140207.747500", "140209.237500", "140210.727500", "140212.217500", "140213.707500", "140215.197500", "140216.687500", "140218.177500"],
      "ContentTime": ["135846.502000", "135846.506000", "135846.509000", "135846.512000", "135846.515000", "135846.519000", "135846.522000", "135846.533000", "135846.536000", "135846.540000", "135846.543000", "135846.546000", "135846.549000", "135846.553000", "135846.556000", "135846.560000", "135906.455000", "135906.459000", "135906.462000", "135906.465000", "135906.469000", "135906.472000", "135906.475000", "135906.479000", "135906.482000", "135906.485000", "135906.489000", "135906.492000", "135906.495000", "135906.498000", "135906.502000", "135906.505000", "135906.508000", "135906.512000", "135906.515000", "135906.518000", "135926.455000", "135926.459000", "135926.475000", "135926.479000", "135926.482000", "135926.485000", "135926.489000", "135926.492000", "135926.495000", "135926.499000", "135926.503000", "135926.506000", "135926.509000", "135926.513000", "135926.516000", "135926.519000", "135926.522000", "135926.526000", "135926.529000", "135926.532000", "135946.455000", "135946.459000", "135946.462000", "135946.466000", "135946.469000", "135946.472000", "135946.475000", "135946.479000", "135946.482000", "135946.485000", "135946.489000", "135946.492000", "135946.495000", "135946.498000", "135946.502000", "135946.505000", "135946.508000", "135946.512000", "135946.515000", "135946.518000", "140006.454000", "140006.458000", "140006.461000", "140006.464000", "140006.468000", "140006.471000", "140006.474000", "140006.477000", "140006.481000", "140006.484000", "140006.487000", "140006.490000", "140006.494000", "140006.497000", "140006.500000", "140006.503000", "140006.507000", "140006.510000", "140006.513000", "140006.516000", "140006.520000", "140046.454000", "140046.458000", "140046.461000", "140046.464000", "140046.468000", "140046.471000", "140046.474000", "140046.478000", "140046.481000", "140046.484000", "140046.488000", "140046.491000", "140046.494000", "140046.497000", "140046.501000", "140046.504000", "140046.507000", "140046.511000", "140046.514000", "140046.517000", "140046.520000", "140046.524000", "140046.527000", "140046.530000", "140046.540000", "140046.544000", "140046.547000", "140046.550000", "140046.554000", "140046.557000", "140126.455000", "140126.459000", "140126.462000", "140126.466000", "140126.470000", "140126.473000", "140126.477000", "140126.480000", "140126.485000", "140126.500000", "140126.504000", "140126.507000", "140126.518000", "140126.521000", "140126.525000", "140126.528000", "140126.532000", "140126.536000", "140126.540000", "140126.543000", "140126.547000", "140126.550000", "140126.554000", "140126.557000", "140126.561000", "140126.565000", "140206.455000", "140206.459000", "140206.462000", "140206.466000", "140206.469000", "140206.484000", "140206.487000", "140206.490000", "140206.493000", "140206.497000", "140206.500000", "140206.503000", "140206.507000", "140206.510000", "140206.513000", "140206.516000", "140206.520000", "140206.523000", "140206.526000", "140206.530000", "140206.533000", "140206.536000", "140206.539000", "140206.543000", "140206.546000", "140206.550000", "140206.553000", "140220.334000", "140220.338000", "140220.342000", "140220.345000", "140220.348000", "140220.352000", "140220.355000", "140220.359000", "140220.363000", "140220.366000"],
      "InstanceCreationTime": ["135846.502000", "135846.506000", "135846.509000", "135846.512000", "135846.515000", "135846.519000", "135846.522000", "135846.533000", "135846.536000", "135846.540000", "135846.543000", "135846.546000", "135846.549000", "135846.553000", "135846.556000", "135846.560000", "135906.455000", "135906.459000", "135906.462000", "135906.465000", "135906.469000", "135906.472000", "135906.475000", "135906.479000", "135906.482000", "135906.485000", "135906.489000", "135906.492000", "135906.495000", "135906.498000", "135906.502000", "135906.505000", "135906.508000", "135906.512000", "135906.515000", "135906.518000", "135926.455000", "135926.459000", "135926.475000", "135926.479000", "135926.482000", "135926.485000", "135926.489000", "135926.492000", "135926.495000", "135926.499000", "135926.503000", "135926.506000", "135926.509000", "135926.513000", "135926.516000", "135926.519000", "135926.522000", "135926.526000", "135926.529000", "135926.532000", "135946.455000", "135946.459000", "135946.462000", "135946.466000", "135946.469000", "135946.472000", "135946.475000", "135946.479000", "135946.482000", "135946.485000", "135946.489000", "135946.492000", "135946.495000", "135946.498000", "135946.502000", "135946.505000", "135946.508000", "135946.512000", "135946.515000", "135946.518000", "140006.454000", "140006.458000", "140006.461000", "140006.464000", "140006.468000", "140006.471000", "140006.474000", "140006.477000", "140006.481000", "140006.484000", "140006.487000", "140006.490000", "140006.494000", "140006.497000", "140006.500000", "140006.503000", "140006.507000", "140006.510000", "140006.513000", "140006.516000", "140006.520000", "140046.454000", "140046.458000", "140046.461000", "140046.464000", "140046.468000", "140046.471000", "140046.474000", "140046.478000", "140046.481000", "140046.484000", "140046.488000", "140046.491000", "140046.494000", "140046.497000", "140046.501000", "140046.504000", "140046.507000", "140046.511000", "140046.514000", "140046.517000", "140046.520000", "140046.524000", "140046.527000", "140046.530000", "140046.540000", "140046.544000", "140046.547000", "140046.550000", "140046.554000", "140046.557000", "140126.455000", "140126.459000", "140126.462000", "140126.466000", "140126.470000", "140126.473000", "140126.477000", "140126.480000", "140126.485000", "140126.500000", "140126.504000", "140126.507000", "140126.518000", "140126.521000", "140126.525000", "140126.528000", "140126.532000", "140126.536000", "140126.540000", "140126.543000", "140126.547000", "140126.550000", "140126.554000", "140126.557000", "140126.561000", "140126.565000", "140206.455000", "140206.459000", "140206.462000", "140206.466000", "140206.469000", "140206.484000", "140206.487000", "140206.490000", "140206.493000", "140206.497000", "140206.500000", "140206.503000", "140206.507000", "140206.510000", "140206.513000", "140206.516000", "140206.520000", "140206.523000", "140206.526000", "140206.530000", "140206.533000", "140206.536000", "140206.539000", "140206.543000", "140206.546000", "140206.550000", "140206.553000", "140220.334000", "140220.338000", "140220.342000", "140220.345000", "140220.348000", "140220.352000", "140220.355000", "140220.359000", "140220.363000", "140220.366000"],
      "InstanceNumber": [1, 2, 3, 4, 5, 6, 7, 8, 9, 10, 11, 12, 13, 14, 15, 16, 17, 18, 19, 20, 21, 22, 23, 24, 25, 26, 27, 28, 29, 30, 31, 32, 33, 34, 35, 36, 37, 38, 39, 40, 41, 42, 43, 44, 45, 46, 47, 48, 49, 50, 51, 52, 53, 54, 55, 56, 57, 58, 59, 60, 61, 62, 63, 64, 65, 66, 67, 68, 69, 70, 71, 72, 73, 74, 75, 76, 77, 78, 79, 80, 81, 82, 83, 84, 85, 86, 87, 88, 89, 90, 91, 92, 93, 94, 95, 96, 97, 98, 99, 100, 101, 102, 103, 104, 105, 106, 107, 108, 109, 110, 111, 112, 113, 114, 115, 116, 117, 118, 119, 120, 121, 122, 123, 124, 125, 126, 127, 128, 129, 130, 131, 132, 133, 134, 135, 136, 137, 138, 139, 140, 141, 142, 143, 144, 145, 146, 147, 148, 149, 150, 151, 152, 153, 154, 155, 156, 157, 158, 159, 160, 161, 162, 163, 164, 165, 166, 167, 168, 169, 170, 171, 172, 173, 174, 175, 176, 177, 178, 179, 180, 181, 182, 183, 184, 185, 186, 187, 188, 189, 190],
      "LargestImagePixelValue": [41782, 40307, 39655, 39083, 39342, 39108, 38995, 39133, 38785, 38947, 39059, 38945, 38429, 38593, 38937, 39239, 38792, 38978, 38844, 39060, 38906, 39214, 38982, 39074, 38627, 38791, 38874, 38518, 38788, 38932, 39149, 39013, 39100, 38950, 39619, 39202, 39082, 38869, 39264, 39064, 38839, 38596, 38892, 39341, 38574, 38531, 39153, 38861, 38833, 38858, 38675, 39087, 38775, 38906, 38858, 39084, 38904, 39112, 38721, 39157, 38934, 38806, 38653, 38723, 38551, 38422, 39153, 38826, 38754, 38948, 39012, 38866, 39037, 38869, 39033, 38431, 38778, 38775, 38923, 38942, 38715, 38573, 38882, 38792, 39012, 38859, 38898, 38784, 38853, 38670, 39269, 39101, 39474, 39152, 38942, 38828, 38636, 39488, 38984, 38592, 38526, 38962, 38695, 38713, 38642, 38556, 38865, 38640, 38749, 38768, 38890, 38511, 39030, 38943, 39184, 38652, 38846, 38684, 39307, 38848, 38400, 39185, 38978, 38995, 38560, 38525, 38907, 38565, 38983, 38471, 38636, 38706, 38977, 38900, 38698, 38643, 39004, 38853, 38620, 38577, 38852, 39068, 38733, 38926, 39352, 38950, 39041, 38703, 38901, 39248, 38577, 38822, 38738, 38229, 38873, 39067, 38702, 38673, 38841, 38982, 39682, 38892, 38896, 39079, 39215, 38725, 38537, 38536, 38584, 38961, 38617, 38830, 38881, 38997, 38618, 38673, 38844, 38911, 39251, 38976, 38872, 39075, 38790, 39484, 39099, 39349, 39274, 39011, 39024, 39231],
      "WindowCenter": [10152.0, 10086.0, 10039.0, 10011.0, 10001.0, 10014.0, 10032.0, 10026.0, 10008.0, 10016.0, 10033.0, 10052.0, 10039.0, 10030.0, 10011.0, 10023.0, 10027.0, 10033.0, 10036.0, 10037.0, 10060.0, 10068.0, 10080.0, 10090.0, 10075.0, 10051.0, 10039.0, 10030.0, 10059.0, 10080.0, 10083.0, 10081.0, 10072.0, 10055.0, 10059.0, 10061.0, 10070.0, 10073.0, 10089.0, 10080.0, 10058.0, 10049.0, 10064.0, 10060.0, 10062.0, 10056.0, 10055.0, 10039.0, 10031.0, 10037.0, 10054.0, 10064.0, 10058.0, 10054.0, 10064.0, 10072.0, 10063.0, 10047.0, 10013.0, 10011.0, 10022.0, 10033.0, 10045.0, 10054.0, 10049.0, 10046.0, 10064.0, 10044.0, 10055.0, 10081.0, 10054.0, 10048.0, 10035.0, 10027.0, 10050.0, 10054.0, 10064.0, 10056.0, 10061.0, 10062.0, 10058.0, 10035.0, 10029.0, 10027.0, 10018.0, 10027.0, 10053.0, 10047.0, 10046.0, 10047.0, 10053.0, 10062.0, 10062.0, 10071.0, 10072.0, 10075.0, 10082.0, 10062.0, 10037.0, 10011.0, 10002.0, 10007.0, 10016.0, 10034.0, 10043.0, 10048.0, 10043.0, 10047.0, 10056.0, 10064.0, 10070.0, 10059.0, 10070.0, 10055.0, 10045.0, 10054.0, 10054.0, 10064.0, 10078.0, 10074.0, 10058.0, 10046.0, 10021.0, 10025.0, 10025.0, 10029.0, 10037.0, 10037.0, 10043.0, 10046.0, 10044.0, 10044.0, 10045.0, 10052.0, 10039.0, 10039.0, 10046.0, 10046.0, 10047.0, 10049.0, 10049.0, 10056.0, 10041.0, 10032.0, 10028.0, 10044.0, 10072.0, 10075.0, 10059.0, 10039.0, 10011.0, 10018.0, 10043.0, 10049.0, 10071.0, 10057.0, 10047.0, 10032.0, 10027.0, 10035.0, 10068.0, 10091.0, 10085.0, 10058.0, 10038.0, 10012.0, 10011.0, 10021.0, 10028.0, 10037.0, 10041.0, 10037.0, 10046.0, 10052.0, 10065.0, 10066.0, 10074.0, 10067.0, 10066.0, 10064.0, 10058.0, 10068.0, 10077.0, 10080.0, 10071.0, 10047.0, 10043.0, 10043.0, 10052.0, 10051.0],
      "WindowWidth": [21628.0, 21461.0, 21340.0, 21271.0, 21245.0, 21272.0, 21312.0, 21297.0, 21255.0, 21275.0, 21314.0, 21360.0, 21330.0, 21308.0, 21264.0, 21285.0, 21299.0, 21312.0, 21322.0, 21324.0, 21372.0, 21390.0, 21421.0, 21443.0, 21409.0, 21355.0, 21328.0, 21309.0, 21373.0, 21424.0, 21433.0, 21424.0, 21404.0, 21366.0, 21371.0, 21376.0, 21397.0, 21407.0, 21440.0, 21419.0, 21371.0, 21353.0, 21386.0, 21375.0, 21379.0, 21368.0, 21363.0, 21326.0, 21309.0, 21323.0, 21360.0, 21385.0, 21373.0, 21359.0, 21385.0, 21401.0, 21380.0, 21341.0, 21267.0, 21262.0, 21284.0, 21312.0, 21342.0, 21361.0, 21353.0, 21344.0, 21384.0, 21340.0, 21365.0, 21423.0, 21359.0, 21346.0, 21316.0, 21299.0, 21348.0, 21360.0, 21385.0, 21364.0, 21373.0, 21376.0, 21372.0, 21321.0, 21305.0, 21298.0, 21279.0, 21300.0, 21358.0, 21349.0, 21344.0, 21346.0, 21358.0, 21378.0, 21379.0, 21403.0, 21403.0, 21411.0, 21423.0, 21375.0, 21316.0, 21259.0, 21240.0, 21249.0, 21273.0, 21313.0, 21335.0, 21350.0, 21335.0, 21349.0, 21368.0, 21385.0, 21397.0, 21374.0, 21393.0, 21361.0, 21338.0, 21358.0, 21360.0, 21384.0, 21413.0, 21406.0, 21368.0, 21339.0, 21284.0, 21291.0, 21292.0, 21305.0, 21322.0, 21324.0, 21336.0, 21345.0, 21337.0, 21336.0, 21338.0, 21351.0, 21325.0, 21323.0, 21337.0, 21339.0, 21342.0, 21349.0, 21349.0, 21361.0, 21328.0, 21308.0, 21297.0, 21336.0, 21398.0, 21406.0, 21367.0, 21319.0, 21258.0, 21275.0, 21329.0, 21348.0, 21394.0, 21366.0, 21339.0, 21308.0, 21294.0, 21313.0, 21387.0, 21443.0, 21428.0, 21365.0, 21317.0, 21258.0, 21260.0, 21283.0, 21298.0, 21319.0, 21330.0, 21319.0, 21339.0, 21353.0, 21385.0, 21388.0, 21404.0, 21388.0, 21386.0, 21381.0, 21367.0, 21391.0, 21413.0, 21416.0, 21393.0, 21337.0, 21327.0, 21328.0, 21350.0, 21345.0]
    },
    "slices": {}
  }
}