{
  "AcquisitionMatrixPE": 104,
  "AcquisitionNumber": 1,
  "AcquisitionTime": "13:51:26.345000",
  "BandwidthPerPixelPhaseEncode": 17.17,
  "BaseResolution": 104,
  "BodyPartExamined": "BRAIN",
  "CoilString": "HC1-7;NC1_2",
  "ConsistencyInfo": "N4_VE11C_LATEST_20160120",
  "ConversionSoftware": "dcm2niix",
  "ConversionSoftwareVersion": "v1.0.20190902",
  "DerivedVendorReportedEchoSpacing": 0.000560011,
  "DeviceSerialNumber": "167006",
  "DwellTime": 2.1e-06,
  "EchoTime": 0.037,
  "EchoTrainLength": 104,
  "EffectiveEchoSpacing": 0.000560011,
  "FlipAngle": 52,
  "ImageComments": "Unaliased_MB4_PE3_LB",
  "ImageOrientationPatientDICOM": [0.999808, 0.00477727, 0.0190055, 0.0001745, 0.967622, -0.252404],
  "ImageType": [
    "ORIGINAL",
    "PRIMARY",
    "M",
    "MB",
    "ND",
    "MOSAIC"
],
  "ImagingFrequency": 123.259,
  "InPlanePhaseEncodingDirectionDICOM": "COL",
  "InstitutionAddress": "Chemin_Queen-Mary_4565_Montreal_District_CA_H3W_1W5",
  "InstitutionName": "IUGM",
  "InstitutionalDepartmentName": "Department",
  "MRAcquisitionType": "2D",
  "MagneticFieldStrength": 3,
  "Manufacturer": "Siemens",
  "ManufacturersModelName": "Prisma_fit",
  "Modality": "MR",
  "MultibandAccelerationFactor": 4,
  "PartialFourier": 1,
  "PatientPosition": "HFS",
  "PercentPhaseFOV": 100,
  "PhaseEncodingDirection": "j",
  "PhaseEncodingSteps": 104,
  "PhaseResolution": 1,
  "PixelBandwidth": 2290,
  "ProcedureStepDescription": "memory_things",
  "ProtocolName": "func_task-things_run-4",
  "PulseSequenceDetails": "%CustomerSeq%_cmrr_mbep2d_bold",
  "ReceiveCoilActiveElements": "HC1-7;NC1,2",
  "ReceiveCoilName": "HeadNeck_64",
  "ReconMatrixPE": 104,
  "RepetitionTime": 1.49,
  "SAR": 0.0483908,
  "ScanOptions": "FS",
  "ScanningSequence": "EP",
  "SequenceName": "epfid2d1_104",
  "SequenceVariant": "SK_SS",
  "SeriesDescription": "func_task-things_run-4",
  "SeriesNumber": 19,
  "ShimSetting": [634, -7210, -8764, 717, 51, 20, 54, -10],
  "SliceThickness": 2,
  "SliceTiming": [0, 0.785, 0.0975, 0.8825, 0.195, 0.98, 0.295, 1.0775, 0.3925, 1.175, 0.49, 1.275, 0.5875, 1.3725, 0.685, 0, 0.785, 0.0975, 0.8825, 0.195, 0.98, 0.295, 1.0775, 0.3925, 1.175, 0.49, 1.275, 0.5875, 1.3725, 0.685, 0, 0.785, 0.0975, 0.8825, 0.195, 0.98, 0.295, 1.0775, 0.3925, 1.175, 0.49, 1.275, 0.5875, 1.3725, 0.685, 0, 0.785, 0.0975, 0.8825, 0.195, 0.98, 0.295, 1.0775, 0.3925, 1.175, 0.49, 1.275, 0.5875, 1.3725, 0.685],
  "SoftwareVersions": "syngo_MR_E11",
  "SpacingBetweenSlices": 2,
  "StationName": "MRC35049",
  "TaskName": "things",
  "TotalReadoutTime": 0.0576811,
  "TxRefAmp": 233.671,
  "WipMemBlock": "2c95d354-008d-4332-b020-b4aa4a035925||Sequence: R016 ve11c/master r/e634e98; Dec 19 2017 11:00:25 by eja",
  "dcmmeta_affine": [
    [-1.9996159076690674, 0.0003490002709440887, 0.039191823452711105, 108.1073226928711],
    [-0.009554533287882805, 1.9352439641952515, -0.5047174692153931, -74.38790130615234],
    [0.038010939955711365, 0.5048077702522278, 1.9348706007003784, -58.15380859375],
    [0.0, 0.0, 0.0, 1.0]
],
  "dcmmeta_reorient_transform": [
    [0.0, -1.0, 0.0, 103.0],
    [1.0, 0.0, 0.0, 0.0],
    [0.0, 0.0, 1.0, 0.0],
    [0.0, 0.0, 0.0, 1.0]
],
  "dcmmeta_shape": [104, 104, 60, 190],
  "dcmmeta_slice_dim": 2,
  "dcmmeta_version": 0.6,
  "global": {
    "const": {
      "AcquisitionMatrix": [104, 0, 0, 104],
      "AngioFlag": "N",
      "BitsAllocated": 16,
      "BitsStored": 16,
      "BodyPartExamined": "BRAIN",
      "Columns": 832,
      "EchoNumbers": 1,
      "EchoTime": 37.0,
      "EchoTrainLength": 104,
      "FlipAngle": 52.0,
      "HighBit": 15,
      "ImageOrientationPatient": [0.99980796646558, 0.00477726643656, 0.01900547072179, 0.00017450013683, 0.96762195696734, -0.2524038786239],
      "ImagePositionPatient": [-836.13050613106, -832.84885414365, 163.75543039167],
      "ImageType": [
        "ORIGINAL",
        "PRIMARY",
        "M",
        "MB",
        "ND",
        "MOSAIC"
],
      "ImagedNucleus": "1H",
      "ImagingFrequency": 123.25892,
      "InPlanePhaseEncodingDirection": "COL",
      "MRAcquisitionType": "2D",
      "MagneticFieldStrength": 3.0,
      "Manufacturer": "SIEMENS",
      "ManufacturerModelName": "Prisma_fit",
      "Modality": "MR",
      "NumberOfAverages": 1.0,
      "NumberOfPhaseEncodingSteps": 104,
      "PercentPhaseFieldOfView": 100.0,
      "PercentSampling": 100.0,
      "PerformedProcedureStepStartTime": "125811.868000",
      "PhotometricInterpretation": "MONOCHROME2",
      "PixelBandwidth": 2290.0,
      "PixelRepresentation": 0,
      "PixelSpacing": [2.0, 2.0],
      "ProtocolName": "func_task-things_run-4",
      "RepetitionTime": 1490.0,
      "Rows": 832,
      "SAR": 0.04839084328241,
      "SamplesPerPixel": 1,
      "ScanOptions": "FS",
      "ScanningSequence": "EP",
      "SequenceName": "epfid2d1_104",
      "SequenceVariant": [
        "SK",
        "SS"
],
      "SeriesDescription": "func_task-things_run-4",
      "SeriesNumber": 19,
      "SeriesTime": "135246.864000",
      "SliceLocation": -35.369150583078,
      "SliceThickness": 2.0,
      "SmallestImagePixelValue": 0,
      "SoftwareVersions": "syngo MR E11",
      "SpacingBetweenSlices": 1.9999999579229,
      "SpecificCharacterSet": "ISO_IR 100",
      "StudyID": "1",
      "StudyTime": "125811.763000",
      "TransmitCoilName": "Body",
      "VariableFlipAngleFlag": "N",
      "WindowCenterWidthExplanation": "Algo1",
      "dBdt": 0.0},
    "slices": {}
  },
  "time": {
    "samples": {
      "AcquisitionNumber": [1, 2, 3, 4, 5, 6, 7, 8, 9, 10, 11, 12, 13, 14, 15, 16, 17, 18, 19, 20, 21, 22, 23, 24, 25, 26, 27, 28, 29, 30, 31, 32, 33, 34, 35, 36, 37, 38, 39, 40, 41, 42, 43, 44, 45, 46, 47, 48, 49, 50, 51, 52, 53, 54, 55, 56, 57, 58, 59, 60, 61, 62, 63, 64, 65, 66, 67, 68, 69, 70, 71, 72, 73, 74, 75, 76, 77, 78, 79, 80, 81, 82, 83, 84, 85, 86, 87, 88, 89, 90, 91, 92, 93, 94, 95, 96, 97, 98, 99, 100, 101, 102, 103, 104, 105, 106, 107, 108, 109, 110, 111, 112, 113, 114, 115, 116, 117, 118, 119, 120, 121, 122, 123, 124, 125, 126, 127, 128, 129, 130, 131, 132, 133, 134, 135, 136, 137, 138, 139, 140, 141, 142, 143, 144, 145, 146, 147, 148, 149, 150, 151, 152, 153, 154, 155, 156, 157, 158, 159, 160, 161, 162, 163, 164, 165, 166, 167, 168, 169, 170, 171, 172, 173, 174, 175, 176, 177, 178, 179, 180, 181, 182, 183, 184, 185, 186, 187, 188, 189, 190],
      "AcquisitionTime": ["135126.345000", "135127.835000", "135129.325000", "135130.815000", "135132.305000", "135133.795000", "135135.285000", "135136.775000", "135138.265000", "135139.755000", "135141.245000", "135142.735000", "135144.225000", "135145.715000", "135147.205000", "135148.695000", "135150.185000", "135151.675000", "135153.165000", "135154.655000", "135156.145000", "135157.635000", "135159.125000", "135200.615000", "135202.105000", "135203.595000", "135205.085000", "135206.575000", "135208.065000", "135209.555000", "135211.045000", "135212.535000", "135214.025000", "135215.515000", "135217.005000", "135218.495000", "135219.985000", "135221.475000", "135222.965000", "135224.455000", "135225.945000", "135227.435000", "135228.925000", "135230.415000", "135231.905000", "135233.395000", "135234.885000", "135236.375000", "135237.865000", "135239.355000", "135240.845000", "135242.335000", "135243.825000", "135245.315000", "135246.805000", "135248.295000", "135249.785000", "135251.275000", "135252.765000", "135254.255000", "135255.745000", "135257.235000", "135258.725000", "135300.215000", "135301.705000", "135303.195000", "135304.685000", "135306.175000", "135307.665000", "135309.155000", "135310.645000", "135312.135000", "135313.625000", "135315.115000", "135316.605000", "135318.095000", "135319.585000", "135321.075000", "135322.565000", "135324.055000", "135325.545000", "135327.035000", "135328.525000", "135330.015000", "135331.505000", "135332.995000", "135334.485000", "135335.975000", "135337.465000", "135338.955000", "135340.445000", "135341.935000", "135343.425000", "135344.915000", "135346.405000", "135347.895000", "135349.385000", "135350.875000", "135352.365000", "135353.855000", "135355.345000", "135356.835000", "135358.325000", "135359.815000", "135401.305000", "135402.795000", "135404.285000", "135405.775000", "135407.265000", "135408.755000", "135410.245000", "135411.735000", "135413.225000", "135414.715000", "135416.205000", "135417.695000", "135419.185000", "135420.675000", "135422.165000", "135423.655000", "135425.145000", "135426.635000", "135428.125000", "135429.615000", "135431.105000", "135432.595000", "135434.085000", "135435.575000", "135437.065000", "135438.555000", "135440.045000", "135441.535000", "135443.025000", "135444.515000", "135446.005000", "135447.495000", "135448.985000", "135450.475000", "135451.965000", "135453.455000", "135454.945000", "135456.435000", "135457.925000", "135459.415000", "135500.905000", "135502.395000", "135503.885000", "135505.375000", "135506.865000", "135508.355000", "135509.845000", "135511.335000", "135512.825000", "135514.315000", "135515.805000", "135517.295000", "135518.785000", "135520.275000", "135521.765000", "135523.255000", "135524.745000", "135526.235000", "135527.725000", "135529.215000", "135530.705000", "135532.195000", "135533.685000", "135535.175000", "135536.665000", "135538.155000", "135539.645000", "135541.135000", "135542.625000", "135544.115000", "135545.605000", "135547.095000", "135548.585000", "135550.075000", "135551.565000", "135553.055000", "135554.545000", "135556.035000", "135557.525000", "135559.015000", "135600.505000", "135601.995000", "135603.485000", "135604.975000", "135606.465000", "135607.955000"],
      "ContentTime": ["135246.867000", "135246.872000", "135246.875000", "135246.879000", "135246.882000", "135246.886000", "135246.889000", "135246.892000", "135246.896000", "135246.899000", "135246.902000", "135246.906000", "135246.909000", "135246.912000", "135246.916000", "135246.919000", "135246.922000", "135246.926000", "135246.929000", "135246.932000", "135246.936000", "135246.939000", "135246.942000", "135246.946000", "135246.949000", "135246.953000", "135246.957000", "135306.822000", "135306.826000", "135306.829000", "135306.833000", "135306.836000", "135306.839000", "135306.842000", "135306.846000", "135306.849000", "135306.852000", "135306.855000", "135306.859000", "135306.862000", "135306.865000", "135306.868000", "135306.872000", "135306.875000", "135306.878000", "135306.881000", "135306.900000", "135306.904000", "135326.822000", "135326.826000", "135326.829000", "135326.832000", "135326.835000", "135326.839000", "135326.842000", "135326.845000", "135326.849000", "135326.852000", "135326.855000", "135326.859000", "135326.862000", "135326.865000", "135326.869000", "135326.872000", "135326.875000", "135326.879000", "135326.882000", "135326.885000", "135346.821000", "135346.825000", "135346.828000", "135346.831000", "135346.835000", "135346.838000", "135346.841000", "135346.845000", "135346.848000", "135346.851000", "135346.855000", "135346.858000", "135346.861000", "135346.865000", "135346.868000", "135346.871000", "135346.883000", "135346.887000", "135346.893000", "135346.897000", "135426.823000", "135426.828000", "135426.831000", "135426.835000", "135426.839000", "135426.842000", "135426.845000", "135426.849000", "135426.852000", "135426.855000", "135426.859000", "135426.862000", "135426.865000", "135426.868000", "135426.871000", "135426.875000", "135426.878000", "135426.881000", "135426.885000", "135426.888000", "135426.891000", "135426.894000", "135426.898000", "135426.901000", "135426.904000", "135426.908000", "135426.911000", "135426.914000", "135426.918000", "135426.921000", "135426.924000", "135426.927000", "135506.822000", "135506.826000", "135506.829000", "135506.833000", "135506.836000", "135506.839000", "135506.843000", "135506.846000", "135506.849000", "135506.853000", "135506.856000", "135506.860000", "135506.863000", "135506.866000", "135506.870000", "135506.873000", "135506.876000", "135506.880000", "135506.883000", "135506.886000", "135506.889000", "135506.893000", "135506.896000", "135506.900000", "135506.903000", "135506.920000", "135506.923000", "135546.822000", "135546.826000", "135546.829000", "135546.833000", "135546.836000", "135546.839000", "135546.843000", "135546.846000", "135546.849000", "135546.853000", "135546.856000", "135546.859000", "135546.863000", "135546.866000", "135546.869000", "135546.873000", "135546.876000", "135546.879000", "135546.883000", "135546.886000", "135546.889000", "135546.892000", "135546.896000", "135546.899000", "135546.902000", "135546.906000", "135546.909000", "135609.704000", "135609.708000", "135609.711000", "135609.714000", "135609.718000", "135609.721000", "135609.725000", "135609.728000", "135609.732000", "135609.735000", "135609.739000", "135609.742000", "135609.745000", "135609.749000", "135609.752000", "135609.755000"],
      "InstanceCreationTime": ["135246.867000", "135246.872000", "135246.875000", "135246.879000", "135246.882000", "135246.886000", "135246.889000", "135246.892000", "135246.896000", "135246.899000", "135246.902000", "135246.906000", "135246.909000", "135246.912000", "135246.916000", "135246.919000", "135246.922000", "135246.926000", "135246.929000", "135246.932000", "135246.936000", "135246.939000", "135246.942000", "135246.946000", "135246.949000", "135246.953000", "135246.957000", "135306.822000", "135306.826000", "135306.829000", "135306.833000", "135306.836000", "135306.839000", "135306.842000", "135306.846000", "135306.849000", "135306.852000", "135306.855000", "135306.859000", "135306.862000", "135306.865000", "135306.868000", "135306.872000", "135306.875000", "135306.878000", "135306.881000", "135306.900000", "135306.904000", "135326.822000", "135326.826000", "135326.829000", "135326.832000", "135326.835000", "135326.839000", "135326.842000", "135326.845000", "135326.849000", "135326.852000", "135326.855000", "135326.859000", "135326.862000", "135326.865000", "135326.869000", "135326.872000", "135326.875000", "135326.879000", "135326.882000", "135326.885000", "135346.821000", "135346.825000", "135346.828000", "135346.831000", "135346.835000", "135346.838000", "135346.841000", "135346.845000", "135346.848000", "135346.851000", "135346.855000", "135346.858000", "135346.861000", "135346.865000", "135346.868000", "135346.871000", "135346.883000", "135346.887000", "135346.893000", "135346.897000", "135426.823000", "135426.828000", "135426.831000", "135426.835000", "135426.839000", "135426.842000", "135426.845000", "135426.849000", "135426.852000", "135426.855000", "135426.859000", "135426.862000", "135426.865000", "135426.868000", "135426.871000", "135426.875000", "135426.878000", "135426.881000", "135426.885000", "135426.888000", "135426.891000", "135426.894000", "135426.898000", "135426.901000", "135426.904000", "135426.908000", "135426.911000", "135426.914000", "135426.918000", "135426.921000", "135426.924000", "135426.927000", "135506.822000", "135506.826000", "135506.829000", "135506.833000", "135506.836000", "135506.839000", "135506.843000", "135506.846000", "135506.849000", "135506.853000", "135506.856000", "135506.860000", "135506.863000", "135506.866000", "135506.870000", "135506.873000", "135506.876000", "135506.880000", "135506.883000", "135506.886000", "135506.889000", "135506.893000", "135506.896000", "135506.900000", "135506.903000", "135506.920000", "135506.923000", "135546.822000", "135546.826000", "135546.829000", "135546.833000", "135546.836000", "135546.839000", "135546.843000", "135546.846000", "135546.849000", "135546.853000", "135546.856000", "135546.859000", "135546.863000", "135546.866000", "135546.869000", "135546.873000", "135546.876000", "135546.879000", "135546.883000", "135546.886000", "135546.889000", "135546.892000", "135546.896000", "135546.899000", "135546.902000", "135546.906000", "135546.909000", "135609.704000", "135609.708000", "135609.711000", "135609.714000", "135609.718000", "135609.721000", "135609.725000", "135609.728000", "135609.732000", "135609.735000", "135609.739000", "135609.742000", "135609.745000", "135609.749000", "135609.752000", "135609.755000"],
      "InstanceNumber": [1, 2, 3, 4, 5, 6, 7, 8, 9, 10, 11, 12, 13, 14, 15, 16, 17, 18, 19, 20, 21, 22, 23, 24, 25, 26, 27, 28, 29, 30, 31, 32, 33, 34, 35, 36, 37, 38, 39, 40, 41, 42, 43, 44, 45, 46, 47, 48, 49, 50, 51, 52, 53, 54, 55, 56, 57, 58, 59, 60, 61, 62, 63, 64, 65, 66, 67, 68, 69, 70, 71, 72, 73, 74, 75, 76, 77, 78, 79, 80, 81, 82, 83, 84, 85, 86, 87, 88, 89, 90, 91, 92, 93, 94, 95, 96, 97, 98, 99, 100, 101, 102, 103, 104, 105, 106, 107, 108, 109, 110, 111, 112, 113, 114, 115, 116, 117, 118, 119, 120, 121, 122, 123, 124, 125, 126, 127, 128, 129, 130, 131, 132, 133, 134, 135, 136, 137, 138, 139, 140, 141, 142, 143, 144, 145, 146, 147, 148, 149, 150, 151, 152, 153, 154, 155, 156, 157, 158, 159, 160, 161, 162, 163, 164, 165, 166, 167, 168, 169, 170, 171, 172, 173, 174, 175, 176, 177, 178, 179, 180, 181, 182, 183, 184, 185, 186, 187, 188, 189, 190],
      "LargestImagePixelValue": [41328, 40191, 39869, 38837, 38767, 39196, 39242, 39172, 38608, 38701, 38938, 39143, 39317, 38755, 38726, 38942, 39417, 38974, 38739, 38718, 38739, 38562, 38715, 38910, 39521, 38712, 39021, 39104, 39001, 38975, 38957, 39367, 38730, 38495, 38957, 39268, 39102, 39109, 39327, 38957, 38816, 38831, 39343, 39021, 38669, 39297, 38789, 38999, 38962, 38848, 38989, 38529, 38594, 38908, 39112, 38612, 38568, 39013, 39189, 39032, 39448, 38701, 38993, 38816, 38603, 38733, 38990, 39020, 38890, 39261, 39375, 39353, 38887, 38770, 38956, 38815, 39491, 39144, 39468, 38972, 39255, 38953, 39148, 39202, 39214, 39492, 39270, 39745, 39099, 38961, 38770, 39257, 39138, 38925, 38630, 39225, 39840, 39183, 39003, 39191, 39199, 39111, 39612, 38903, 38848, 39193, 39050, 38907, 39144, 38532, 38410, 38762, 38585, 38232, 38942, 38512, 38756, 38856, 38624, 38756, 38622, 39060, 38925, 38667, 38585, 38864, 38872, 38819, 38537, 38709, 38446, 38935, 38793, 39205, 38769, 38740, 38636, 39152, 38875, 38893, 38876, 39170, 39286, 38771, 38964, 38658, 38845, 38805, 38432, 38649, 38954, 38772, 38787, 39100, 39360, 39645, 39479, 39795, 39661, 40127, 39680, 39523, 39597, 39669, 39435, 39149, 38719, 38884, 38948, 38889, 38608, 38493, 38801, 38839, 39111, 38887, 39656, 39011, 39265, 38812, 39053, 39101, 39168, 39012, 39485, 39479, 39245, 39359, 39254, 39431],
      "WindowCenter": [10134.0, 10112.0, 10116.0, 10102.0, 10102.0, 10110.0, 10138.0, 10100.0, 10084.0, 10085.0, 10093.0, 10101.0, 10108.0, 10104.0, 10105.0, 10099.0, 10099.0, 10099.0, 10093.0, 10098.0, 10103.0, 10095.0, 10084.0, 10100.0, 10116.0, 10110.0, 10094.0, 10100.0, 10064.0, 10073.0, 10089.0, 10083.0, 10074.0, 10066.0, 10079.0, 10081.0, 10082.0, 10078.0, 10088.0, 10082.0, 10078.0, 10069.0, 10081.0, 10097.0, 10108.0, 10092.0, 10067.0, 10056.0, 10050.0, 10038.0, 10038.0, 10064.0, 10057.0, 10098.0, 10092.0, 10082.0, 10069.0, 10101.0, 10109.0, 10127.0, 10119.0, 10097.0, 10084.0, 10068.0, 10072.0, 10074.0, 10075.0, 10080.0, 10107.0, 10116.0, 10102.0, 10093.0, 10064.0, 10072.0, 10088.0, 10101.0, 10113.0, 10093.0, 10080.0, 10080.0, 10097.0, 10100.0, 10109.0, 10100.0, 10099.0, 10098.0, 10108.0, 10099.0, 10077.0, 10066.0, 10057.0, 10062.0, 10063.0, 10064.0, 10076.0, 10092.0, 10103.0, 10085.0, 10074.0, 10073.0, 10090.0, 10089.0, 10135.0, 10159.0, 10151.0, 10134.0, 10096.0, 10066.0, 10047.0, 10033.0, 10033.0, 10016.0, 10004.0, 9988.0, 10007.0, 10020.0, 10031.0, 10049.0, 10072.0, 10084.0, 10076.0, 10090.0, 10100.0, 10111.0, 10077.0, 10077.0, 10084.0, 10082.0, 10103.0, 10102.0, 10090.0, 10084.0, 10094.0, 10090.0, 10085.0, 10066.0, 10059.0, 10060.0, 10057.0, 10079.0, 10085.0, 10098.0, 10091.0, 10074.0, 10062.0, 10065.0, 10074.0, 10084.0, 10060.0, 10064.0, 10055.0, 10057.0, 10069.0, 10069.0, 10078.0, 10093.0, 10139.0, 10172.0, 10186.0, 10162.0, 10110.0, 10075.0, 10063.0, 10046.0, 10030.0, 10012.0, 10013.0, 10019.0, 10011.0, 10010.0, 10021.0, 10031.0, 10039.0, 10045.0, 10054.0, 10073.0, 10083.0, 10073.0, 10063.0, 10065.0, 10080.0, 10110.0, 10111.0, 10094.0, 10073.0, 10063.0, 10070.0, 10077.0, 10079.0, 10081.0],
      "WindowWidth": [21596.0, 21525.0, 21522.0, 21485.0, 21480.0, 21496.0, 21561.0, 21471.0, 21434.0, 21438.0, 21456.0, 21475.0, 21492.0, 21485.0, 21485.0, 21468.0, 21468.0, 21468.0, 21455.0, 21471.0, 21477.0, 21458.0, 21434.0, 21469.0, 21506.0, 21493.0, 21456.0, 21469.0, 21385.0, 21407.0, 21444.0, 21432.0, 21408.0, 21392.0, 21419.0, 21425.0, 21429.0, 21417.0, 21438.0, 21427.0, 21421.0, 21402.0, 21423.0, 21460.0, 21488.0, 21449.0, 21394.0, 21365.0, 21356.0, 21326.0, 21328.0, 21387.0, 21373.0, 21464.0, 21451.0, 21429.0, 21401.0, 21473.0, 21494.0, 21533.0, 21514.0, 21465.0, 21430.0, 21395.0, 21403.0, 21411.0, 21415.0, 21425.0, 21487.0, 21507.0, 21475.0, 21454.0, 21386.0, 21404.0, 21442.0, 21472.0, 21494.0, 21454.0, 21420.0, 21422.0, 21459.0, 21469.0, 21489.0, 21469.0, 21465.0, 21463.0, 21486.0, 21465.0, 21418.0, 21390.0, 21371.0, 21379.0, 21385.0, 21388.0, 21417.0, 21450.0, 21470.0, 21432.0, 21407.0, 21406.0, 21445.0, 21445.0, 21547.0, 21605.0, 21589.0, 21548.0, 21458.0, 21387.0, 21343.0, 21315.0, 21319.0, 21280.0, 21249.0, 21215.0, 21253.0, 21286.0, 21314.0, 21355.0, 21407.0, 21435.0, 21417.0, 21446.0, 21471.0, 21496.0, 21418.0, 21418.0, 21436.0, 21428.0, 21480.0, 21476.0, 21450.0, 21433.0, 21458.0, 21446.0, 21435.0, 21391.0, 21375.0, 21375.0, 21373.0, 21422.0, 21439.0, 21462.0, 21449.0, 21408.0, 21380.0, 21388.0, 21411.0, 21436.0, 21382.0, 21390.0, 21367.0, 21373.0, 21398.0, 21397.0, 21414.0, 21448.0, 21556.0, 21629.0, 21663.0, 21604.0, 21486.0, 21407.0, 21376.0, 21340.0, 21306.0, 21265.0, 21265.0, 21279.0, 21263.0, 21262.0, 21287.0, 21312.0, 21329.0, 21341.0, 21362.0, 21405.0, 21428.0, 21405.0, 21381.0, 21388.0, 21422.0, 21494.0, 21494.0, 21451.0, 21401.0, 21377.0, 21393.0, 21409.0, 21416.0, 21423.0]
    },
    "slices": {}
  }
}