{
  "AcquisitionMatrixPE": 104,
  "AcquisitionNumber": 1,
  "AcquisitionTime": "13:39:8.467500",
  "BandwidthPerPixelPhaseEncode": 17.17,
  "BaseResolution": 104,
  "BodyPartExamined": "BRAIN",
  "CoilString": "HC1-7;NC1_2",
  "ConsistencyInfo": "N4_VE11C_LATEST_20160120",
  "ConversionSoftware": "dcm2niix",
  "ConversionSoftwareVersion": "v1.0.20190902",
  "DerivedVendorReportedEchoSpacing": 0.000560011,
  "DeviceSerialNumber": "167006",
  "DwellTime": 2.1e-06,
  "EchoTime": 0.037,
  "EchoTrainLength": 104,
  "EffectiveEchoSpacing": 0.000560011,
  "FlipAngle": 52,
  "ImageComments": "Unaliased_MB4_PE3_LB",
  "ImageOrientationPatientDICOM": [0.999808, 0.00477727, 0.0190055, 0.0001745, 0.967622, -0.252404],
  "ImageType": [
    "ORIGINAL",
    "PRIMARY",
    "P",
    "MB",
    "ND",
    "MOSAIC"
],
  "ImagingFrequency": 123.259,
  "InPlanePhaseEncodingDirectionDICOM": "COL",
  "InstitutionAddress": "Chemin_Queen-Mary_4565_Montreal_District_CA_H3W_1W5",
  "InstitutionName": "IUGM",
  "InstitutionalDepartmentName": "Department",
  "MRAcquisitionType": "2D",
  "MagneticFieldStrength": 3,
  "Manufacturer": "Siemens",
  "ManufacturersModelName": "Prisma_fit",
  "Modality": "MR",
  "MultibandAccelerationFactor": 4,
  "PartialFourier": 1,
  "PatientPosition": "HFS",
  "PercentPhaseFOV": 100,
  "PhaseEncodingDirection": "j",
  "PhaseEncodingSteps": 104,
  "PhaseResolution": 1,
  "PixelBandwidth": 2290,
  "ProcedureStepDescription": "memory_things",
  "ProtocolName": "func_task-things_run-2",
  "PulseSequenceDetails": "%CustomerSeq%_cmrr_mbep2d_bold",
  "ReceiveCoilActiveElements": "HC1-7;NC1,2",
  "ReceiveCoilName": "HeadNeck_64",
  "ReconMatrixPE": 104,
  "RepetitionTime": 1.49,
  "SAR": 0.0483908,
  "ScanOptions": "FS",
  "ScanningSequence": "EP",
  "SequenceName": "epfid2d1_104",
  "SequenceVariant": "SK_SS",
  "SeriesDescription": "func_task-things_run-2",
  "SeriesNumber": 14,
  "ShimSetting": [634, -7210, -8764, 717, 51, 20, 54, -10],
  "SliceThickness": 2,
  "SliceTiming": [0, 0.7825, 0.0975, 0.8825, 0.195, 0.98, 0.2925, 1.0775, 0.3925, 1.175, 0.49, 1.2725, 0.5875, 1.3725, 0.685, 0, 0.7825, 0.0975, 0.8825, 0.195, 0.98, 0.2925, 1.0775, 0.3925, 1.175, 0.49, 1.2725, 0.5875, 1.3725, 0.685, 0, 0.7825, 0.0975, 0.8825, 0.195, 0.98, 0.2925, 1.0775, 0.3925, 1.175, 0.49, 1.2725, 0.5875, 1.3725, 0.685, 0, 0.7825, 0.0975, 0.8825, 0.195, 0.98, 0.2925, 1.0775, 0.3925, 1.175, 0.49, 1.2725, 0.5875, 1.3725, 0.685],
  "SoftwareVersions": "syngo_MR_E11",
  "SpacingBetweenSlices": 2,
  "StationName": "MRC35049",
  "TaskName": "things",
  "TotalReadoutTime": 0.0576811,
  "TxRefAmp": 233.671,
  "WipMemBlock": "8ad1913f-cf27-4ca6-be09-9282f5041c16||Sequence: R016 ve11c/master r/e634e98; Dec 19 2017 11:00:25 by eja",
  "dcmmeta_affine": [
    [-1.9996159076690674, 0.0003490002709440887, 0.039191823452711105, 108.1073226928711],
    [-0.009554533287882805, 1.9352439641952515, -0.5047174692153931, -74.38790130615234],
    [0.038010939955711365, 0.5048077702522278, 1.9348706007003784, -58.15380859375],
    [0.0, 0.0, 0.0, 1.0]
],
  "dcmmeta_reorient_transform": [
    [0.0, -1.0, 0.0, 103.0],
    [1.0, 0.0, 0.0, 0.0],
    [0.0, 0.0, 1.0, 0.0],
    [0.0, 0.0, 0.0, 1.0]
],
  "dcmmeta_shape": [104, 104, 60, 190],
  "dcmmeta_slice_dim": 2,
  "dcmmeta_version": 0.6,
  "global": {
    "const": {
      "AcquisitionMatrix": [104, 0, 0, 104],
      "AngioFlag": "N",
      "BitsAllocated": 16,
      "BitsStored": 16,
      "BodyPartExamined": "BRAIN",
      "Columns": 832,
      "EchoNumbers": 1,
      "EchoTime": 37.0,
      "EchoTrainLength": 104,
      "FlipAngle": 52.0,
      "HighBit": 15,
      "ImageOrientationPatient": [0.99980796646558, 0.00477726643656, 0.01900547072179, 0.00017450013683, 0.96762195696734, -0.2524038786239],
      "ImagePositionPatient": [-836.13050613106, -832.84885414365, 163.75543039167],
      "ImageType": [
        "ORIGINAL",
        "PRIMARY",
        "P",
        "MB",
        "ND",
        "MOSAIC"
],
      "ImagedNucleus": "1H",
      "ImagingFrequency": 123.258914,
      "InPlanePhaseEncodingDirection": "COL",
      "LargestImagePixelValue": 4095,
      "MRAcquisitionType": "2D",
      "MagneticFieldStrength": 3.0,
      "Manufacturer": "SIEMENS",
      "ManufacturerModelName": "Prisma_fit",
      "Modality": "MR",
      "NumberOfAverages": 1.0,
      "NumberOfPhaseEncodingSteps": 104,
      "PercentPhaseFieldOfView": 100.0,
      "PercentSampling": 100.0,
      "PerformedProcedureStepStartTime": "125811.868000",
      "PhotometricInterpretation": "MONOCHROME2",
      "PixelBandwidth": 2290.0,
      "PixelRepresentation": 0,
      "PixelSpacing": [2.0, 2.0],
      "ProtocolName": "func_task-things_run-2",
      "RepetitionTime": 1490.0,
      "RescaleIntercept": -4096.0,
      "RescaleSlope": 2.0,
      "RescaleType": "US",
      "Rows": 832,
      "SAR": 0.04839084328241,
      "SamplesPerPixel": 1,
      "ScanOptions": "FS",
      "ScanningSequence": "EP",
      "SequenceName": "epfid2d1_104",
      "SequenceVariant": [
        "SK",
        "SS"
],
      "SeriesDescription": "func_task-things_run-2",
      "SeriesNumber": 14,
      "SeriesTime": "134006.533000",
      "SliceLocation": -35.369150583078,
      "SliceThickness": 2.0,
      "SmallestImagePixelValue": 0,
      "SoftwareVersions": "syngo MR E11",
      "SpacingBetweenSlices": 1.9999999579229,
      "SpecificCharacterSet": "ISO_IR 100",
      "StudyID": "1",
      "StudyTime": "125811.763000",
      "TransmitCoilName": "Body",
      "VariableFlipAngleFlag": "N",
      "WindowCenterWidthExplanation": "Algo1",
      "dBdt": 0.0},
    "slices": {}
  },
  "time": {
    "samples": {
      "AcquisitionNumber": [1, 2, 3, 4, 5, 6, 7, 8, 9, 10, 11, 12, 13, 14, 15, 16, 17, 18, 19, 20, 21, 22, 23, 24, 25, 26, 27, 28, 29, 30, 31, 32, 33, 34, 35, 36, 37, 38, 39, 40, 41, 42, 43, 44, 45, 46, 47, 48, 49, 50, 51, 52, 53, 54, 55, 56, 57, 58, 59, 60, 61, 62, 63, 64, 65, 66, 67, 68, 69, 70, 71, 72, 73, 74, 75, 76, 77, 78, 79, 80, 81, 82, 83, 84, 85, 86, 87, 88, 89, 90, 91, 92, 93, 94, 95, 96, 97, 98, 99, 100, 101, 102, 103, 104, 105, 106, 107, 108, 109, 110, 111, 112, 113, 114, 115, 116, 117, 118, 119, 120, 121, 122, 123, 124, 125, 126, 127, 128, 129, 130, 131, 132, 133, 134, 135, 136, 137, 138, 139, 140, 141, 142, 143, 144, 145, 146, 147, 148, 149, 150, 151, 152, 153, 154, 155, 156, 157, 158, 159, 160, 161, 162, 163, 164, 165, 166, 167, 168, 169, 170, 171, 172, 173, 174, 175, 176, 177, 178, 179, 180, 181, 182, 183, 184, 185, 186, 187, 188, 189, 190],
      "AcquisitionTime": ["133908.467500", "133909.957500", "133911.447500", "133912.937500", "133914.427500", "133915.917500", "133917.407500", "133918.897500", "133920.387500", "133921.877500", "133923.367500", "133924.857500", "133926.347500", "133927.837500", "133929.327500", "133930.817500", "133932.307500", "133933.797500", "133935.287500", "133936.777500", "133938.267500", "133939.757500", "133941.247500", "133942.737500", "133944.227500", "133945.717500", "133947.207500", "133948.697500", "133950.187500", "133951.677500", "133953.167500", "133954.657500", "133956.147500", "133957.637500", "133959.127500", "134000.617500", "134002.107500", "134003.597500", "134005.087500", "134006.577500", "134008.067500", "134009.557500", "134011.047500", "134012.537500", "134014.027500", "134015.517500", "134017.007500", "134018.497500", "134019.987500", "134021.477500", "134022.967500", "134024.457500", "134025.947500", "134027.437500", "134028.927500", "134030.417500", "134031.907500", "134033.397500", "134034.887500", "134036.377500", "134037.867500", "134039.357500", "134040.847500", "134042.337500", "134043.827500", "134045.317500", "134046.807500", "134048.297500", "134049.787500", "134051.277500", "134052.767500", "134054.257500", "134055.747500", "134057.237500", "134058.727500", "134100.217500", "134101.707500", "134103.197500", "134104.687500", "134106.177500", "134107.667500", "134109.157500", "134110.647500", "134112.137500", "134113.627500", "134115.117500", "134116.607500", "134118.097500", "134119.587500", "134121.077500", "134122.567500", "134124.057500", "134125.547500", "134127.037500", "134128.527500", "134130.017500", "134131.507500", "134132.997500", "134134.487500", "134135.977500", "134137.467500", "134138.957500", "134140.447500", "134141.937500", "134143.427500", "134144.917500", "134146.407500", "134147.897500", "134149.387500", "134150.877500", "134152.367500", "134153.857500", "134155.347500", "134156.837500", "134158.327500", "134159.817500", "134201.307500", "134202.797500", "134204.287500", "134205.777500", "134207.267500", "134208.757500", "134210.247500", "134211.737500", "134213.227500", "134214.717500", "134216.207500", "134217.697500", "134219.187500", "134220.677500", "134222.167500", "134223.657500", "134225.147500", "134226.637500", "134228.127500", "134229.617500", "134231.107500", "134232.597500", "134234.087500", "134235.577500", "134237.067500", "134238.557500", "134240.047500", "134241.537500", "134243.027500", "134244.517500", "134246.007500", "134247.497500", "134248.987500", "134250.477500", "134251.967500", "134253.457500", "134254.947500", "134256.437500", "134257.927500", "134259.417500", "134300.907500", "134302.397500", "134303.887500", "134305.377500", "134306.867500", "134308.357500", "134309.847500", "134311.337500", "134312.827500", "134314.317500", "134315.807500", "134317.297500", "134318.787500", "134320.277500", "134321.767500", "134323.257500", "134324.747500", "134326.237500", "134327.727500", "134329.217500", "134330.707500", "134332.197500", "134333.687500", "134335.177500", "134336.667500", "134338.157500", "134339.647500", "134341.137500", "134342.627500", "134344.117500", "134345.607500", "134347.097500", "134348.587500", "134350.077500"],
      "ContentTime": ["134006.535000", "134006.538000", "134006.541000", "134006.543000", "134026.585000", "134026.588000", "134026.590000", "134026.593000", "134026.595000", "134026.598000", "134026.600000", "134026.603000", "134026.605000", "134026.608000", "134026.610000", "134026.613000", "134026.615000", "134026.618000", "134026.620000", "134026.623000", "134026.625000", "134026.628000", "134026.630000", "134026.633000", "134026.635000", "134046.567000", "134046.570000", "134046.572000", "134046.575000", "134046.577000", "134046.580000", "134046.582000", "134046.585000", "134046.587000", "134046.595000", "134046.598000", "134046.601000", "134046.603000", "134046.606000", "134046.625000", "134046.628000", "134046.631000", "134046.633000", "134046.635000", "134046.638000", "134106.583000", "134106.586000", "134106.588000", "134106.591000", "134106.594000", "134106.596000", "134106.599000", "134106.602000", "134106.605000", "134106.613000", "134106.615000", "134106.618000", "134106.621000", "134106.624000", "134106.626000", "134106.629000", "134106.632000", "134106.634000", "134106.637000", "134106.639000", "134126.599000", "134126.602000", "134126.605000", "134126.611000", "134126.614000", "134126.616000", "134126.619000", "134126.621000", "134126.624000", "134126.626000", "134126.629000", "134126.631000", "134126.634000", "134126.636000", "134126.639000", "134126.641000", "134126.644000", "134126.646000", "134126.649000", "134126.651000", "134126.654000", "134206.636000", "134206.639000", "134206.641000", "134206.644000", "134206.646000", "134206.649000", "134206.651000", "134206.654000", "134206.656000", "134206.659000", "134206.662000", "134206.664000", "134206.667000", "134206.669000", "134206.672000", "134206.674000", "134206.677000", "134206.679000", "134206.682000", "134206.684000", "134206.687000", "134206.689000", "134206.692000", "134206.694000", "134206.697000", "134206.699000", "134206.702000", "134206.704000", "134206.707000", "134206.710000", "134206.712000", "134206.715000", "134206.717000", "134246.605000", "134246.607000", "134246.610000", "134246.612000", "134246.615000", "134246.618000", "134246.620000", "134246.623000", "134246.625000", "134246.628000", "134246.630000", "134246.633000", "134246.635000", "134246.638000", "134246.640000", "134246.643000", "134246.645000", "134246.648000", "134246.650000", "134246.653000", "134246.655000", "134246.658000", "134246.661000", "134246.663000", "134246.666000", "134246.668000", "134246.671000", "134326.618000", "134326.620000", "134326.623000", "134326.626000", "134326.628000", "134326.631000", "134326.633000", "134326.636000", "134326.638000", "134326.641000", "134326.643000", "134326.646000", "134326.649000", "134326.651000", "134326.653000", "134326.656000", "134326.659000", "134326.661000", "134326.664000", "134326.666000", "134326.669000", "134326.671000", "134326.674000", "134326.676000", "134326.679000", "134326.681000", "134352.052000", "134352.055000", "134352.058000", "134352.061000", "134352.063000", "134352.066000", "134352.068000", "134352.071000", "134352.074000", "134352.077000", "134352.079000", "134352.082000", "134352.085000", "134352.087000", "134352.090000", "134352.093000", "134352.096000", "134352.098000"],
      "InstanceCreationTime": ["134006.535000", "134006.538000", "134006.541000", "134006.543000", "134026.585000", "134026.588000", "134026.590000", "134026.593000", "134026.595000", "134026.598000", "134026.600000", "134026.603000", "134026.605000", "134026.608000", "134026.610000", "134026.613000", "134026.615000", "134026.618000", "134026.620000", "134026.623000", "134026.625000", "134026.628000", "134026.630000", "134026.633000", "134026.635000", "134046.567000", "134046.570000", "134046.572000", "134046.575000", "134046.577000", "134046.580000", "134046.582000", "134046.585000", "134046.587000", "134046.595000", "134046.598000", "134046.601000", "134046.603000", "134046.606000", "134046.625000", "134046.628000", "134046.631000", "134046.633000", "134046.635000", "134046.638000", "134106.583000", "134106.586000", "134106.588000", "134106.591000", "134106.594000", "134106.596000", "134106.599000", "134106.602000", "134106.605000", "134106.613000", "134106.615000", "134106.618000", "134106.621000", "134106.624000", "134106.626000", "134106.629000", "134106.632000", "134106.634000", "134106.637000", "134106.639000", "134126.599000", "134126.602000", "134126.605000", "134126.611000", "134126.614000", "134126.616000", "134126.619000", "134126.621000", "134126.624000", "134126.626000", "134126.629000", "134126.631000", "134126.634000", "134126.636000", "134126.639000", "134126.641000", "134126.644000", "134126.646000", "134126.649000", "134126.651000", "134126.654000", "134206.636000", "134206.639000", "134206.641000", "134206.644000", "134206.646000", "134206.649000", "134206.651000", "134206.654000", "134206.656000", "134206.659000", "134206.662000", "134206.664000", "134206.667000", "134206.669000", "134206.672000", "134206.674000", "134206.677000", "134206.679000", "134206.682000", "134206.684000", "134206.687000", "134206.689000", "134206.692000", "134206.694000", "134206.697000", "134206.699000", "134206.702000", "134206.704000", "134206.707000", "134206.710000", "134206.712000", "134206.715000", "134206.717000", "134246.605000", "134246.607000", "134246.610000", "134246.612000", "134246.615000", "134246.618000", "134246.620000", "134246.623000", "134246.625000", "134246.628000", "134246.630000", "134246.633000", "134246.635000", "134246.638000", "134246.640000", "134246.643000", "134246.645000", "134246.648000", "134246.650000", "134246.653000", "134246.655000", "134246.658000", "134246.661000", "134246.663000", "134246.666000", "134246.668000", "134246.671000", "134326.618000", "134326.620000", "134326.623000", "134326.626000", "134326.628000", "134326.631000", "134326.633000", "134326.636000", "134326.638000", "134326.641000", "134326.643000", "134326.646000", "134326.649000", "134326.651000", "134326.653000", "134326.656000", "134326.659000", "134326.661000", "134326.664000", "134326.666000", "134326.669000", "134326.671000", "134326.674000", "134326.676000", "134326.679000", "134326.681000", "134352.052000", "134352.055000", "134352.058000", "134352.061000", "134352.063000", "134352.066000", "134352.068000", "134352.071000", "134352.074000", "134352.077000", "134352.079000", "134352.082000", "134352.085000", "134352.087000", "134352.090000", "134352.093000", "134352.096000", "134352.098000"],
      "InstanceNumber": [1, 2, 3, 4, 5, 6, 7, 8, 9, 10, 11, 12, 13, 14, 15, 16, 17, 18, 19, 20, 21, 22, 23, 24, 25, 26, 27, 28, 29, 30, 31, 32, 33, 34, 35, 36, 37, 38, 39, 40, 41, 42, 43, 44, 45, 46, 47, 48, 49, 50, 51, 52, 53, 54, 55, 56, 57, 58, 59, 60, 61, 62, 63, 64, 65, 66, 67, 68, 69, 70, 71, 72, 73, 74, 75, 76, 77, 78, 79, 80, 81, 82, 83, 84, 85, 86, 87, 88, 89, 90, 91, 92, 93, 94, 95, 96, 97, 98, 99, 100, 101, 102, 103, 104, 105, 106, 107, 108, 109, 110, 111, 112, 113, 114, 115, 116, 117, 118, 119, 120, 121, 122, 123, 124, 125, 126, 127, 128, 129, 130, 131, 132, 133, 134, 135, 136, 137, 138, 139, 140, 141, 142, 143, 144, 145, 146, 147, 148, 149, 150, 151, 152, 153, 154, 155, 156, 157, 158, 159, 160, 161, 162, 163, 164, 165, 166, 167, 168, 169, 170, 171, 172, 173, 174, 175, 176, 177, 178, 179, 180, 181, 182, 183, 184, 185, 186, 187, 188, 189, 190],
      "WindowCenter": [4862.0, 4890.0, 4888.0, 4862.0, 4864.0, 4862.0, 4862.0, 4860.0, 4862.0, 4858.0, 4866.0, 4862.0, 4888.0, 4866.0, 4864.0, 4858.0, 4862.0, 4862.0, 4862.0, 4862.0, 4860.0, 4862.0, 4862.0, 4864.0, 4862.0, 4862.0, 4864.0, 4860.0, 4860.0, 4864.0, 4862.0, 4860.0, 4860.0, 4888.0, 4862.0, 4858.0, 4888.0, 4886.0, 4858.0, 4862.0, 4860.0, 4888.0, 4862.0, 4882.0, 4860.0, 4862.0, 4860.0, 4862.0, 4862.0, 4864.0, 4860.0, 4858.0, 4884.0, 4884.0, 4886.0, 4862.0, 4862.0, 4864.0, 4864.0, 4860.0, 4864.0, 4864.0, 4884.0, 4860.0, 4860.0, 4860.0, 4864.0, 4828.0, 4854.0, 4888.0, 4868.0, 4888.0, 4866.0, 4864.0, 4858.0, 4860.0, 4856.0, 4858.0, 4852.0, 4858.0, 4860.0, 4864.0, 4888.0, 4888.0, 4888.0, 4860.0, 4860.0, 4858.0, 4862.0, 4860.0, 4858.0, 4862.0, 4860.0, 4886.0, 4864.0, 4862.0, 4862.0, 4884.0, 4860.0, 4864.0, 4884.0, 4862.0, 4860.0, 4862.0, 4886.0, 4858.0, 4884.0, 4862.0, 4860.0, 4858.0, 4862.0, 4862.0, 4856.0, 4860.0, 4858.0, 4882.0, 4858.0, 4862.0, 4856.0, 4860.0, 4862.0, 4860.0, 4862.0, 4886.0, 4860.0, 4862.0, 4862.0, 4858.0, 4858.0, 4860.0, 4864.0, 4858.0, 4864.0, 4860.0, 4858.0, 4860.0, 4860.0, 4862.0, 4860.0, 4860.0, 4856.0, 4864.0, 4858.0, 4862.0, 4860.0, 4866.0, 4858.0, 4864.0, 4860.0, 4864.0, 4858.0, 4886.0, 4860.0, 4860.0, 4858.0, 4860.0, 4858.0, 4860.0, 4862.0, 4854.0, 4860.0, 4858.0, 4860.0, 4858.0, 4882.0, 4860.0, 4862.0, 4858.0, 4862.0, 4858.0, 4860.0, 4860.0, 4856.0, 4860.0, 4862.0, 4862.0, 4860.0, 4860.0, 4856.0, 4858.0, 4858.0, 4860.0, 4860.0, 4858.0, 4884.0, 4860.0, 4860.0, 4858.0, 4860.0, 4860.0],
      "WindowWidth": [18694.0, 18726.0, 18724.0, 18694.0, 18698.0, 18698.0, 18692.0, 18696.0, 18694.0, 18696.0, 18694.0, 18694.0, 18726.0, 18696.0, 18694.0, 18690.0, 18694.0, 18698.0, 18698.0, 18698.0, 18694.0, 18696.0, 18694.0, 18694.0, 18696.0, 18696.0, 18696.0, 18694.0, 18690.0, 18696.0, 18694.0, 18692.0, 18696.0, 18726.0, 18696.0, 18688.0, 18724.0, 18726.0, 18694.0, 18696.0, 18698.0, 18724.0, 18696.0, 18726.0, 18696.0, 18696.0, 18698.0, 18694.0, 18696.0, 18696.0, 18696.0, 18696.0, 18726.0, 18730.0, 18726.0, 18700.0, 18696.0, 18700.0, 18696.0, 18698.0, 18696.0, 18698.0, 18732.0, 18692.0, 18692.0, 18696.0, 18700.0, 18660.0, 18688.0, 18730.0, 18696.0, 18724.0, 18698.0, 18694.0, 18698.0, 18696.0, 18696.0, 18696.0, 18690.0, 18696.0, 18698.0, 18698.0, 18728.0, 18726.0, 18728.0, 18694.0, 18700.0, 18696.0, 18698.0, 18698.0, 18696.0, 18696.0, 18694.0, 18726.0, 18698.0, 18692.0, 18700.0, 18726.0, 18696.0, 18700.0, 18732.0, 18696.0, 18700.0, 18696.0, 18730.0, 18698.0, 18728.0, 18694.0, 18694.0, 18694.0, 18694.0, 18698.0, 18700.0, 18698.0, 18696.0, 18724.0, 18694.0, 18694.0, 18696.0, 18694.0, 18700.0, 18692.0, 18698.0, 18728.0, 18692.0, 18692.0, 18694.0, 18696.0, 18696.0, 18700.0, 18696.0, 18696.0, 18700.0, 18700.0, 18696.0, 18694.0, 18694.0, 18698.0, 18696.0, 18694.0, 18696.0, 18696.0, 18694.0, 18700.0, 18698.0, 18696.0, 18698.0, 18698.0, 18700.0, 18696.0, 18700.0, 18732.0, 18692.0, 18696.0, 18694.0, 18700.0, 18696.0, 18700.0, 18698.0, 18694.0, 18694.0, 18698.0, 18696.0, 18694.0, 18730.0, 18696.0, 18698.0, 18692.0, 18696.0, 18694.0, 18696.0, 18694.0, 18698.0, 18696.0, 18698.0, 18698.0, 18696.0, 18700.0, 18692.0, 18694.0, 18696.0, 18694.0, 18694.0, 18694.0, 18730.0, 18698.0, 18694.0, 18694.0, 18696.0, 18694.0]
    },
    "slices": {}
  }
}