{
  "AcquisitionMatrixPE": 104,
  "AcquisitionNumber": 1,
  "AcquisitionTime": "13:39:8.467500",
  "BandwidthPerPixelPhaseEncode": 17.17,
  "BaseResolution": 104,
  "BodyPartExamined": "BRAIN",
  "CoilString": "HC1-7;NC1_2",
  "ConsistencyInfo": "N4_VE11C_LATEST_20160120",
  "ConversionSoftware": "dcm2niix",
  "ConversionSoftwareVersion": "v1.0.20190902",
  "DerivedVendorReportedEchoSpacing": 0.000560011,
  "DeviceSerialNumber": "167006",
  "DwellTime": 2.1e-06,
  "EchoTime": 0.037,
  "EchoTrainLength": 104,
  "EffectiveEchoSpacing": 0.000560011,
  "FlipAngle": 52,
  "ImageComments": "Unaliased_MB4_PE3_LB",
  "ImageOrientationPatientDICOM": [0.999808, 0.00477727, 0.0190055, 0.0001745, 0.967622, -0.252404],
  "ImageType": [
    "ORIGINAL",
    "PRIMARY",
    "M",
    "MB",
    "ND",
    "MOSAIC"
],
  "ImagingFrequency": 123.259,
  "InPlanePhaseEncodingDirectionDICOM": "COL",
  "InstitutionAddress": "Chemin_Queen-Mary_4565_Montreal_District_CA_H3W_1W5",
  "InstitutionName": "IUGM",
  "InstitutionalDepartmentName": "Department",
  "MRAcquisitionType": "2D",
  "MagneticFieldStrength": 3,
  "Manufacturer": "Siemens",
  "ManufacturersModelName": "Prisma_fit",
  "Modality": "MR",
  "MultibandAccelerationFactor": 4,
  "PartialFourier": 1,
  "PatientPosition": "HFS",
  "PercentPhaseFOV": 100,
  "PhaseEncodingDirection": "j",
  "PhaseEncodingSteps": 104,
  "PhaseResolution": 1,
  "PixelBandwidth": 2290,
  "ProcedureStepDescription": "memory_things",
  "ProtocolName": "func_task-things_run-2",
  "PulseSequenceDetails": "%CustomerSeq%_cmrr_mbep2d_bold",
  "ReceiveCoilActiveElements": "HC1-7;NC1,2",
  "ReceiveCoilName": "HeadNeck_64",
  "ReconMatrixPE": 104,
  "RepetitionTime": 1.49,
  "SAR": 0.0483908,
  "ScanOptions": "FS",
  "ScanningSequence": "EP",
  "SequenceName": "epfid2d1_104",
  "SequenceVariant": "SK_SS",
  "SeriesDescription": "func_task-things_run-2",
  "SeriesNumber": 13,
  "ShimSetting": [634, -7210, -8764, 717, 51, 20, 54, -10],
  "SliceThickness": 2,
  "SliceTiming": [0, 0.7825, 0.0975, 0.8825, 0.195, 0.98, 0.2925, 1.0775, 0.3925, 1.175, 0.49, 1.2725, 0.5875, 1.3725, 0.685, 0, 0.7825, 0.0975, 0.8825, 0.195, 0.98, 0.2925, 1.0775, 0.3925, 1.175, 0.49, 1.2725, 0.5875, 1.3725, 0.685, 0, 0.7825, 0.0975, 0.8825, 0.195, 0.98, 0.2925, 1.0775, 0.3925, 1.175, 0.49, 1.2725, 0.5875, 1.3725, 0.685, 0, 0.7825, 0.0975, 0.8825, 0.195, 0.98, 0.2925, 1.0775, 0.3925, 1.175, 0.49, 1.2725, 0.5875, 1.3725, 0.685],
  "SoftwareVersions": "syngo_MR_E11",
  "SpacingBetweenSlices": 2,
  "StationName": "MRC35049",
  "TaskName": "things",
  "TotalReadoutTime": 0.0576811,
  "TxRefAmp": 233.671,
  "WipMemBlock": "8ad1913f-cf27-4ca6-be09-9282f5041c16||Sequence: R016 ve11c/master r/e634e98; Dec 19 2017 11:00:25 by eja",
  "dcmmeta_affine": [
    [-1.9996159076690674, 0.0003490002709440887, 0.039191823452711105, 108.1073226928711],
    [-0.009554533287882805, 1.9352439641952515, -0.5047174692153931, -74.38790130615234],
    [0.038010939955711365, 0.5048077702522278, 1.9348706007003784, -58.15380859375],
    [0.0, 0.0, 0.0, 1.0]
],
  "dcmmeta_reorient_transform": [
    [0.0, -1.0, 0.0, 103.0],
    [1.0, 0.0, 0.0, 0.0],
    [0.0, 0.0, 1.0, 0.0],
    [0.0, 0.0, 0.0, 1.0]
],
  "dcmmeta_shape": [104, 104, 60, 190],
  "dcmmeta_slice_dim": 2,
  "dcmmeta_version": 0.6,
  "global": {
    "const": {
      "AcquisitionMatrix": [104, 0, 0, 104],
      "AngioFlag": "N",
      "BitsAllocated": 16,
      "BitsStored": 16,
      "BodyPartExamined": "BRAIN",
      "Columns": 832,
      "EchoNumbers": 1,
      "EchoTime": 37.0,
      "EchoTrainLength": 104,
      "FlipAngle": 52.0,
      "HighBit": 15,
      "ImageOrientationPatient": [0.99980796646558, 0.00477726643656, 0.01900547072179, 0.00017450013683, 0.96762195696734, -0.2524038786239],
      "ImagePositionPatient": [-836.13050613106, -832.84885414365, 163.75543039167],
      "ImageType": [
        "ORIGINAL",
        "PRIMARY",
        "M",
        "MB",
        "ND",
        "MOSAIC"
],
      "ImagedNucleus": "1H",
      "ImagingFrequency": 123.258914,
      "InPlanePhaseEncodingDirection": "COL",
      "MRAcquisitionType": "2D",
      "MagneticFieldStrength": 3.0,
      "Manufacturer": "SIEMENS",
      "ManufacturerModelName": "Prisma_fit",
      "Modality": "MR",
      "NumberOfAverages": 1.0,
      "NumberOfPhaseEncodingSteps": 104,
      "PercentPhaseFieldOfView": 100.0,
      "PercentSampling": 100.0,
      "PerformedProcedureStepStartTime": "125811.868000",
      "PhotometricInterpretation": "MONOCHROME2",
      "PixelBandwidth": 2290.0,
      "PixelRepresentation": 0,
      "PixelSpacing": [2.0, 2.0],
      "ProtocolName": "func_task-things_run-2",
      "RepetitionTime": 1490.0,
      "Rows": 832,
      "SAR": 0.04839084328241,
      "SamplesPerPixel": 1,
      "ScanOptions": "FS",
      "ScanningSequence": "EP",
      "SequenceName": "epfid2d1_104",
      "SequenceVariant": [
        "SK",
        "SS"
],
      "SeriesDescription": "func_task-things_run-2",
      "SeriesNumber": 13,
      "SeriesTime": "134006.495000",
      "SliceLocation": -35.369150583078,
      "SliceThickness": 2.0,
      "SmallestImagePixelValue": 0,
      "SoftwareVersions": "syngo MR E11",
      "SpacingBetweenSlices": 1.9999999579229,
      "SpecificCharacterSet": "ISO_IR 100",
      "StudyID": "1",
      "StudyTime": "125811.763000",
      "TransmitCoilName": "Body",
      "VariableFlipAngleFlag": "N",
      "WindowCenterWidthExplanation": "Algo1",
      "dBdt": 0.0},
    "slices": {}
  },
  "time": {
    "samples": {
      "AcquisitionNumber": [1, 2, 3, 4, 5, 6, 7, 8, 9, 10, 11, 12, 13, 14, 15, 16, 17, 18, 19, 20, 21, 22, 23, 24, 25, 26, 27, 28, 29, 30, 31, 32, 33, 34, 35, 36, 37, 38, 39, 40, 41, 42, 43, 44, 45, 46, 47, 48, 49, 50, 51, 52, 53, 54, 55, 56, 57, 58, 59, 60, 61, 62, 63, 64, 65, 66, 67, 68, 69, 70, 71, 72, 73, 74, 75, 76, 77, 78, 79, 80, 81, 82, 83, 84, 85, 86, 87, 88, 89, 90, 91, 92, 93, 94, 95, 96, 97, 98, 99, 100, 101, 102, 103, 104, 105, 106, 107, 108, 109, 110, 111, 112, 113, 114, 115, 116, 117, 118, 119, 120, 121, 122, 123, 124, 125, 126, 127, 128, 129, 130, 131, 132, 133, 134, 135, 136, 137, 138, 139, 140, 141, 142, 143, 144, 145, 146, 147, 148, 149, 150, 151, 152, 153, 154, 155, 156, 157, 158, 159, 160, 161, 162, 163, 164, 165, 166, 167, 168, 169, 170, 171, 172, 173, 174, 175, 176, 177, 178, 179, 180, 181, 182, 183, 184, 185, 186, 187, 188, 189, 190],
      "AcquisitionTime": ["133908.467500", "133909.957500", "133911.447500", "133912.937500", "133914.427500", "133915.917500", "133917.407500", "133918.897500", "133920.387500", "133921.877500", "133923.367500", "133924.857500", "133926.347500", "133927.837500", "133929.327500", "133930.817500", "133932.307500", "133933.797500", "133935.287500", "133936.777500", "133938.267500", "133939.757500", "133941.247500", "133942.737500", "133944.227500", "133945.717500", "133947.207500", "133948.697500", "133950.187500", "133951.677500", "133953.167500", "133954.657500", "133956.147500", "133957.637500", "133959.127500", "134000.617500", "134002.107500", "134003.597500", "134005.087500", "134006.577500", "134008.067500", "134009.557500", "134011.047500", "134012.537500", "134014.027500", "134015.517500", "134017.007500", "134018.497500", "134019.987500", "134021.477500", "134022.967500", "134024.457500", "134025.947500", "134027.437500", "134028.927500", "134030.417500", "134031.907500", "134033.397500", "134034.887500", "134036.377500", "134037.867500", "134039.357500", "134040.847500", "134042.337500", "134043.827500", "134045.317500", "134046.807500", "134048.297500", "134049.787500", "134051.277500", "134052.767500", "134054.257500", "134055.747500", "134057.237500", "134058.727500", "134100.217500", "134101.707500", "134103.197500", "134104.687500", "134106.177500", "134107.667500", "134109.157500", "134110.647500", "134112.137500", "134113.627500", "134115.117500", "134116.607500", "134118.097500", "134119.587500", "134121.077500", "134122.567500", "134124.057500", "134125.547500", "134127.037500", "134128.527500", "134130.017500", "134131.507500", "134132.997500", "134134.487500", "134135.977500", "134137.467500", "134138.957500", "134140.447500", "134141.937500", "134143.427500", "134144.917500", "134146.407500", "134147.897500", "134149.387500", "134150.877500", "134152.367500", "134153.857500", "134155.347500", "134156.837500", "134158.327500", "134159.817500", "134201.307500", "134202.797500", "134204.287500", "134205.777500", "134207.267500", "134208.757500", "134210.247500", "134211.737500", "134213.227500", "134214.717500", "134216.207500", "134217.697500", "134219.187500", "134220.677500", "134222.167500", "134223.657500", "134225.147500", "134226.637500", "134228.127500", "134229.617500", "134231.107500", "134232.597500", "134234.087500", "134235.577500", "134237.067500", "134238.557500", "134240.047500", "134241.537500", "134243.027500", "134244.517500", "134246.007500", "134247.497500", "134248.987500", "134250.477500", "134251.967500", "134253.457500", "134254.947500", "134256.437500", "134257.927500", "134259.417500", "134300.907500", "134302.397500", "134303.887500", "134305.377500", "134306.867500", "134308.357500", "134309.847500", "134311.337500", "134312.827500", "134314.317500", "134315.807500", "134317.297500", "134318.787500", "134320.277500", "134321.767500", "134323.257500", "134324.747500", "134326.237500", "134327.727500", "134329.217500", "134330.707500", "134332.197500", "134333.687500", "134335.177500", "134336.667500", "134338.157500", "134339.647500", "134341.137500", "134342.627500", "134344.117500", "134345.607500", "134347.097500", "134348.587500", "134350.077500"],
      "ContentTime": ["134006.498000", "134006.501000", "134006.504000", "134006.508000", "134026.455000", "134026.459000", "134026.462000", "134026.465000", "134026.468000", "134026.472000", "134026.475000", "134026.478000", "134026.482000", "134026.485000", "134026.488000", "134026.492000", "134026.495000", "134026.498000", "134026.501000", "134026.505000", "134026.508000", "134026.512000", "134026.516000", "134026.520000", "134026.523000", "134046.455000", "134046.459000", "134046.462000", "134046.465000", "134046.469000", "134046.472000", "134046.475000", "134046.479000", "134046.482000", "134046.485000", "134046.488000", "134046.492000", "134046.495000", "134046.498000", "134046.501000", "134046.505000", "134046.509000", "134046.513000", "134046.516000", "134046.519000", "134106.455000", "134106.459000", "134106.462000", "134106.465000", "134106.469000", "134106.472000", "134106.475000", "134106.479000", "134106.482000", "134106.485000", "134106.488000", "134106.492000", "134106.495000", "134106.498000", "134106.502000", "134106.505000", "134106.508000", "134106.512000", "134106.515000", "134106.518000", "134126.455000", "134126.459000", "134126.462000", "134126.465000", "134126.468000", "134126.472000", "134126.475000", "134126.486000", "134126.489000", "134126.493000", "134126.496000", "134126.499000", "134126.503000", "134126.506000", "134126.509000", "134126.512000", "134126.516000", "134126.519000", "134126.522000", "134126.526000", "134126.529000", "134206.454000", "134206.458000", "134206.461000", "134206.464000", "134206.468000", "134206.471000", "134206.474000", "134206.477000", "134206.481000", "134206.484000", "134206.487000", "134206.490000", "134206.494000", "134206.497000", "134206.500000", "134206.503000", "134206.507000", "134206.510000", "134206.513000", "134206.517000", "134206.520000", "134206.523000", "134206.526000", "134206.530000", "134206.533000", "134206.536000", "134206.540000", "134206.543000", "134206.546000", "134206.550000", "134206.553000", "134206.556000", "134206.560000", "134246.455000", "134246.459000", "134246.462000", "134246.466000", "134246.469000", "134246.472000", "134246.476000", "134246.479000", "134246.482000", "134246.486000", "134246.489000", "134246.492000", "134246.496000", "134246.499000", "134246.502000", "134246.506000", "134246.509000", "134246.512000", "134246.516000", "134246.519000", "134246.522000", "134246.526000", "134246.529000", "134246.532000", "134246.536000", "134246.539000", "134246.542000", "134326.455000", "134326.459000", "134326.462000", "134326.466000", "134326.469000", "134326.472000", "134326.476000", "134326.479000", "134326.482000", "134326.486000", "134326.489000", "134326.500000", "134326.503000", "134326.507000", "134326.511000", "134326.514000", "134326.518000", "134326.521000", "134326.531000", "134326.534000", "134326.537000", "134326.541000", "134326.544000", "134326.548000", "134326.551000", "134326.555000", "134351.935000", "134351.946000", "134351.950000", "134351.953000", "134351.957000", "134351.960000", "134351.963000", "134351.967000", "134351.970000", "134351.973000", "134351.977000", "134351.980000", "134351.984000", "134351.987000", "134351.990000", "134351.994000", "134351.997000", "134352.002000"],
      "InstanceCreationTime": ["134006.498000", "134006.501000", "134006.504000", "134006.508000", "134026.455000", "134026.459000", "134026.462000", "134026.465000", "134026.468000", "134026.472000", "134026.475000", "134026.478000", "134026.482000", "134026.485000", "134026.488000", "134026.492000", "134026.495000", "134026.498000", "134026.501000", "134026.505000", "134026.508000", "134026.512000", "134026.516000", "134026.520000", "134026.523000", "134046.455000", "134046.459000", "134046.462000", "134046.465000", "134046.469000", "134046.472000", "134046.475000", "134046.479000", "134046.482000", "134046.485000", "134046.488000", "134046.492000", "134046.495000", "134046.498000", "134046.501000", "134046.505000", "134046.509000", "134046.513000", "134046.516000", "134046.519000", "134106.455000", "134106.459000", "134106.462000", "134106.465000", "134106.469000", "134106.472000", "134106.475000", "134106.479000", "134106.482000", "134106.485000", "134106.488000", "134106.492000", "134106.495000", "134106.498000", "134106.502000", "134106.505000", "134106.508000", "134106.512000", "134106.515000", "134106.518000", "134126.455000", "134126.459000", "134126.462000", "134126.465000", "134126.468000", "134126.472000", "134126.475000", "134126.486000", "134126.489000", "134126.493000", "134126.496000", "134126.499000", "134126.503000", "134126.506000", "134126.509000", "134126.512000", "134126.516000", "134126.519000", "134126.522000", "134126.526000", "134126.529000", "134206.454000", "134206.458000", "134206.461000", "134206.464000", "134206.468000", "134206.471000", "134206.474000", "134206.477000", "134206.481000", "134206.484000", "134206.487000", "134206.490000", "134206.494000", "134206.497000", "134206.500000", "134206.503000", "134206.507000", "134206.510000", "134206.513000", "134206.517000", "134206.520000", "134206.523000", "134206.526000", "134206.530000", "134206.533000", "134206.536000", "134206.540000", "134206.543000", "134206.546000", "134206.550000", "134206.553000", "134206.556000", "134206.560000", "134246.455000", "134246.459000", "134246.462000", "134246.466000", "134246.469000", "134246.472000", "134246.476000", "134246.479000", "134246.482000", "134246.486000", "134246.489000", "134246.492000", "134246.496000", "134246.499000", "134246.502000", "134246.506000", "134246.509000", "134246.512000", "134246.516000", "134246.519000", "134246.522000", "134246.526000", "134246.529000", "134246.532000", "134246.536000", "134246.539000", "134246.542000", "134326.455000", "134326.459000", "134326.462000", "134326.466000", "134326.469000", "134326.472000", "134326.476000", "134326.479000", "134326.482000", "134326.486000", "134326.489000", "134326.500000", "134326.503000", "134326.507000", "134326.511000", "134326.514000", "134326.518000", "134326.521000", "134326.531000", "134326.534000", "134326.537000", "134326.541000", "134326.544000", "134326.548000", "134326.551000", "134326.555000", "134351.935000", "134351.946000", "134351.950000", "134351.953000", "134351.957000", "134351.960000", "134351.963000", "134351.967000", "134351.970000", "134351.973000", "134351.977000", "134351.980000", "134351.984000", "134351.987000", "134351.990000", "134351.994000", "134351.997000", "134352.002000"],
      "InstanceNumber": [1, 2, 3, 4, 5, 6, 7, 8, 9, 10, 11, 12, 13, 14, 15, 16, 17, 18, 19, 20, 21, 22, 23, 24, 25, 26, 27, 28, 29, 30, 31, 32, 33, 34, 35, 36, 37, 38, 39, 40, 41, 42, 43, 44, 45, 46, 47, 48, 49, 50, 51, 52, 53, 54, 55, 56, 57, 58, 59, 60, 61, 62, 63, 64, 65, 66, 67, 68, 69, 70, 71, 72, 73, 74, 75, 76, 77, 78, 79, 80, 81, 82, 83, 84, 85, 86, 87, 88, 89, 90, 91, 92, 93, 94, 95, 96, 97, 98, 99, 100, 101, 102, 103, 104, 105, 106, 107, 108, 109, 110, 111, 112, 113, 114, 115, 116, 117, 118, 119, 120, 121, 122, 123, 124, 125, 126, 127, 128, 129, 130, 131, 132, 133, 134, 135, 136, 137, 138, 139, 140, 141, 142, 143, 144, 145, 146, 147, 148, 149, 150, 151, 152, 153, 154, 155, 156, 157, 158, 159, 160, 161, 162, 163, 164, 165, 166, 167, 168, 169, 170, 171, 172, 173, 174, 175, 176, 177, 178, 179, 180, 181, 182, 183, 184, 185, 186, 187, 188, 189, 190],
      "LargestImagePixelValue": [42227, 40664, 40388, 39764, 39590, 39717, 39800, 39855, 39829, 39692, 39443, 39420, 39645, 39526, 40250, 39466, 39043, 39178, 39739, 39784, 39798, 39047, 39507, 39295, 40333, 39793, 38964, 39017, 39446, 39832, 39942, 39216, 39460, 39629, 40013, 39991, 38884, 39259, 39090, 39622, 39410, 39566, 39705, 40028, 40552, 39412, 38811, 39545, 39555, 39454, 39400, 39626, 39561, 39874, 39990, 39628, 39403, 39794, 39510, 39504, 39135, 39320, 39974, 39135, 39316, 39161, 39426, 39805, 39550, 39583, 39060, 39529, 39851, 39167, 39461, 39528, 39212, 40103, 39423, 39496, 39349, 39846, 39959, 39562, 39906, 39308, 40107, 39138, 39409, 39386, 40027, 39879, 39514, 39474, 39704, 39979, 39533, 39240, 39601, 39800, 39428, 39485, 39634, 39669, 39528, 39151, 39530, 40070, 39524, 39442, 39531, 39963, 39488, 39602, 39267, 39461, 40101, 39062, 39079, 39582, 39180, 39290, 39134, 39008, 39127, 39544, 39775, 40389, 39299, 39503, 39099, 39152, 39949, 39330, 39638, 39581, 39976, 39758, 39657, 40081, 39252, 39401, 40237, 39354, 39611, 39850, 39755, 40480, 39561, 39918, 39844, 39986, 39879, 40118, 39775, 39959, 39562, 39869, 40251, 40206, 40370, 39987, 40140, 40089, 40485, 40004, 39968, 39728, 39958, 40231, 40301, 39799, 40176, 40273, 39893, 40140, 39653, 40384, 40892, 39985, 39871, 39612, 40431, 40342, 40256, 40246, 40329, 40403, 39840, 39861],
      "WindowCenter": [10200.0, 10128.0, 10072.0, 10043.0, 10034.0, 10039.0, 10047.0, 10070.0, 10090.0, 10101.0, 10105.0, 10112.0, 10121.0, 10119.0, 10141.0, 10145.0, 10141.0, 10135.0, 10145.0, 10154.0, 10162.0, 10164.0, 10158.0, 10159.0, 10173.0, 10146.0, 10149.0, 10150.0, 10141.0, 10137.0, 10142.0, 10136.0, 10140.0, 10144.0, 10153.0, 10157.0, 10152.0, 10135.0, 10124.0, 10109.0, 10111.0, 10137.0, 10169.0, 10171.0, 10154.0, 10133.0, 10089.0, 10084.0, 10074.0, 10090.0, 10103.0, 10119.0, 10119.0, 10119.0, 10129.0, 10101.0, 10103.0, 10110.0, 10119.0, 10121.0, 10132.0, 10132.0, 10143.0, 10130.0, 10131.0, 10134.0, 10135.0, 10139.0, 10156.0, 10157.0, 10126.0, 10129.0, 10110.0, 10088.0, 10076.0, 10074.0, 10077.0, 10091.0, 10079.0, 10070.0, 10068.0, 10091.0, 10085.0, 10117.0, 10144.0, 10129.0, 10118.0, 10093.0, 10096.0, 10087.0, 10108.0, 10109.0, 10115.0, 10122.0, 10120.0, 10119.0, 10126.0, 10120.0, 10119.0, 10110.0, 10104.0, 10104.0, 10110.0, 10111.0, 10127.0, 10138.0, 10147.0, 10129.0, 10112.0, 10085.0, 10099.0, 10106.0, 10102.0, 10121.0, 10107.0, 10104.0, 10108.0, 10102.0, 10115.0, 10129.0, 10116.0, 10116.0, 10107.0, 10096.0, 10089.0, 10093.0, 10120.0, 10120.0, 10120.0, 10105.0, 10097.0, 10089.0, 10091.0, 10093.0, 10101.0, 10095.0, 10100.0, 10102.0, 10102.0, 10127.0, 10132.0, 10115.0, 10109.0, 10080.0, 10074.0, 10082.0, 10101.0, 10118.0, 10102.0, 10094.0, 10091.0, 10094.0, 10101.0, 10110.0, 10095.0, 10092.0, 10095.0, 10101.0, 10101.0, 10092.0, 10108.0, 10110.0, 10111.0, 10111.0, 10116.0, 10123.0, 10109.0, 10112.0, 10104.0, 10102.0, 10098.0, 10111.0, 10134.0, 10137.0, 10105.0, 10093.0, 10076.0, 10088.0, 10123.0, 10138.0, 10122.0, 10099.0, 10090.0, 10074.0, 10071.0, 10080.0, 10106.0, 10126.0, 10121.0, 10119.0],
      "WindowWidth": [21747.0, 21558.0, 21416.0, 21343.0, 21322.0, 21328.0, 21347.0, 21396.0, 21445.0, 21470.0, 21484.0, 21498.0, 21518.0, 21513.0, 21561.0, 21571.0, 21564.0, 21551.0, 21571.0, 21590.0, 21608.0, 21614.0, 21600.0, 21604.0, 21635.0, 21573.0, 21580.0, 21582.0, 21561.0, 21549.0, 21556.0, 21547.0, 21558.0, 21565.0, 21587.0, 21598.0, 21585.0, 21547.0, 21519.0, 21482.0, 21489.0, 21550.0, 21623.0, 21626.0, 21583.0, 21539.0, 21438.0, 21426.0, 21403.0, 21438.0, 21472.0, 21509.0, 21507.0, 21508.0, 21531.0, 21463.0, 21472.0, 21487.0, 21507.0, 21514.0, 21540.0, 21543.0, 21563.0, 21534.0, 21537.0, 21545.0, 21550.0, 21555.0, 21593.0, 21595.0, 21526.0, 21528.0, 21481.0, 21435.0, 21407.0, 21402.0, 21414.0, 21441.0, 21419.0, 21395.0, 21391.0, 21442.0, 21428.0, 21503.0, 21565.0, 21532.0, 21505.0, 21449.0, 21458.0, 21438.0, 21485.0, 21489.0, 21505.0, 21523.0, 21514.0, 21512.0, 21525.0, 21512.0, 21508.0, 21488.0, 21475.0, 21475.0, 21485.0, 21490.0, 21524.0, 21552.0, 21571.0, 21528.0, 21488.0, 21429.0, 21460.0, 21477.0, 21472.0, 21515.0, 21485.0, 21477.0, 21480.0, 21471.0, 21503.0, 21533.0, 21506.0, 21505.0, 21484.0, 21456.0, 21440.0, 21448.0, 21510.0, 21505.0, 21508.0, 21477.0, 21458.0, 21442.0, 21442.0, 21450.0, 21467.0, 21454.0, 21465.0, 21471.0, 21470.0, 21525.0, 21539.0, 21500.0, 21481.0, 21421.0, 21403.0, 21423.0, 21465.0, 21507.0, 21468.0, 21450.0, 21442.0, 21452.0, 21465.0, 21489.0, 21452.0, 21443.0, 21454.0, 21466.0, 21463.0, 21445.0, 21481.0, 21488.0, 21493.0, 21492.0, 21501.0, 21523.0, 21483.0, 21493.0, 21475.0, 21466.0, 21457.0, 21490.0, 21540.0, 21546.0, 21474.0, 21445.0, 21409.0, 21434.0, 21515.0, 21554.0, 21516.0, 21463.0, 21439.0, 21403.0, 21395.0, 21418.0, 21477.0, 21524.0, 21513.0, 21504.0]
    },
    "slices": {}
  }
}