{
  "AcquisitionMatrixPE": 104,
  "AcquisitionNumber": 1,
  "AcquisitionTime": "13:45:15.272500",
  "BandwidthPerPixelPhaseEncode": 17.17,
  "BaseResolution": 104,
  "BodyPartExamined": "BRAIN",
  "CoilString": "HC1-7;NC1_2",
  "ConsistencyInfo": "N4_VE11C_LATEST_20160120",
  "ConversionSoftware": "dcm2niix",
  "ConversionSoftwareVersion": "v1.0.20190902",
  "DerivedVendorReportedEchoSpacing": 0.000560011,
  "DeviceSerialNumber": "167006",
  "DwellTime": 2.1e-06,
  "EchoTime": 0.037,
  "EchoTrainLength": 104,
  "EffectiveEchoSpacing": 0.000560011,
  "FlipAngle": 52,
  "ImageComments": "Unaliased_MB4_PE3_LB",
  "ImageOrientationPatientDICOM": [0.999808, 0.00477727, 0.0190055, 0.0001745, 0.967622, -0.252404],
  "ImageType": [
    "ORIGINAL",
    "PRIMARY",
    "M",
    "MB",
    "ND",
    "MOSAIC"
],
  "ImagingFrequency": 123.259,
  "InPlanePhaseEncodingDirectionDICOM": "COL",
  "InstitutionAddress": "Chemin_Queen-Mary_4565_Montreal_District_CA_H3W_1W5",
  "InstitutionName": "IUGM",
  "InstitutionalDepartmentName": "Department",
  "MRAcquisitionType": "2D",
  "MagneticFieldStrength": 3,
  "Manufacturer": "Siemens",
  "ManufacturersModelName": "Prisma_fit",
  "Modality": "MR",
  "MultibandAccelerationFactor": 4,
  "PartialFourier": 1,
  "PatientPosition": "HFS",
  "PercentPhaseFOV": 100,
  "PhaseEncodingDirection": "j",
  "PhaseEncodingSteps": 104,
  "PhaseResolution": 1,
  "PixelBandwidth": 2290,
  "ProcedureStepDescription": "memory_things",
  "ProtocolName": "func_task-things_run-3",
  "PulseSequenceDetails": "%CustomerSeq%_cmrr_mbep2d_bold",
  "ReceiveCoilActiveElements": "HC1-7;NC1,2",
  "ReceiveCoilName": "HeadNeck_64",
  "ReconMatrixPE": 104,
  "RepetitionTime": 1.49,
  "SAR": 0.0483908,
  "ScanOptions": "FS",
  "ScanningSequence": "EP",
  "SequenceName": "epfid2d1_104",
  "SequenceVariant": "SK_SS",
  "SeriesDescription": "func_task-things_run-3",
  "SeriesNumber": 16,
  "ShimSetting": [634, -7210, -8764, 717, 51, 20, 54, -10],
  "SliceThickness": 2,
  "SliceTiming": [0, 0.7825, 0.0975, 0.8825, 0.195, 0.98, 0.2925, 1.0775, 0.3925, 1.175, 0.49, 1.2725, 0.5875, 1.3725, 0.685, 0, 0.7825, 0.0975, 0.8825, 0.195, 0.98, 0.2925, 1.0775, 0.3925, 1.175, 0.49, 1.2725, 0.5875, 1.3725, 0.685, 0, 0.7825, 0.0975, 0.8825, 0.195, 0.98, 0.2925, 1.0775, 0.3925, 1.175, 0.49, 1.2725, 0.5875, 1.3725, 0.685, 0, 0.7825, 0.0975, 0.8825, 0.195, 0.98, 0.2925, 1.0775, 0.3925, 1.175, 0.49, 1.2725, 0.5875, 1.3725, 0.685],
  "SoftwareVersions": "syngo_MR_E11",
  "SpacingBetweenSlices": 2,
  "StationName": "MRC35049",
  "TaskName": "things",
  "TotalReadoutTime": 0.0576811,
  "TxRefAmp": 233.671,
  "WipMemBlock": "587621bd-a4ad-4a1a-b417-4140574ab5f1||Sequence: R016 ve11c/master r/e634e98; Dec 19 2017 11:00:25 by eja",
  "dcmmeta_affine": [
    [-1.9996159076690674, 0.0003490002709440887, 0.039191823452711105, 108.1073226928711],
    [-0.009554533287882805, 1.9352439641952515, -0.5047174692153931, -74.38790130615234],
    [0.038010939955711365, 0.5048077702522278, 1.9348706007003784, -58.15380859375],
    [0.0, 0.0, 0.0, 1.0]
],
  "dcmmeta_reorient_transform": [
    [0.0, -1.0, 0.0, 103.0],
    [1.0, 0.0, 0.0, 0.0],
    [0.0, 0.0, 1.0, 0.0],
    [0.0, 0.0, 0.0, 1.0]
],
  "dcmmeta_shape": [104, 104, 60, 190],
  "dcmmeta_slice_dim": 2,
  "dcmmeta_version": 0.6,
  "global": {
    "const": {
      "AcquisitionMatrix": [104, 0, 0, 104],
      "AngioFlag": "N",
      "BitsAllocated": 16,
      "BitsStored": 16,
      "BodyPartExamined": "BRAIN",
      "Columns": 832,
      "EchoNumbers": 1,
      "EchoTime": 37.0,
      "EchoTrainLength": 104,
      "FlipAngle": 52.0,
      "HighBit": 15,
      "ImageOrientationPatient": [0.99980796646558, 0.00477726643656, 0.01900547072179, 0.00017450013683, 0.96762195696734, -0.2524038786239],
      "ImagePositionPatient": [-836.13050613106, -832.84885414365, 163.75543039167],
      "ImageType": [
        "ORIGINAL",
        "PRIMARY",
        "M",
        "MB",
        "ND",
        "MOSAIC"
],
      "ImagedNucleus": "1H",
      "ImagingFrequency": 123.258918,
      "InPlanePhaseEncodingDirection": "COL",
      "MRAcquisitionType": "2D",
      "MagneticFieldStrength": 3.0,
      "Manufacturer": "SIEMENS",
      "ManufacturerModelName": "Prisma_fit",
      "Modality": "MR",
      "NumberOfAverages": 1.0,
      "NumberOfPhaseEncodingSteps": 104,
      "PercentPhaseFieldOfView": 100.0,
      "PercentSampling": 100.0,
      "PerformedProcedureStepStartTime": "125811.868000",
      "PhotometricInterpretation": "MONOCHROME2",
      "PixelBandwidth": 2290.0,
      "PixelRepresentation": 0,
      "PixelSpacing": [2.0, 2.0],
      "ProtocolName": "func_task-things_run-3",
      "RepetitionTime": 1490.0,
      "Rows": 832,
      "SAR": 0.04839084328241,
      "SamplesPerPixel": 1,
      "ScanOptions": "FS",
      "ScanningSequence": "EP",
      "SequenceName": "epfid2d1_104",
      "SequenceVariant": [
        "SK",
        "SS"
],
      "SeriesDescription": "func_task-things_run-3",
      "SeriesNumber": 16,
      "SeriesTime": "134631.400000",
      "SliceLocation": -35.369150583078,
      "SliceThickness": 2.0,
      "SmallestImagePixelValue": 0,
      "SoftwareVersions": "syngo MR E11",
      "SpacingBetweenSlices": 1.9999999579229,
      "SpecificCharacterSet": "ISO_IR 100",
      "StudyID": "1",
      "StudyTime": "125811.763000",
      "TransmitCoilName": "Body",
      "VariableFlipAngleFlag": "N",
      "WindowCenterWidthExplanation": "Algo1",
      "dBdt": 0.0},
    "slices": {}
  },
  "time": {
    "samples": {
      "AcquisitionNumber": [1, 2, 3, 4, 5, 6, 7, 8, 9, 10, 11, 12, 13, 14, 15, 16, 17, 18, 19, 20, 21, 22, 23, 24, 25, 26, 27, 28, 29, 30, 31, 32, 33, 34, 35, 36, 37, 38, 39, 40, 41, 42, 43, 44, 45, 46, 47, 48, 49, 50, 51, 52, 53, 54, 55, 56, 57, 58, 59, 60, 61, 62, 63, 64, 65, 66, 67, 68, 69, 70, 71, 72, 73, 74, 75, 76, 77, 78, 79, 80, 81, 82, 83, 84, 85, 86, 87, 88, 89, 90, 91, 92, 93, 94, 95, 96, 97, 98, 99, 100, 101, 102, 103, 104, 105, 106, 107, 108, 109, 110, 111, 112, 113, 114, 115, 116, 117, 118, 119, 120, 121, 122, 123, 124, 125, 126, 127, 128, 129, 130, 131, 132, 133, 134, 135, 136, 137, 138, 139, 140, 141, 142, 143, 144, 145, 146, 147, 148, 149, 150, 151, 152, 153, 154, 155, 156, 157, 158, 159, 160, 161, 162, 163, 164, 165, 166, 167, 168, 169, 170, 171, 172, 173, 174, 175, 176, 177, 178, 179, 180, 181, 182, 183, 184, 185, 186, 187, 188, 189, 190],
      "AcquisitionTime": ["134515.272500", "134516.762500", "134518.252500", "134519.742500", "134521.232500", "134522.722500", "134524.212500", "134525.702500", "134527.192500", "134528.682500", "134530.172500", "134531.662500", "134533.152500", "134534.642500", "134536.132500", "134537.622500", "134539.112500", "134540.602500", "134542.092500", "134543.582500", "134545.072500", "134546.562500", "134548.052500", "134549.542500", "134551.032500", "134552.522500", "134554.012500", "134555.502500", "134556.992500", "134558.482500", "134559.972500", "134601.462500", "134602.952500", "134604.442500", "134605.932500", "134607.422500", "134608.912500", "134610.402500", "134611.892500", "134613.382500", "134614.872500", "134616.362500", "134617.852500", "134619.342500", "134620.832500", "134622.322500", "134623.812500", "134625.302500", "134626.792500", "134628.282500", "134629.772500", "134631.262500", "134632.752500", "134634.242500", "134635.732500", "134637.222500", "134638.712500", "134640.202500", "134641.692500", "134643.182500", "134644.672500", "134646.162500", "134647.652500", "134649.142500", "134650.632500", "134652.122500", "134653.612500", "134655.102500", "134656.592500", "134658.082500", "134659.572500", "134701.062500", "134702.552500", "134704.042500", "134705.532500", "134707.022500", "134708.512500", "134710.002500", "134711.492500", "134712.982500", "134714.472500", "134715.962500", "134717.452500", "134718.942500", "134720.432500", "134721.922500", "134723.412500", "134724.902500", "134726.392500", "134727.882500", "134729.372500", "134730.862500", "134732.352500", "134733.842500", "134735.332500", "134736.822500", "134738.312500", "134739.802500", "134741.292500", "134742.782500", "134744.272500", "134745.762500", "134747.252500", "134748.742500", "134750.232500", "134751.722500", "134753.212500", "134754.702500", "134756.192500", "134757.682500", "134759.172500", "134800.662500", "134802.152500", "134803.642500", "134805.132500", "134806.622500", "134808.112500", "134809.602500", "134811.092500", "134812.582500", "134814.072500", "134815.562500", "134817.052500", "134818.542500", "134820.032500", "134821.522500", "134823.012500", "134824.502500", "134825.992500", "134827.482500", "134828.972500", "134830.462500", "134831.952500", "134833.442500", "134834.932500", "134836.422500", "134837.912500", "134839.402500", "134840.892500", "134842.382500", "134843.872500", "134845.362500", "134846.852500", "134848.342500", "134849.832500", "134851.322500", "134852.812500", "134854.302500", "134855.792500", "134857.282500", "134858.772500", "134900.262500", "134901.752500", "134903.242500", "134904.732500", "134906.222500", "134907.712500", "134909.202500", "134910.692500", "134912.182500", "134913.672500", "134915.162500", "134916.652500", "134918.142500", "134919.632500", "134921.122500", "134922.612500", "134924.102500", "134925.592500", "134927.082500", "134928.572500", "134930.062500", "134931.552500", "134933.042500", "134934.532500", "134936.022500", "134937.512500", "134939.002500", "134940.492500", "134941.982500", "134943.472500", "134944.962500", "134946.452500", "134947.942500", "134949.432500", "134950.922500", "134952.412500", "134953.902500", "134955.392500", "134956.882500"],
      "ContentTime": ["134631.403000", "134631.407000", "134631.410000", "134631.414000", "134631.417000", "134631.420000", "134631.423000", "134631.427000", "134631.430000", "134631.433000", "134631.437000", "134631.440000", "134631.443000", "134631.446000", "134631.450000", "134631.453000", "134631.456000", "134631.460000", "134631.463000", "134631.466000", "134631.469000", "134631.473000", "134651.361000", "134651.365000", "134651.368000", "134651.371000", "134651.375000", "134651.378000", "134651.381000", "134651.385000", "134651.388000", "134651.391000", "134651.394000", "134651.398000", "134651.401000", "134651.405000", "134651.409000", "134651.412000", "134651.416000", "134651.419000", "134651.422000", "134651.426000", "134711.361000", "134711.365000", "134711.377000", "134711.381000", "134711.384000", "134711.388000", "134711.398000", "134711.401000", "134711.405000", "134711.408000", "134711.411000", "134711.415000", "134711.418000", "134711.421000", "134711.427000", "134711.430000", "134711.434000", "134711.437000", "134711.440000", "134711.444000", "134711.447000", "134731.360000", "134731.364000", "134731.367000", "134731.370000", "134731.374000", "134731.377000", "134731.380000", "134731.383000", "134731.387000", "134731.390000", "134731.394000", "134731.397000", "134731.400000", "134731.404000", "134731.407000", "134731.410000", "134731.414000", "134731.417000", "134731.420000", "134731.423000", "134751.360000", "134751.364000", "134751.367000", "134751.370000", "134751.373000", "134751.377000", "134751.380000", "134751.383000", "134751.387000", "134751.390000", "134751.393000", "134751.396000", "134751.400000", "134751.403000", "134751.406000", "134751.409000", "134751.413000", "134751.416000", "134751.419000", "134751.423000", "134811.360000", "134811.364000", "134811.367000", "134811.371000", "134811.374000", "134811.378000", "134811.381000", "134811.384000", "134811.388000", "134811.391000", "134811.394000", "134811.398000", "134811.401000", "134811.404000", "134851.361000", "134851.365000", "134851.368000", "134851.371000", "134851.375000", "134851.378000", "134851.382000", "134851.385000", "134851.388000", "134851.391000", "134851.395000", "134851.398000", "134851.401000", "134851.405000", "134851.408000", "134851.411000", "134851.415000", "134851.418000", "134851.421000", "134851.425000", "134851.428000", "134851.431000", "134851.435000", "134851.438000", "134851.441000", "134851.445000", "134851.448000", "134931.361000", "134931.365000", "134931.368000", "134931.372000", "134931.375000", "134931.378000", "134931.381000", "134931.385000", "134931.388000", "134931.392000", "134931.395000", "134931.398000", "134931.402000", "134931.405000", "134931.408000", "134931.412000", "134931.415000", "134931.418000", "134931.422000", "134931.425000", "134931.428000", "134931.432000", "134931.435000", "134931.438000", "134931.442000", "134931.445000", "134931.448000", "134959.301000", "134959.305000", "134959.309000", "134959.312000", "134959.316000", "134959.327000", "134959.330000", "134959.333000", "134959.336000", "134959.340000", "134959.344000", "134959.347000", "134959.350000", "134959.354000", "134959.357000", "134959.360000", "134959.364000", "134959.367000", "134959.370000"],
      "InstanceCreationTime": ["134631.403000", "134631.407000", "134631.410000", "134631.414000", "134631.417000", "134631.420000", "134631.423000", "134631.427000", "134631.430000", "134631.433000", "134631.437000", "134631.440000", "134631.443000", "134631.446000", "134631.450000", "134631.453000", "134631.456000", "134631.460000", "134631.463000", "134631.466000", "134631.469000", "134631.473000", "134651.361000", "134651.365000", "134651.368000", "134651.371000", "134651.375000", "134651.378000", "134651.381000", "134651.385000", "134651.388000", "134651.391000", "134651.394000", "134651.398000", "134651.401000", "134651.405000", "134651.409000", "134651.412000", "134651.416000", "134651.419000", "134651.422000", "134651.426000", "134711.361000", "134711.365000", "134711.377000", "134711.381000", "134711.384000", "134711.388000", "134711.398000", "134711.401000", "134711.405000", "134711.408000", "134711.411000", "134711.415000", "134711.418000", "134711.421000", "134711.427000", "134711.430000", "134711.434000", "134711.437000", "134711.440000", "134711.444000", "134711.447000", "134731.360000", "134731.364000", "134731.367000", "134731.370000", "134731.374000", "134731.377000", "134731.380000", "134731.383000", "134731.387000", "134731.390000", "134731.394000", "134731.397000", "134731.400000", "134731.404000", "134731.407000", "134731.410000", "134731.414000", "134731.417000", "134731.420000", "134731.423000", "134751.360000", "134751.364000", "134751.367000", "134751.370000", "134751.373000", "134751.377000", "134751.380000", "134751.383000", "134751.387000", "134751.390000", "134751.393000", "134751.396000", "134751.400000", "134751.403000", "134751.406000", "134751.409000", "134751.413000", "134751.416000", "134751.419000", "134751.423000", "134811.360000", "134811.364000", "134811.367000", "134811.371000", "134811.374000", "134811.378000", "134811.381000", "134811.384000", "134811.388000", "134811.391000", "134811.394000", "134811.398000", "134811.401000", "134811.404000", "134851.361000", "134851.365000", "134851.368000", "134851.371000", "134851.375000", "134851.378000", "134851.382000", "134851.385000", "134851.388000", "134851.391000", "134851.395000", "134851.398000", "134851.401000", "134851.405000", "134851.408000", "134851.411000", "134851.415000", "134851.418000", "134851.421000", "134851.425000", "134851.428000", "134851.431000", "134851.435000", "134851.438000", "134851.441000", "134851.445000", "134851.448000", "134931.361000", "134931.365000", "134931.368000", "134931.372000", "134931.375000", "134931.378000", "134931.381000", "134931.385000", "134931.388000", "134931.392000", "134931.395000", "134931.398000", "134931.402000", "134931.405000", "134931.408000", "134931.412000", "134931.415000", "134931.418000", "134931.422000", "134931.425000", "134931.428000", "134931.432000", "134931.435000", "134931.438000", "134931.442000", "134931.445000", "134931.448000", "134959.301000", "134959.305000", "134959.309000", "134959.312000", "134959.316000", "134959.327000", "134959.330000", "134959.333000", "134959.336000", "134959.340000", "134959.344000", "134959.347000", "134959.350000", "134959.354000", "134959.357000", "134959.360000", "134959.364000", "134959.367000", "134959.370000"],
      "InstanceNumber": [1, 2, 3, 4, 5, 6, 7, 8, 9, 10, 11, 12, 13, 14, 15, 16, 17, 18, 19, 20, 21, 22, 23, 24, 25, 26, 27, 28, 29, 30, 31, 32, 33, 34, 35, 36, 37, 38, 39, 40, 41, 42, 43, 44, 45, 46, 47, 48, 49, 50, 51, 52, 53, 54, 55, 56, 57, 58, 59, 60, 61, 62, 63, 64, 65, 66, 67, 68, 69, 70, 71, 72, 73, 74, 75, 76, 77, 78, 79, 80, 81, 82, 83, 84, 85, 86, 87, 88, 89, 90, 91, 92, 93, 94, 95, 96, 97, 98, 99, 100, 101, 102, 103, 104, 105, 106, 107, 108, 109, 110, 111, 112, 113, 114, 115, 116, 117, 118, 119, 120, 121, 122, 123, 124, 125, 126, 127, 128, 129, 130, 131, 132, 133, 134, 135, 136, 137, 138, 139, 140, 141, 142, 143, 144, 145, 146, 147, 148, 149, 150, 151, 152, 153, 154, 155, 156, 157, 158, 159, 160, 161, 162, 163, 164, 165, 166, 167, 168, 169, 170, 171, 172, 173, 174, 175, 176, 177, 178, 179, 180, 181, 182, 183, 184, 185, 186, 187, 188, 189, 190],
      "LargestImagePixelValue": [42666, 41704, 40920, 41039, 40861, 40445, 40445, 40299, 40014, 40211, 40043, 40103, 40339, 40559, 40376, 39752, 39910, 39884, 40557, 39925, 39682, 40127, 39938, 40042, 39646, 39579, 40282, 40403, 40161, 39796, 40831, 39521, 39853, 39593, 40010, 39712, 39862, 39675, 40106, 39544, 40213, 39795, 40452, 40228, 39956, 40255, 39751, 40060, 39901, 40098, 40083, 39798, 39927, 39951, 39890, 39510, 40022, 39827, 39678, 40046, 39517, 39922, 39540, 39435, 39579, 39893, 39694, 39614, 39737, 39486, 40177, 39940, 39699, 39719, 40293, 40145, 39361, 39909, 39251, 39411, 39294, 39960, 39722, 39996, 39946, 39654, 39408, 38866, 39919, 39764, 39714, 39467, 39297, 39184, 39745, 39668, 39849, 39607, 39605, 39604, 39498, 39209, 39418, 39450, 39725, 39296, 39439, 39660, 39558, 39354, 39159, 39537, 39159, 39432, 39488, 39517, 39093, 39734, 39671, 39567, 38988, 39394, 39449, 39126, 39347, 38601, 39388, 38988, 38910, 39498, 39130, 39323, 39200, 39062, 39230, 39455, 39296, 39347, 38743, 39080, 39478, 39047, 39222, 39095, 39180, 39413, 39074, 39352, 39131, 38911, 38837, 39117, 39130, 38616, 38714, 38886, 38941, 39439, 39269, 38999, 39858, 38426, 38845, 39263, 38872, 39060, 38855, 39413, 39470, 38798, 39172, 38784, 39058, 39129, 38750, 38947, 38623, 39283, 38852, 38739, 38711, 38892, 39134, 38900, 38868, 39345, 39397, 39260, 39176, 38326],
      "WindowCenter": [10175.0, 10115.0, 10088.0, 10064.0, 10063.0, 10075.0, 10091.0, 10100.0, 10105.0, 10117.0, 10108.0, 10105.0, 10121.0, 10084.0, 10092.0, 10085.0, 10093.0, 10105.0, 10117.0, 10104.0, 10106.0, 10114.0, 10108.0, 10112.0, 10103.0, 10104.0, 10116.0, 10118.0, 10112.0, 10116.0, 10142.0, 10132.0, 10134.0, 10143.0, 10093.0, 10093.0, 10101.0, 10105.0, 10098.0, 10098.0, 10086.0, 10078.0, 10085.0, 10084.0, 10078.0, 10113.0, 10084.0, 10102.0, 10103.0, 10097.0, 10095.0, 10095.0, 10112.0, 10115.0, 10108.0, 10092.0, 10096.0, 10098.0, 10115.0, 10131.0, 10118.0, 10115.0, 10098.0, 10109.0, 10106.0, 10119.0, 10089.0, 10087.0, 10086.0, 10097.0, 10094.0, 10078.0, 10090.0, 10078.0, 10103.0, 10156.0, 10153.0, 10124.0, 10063.0, 10048.0, 10036.0, 10026.0, 10024.0, 10040.0, 10051.0, 10062.0, 10062.0, 10045.0, 10057.0, 10069.0, 10085.0, 10091.0, 10090.0, 10084.0, 10089.0, 10090.0, 10095.0, 10114.0, 10131.0, 10131.0, 10111.0, 10092.0, 10091.0, 10071.0, 10088.0, 10089.0, 10092.0, 10090.0, 10097.0, 10105.0, 10109.0, 10125.0, 10129.0, 10133.0, 10119.0, 10084.0, 10063.0, 10062.0, 10051.0, 10058.0, 10071.0, 10062.0, 10078.0, 10081.0, 10082.0, 10082.0, 10087.0, 10082.0, 10117.0, 10137.0, 10122.0, 10101.0, 10064.0, 10055.0, 10070.0, 10068.0, 10073.0, 10081.0, 10076.0, 10074.0, 10078.0, 10064.0, 10079.0, 10090.0, 10118.0, 10106.0, 10102.0, 10110.0, 10110.0, 10110.0, 10120.0, 10094.0, 10092.0, 10082.0, 10085.0, 10083.0, 10079.0, 10088.0, 10098.0, 10117.0, 10142.0, 10096.0, 10069.0, 10062.0, 10048.0, 10055.0, 10063.0, 10080.0, 10109.0, 10066.0, 10081.0, 10077.0, 10083.0, 10076.0, 10069.0, 10065.0, 10074.0, 10097.0, 10083.0, 10093.0, 10092.0, 10084.0, 10067.0, 10050.0, 10046.0, 10060.0, 10100.0, 10120.0, 10109.0, 10083.0],
      "WindowWidth": [21685.0, 21525.0, 21454.0, 21388.0, 21383.0, 21413.0, 21445.0, 21465.0, 21480.0, 21502.0, 21486.0, 21475.0, 21515.0, 21428.0, 21446.0, 21432.0, 21451.0, 21480.0, 21505.0, 21476.0, 21483.0, 21501.0, 21482.0, 21494.0, 21474.0, 21475.0, 21498.0, 21506.0, 21492.0, 21508.0, 21562.0, 21543.0, 21545.0, 21569.0, 21446.0, 21447.0, 21465.0, 21475.0, 21461.0, 21459.0, 21432.0, 21416.0, 21430.0, 21425.0, 21416.0, 21497.0, 21427.0, 21470.0, 21471.0, 21459.0, 21454.0, 21453.0, 21493.0, 21503.0, 21487.0, 21454.0, 21458.0, 21463.0, 21503.0, 21539.0, 21510.0, 21500.0, 21463.0, 21492.0, 21484.0, 21508.0, 21441.0, 21434.0, 21432.0, 21460.0, 21450.0, 21412.0, 21444.0, 21417.0, 21476.0, 21596.0, 21592.0, 21521.0, 21379.0, 21347.0, 21318.0, 21296.0, 21293.0, 21330.0, 21356.0, 21381.0, 21382.0, 21342.0, 21364.0, 21394.0, 21431.0, 21448.0, 21446.0, 21434.0, 21440.0, 21444.0, 21456.0, 21502.0, 21542.0, 21537.0, 21493.0, 21447.0, 21447.0, 21401.0, 21439.0, 21444.0, 21451.0, 21447.0, 21462.0, 21481.0, 21492.0, 21525.0, 21536.0, 21541.0, 21509.0, 21430.0, 21382.0, 21380.0, 21352.0, 21370.0, 21403.0, 21382.0, 21417.0, 21428.0, 21431.0, 21428.0, 21440.0, 21431.0, 21512.0, 21559.0, 21521.0, 21467.0, 21383.0, 21365.0, 21398.0, 21394.0, 21407.0, 21423.0, 21415.0, 21409.0, 21415.0, 21388.0, 21421.0, 21447.0, 21513.0, 21483.0, 21474.0, 21493.0, 21492.0, 21491.0, 21517.0, 21454.0, 21451.0, 21427.0, 21434.0, 21430.0, 21419.0, 21438.0, 21463.0, 21510.0, 21564.0, 21461.0, 21397.0, 21377.0, 21348.0, 21364.0, 21385.0, 21424.0, 21491.0, 21394.0, 21424.0, 21419.0, 21430.0, 21414.0, 21400.0, 21391.0, 21413.0, 21462.0, 21433.0, 21457.0, 21452.0, 21432.0, 21394.0, 21355.0, 21345.0, 21372.0, 21464.0, 21509.0, 21487.0, 21428.0]
    },
    "slices": {}
  }
}