{
  "AcquisitionMatrixPE": 104,
  "AcquisitionNumber": 1,
  "AcquisitionTime": "14:03:44.962500",
  "BandwidthPerPixelPhaseEncode": 17.17,
  "BaseResolution": 104,
  "BodyPartExamined": "BRAIN",
  "CoilString": "HC1-7;NC1_2",
  "ConsistencyInfo": "N4_VE11C_LATEST_20160120",
  "ConversionSoftware": "dcm2niix",
  "ConversionSoftwareVersion": "v1.0.20190902",
  "DerivedVendorReportedEchoSpacing": 0.000560011,
  "DeviceSerialNumber": "167006",
  "DwellTime": 2.1e-06,
  "EchoTime": 0.037,
  "EchoTrainLength": 104,
  "EffectiveEchoSpacing": 0.000560011,
  "FlipAngle": 52,
  "ImageComments": "Unaliased_MB4_PE3_LB",
  "ImageOrientationPatientDICOM": [0.999808, 0.00477727, 0.0190055, 0.0001745, 0.967622, -0.252404],
  "ImageType": [
    "ORIGINAL",
    "PRIMARY",
    "P",
    "MB",
    "ND",
    "MOSAIC"
],
  "ImagingFrequency": 123.259,
  "InPlanePhaseEncodingDirectionDICOM": "COL",
  "InstitutionAddress": "Chemin_Queen-Mary_4565_Montreal_District_CA_H3W_1W5",
  "InstitutionName": "IUGM",
  "InstitutionalDepartmentName": "Department",
  "MRAcquisitionType": "2D",
  "MagneticFieldStrength": 3,
  "Manufacturer": "Siemens",
  "ManufacturersModelName": "Prisma_fit",
  "Modality": "MR",
  "MultibandAccelerationFactor": 4,
  "PartialFourier": 1,
  "PatientPosition": "HFS",
  "PercentPhaseFOV": 100,
  "PhaseEncodingDirection": "j",
  "PhaseEncodingSteps": 104,
  "PhaseResolution": 1,
  "PixelBandwidth": 2290,
  "ProcedureStepDescription": "memory_things",
  "ProtocolName": "func_task-things_run-6",
  "PulseSequenceDetails": "%CustomerSeq%_cmrr_mbep2d_bold",
  "ReceiveCoilActiveElements": "HC1-7;NC1,2",
  "ReceiveCoilName": "HeadNeck_64",
  "ReconMatrixPE": 104,
  "RepetitionTime": 1.49,
  "SAR": 0.0483908,
  "ScanOptions": "FS",
  "ScanningSequence": "EP",
  "SequenceName": "epfid2d1_104",
  "SequenceVariant": "SK_SS",
  "SeriesDescription": "func_task-things_run-6",
  "SeriesNumber": 26,
  "ShimSetting": [634, -7210, -8764, 717, 51, 20, 54, -10],
  "SliceThickness": 2,
  "SliceTiming": [0, 0.785, 0.0975, 0.8825, 0.195, 0.98, 0.295, 1.0775, 0.3925, 1.175, 0.49, 1.275, 0.5875, 1.3725, 0.685, 0, 0.785, 0.0975, 0.8825, 0.195, 0.98, 0.295, 1.0775, 0.3925, 1.175, 0.49, 1.275, 0.5875, 1.3725, 0.685, 0, 0.785, 0.0975, 0.8825, 0.195, 0.98, 0.295, 1.0775, 0.3925, 1.175, 0.49, 1.275, 0.5875, 1.3725, 0.685, 0, 0.785, 0.0975, 0.8825, 0.195, 0.98, 0.295, 1.0775, 0.3925, 1.175, 0.49, 1.275, 0.5875, 1.3725, 0.685],
  "SoftwareVersions": "syngo_MR_E11",
  "SpacingBetweenSlices": 2,
  "StationName": "MRC35049",
  "TaskName": "things",
  "TotalReadoutTime": 0.0576811,
  "TxRefAmp": 233.671,
  "WipMemBlock": "d2ab3630-8499-4a4d-b050-f2d6c594ca29||Sequence: R016 ve11c/master r/e634e98; Dec 19 2017 11:00:25 by eja",
  "dcmmeta_affine": [
    [-1.9996159076690674, 0.0003490002709440887, 0.039191823452711105, 108.1073226928711],
    [-0.009554533287882805, 1.9352439641952515, -0.5047174692153931, -74.38790130615234],
    [0.038010939955711365, 0.5048077702522278, 1.9348706007003784, -58.15380859375],
    [0.0, 0.0, 0.0, 1.0]
],
  "dcmmeta_reorient_transform": [
    [0.0, -1.0, 0.0, 103.0],
    [1.0, 0.0, 0.0, 0.0],
    [0.0, 0.0, 1.0, 0.0],
    [0.0, 0.0, 0.0, 1.0]
],
  "dcmmeta_shape": [104, 104, 60, 190],
  "dcmmeta_slice_dim": 2,
  "dcmmeta_version": 0.6,
  "global": {
    "const": {
      "AcquisitionMatrix": [104, 0, 0, 104],
      "AngioFlag": "N",
      "BitsAllocated": 16,
      "BitsStored": 16,
      "BodyPartExamined": "BRAIN",
      "Columns": 832,
      "EchoNumbers": 1,
      "EchoTime": 37.0,
      "EchoTrainLength": 104,
      "FlipAngle": 52.0,
      "HighBit": 15,
      "ImageOrientationPatient": [0.99980796646558, 0.00477726643656, 0.01900547072179, 0.00017450013683, 0.96762195696734, -0.2524038786239],
      "ImagePositionPatient": [-836.13050613106, -832.84885414365, 163.75543039167],
      "ImageType": [
        "ORIGINAL",
        "PRIMARY",
        "P",
        "MB",
        "ND",
        "MOSAIC"
],
      "ImagedNucleus": "1H",
      "ImagingFrequency": 123.258925,
      "InPlanePhaseEncodingDirection": "COL",
      "LargestImagePixelValue": 4095,
      "MRAcquisitionType": "2D",
      "MagneticFieldStrength": 3.0,
      "Manufacturer": "SIEMENS",
      "ManufacturerModelName": "Prisma_fit",
      "Modality": "MR",
      "NumberOfAverages": 1.0,
      "NumberOfPhaseEncodingSteps": 104,
      "PercentPhaseFieldOfView": 100.0,
      "PercentSampling": 100.0,
      "PerformedProcedureStepStartTime": "125811.868000",
      "PhotometricInterpretation": "MONOCHROME2",
      "PixelBandwidth": 2290.0,
      "PixelRepresentation": 0,
      "PixelSpacing": [2.0, 2.0],
      "ProtocolName": "func_task-things_run-6",
      "RepetitionTime": 1490.0,
      "RescaleIntercept": -4096.0,
      "RescaleSlope": 2.0,
      "RescaleType": "US",
      "Rows": 832,
      "SAR": 0.04839084328241,
      "SamplesPerPixel": 1,
      "ScanOptions": "FS",
      "ScanningSequence": "EP",
      "SequenceName": "epfid2d1_104",
      "SequenceVariant": [
        "SK",
        "SS"
],
      "SeriesDescription": "func_task-things_run-6",
      "SeriesNumber": 26,
      "SeriesTime": "140511.556000",
      "SliceLocation": -35.369150583078,
      "SliceThickness": 2.0,
      "SmallestImagePixelValue": 0,
      "SoftwareVersions": "syngo MR E11",
      "SpacingBetweenSlices": 1.9999999579229,
      "SpecificCharacterSet": "ISO_IR 100",
      "StudyID": "1",
      "StudyTime": "125811.763000",
      "TransmitCoilName": "Body",
      "VariableFlipAngleFlag": "N",
      "WindowCenterWidthExplanation": "Algo1",
      "dBdt": 0.0},
    "slices": {}
  },
  "time": {
    "samples": {
      "AcquisitionNumber": [1, 2, 3, 4, 5, 6, 7, 8, 9, 10, 11, 12, 13, 14, 15, 16, 17, 18, 19, 20, 21, 22, 23, 24, 25, 26, 27, 28, 29, 30, 31, 32, 33, 34, 35, 36, 37, 38, 39, 40, 41, 42, 43, 44, 45, 46, 47, 48, 49, 50, 51, 52, 53, 54, 55, 56, 57, 58, 59, 60, 61, 62, 63, 64, 65, 66, 67, 68, 69, 70, 71, 72, 73, 74, 75, 76, 77, 78, 79, 80, 81, 82, 83, 84, 85, 86, 87, 88, 89, 90, 91, 92, 93, 94, 95, 96, 97, 98, 99, 100, 101, 102, 103, 104, 105, 106, 107, 108, 109, 110, 111, 112, 113, 114, 115, 116, 117, 118, 119, 120, 121, 122, 123, 124, 125, 126, 127, 128, 129, 130, 131, 132, 133, 134, 135, 136, 137, 138, 139, 140, 141, 142, 143, 144, 145, 146, 147, 148, 149, 150, 151, 152, 153, 154, 155, 156, 157, 158, 159, 160, 161, 162, 163, 164, 165, 166, 167, 168, 169, 170, 171, 172, 173, 174, 175, 176, 177, 178, 179, 180, 181, 182, 183, 184, 185, 186, 187, 188, 189, 190],
      "AcquisitionTime": ["140344.962500", "140346.452500", "140347.942500", "140349.432500", "140350.922500", "140352.412500", "140353.902500", "140355.392500", "140356.882500", "140358.372500", "140359.862500", "140401.352500", "140402.842500", "140404.332500", "140405.822500", "140407.312500", "140408.802500", "140410.292500", "140411.782500", "140413.272500", "140414.762500", "140416.252500", "140417.742500", "140419.232500", "140420.722500", "140422.212500", "140423.702500", "140425.192500", "140426.682500", "140428.172500", "140429.662500", "140431.152500", "140432.642500", "140434.132500", "140435.622500", "140437.112500", "140438.602500", "140440.092500", "140441.582500", "140443.072500", "140444.562500", "140446.052500", "140447.542500", "140449.032500", "140450.522500", "140452.012500", "140453.502500", "140454.992500", "140456.482500", "140457.972500", "140459.462500", "140500.952500", "140502.442500", "140503.932500", "140505.422500", "140506.912500", "140508.402500", "140509.892500", "140511.382500", "140512.872500", "140514.362500", "140515.852500", "140517.342500", "140518.832500", "140520.322500", "140521.812500", "140523.302500", "140524.792500", "140526.282500", "140527.772500", "140529.262500", "140530.752500", "140532.242500", "140533.732500", "140535.222500", "140536.712500", "140538.202500", "140539.692500", "140541.182500", "140542.672500", "140544.162500", "140545.652500", "140547.142500", "140548.632500", "140550.122500", "140551.612500", "140553.102500", "140554.592500", "140556.082500", "140557.572500", "140559.062500", "140600.552500", "140602.042500", "140603.532500", "140605.022500", "140606.512500", "140608.002500", "140609.492500", "140610.982500", "140612.472500", "140613.962500", "140615.452500", "140616.942500", "140618.432500", "140619.922500", "140621.412500", "140622.902500", "140624.392500", "140625.882500", "140627.372500", "140628.862500", "140630.352500", "140631.842500", "140633.332500", "140634.822500", "140636.312500", "140637.802500", "140639.292500", "140640.782500", "140642.272500", "140643.762500", "140645.252500", "140646.742500", "140648.232500", "140649.722500", "140651.212500", "140652.702500", "140654.192500", "140655.682500", "140657.172500", "140658.662500", "140700.152500", "140701.642500", "140703.132500", "140704.622500", "140706.112500", "140707.602500", "140709.092500", "140710.582500", "140712.072500", "140713.562500", "140715.052500", "140716.542500", "140718.032500", "140719.522500", "140721.012500", "140722.502500", "140723.992500", "140725.482500", "140726.972500", "140728.462500", "140729.952500", "140731.442500", "140732.932500", "140734.422500", "140735.912500", "140737.402500", "140738.892500", "140740.382500", "140741.872500", "140743.362500", "140744.852500", "140746.342500", "140747.832500", "140749.322500", "140750.812500", "140752.302500", "140753.792500", "140755.282500", "140756.772500", "140758.262500", "140759.752500", "140801.242500", "140802.732500", "140804.222500", "140805.712500", "140807.202500", "140808.692500", "140810.182500", "140811.672500", "140813.162500", "140814.652500", "140816.142500", "140817.632500", "140819.122500", "140820.612500", "140822.102500", "140823.592500", "140825.082500", "140826.572500"],
      "ContentTime": ["140511.558000", "140511.561000", "140511.564000", "140511.571000", "140511.574000", "140511.576000", "140511.579000", "140511.581000", "140511.584000", "140511.586000", "140511.589000", "140511.591000", "140511.594000", "140511.604000", "140511.607000", "140511.609000", "140511.612000", "140511.614000", "140511.617000", "140511.619000", "140511.622000", "140511.630000", "140511.633000", "140511.635000", "140511.638000", "140511.642000", "140511.644000", "140511.647000", "140511.649000", "140511.652000", "140511.654000", "140511.657000", "140511.659000", "140511.662000", "140531.474000", "140531.477000", "140531.479000", "140531.482000", "140531.485000", "140531.487000", "140531.490000", "140531.492000", "140531.495000", "140531.497000", "140531.500000", "140531.502000", "140531.505000", "140531.507000", "140531.510000", "140531.512000", "140531.515000", "140531.518000", "140531.520000", "140531.523000", "140551.479000", "140551.482000", "140551.484000", "140551.487000", "140551.489000", "140551.492000", "140551.494000", "140551.497000", "140551.499000", "140551.502000", "140551.504000", "140551.506000", "140551.509000", "140551.511000", "140551.514000", "140551.516000", "140551.519000", "140551.521000", "140551.524000", "140551.526000", "140611.472000", "140611.475000", "140611.478000", "140611.480000", "140611.483000", "140611.485000", "140611.488000", "140611.490000", "140611.493000", "140611.495000", "140611.498000", "140611.500000", "140611.503000", "140611.505000", "140611.508000", "140611.510000", "140611.513000", "140611.515000", "140611.518000", "140611.520000", "140651.526000", "140651.529000", "140651.532000", "140651.534000", "140651.537000", "140651.539000", "140651.542000", "140651.544000", "140651.547000", "140651.549000", "140651.552000", "140651.554000", "140651.557000", "140651.559000", "140651.562000", "140651.564000", "140651.567000", "140651.569000", "140651.572000", "140651.575000", "140651.577000", "140651.579000", "140651.582000", "140651.585000", "140651.587000", "140651.590000", "140651.600000", "140651.603000", "140651.606000", "140651.609000", "140731.523000", "140731.526000", "140731.528000", "140731.531000", "140731.533000", "140731.536000", "140731.538000", "140731.541000", "140731.543000", "140731.546000", "140731.548000", "140731.551000", "140731.553000", "140731.556000", "140731.559000", "140731.561000", "140731.564000", "140731.566000", "140731.569000", "140731.571000", "140731.574000", "140731.576000", "140731.579000", "140731.581000", "140731.584000", "140731.586000", "140731.589000", "140811.519000", "140811.522000", "140811.525000", "140811.527000", "140811.530000", "140811.532000", "140811.535000", "140811.537000", "140811.540000", "140811.542000", "140811.545000", "140811.547000", "140811.550000", "140811.552000", "140811.554000", "140811.557000", "140811.560000", "140811.562000", "140811.565000", "140811.567000", "140811.570000", "140811.572000", "140811.575000", "140811.577000", "140811.580000", "140811.582000", "140811.585000", "140828.597000", "140828.600000", "140828.602000", "140828.610000", "140828.613000", "140828.615000", "140828.617000", "140828.620000", "140828.623000", "140828.625000", "140828.628000", "140828.630000"],
      "InstanceCreationTime": ["140511.558000", "140511.561000", "140511.564000", "140511.571000", "140511.574000", "140511.576000", "140511.579000", "140511.581000", "140511.584000", "140511.586000", "140511.589000", "140511.591000", "140511.594000", "140511.604000", "140511.607000", "140511.609000", "140511.612000", "140511.614000", "140511.617000", "140511.619000", "140511.622000", "140511.630000", "140511.633000", "140511.635000", "140511.638000", "140511.642000", "140511.644000", "140511.647000", "140511.649000", "140511.652000", "140511.654000", "140511.657000", "140511.659000", "140511.662000", "140531.474000", "140531.477000", "140531.479000", "140531.482000", "140531.485000", "140531.487000", "140531.490000", "140531.492000", "140531.495000", "140531.497000", "140531.500000", "140531.502000", "140531.505000", "140531.507000", "140531.510000", "140531.512000", "140531.515000", "140531.518000", "140531.520000", "140531.523000", "140551.479000", "140551.482000", "140551.484000", "140551.487000", "140551.489000", "140551.492000", "140551.494000", "140551.497000", "140551.499000", "140551.502000", "140551.504000", "140551.506000", "140551.509000", "140551.511000", "140551.514000", "140551.516000", "140551.519000", "140551.521000", "140551.524000", "140551.526000", "140611.472000", "140611.475000", "140611.478000", "140611.480000", "140611.483000", "140611.485000", "140611.488000", "140611.490000", "140611.493000", "140611.495000", "140611.498000", "140611.500000", "140611.503000", "140611.505000", "140611.508000", "140611.510000", "140611.513000", "140611.515000", "140611.518000", "140611.520000", "140651.526000", "140651.529000", "140651.532000", "140651.534000", "140651.537000", "140651.539000", "140651.542000", "140651.544000", "140651.547000", "140651.549000", "140651.552000", "140651.554000", "140651.557000", "140651.559000", "140651.562000", "140651.564000", "140651.567000", "140651.569000", "140651.572000", "140651.575000", "140651.577000", "140651.579000", "140651.582000", "140651.585000", "140651.587000", "140651.590000", "140651.600000", "140651.603000", "140651.606000", "140651.609000", "140731.523000", "140731.526000", "140731.528000", "140731.531000", "140731.533000", "140731.536000", "140731.538000", "140731.541000", "140731.543000", "140731.546000", "140731.548000", "140731.551000", "140731.553000", "140731.556000", "140731.559000", "140731.561000", "140731.564000", "140731.566000", "140731.569000", "140731.571000", "140731.574000", "140731.576000", "140731.579000", "140731.581000", "140731.584000", "140731.586000", "140731.589000", "140811.519000", "140811.522000", "140811.525000", "140811.527000", "140811.530000", "140811.532000", "140811.535000", "140811.537000", "140811.540000", "140811.542000", "140811.545000", "140811.547000", "140811.550000", "140811.552000", "140811.554000", "140811.557000", "140811.560000", "140811.562000", "140811.565000", "140811.567000", "140811.570000", "140811.572000", "140811.575000", "140811.577000", "140811.580000", "140811.582000", "140811.585000", "140828.597000", "140828.600000", "140828.602000", "140828.610000", "140828.613000", "140828.615000", "140828.617000", "140828.620000", "140828.623000", "140828.625000", "140828.628000", "140828.630000"],
      "InstanceNumber": [1, 2, 3, 4, 5, 6, 7, 8, 9, 10, 11, 12, 13, 14, 15, 16, 17, 18, 19, 20, 21, 22, 23, 24, 25, 26, 27, 28, 29, 30, 31, 32, 33, 34, 35, 36, 37, 38, 39, 40, 41, 42, 43, 44, 45, 46, 47, 48, 49, 50, 51, 52, 53, 54, 55, 56, 57, 58, 59, 60, 61, 62, 63, 64, 65, 66, 67, 68, 69, 70, 71, 72, 73, 74, 75, 76, 77, 78, 79, 80, 81, 82, 83, 84, 85, 86, 87, 88, 89, 90, 91, 92, 93, 94, 95, 96, 97, 98, 99, 100, 101, 102, 103, 104, 105, 106, 107, 108, 109, 110, 111, 112, 113, 114, 115, 116, 117, 118, 119, 120, 121, 122, 123, 124, 125, 126, 127, 128, 129, 130, 131, 132, 133, 134, 135, 136, 137, 138, 139, 140, 141, 142, 143, 144, 145, 146, 147, 148, 149, 150, 151, 152, 153, 154, 155, 156, 157, 158, 159, 160, 161, 162, 163, 164, 165, 166, 167, 168, 169, 170, 171, 172, 173, 174, 175, 176, 177, 178, 179, 180, 181, 182, 183, 184, 185, 186, 187, 188, 189, 190],
      "WindowCenter": [4892.0, 4870.0, 4894.0, 4890.0, 4894.0, 4890.0, 4892.0, 4892.0, 4892.0, 4892.0, 4894.0, 4896.0, 4896.0, 4896.0, 4896.0, 4894.0, 4892.0, 4868.0, 4894.0, 4892.0, 4896.0, 4890.0, 4896.0, 4894.0, 4896.0, 4890.0, 4894.0, 4892.0, 4890.0, 4894.0, 4896.0, 4896.0, 4896.0, 4892.0, 4892.0, 4892.0, 4894.0, 4892.0, 4892.0, 4866.0, 4894.0, 4892.0, 4892.0, 4892.0, 4892.0, 4870.0, 4894.0, 4892.0, 4894.0, 4894.0, 4894.0, 4892.0, 4894.0, 4866.0, 4868.0, 4892.0, 4870.0, 4868.0, 4892.0, 4894.0, 4890.0, 4894.0, 4892.0, 4892.0, 4894.0, 4894.0, 4868.0, 4894.0, 4870.0, 4862.0, 4890.0, 4894.0, 4892.0, 4896.0, 4896.0, 4894.0, 4894.0, 4890.0, 4890.0, 4892.0, 4866.0, 4892.0, 4890.0, 4872.0, 4892.0, 4898.0, 4892.0, 4896.0, 4892.0, 4868.0, 4888.0, 4868.0, 4892.0, 4896.0, 4894.0, 4896.0, 4894.0, 4870.0, 4888.0, 4894.0, 4886.0, 4868.0, 4890.0, 4894.0, 4890.0, 4896.0, 4892.0, 4890.0, 4872.0, 4892.0, 4868.0, 4868.0, 4888.0, 4892.0, 4888.0, 4894.0, 4892.0, 4896.0, 4894.0, 4890.0, 4868.0, 4892.0, 4890.0, 4892.0, 4890.0, 4894.0, 4868.0, 4866.0, 4892.0, 4892.0, 4892.0, 4870.0, 4894.0, 4866.0, 4892.0, 4870.0, 4892.0, 4892.0, 4896.0, 4890.0, 4894.0, 4866.0, 4870.0, 4888.0, 4894.0, 4892.0, 4868.0, 4888.0, 4890.0, 4866.0, 4892.0, 4890.0, 4890.0, 4892.0, 4894.0, 4892.0, 4890.0, 4868.0, 4868.0, 4868.0, 4868.0, 4890.0, 4892.0, 4892.0, 4888.0, 4870.0, 4890.0, 4890.0, 4870.0, 4870.0, 4888.0, 4892.0, 4868.0, 4894.0, 4872.0, 4866.0, 4892.0, 4870.0, 4868.0, 4892.0, 4890.0, 4870.0, 4870.0, 4892.0, 4892.0, 4892.0, 4890.0, 4892.0, 4868.0, 4864.0],
      "WindowWidth": [18718.0, 18686.0, 18714.0, 18720.0, 18726.0, 18722.0, 18726.0, 18722.0, 18726.0, 18722.0, 18726.0, 18720.0, 18728.0, 18724.0, 18718.0, 18728.0, 18722.0, 18694.0, 18724.0, 18724.0, 18726.0, 18726.0, 18726.0, 18728.0, 18724.0, 18726.0, 18724.0, 18726.0, 18720.0, 18724.0, 18726.0, 18726.0, 18722.0, 18722.0, 18720.0, 18728.0, 18720.0, 18726.0, 18724.0, 18698.0, 18724.0, 18724.0, 18724.0, 18728.0, 18722.0, 18690.0, 18720.0, 18722.0, 18726.0, 18718.0, 18728.0, 18726.0, 18720.0, 18694.0, 18688.0, 18724.0, 18692.0, 18694.0, 18722.0, 18724.0, 18720.0, 18724.0, 18722.0, 18722.0, 18724.0, 18724.0, 18692.0, 18728.0, 18690.0, 18698.0, 18730.0, 18722.0, 18720.0, 18716.0, 18726.0, 18720.0, 18724.0, 18728.0, 18728.0, 18726.0, 18694.0, 18722.0, 18720.0, 18692.0, 18720.0, 18720.0, 18720.0, 18724.0, 18726.0, 18696.0, 18728.0, 18692.0, 18726.0, 18722.0, 18726.0, 18718.0, 18726.0, 18694.0, 18726.0, 18722.0, 18724.0, 18694.0, 18728.0, 18724.0, 18726.0, 18722.0, 18720.0, 18720.0, 18698.0, 18722.0, 18694.0, 18690.0, 18724.0, 18724.0, 18724.0, 18720.0, 18722.0, 18720.0, 18726.0, 18722.0, 18694.0, 18726.0, 18724.0, 18718.0, 18722.0, 18726.0, 18694.0, 18696.0, 18726.0, 18722.0, 18728.0, 18692.0, 18724.0, 18696.0, 18722.0, 18698.0, 18726.0, 18724.0, 18724.0, 18720.0, 18720.0, 18692.0, 18688.0, 18728.0, 18726.0, 18720.0, 18692.0, 18724.0, 18720.0, 18692.0, 18718.0, 18722.0, 18726.0, 18728.0, 18724.0, 18724.0, 18726.0, 18690.0, 18694.0, 18690.0, 18692.0, 18730.0, 18724.0, 18726.0, 18728.0, 18692.0, 18722.0, 18718.0, 18692.0, 18690.0, 18724.0, 18722.0, 18696.0, 18722.0, 18696.0, 18700.0, 18728.0, 18692.0, 18690.0, 18726.0, 18724.0, 18694.0, 18692.0, 18726.0, 18722.0, 18726.0, 18720.0, 18722.0, 18690.0, 18688.0]
    },
    "slices": {}
  }
}