{
  "AcquisitionMatrixPE": 104,
  "AcquisitionNumber": 1,
  "AcquisitionTime": "13:32:52.245000",
  "BandwidthPerPixelPhaseEncode": 17.17,
  "BaseResolution": 104,
  "BodyPartExamined": "BRAIN",
  "CoilString": "HC1-7;NC1_2",
  "ConsistencyInfo": "N4_VE11C_LATEST_20160120",
  "ConversionSoftware": "dcm2niix",
  "ConversionSoftwareVersion": "v1.0.20190902",
  "DerivedVendorReportedEchoSpacing": 0.000560011,
  "DeviceSerialNumber": "167006",
  "DwellTime": 2.1e-06,
  "EchoTime": 0.037,
  "EchoTrainLength": 104,
  "EffectiveEchoSpacing": 0.000560011,
  "FlipAngle": 52,
  "ImageComments": "Unaliased_MB4_PE3_LB",
  "ImageOrientationPatientDICOM": [0.999808, 0.00477727, 0.0190055, 0.0001745, 0.967622, -0.252404],
  "ImageType": [
    "ORIGINAL",
    "PRIMARY",
    "P",
    "MB",
    "ND",
    "MOSAIC"
],
  "ImagingFrequency": 123.259,
  "InPlanePhaseEncodingDirectionDICOM": "COL",
  "InstitutionAddress": "Chemin_Queen-Mary_4565_Montreal_District_CA_H3W_1W5",
  "InstitutionName": "IUGM",
  "InstitutionalDepartmentName": "Department",
  "MRAcquisitionType": "2D",
  "MagneticFieldStrength": 3,
  "Manufacturer": "Siemens",
  "ManufacturersModelName": "Prisma_fit",
  "Modality": "MR",
  "MultibandAccelerationFactor": 4,
  "PartialFourier": 1,
  "PatientPosition": "HFS",
  "PercentPhaseFOV": 100,
  "PhaseEncodingDirection": "j",
  "PhaseEncodingSteps": 104,
  "PhaseResolution": 1,
  "PixelBandwidth": 2290,
  "ProcedureStepDescription": "memory_things",
  "ProtocolName": "func_task-things_run-1",
  "PulseSequenceDetails": "%CustomerSeq%_cmrr_mbep2d_bold",
  "ReceiveCoilActiveElements": "HC1-7;NC1,2",
  "ReceiveCoilName": "HeadNeck_64",
  "ReconMatrixPE": 104,
  "RepetitionTime": 1.49,
  "SAR": 0.0483908,
  "ScanOptions": "FS",
  "ScanningSequence": "EP",
  "SequenceName": "epfid2d1_104",
  "SequenceVariant": "SK_SS",
  "SeriesDescription": "func_task-things_run-1",
  "SeriesNumber": 11,
  "ShimSetting": [634, -7210, -8764, 717, 51, 20, 54, -10],
  "SliceThickness": 2,
  "SliceTiming": [0, 0.7825, 0.0975, 0.8825, 0.195, 0.98, 0.295, 1.0775, 0.3925, 1.175, 0.49, 1.2725, 0.5875, 1.3725, 0.685, 0, 0.7825, 0.0975, 0.8825, 0.195, 0.98, 0.295, 1.0775, 0.3925, 1.175, 0.49, 1.2725, 0.5875, 1.3725, 0.685, 0, 0.7825, 0.0975, 0.8825, 0.195, 0.98, 0.295, 1.0775, 0.3925, 1.175, 0.49, 1.2725, 0.5875, 1.3725, 0.685, 0, 0.7825, 0.0975, 0.8825, 0.195, 0.98, 0.295, 1.0775, 0.3925, 1.175, 0.49, 1.2725, 0.5875, 1.3725, 0.685],
  "SoftwareVersions": "syngo_MR_E11",
  "SpacingBetweenSlices": 2,
  "StationName": "MRC35049",
  "TaskName": "things",
  "TotalReadoutTime": 0.0576811,
  "TxRefAmp": 233.671,
  "WipMemBlock": "7f82a1a9-4529-4312-94bb-93545cdd12b7||Sequence: R016 ve11c/master r/e634e98; Dec 19 2017 11:00:25 by eja",
  "dcmmeta_affine": [
    [-1.9996159076690674, 0.0003490002709440887, 0.039191823452711105, 108.1073226928711],
    [-0.009554533287882805, 1.9352439641952515, -0.5047174692153931, -74.38790130615234],
    [0.038010939955711365, 0.5048077702522278, 1.9348706007003784, -58.15380859375],
    [0.0, 0.0, 0.0, 1.0]
],
  "dcmmeta_reorient_transform": [
    [0.0, -1.0, 0.0, 103.0],
    [1.0, 0.0, 0.0, 0.0],
    [0.0, 0.0, 1.0, 0.0],
    [0.0, 0.0, 0.0, 1.0]
],
  "dcmmeta_shape": [104, 104, 60, 190],
  "dcmmeta_slice_dim": 2,
  "dcmmeta_version": 0.6,
  "global": {
    "const": {
      "AcquisitionMatrix": [104, 0, 0, 104],
      "AngioFlag": "N",
      "BitsAllocated": 16,
      "BitsStored": 16,
      "BodyPartExamined": "BRAIN",
      "Columns": 832,
      "EchoNumbers": 1,
      "EchoTime": 37.0,
      "EchoTrainLength": 104,
      "FlipAngle": 52.0,
      "HighBit": 15,
      "ImageOrientationPatient": [0.99980796646558, 0.00477726643656, 0.01900547072179, 0.00017450013683, 0.96762195696734, -0.2524038786239],
      "ImagePositionPatient": [-836.13050613106, -832.84885414365, 163.75543039167],
      "ImageType": [
        "ORIGINAL",
        "PRIMARY",
        "P",
        "MB",
        "ND",
        "MOSAIC"
],
      "ImagedNucleus": "1H",
      "ImagingFrequency": 123.258909,
      "InPlanePhaseEncodingDirection": "COL",
      "LargestImagePixelValue": 4095,
      "MRAcquisitionType": "2D",
      "MagneticFieldStrength": 3.0,
      "Manufacturer": "SIEMENS",
      "ManufacturerModelName": "Prisma_fit",
      "Modality": "MR",
      "NumberOfAverages": 1.0,
      "NumberOfPhaseEncodingSteps": 104,
      "PercentPhaseFieldOfView": 100.0,
      "PercentSampling": 100.0,
      "PerformedProcedureStepStartTime": "125811.868000",
      "PhotometricInterpretation": "MONOCHROME2",
      "PixelBandwidth": 2290.0,
      "PixelRepresentation": 0,
      "PixelSpacing": [2.0, 2.0],
      "ProtocolName": "func_task-things_run-1",
      "RepetitionTime": 1490.0,
      "RescaleIntercept": -4096.0,
      "RescaleSlope": 2.0,
      "RescaleType": "US",
      "Rows": 832,
      "SAR": 0.04839084328241,
      "SamplesPerPixel": 1,
      "ScanOptions": "FS",
      "ScanningSequence": "EP",
      "SequenceName": "epfid2d1_104",
      "SequenceVariant": [
        "SK",
        "SS"
],
      "SeriesDescription": "func_task-things_run-1",
      "SeriesNumber": 11,
      "SeriesTime": "133407.024000",
      "SliceLocation": -35.369150583078,
      "SliceThickness": 2.0,
      "SmallestImagePixelValue": 0,
      "SoftwareVersions": "syngo MR E11",
      "SpacingBetweenSlices": 1.9999999579229,
      "SpecificCharacterSet": "ISO_IR 100",
      "StudyID": "1",
      "StudyTime": "125811.763000",
      "TransmitCoilName": "Body",
      "VariableFlipAngleFlag": "N",
      "WindowCenterWidthExplanation": "Algo1",
      "dBdt": 0.0},
    "slices": {}
  },
  "time": {
    "samples": {
      "AcquisitionNumber": [1, 2, 3, 4, 5, 6, 7, 8, 9, 10, 11, 12, 13, 14, 15, 16, 17, 18, 19, 20, 21, 22, 23, 24, 25, 26, 27, 28, 29, 30, 31, 32, 33, 34, 35, 36, 37, 38, 39, 40, 41, 42, 43, 44, 45, 46, 47, 48, 49, 50, 51, 52, 53, 54, 55, 56, 57, 58, 59, 60, 61, 62, 63, 64, 65, 66, 67, 68, 69, 70, 71, 72, 73, 74, 75, 76, 77, 78, 79, 80, 81, 82, 83, 84, 85, 86, 87, 88, 89, 90, 91, 92, 93, 94, 95, 96, 97, 98, 99, 100, 101, 102, 103, 104, 105, 106, 107, 108, 109, 110, 111, 112, 113, 114, 115, 116, 117, 118, 119, 120, 121, 122, 123, 124, 125, 126, 127, 128, 129, 130, 131, 132, 133, 134, 135, 136, 137, 138, 139, 140, 141, 142, 143, 144, 145, 146, 147, 148, 149, 150, 151, 152, 153, 154, 155, 156, 157, 158, 159, 160, 161, 162, 163, 164, 165, 166, 167, 168, 169, 170, 171, 172, 173, 174, 175, 176, 177, 178, 179, 180, 181, 182, 183, 184, 185, 186, 187, 188, 189, 190],
      "AcquisitionTime": ["133252.245000", "133253.735000", "133255.225000", "133256.715000", "133258.205000", "133259.695000", "133301.185000", "133302.675000", "133304.165000", "133305.655000", "133307.145000", "133308.635000", "133310.125000", "133311.615000", "133313.105000", "133314.595000", "133316.085000", "133317.575000", "133319.065000", "133320.555000", "133322.045000", "133323.535000", "133325.025000", "133326.515000", "133328.005000", "133329.495000", "133330.985000", "133332.475000", "133333.965000", "133335.455000", "133336.945000", "133338.435000", "133339.925000", "133341.415000", "133342.905000", "133344.395000", "133345.885000", "133347.375000", "133348.865000", "133350.355000", "133351.845000", "133353.335000", "133354.825000", "133356.315000", "133357.805000", "133359.295000", "133400.785000", "133402.275000", "133403.765000", "133405.255000", "133406.745000", "133408.235000", "133409.725000", "133411.215000", "133412.705000", "133414.195000", "133415.685000", "133417.175000", "133418.665000", "133420.155000", "133421.645000", "133423.135000", "133424.625000", "133426.115000", "133427.605000", "133429.095000", "133430.585000", "133432.075000", "133433.565000", "133435.055000", "133436.545000", "133438.035000", "133439.525000", "133441.015000", "133442.505000", "133443.995000", "133445.485000", "133446.975000", "133448.465000", "133449.955000", "133451.445000", "133452.935000", "133454.425000", "133455.915000", "133457.405000", "133458.895000", "133500.385000", "133501.875000", "133503.365000", "133504.855000", "133506.345000", "133507.835000", "133509.325000", "133510.815000", "133512.305000", "133513.795000", "133515.285000", "133516.775000", "133518.265000", "133519.755000", "133521.245000", "133522.735000", "133524.225000", "133525.715000", "133527.205000", "133528.695000", "133530.185000", "133531.675000", "133533.165000", "133534.655000", "133536.145000", "133537.635000", "133539.125000", "133540.615000", "133542.105000", "133543.595000", "133545.085000", "133546.575000", "133548.065000", "133549.555000", "133551.045000", "133552.535000", "133554.025000", "133555.515000", "133557.005000", "133558.495000", "133559.985000", "133601.475000", "133602.965000", "133604.455000", "133605.945000", "133607.435000", "133608.925000", "133610.415000", "133611.905000", "133613.395000", "133614.885000", "133616.375000", "133617.865000", "133619.355000", "133620.845000", "133622.335000", "133623.825000", "133625.315000", "133626.805000", "133628.295000", "133629.785000", "133631.275000", "133632.765000", "133634.255000", "133635.745000", "133637.235000", "133638.725000", "133640.215000", "133641.705000", "133643.195000", "133644.685000", "133646.175000", "133647.665000", "133649.155000", "133650.645000", "133652.135000", "133653.625000", "133655.115000", "133656.605000", "133658.095000", "133659.585000", "133701.075000", "133702.565000", "133704.055000", "133705.545000", "133707.035000", "133708.525000", "133710.015000", "133711.505000", "133712.995000", "133714.485000", "133715.975000", "133717.465000", "133718.955000", "133720.445000", "133721.935000", "133723.425000", "133724.915000", "133726.405000", "133727.895000", "133729.385000", "133730.875000", "133732.365000", "133733.855000"],
      "ContentTime": ["133407.026000", "133407.029000", "133407.031000", "133407.034000", "133407.036000", "133407.039000", "133407.041000", "133407.044000", "133407.046000", "133407.049000", "133407.051000", "133407.062000", "133407.065000", "133407.067000", "133407.069000", "133407.072000", "133407.074000", "133407.077000", "133407.079000", "133407.082000", "133426.932000", "133426.934000", "133426.937000", "133426.947000", "133426.950000", "133426.952000", "133426.955000", "133426.957000", "133426.960000", "133426.962000", "133426.965000", "133426.969000", "133426.971000", "133426.975000", "133426.978000", "133426.981000", "133426.984000", "133426.987000", "133426.989000", "133426.992000", "133446.948000", "133446.956000", "133446.959000", "133446.961000", "133446.964000", "133446.966000", "133446.969000", "133446.971000", "133446.974000", "133446.976000", "133446.979000", "133446.981000", "133446.984000", "133446.986000", "133446.989000", "133446.991000", "133446.994000", "133446.996000", "133447.000000", "133447.002000", "133447.005000", "133506.934000", "133506.937000", "133506.939000", "133506.942000", "133506.944000", "133506.947000", "133506.950000", "133506.952000", "133506.954000", "133506.957000", "133506.960000", "133506.962000", "133506.964000", "133506.967000", "133506.969000", "133506.972000", "133506.974000", "133506.977000", "133506.979000", "133506.982000", "133526.940000", "133526.943000", "133526.945000", "133526.948000", "133526.950000", "133526.953000", "133526.955000", "133526.958000", "133526.960000", "133526.963000", "133526.965000", "133526.968000", "133526.970000", "133526.973000", "133526.975000", "133526.978000", "133526.980000", "133526.983000", "133526.985000", "133526.988000", "133606.982000", "133606.985000", "133606.988000", "133606.990000", "133607.002000", "133607.005000", "133607.007000", "133607.010000", "133607.012000", "133607.015000", "133607.017000", "133607.020000", "133607.022000", "133607.025000", "133607.027000", "133607.030000", "133607.032000", "133607.035000", "133607.037000", "133607.040000", "133607.042000", "133607.045000", "133607.047000", "133607.050000", "133607.052000", "133607.055000", "133607.057000", "133607.060000", "133607.062000", "133646.967000", "133646.970000", "133646.972000", "133646.974000", "133646.977000", "133646.980000", "133646.982000", "133646.985000", "133646.987000", "133646.990000", "133646.992000", "133646.995000", "133646.997000", "133647.001000", "133647.004000", "133647.006000", "133647.009000", "133647.013000", "133647.016000", "133647.019000", "133647.022000", "133647.025000", "133647.028000", "133647.032000", "133647.034000", "133647.037000", "133726.963000", "133726.966000", "133726.968000", "133726.970000", "133726.973000", "133726.976000", "133726.978000", "133726.981000", "133726.983000", "133726.986000", "133726.988000", "133726.991000", "133726.993000", "133726.996000", "133726.998000", "133727.002000", "133727.005000", "133727.007000", "133727.010000", "133727.012000", "133727.015000", "133727.017000", "133727.020000", "133727.022000", "133727.025000", "133727.027000", "133727.030000", "133736.306000", "133736.309000", "133736.312000", "133736.315000", "133736.317000", "133736.320000", "133736.323000"],
      "InstanceCreationTime": ["133407.026000", "133407.029000", "133407.031000", "133407.034000", "133407.036000", "133407.039000", "133407.041000", "133407.044000", "133407.046000", "133407.049000", "133407.051000", "133407.062000", "133407.065000", "133407.067000", "133407.069000", "133407.072000", "133407.074000", "133407.077000", "133407.079000", "133407.082000", "133426.932000", "133426.934000", "133426.937000", "133426.947000", "133426.950000", "133426.952000", "133426.955000", "133426.957000", "133426.960000", "133426.962000", "133426.965000", "133426.969000", "133426.971000", "133426.975000", "133426.978000", "133426.981000", "133426.984000", "133426.987000", "133426.989000", "133426.992000", "133446.948000", "133446.956000", "133446.959000", "133446.961000", "133446.964000", "133446.966000", "133446.969000", "133446.971000", "133446.974000", "133446.976000", "133446.979000", "133446.981000", "133446.984000", "133446.986000", "133446.989000", "133446.991000", "133446.994000", "133446.996000", "133447.000000", "133447.002000", "133447.005000", "133506.934000", "133506.937000", "133506.939000", "133506.942000", "133506.944000", "133506.947000", "133506.950000", "133506.952000", "133506.954000", "133506.957000", "133506.960000", "133506.962000", "133506.964000", "133506.967000", "133506.969000", "133506.972000", "133506.974000", "133506.977000", "133506.979000", "133506.982000", "133526.940000", "133526.943000", "133526.945000", "133526.948000", "133526.950000", "133526.953000", "133526.955000", "133526.958000", "133526.960000", "133526.963000", "133526.965000", "133526.968000", "133526.970000", "133526.973000", "133526.975000", "133526.978000", "133526.980000", "133526.983000", "133526.985000", "133526.988000", "133606.982000", "133606.985000", "133606.988000", "133606.990000", "133607.002000", "133607.005000", "133607.007000", "133607.010000", "133607.012000", "133607.015000", "133607.017000", "133607.020000", "133607.022000", "133607.025000", "133607.027000", "133607.030000", "133607.032000", "133607.035000", "133607.037000", "133607.040000", "133607.042000", "133607.045000", "133607.047000", "133607.050000", "133607.052000", "133607.055000", "133607.057000", "133607.060000", "133607.062000", "133646.967000", "133646.970000", "133646.972000", "133646.974000", "133646.977000", "133646.980000", "133646.982000", "133646.985000", "133646.987000", "133646.990000", "133646.992000", "133646.995000", "133646.997000", "133647.001000", "133647.004000", "133647.006000", "133647.009000", "133647.013000", "133647.016000", "133647.019000", "133647.022000", "133647.025000", "133647.028000", "133647.032000", "133647.034000", "133647.037000", "133726.963000", "133726.966000", "133726.968000", "133726.970000", "133726.973000", "133726.976000", "133726.978000", "133726.981000", "133726.983000", "133726.986000", "133726.988000", "133726.991000", "133726.993000", "133726.996000", "133726.998000", "133727.002000", "133727.005000", "133727.007000", "133727.010000", "133727.012000", "133727.015000", "133727.017000", "133727.020000", "133727.022000", "133727.025000", "133727.027000", "133727.030000", "133736.306000", "133736.309000", "133736.312000", "133736.315000", "133736.317000", "133736.320000", "133736.323000"],
      "InstanceNumber": [1, 2, 3, 4, 5, 6, 7, 8, 9, 10, 11, 12, 13, 14, 15, 16, 17, 18, 19, 20, 21, 22, 23, 24, 25, 26, 27, 28, 29, 30, 31, 32, 33, 34, 35, 36, 37, 38, 39, 40, 41, 42, 43, 44, 45, 46, 47, 48, 49, 50, 51, 52, 53, 54, 55, 56, 57, 58, 59, 60, 61, 62, 63, 64, 65, 66, 67, 68, 69, 70, 71, 72, 73, 74, 75, 76, 77, 78, 79, 80, 81, 82, 83, 84, 85, 86, 87, 88, 89, 90, 91, 92, 93, 94, 95, 96, 97, 98, 99, 100, 101, 102, 103, 104, 105, 106, 107, 108, 109, 110, 111, 112, 113, 114, 115, 116, 117, 118, 119, 120, 121, 122, 123, 124, 125, 126, 127, 128, 129, 130, 131, 132, 133, 134, 135, 136, 137, 138, 139, 140, 141, 142, 143, 144, 145, 146, 147, 148, 149, 150, 151, 152, 153, 154, 155, 156, 157, 158, 159, 160, 161, 162, 163, 164, 165, 166, 167, 168, 169, 170, 171, 172, 173, 174, 175, 176, 177, 178, 179, 180, 181, 182, 183, 184, 185, 186, 187, 188, 189, 190],
      "WindowCenter": [4860.0, 4862.0, 4860.0, 4862.0, 4856.0, 4858.0, 4860.0, 4850.0, 4860.0, 4858.0, 4858.0, 4860.0, 4858.0, 4864.0, 4858.0, 4860.0, 4856.0, 4858.0, 4854.0, 4856.0, 4856.0, 4858.0, 4862.0, 4856.0, 4858.0, 4860.0, 4854.0, 4856.0, 4858.0, 4862.0, 4858.0, 4858.0, 4856.0, 4858.0, 4856.0, 4854.0, 4854.0, 4854.0, 4858.0, 4856.0, 4856.0, 4854.0, 4854.0, 4828.0, 4854.0, 4854.0, 4854.0, 4858.0, 4854.0, 4858.0, 4858.0, 4856.0, 4856.0, 4852.0, 4852.0, 4856.0, 4854.0, 4858.0, 4858.0, 4852.0, 4852.0, 4856.0, 4852.0, 4860.0, 4858.0, 4858.0, 4852.0, 4856.0, 4856.0, 4856.0, 4858.0, 4854.0, 4858.0, 4852.0, 4856.0, 4856.0, 4830.0, 4856.0, 4854.0, 4856.0, 4852.0, 4852.0, 4854.0, 4856.0, 4854.0, 4830.0, 4856.0, 4852.0, 4856.0, 4852.0, 4854.0, 4852.0, 4854.0, 4860.0, 4850.0, 4856.0, 4854.0, 4854.0, 4856.0, 4858.0, 4830.0, 4856.0, 4856.0, 4854.0, 4854.0, 4854.0, 4858.0, 4852.0, 4858.0, 4854.0, 4852.0, 4854.0, 4830.0, 4852.0, 4854.0, 4850.0, 4856.0, 4854.0, 4854.0, 4852.0, 4856.0, 4852.0, 4850.0, 4852.0, 4852.0, 4854.0, 4854.0, 4854.0, 4830.0, 4854.0, 4852.0, 4854.0, 4856.0, 4856.0, 4856.0, 4852.0, 4852.0, 4832.0, 4852.0, 4852.0, 4854.0, 4852.0, 4854.0, 4850.0, 4854.0, 4828.0, 4856.0, 4852.0, 4860.0, 4828.0, 4832.0, 4854.0, 4850.0, 4852.0, 4854.0, 4850.0, 4852.0, 4854.0, 4830.0, 4828.0, 4828.0, 4856.0, 4848.0, 4858.0, 4828.0, 4854.0, 4850.0, 4828.0, 4854.0, 4852.0, 4854.0, 4852.0, 4854.0, 4852.0, 4856.0, 4828.0, 4850.0, 4828.0, 4856.0, 4852.0, 4828.0, 4856.0, 4826.0, 4858.0, 4852.0, 4856.0, 4852.0, 4854.0, 4850.0, 4852.0],
      "WindowWidth": [18700.0, 18696.0, 18698.0, 18700.0, 18694.0, 18698.0, 18694.0, 18696.0, 18700.0, 18698.0, 18700.0, 18694.0, 18696.0, 18700.0, 18696.0, 18698.0, 18694.0, 18698.0, 18694.0, 18690.0, 18696.0, 18690.0, 18698.0, 18694.0, 18694.0, 18700.0, 18696.0, 18694.0, 18696.0, 18698.0, 18700.0, 18694.0, 18694.0, 18690.0, 18698.0, 18696.0, 18694.0, 18696.0, 18694.0, 18696.0, 18692.0, 18692.0, 18694.0, 18656.0, 18694.0, 18694.0, 18690.0, 18696.0, 18692.0, 18702.0, 18694.0, 18692.0, 18696.0, 18692.0, 18696.0, 18692.0, 18694.0, 18696.0, 18694.0, 18692.0, 18692.0, 18694.0, 18692.0, 18696.0, 18696.0, 18700.0, 18696.0, 18698.0, 18694.0, 18698.0, 18694.0, 18688.0, 18696.0, 18698.0, 18694.0, 18698.0, 18664.0, 18696.0, 18692.0, 18698.0, 18694.0, 18690.0, 18692.0, 18698.0, 18698.0, 18664.0, 18698.0, 18696.0, 18694.0, 18692.0, 18694.0, 18692.0, 18692.0, 18700.0, 18694.0, 18696.0, 18698.0, 18692.0, 18694.0, 18702.0, 18666.0, 18694.0, 18696.0, 18698.0, 18694.0, 18696.0, 18698.0, 18692.0, 18698.0, 18690.0, 18692.0, 18692.0, 18664.0, 18694.0, 18698.0, 18694.0, 18698.0, 18696.0, 18692.0, 18690.0, 18690.0, 18694.0, 18694.0, 18696.0, 18694.0, 18694.0, 18700.0, 18692.0, 18660.0, 18702.0, 18692.0, 18694.0, 18696.0, 18696.0, 18696.0, 18696.0, 18694.0, 18662.0, 18692.0, 18696.0, 18694.0, 18694.0, 18694.0, 18694.0, 18696.0, 18662.0, 18694.0, 18696.0, 18698.0, 18664.0, 18662.0, 18698.0, 18692.0, 18694.0, 18696.0, 18692.0, 18692.0, 18694.0, 18664.0, 18662.0, 18662.0, 18696.0, 18692.0, 18696.0, 18662.0, 18694.0, 18694.0, 18660.0, 18696.0, 18688.0, 18692.0, 18698.0, 18696.0, 18696.0, 18696.0, 18662.0, 18694.0, 18660.0, 18698.0, 18696.0, 18664.0, 18696.0, 18662.0, 18698.0, 18694.0, 18692.0, 18694.0, 18696.0, 18692.0, 18694.0]
    },
    "slices": {}
  }
}