{
  "AcquisitionMatrixPE": 104,
  "AcquisitionNumber": 1,
  "AcquisitionTime": "13:45:15.272500",
  "BandwidthPerPixelPhaseEncode": 17.17,
  "BaseResolution": 104,
  "BodyPartExamined": "BRAIN",
  "CoilString": "HC1-7;NC1_2",
  "ConsistencyInfo": "N4_VE11C_LATEST_20160120",
  "ConversionSoftware": "dcm2niix",
  "ConversionSoftwareVersion": "v1.0.20190902",
  "DerivedVendorReportedEchoSpacing": 0.000560011,
  "DeviceSerialNumber": "167006",
  "DwellTime": 2.1e-06,
  "EchoTime": 0.037,
  "EchoTrainLength": 104,
  "EffectiveEchoSpacing": 0.000560011,
  "FlipAngle": 52,
  "ImageComments": "Unaliased_MB4_PE3_LB",
  "ImageOrientationPatientDICOM": [0.999808, 0.00477727, 0.0190055, 0.0001745, 0.967622, -0.252404],
  "ImageType": [
    "ORIGINAL",
    "PRIMARY",
    "P",
    "MB",
    "ND",
    "MOSAIC"
],
  "ImagingFrequency": 123.259,
  "InPlanePhaseEncodingDirectionDICOM": "COL",
  "InstitutionAddress": "Chemin_Queen-Mary_4565_Montreal_District_CA_H3W_1W5",
  "InstitutionName": "IUGM",
  "InstitutionalDepartmentName": "Department",
  "MRAcquisitionType": "2D",
  "MagneticFieldStrength": 3,
  "Manufacturer": "Siemens",
  "ManufacturersModelName": "Prisma_fit",
  "Modality": "MR",
  "MultibandAccelerationFactor": 4,
  "PartialFourier": 1,
  "PatientPosition": "HFS",
  "PercentPhaseFOV": 100,
  "PhaseEncodingDirection": "j",
  "PhaseEncodingSteps": 104,
  "PhaseResolution": 1,
  "PixelBandwidth": 2290,
  "ProcedureStepDescription": "memory_things",
  "ProtocolName": "func_task-things_run-3",
  "PulseSequenceDetails": "%CustomerSeq%_cmrr_mbep2d_bold",
  "ReceiveCoilActiveElements": "HC1-7;NC1,2",
  "ReceiveCoilName": "HeadNeck_64",
  "ReconMatrixPE": 104,
  "RepetitionTime": 1.49,
  "SAR": 0.0483908,
  "ScanOptions": "FS",
  "ScanningSequence": "EP",
  "SequenceName": "epfid2d1_104",
  "SequenceVariant": "SK_SS",
  "SeriesDescription": "func_task-things_run-3",
  "SeriesNumber": 17,
  "ShimSetting": [634, -7210, -8764, 717, 51, 20, 54, -10],
  "SliceThickness": 2,
  "SliceTiming": [0, 0.7825, 0.0975, 0.8825, 0.195, 0.98, 0.2925, 1.0775, 0.3925, 1.175, 0.49, 1.2725, 0.5875, 1.3725, 0.685, 0, 0.7825, 0.0975, 0.8825, 0.195, 0.98, 0.2925, 1.0775, 0.3925, 1.175, 0.49, 1.2725, 0.5875, 1.3725, 0.685, 0, 0.7825, 0.0975, 0.8825, 0.195, 0.98, 0.2925, 1.0775, 0.3925, 1.175, 0.49, 1.2725, 0.5875, 1.3725, 0.685, 0, 0.7825, 0.0975, 0.8825, 0.195, 0.98, 0.2925, 1.0775, 0.3925, 1.175, 0.49, 1.2725, 0.5875, 1.3725, 0.685],
  "SoftwareVersions": "syngo_MR_E11",
  "SpacingBetweenSlices": 2,
  "StationName": "MRC35049",
  "TaskName": "things",
  "TotalReadoutTime": 0.0576811,
  "TxRefAmp": 233.671,
  "WipMemBlock": "587621bd-a4ad-4a1a-b417-4140574ab5f1||Sequence: R016 ve11c/master r/e634e98; Dec 19 2017 11:00:25 by eja",
  "dcmmeta_affine": [
    [-1.9996159076690674, 0.0003490002709440887, 0.039191823452711105, 108.1073226928711],
    [-0.009554533287882805, 1.9352439641952515, -0.5047174692153931, -74.38790130615234],
    [0.038010939955711365, 0.5048077702522278, 1.9348706007003784, -58.15380859375],
    [0.0, 0.0, 0.0, 1.0]
],
  "dcmmeta_reorient_transform": [
    [0.0, -1.0, 0.0, 103.0],
    [1.0, 0.0, 0.0, 0.0],
    [0.0, 0.0, 1.0, 0.0],
    [0.0, 0.0, 0.0, 1.0]
],
  "dcmmeta_shape": [104, 104, 60, 190],
  "dcmmeta_slice_dim": 2,
  "dcmmeta_version": 0.6,
  "global": {
    "const": {
      "AcquisitionMatrix": [104, 0, 0, 104],
      "AngioFlag": "N",
      "BitsAllocated": 16,
      "BitsStored": 16,
      "BodyPartExamined": "BRAIN",
      "Columns": 832,
      "EchoNumbers": 1,
      "EchoTime": 37.0,
      "EchoTrainLength": 104,
      "FlipAngle": 52.0,
      "HighBit": 15,
      "ImageOrientationPatient": [0.99980796646558, 0.00477726643656, 0.01900547072179, 0.00017450013683, 0.96762195696734, -0.2524038786239],
      "ImagePositionPatient": [-836.13050613106, -832.84885414365, 163.75543039167],
      "ImageType": [
        "ORIGINAL",
        "PRIMARY",
        "P",
        "MB",
        "ND",
        "MOSAIC"
],
      "ImagedNucleus": "1H",
      "ImagingFrequency": 123.258918,
      "InPlanePhaseEncodingDirection": "COL",
      "LargestImagePixelValue": 4095,
      "MRAcquisitionType": "2D",
      "MagneticFieldStrength": 3.0,
      "Manufacturer": "SIEMENS",
      "ManufacturerModelName": "Prisma_fit",
      "Modality": "MR",
      "NumberOfAverages": 1.0,
      "NumberOfPhaseEncodingSteps": 104,
      "PercentPhaseFieldOfView": 100.0,
      "PercentSampling": 100.0,
      "PerformedProcedureStepStartTime": "125811.868000",
      "PhotometricInterpretation": "MONOCHROME2",
      "PixelBandwidth": 2290.0,
      "PixelRepresentation": 0,
      "PixelSpacing": [2.0, 2.0],
      "ProtocolName": "func_task-things_run-3",
      "RepetitionTime": 1490.0,
      "RescaleIntercept": -4096.0,
      "RescaleSlope": 2.0,
      "RescaleType": "US",
      "Rows": 832,
      "SAR": 0.04839084328241,
      "SamplesPerPixel": 1,
      "ScanOptions": "FS",
      "ScanningSequence": "EP",
      "SequenceName": "epfid2d1_104",
      "SequenceVariant": [
        "SK",
        "SS"
],
      "SeriesDescription": "func_task-things_run-3",
      "SeriesNumber": 17,
      "SeriesTime": "134631.562000",
      "SliceLocation": -35.369150583078,
      "SliceThickness": 2.0,
      "SmallestImagePixelValue": 0,
      "SoftwareVersions": "syngo MR E11",
      "SpacingBetweenSlices": 1.9999999579229,
      "SpecificCharacterSet": "ISO_IR 100",
      "StudyID": "1",
      "StudyTime": "125811.763000",
      "TransmitCoilName": "Body",
      "VariableFlipAngleFlag": "N",
      "WindowCenterWidthExplanation": "Algo1",
      "dBdt": 0.0},
    "slices": {}
  },
  "time": {
    "samples": {
      "AcquisitionNumber": [1, 2, 3, 4, 5, 6, 7, 8, 9, 10, 11, 12, 13, 14, 15, 16, 17, 18, 19, 20, 21, 22, 23, 24, 25, 26, 27, 28, 29, 30, 31, 32, 33, 34, 35, 36, 37, 38, 39, 40, 41, 42, 43, 44, 45, 46, 47, 48, 49, 50, 51, 52, 53, 54, 55, 56, 57, 58, 59, 60, 61, 62, 63, 64, 65, 66, 67, 68, 69, 70, 71, 72, 73, 74, 75, 76, 77, 78, 79, 80, 81, 82, 83, 84, 85, 86, 87, 88, 89, 90, 91, 92, 93, 94, 95, 96, 97, 98, 99, 100, 101, 102, 103, 104, 105, 106, 107, 108, 109, 110, 111, 112, 113, 114, 115, 116, 117, 118, 119, 120, 121, 122, 123, 124, 125, 126, 127, 128, 129, 130, 131, 132, 133, 134, 135, 136, 137, 138, 139, 140, 141, 142, 143, 144, 145, 146, 147, 148, 149, 150, 151, 152, 153, 154, 155, 156, 157, 158, 159, 160, 161, 162, 163, 164, 165, 166, 167, 168, 169, 170, 171, 172, 173, 174, 175, 176, 177, 178, 179, 180, 181, 182, 183, 184, 185, 186, 187, 188, 189, 190],
      "AcquisitionTime": ["134515.272500", "134516.762500", "134518.252500", "134519.742500", "134521.232500", "134522.722500", "134524.212500", "134525.702500", "134527.192500", "134528.682500", "134530.172500", "134531.662500", "134533.152500", "134534.642500", "134536.132500", "134537.622500", "134539.112500", "134540.602500", "134542.092500", "134543.582500", "134545.072500", "134546.562500", "134548.052500", "134549.542500", "134551.032500", "134552.522500", "134554.012500", "134555.502500", "134556.992500", "134558.482500", "134559.972500", "134601.462500", "134602.952500", "134604.442500", "134605.932500", "134607.422500", "134608.912500", "134610.402500", "134611.892500", "134613.382500", "134614.872500", "134616.362500", "134617.852500", "134619.342500", "134620.832500", "134622.322500", "134623.812500", "134625.302500", "134626.792500", "134628.282500", "134629.772500", "134631.262500", "134632.752500", "134634.242500", "134635.732500", "134637.222500", "134638.712500", "134640.202500", "134641.692500", "134643.182500", "134644.672500", "134646.162500", "134647.652500", "134649.142500", "134650.632500", "134652.122500", "134653.612500", "134655.102500", "134656.592500", "134658.082500", "134659.572500", "134701.062500", "134702.552500", "134704.042500", "134705.532500", "134707.022500", "134708.512500", "134710.002500", "134711.492500", "134712.982500", "134714.472500", "134715.962500", "134717.452500", "134718.942500", "134720.432500", "134721.922500", "134723.412500", "134724.902500", "134726.392500", "134727.882500", "134729.372500", "134730.862500", "134732.352500", "134733.842500", "134735.332500", "134736.822500", "134738.312500", "134739.802500", "134741.292500", "134742.782500", "134744.272500", "134745.762500", "134747.252500", "134748.742500", "134750.232500", "134751.722500", "134753.212500", "134754.702500", "134756.192500", "134757.682500", "134759.172500", "134800.662500", "134802.152500", "134803.642500", "134805.132500", "134806.622500", "134808.112500", "134809.602500", "134811.092500", "134812.582500", "134814.072500", "134815.562500", "134817.052500", "134818.542500", "134820.032500", "134821.522500", "134823.012500", "134824.502500", "134825.992500", "134827.482500", "134828.972500", "134830.462500", "134831.952500", "134833.442500", "134834.932500", "134836.422500", "134837.912500", "134839.402500", "134840.892500", "134842.382500", "134843.872500", "134845.362500", "134846.852500", "134848.342500", "134849.832500", "134851.322500", "134852.812500", "134854.302500", "134855.792500", "134857.282500", "134858.772500", "134900.262500", "134901.752500", "134903.242500", "134904.732500", "134906.222500", "134907.712500", "134909.202500", "134910.692500", "134912.182500", "134913.672500", "134915.162500", "134916.652500", "134918.142500", "134919.632500", "134921.122500", "134922.612500", "134924.102500", "134925.592500", "134927.082500", "134928.572500", "134930.062500", "134931.552500", "134933.042500", "134934.532500", "134936.022500", "134937.512500", "134939.002500", "134940.492500", "134941.982500", "134943.472500", "134944.962500", "134946.452500", "134947.942500", "134949.432500", "134950.922500", "134952.412500", "134953.902500", "134955.392500", "134956.882500"],
      "ContentTime": ["134631.564000", "134631.567000", "134631.569000", "134631.572000", "134631.574000", "134631.577000", "134631.579000", "134631.582000", "134631.584000", "134631.587000", "134631.589000", "134631.592000", "134631.594000", "134631.597000", "134631.599000", "134631.602000", "134631.604000", "134631.607000", "134631.609000", "134631.612000", "134631.614000", "134631.617000", "134651.510000", "134651.513000", "134651.516000", "134651.523000", "134651.526000", "134651.528000", "134651.531000", "134651.533000", "134651.536000", "134651.538000", "134651.541000", "134651.543000", "134651.546000", "134651.548000", "134651.551000", "134651.553000", "134651.559000", "134651.561000", "134651.564000", "134651.566000", "134711.504000", "134711.506000", "134711.509000", "134711.512000", "134711.514000", "134711.516000", "134711.519000", "134711.522000", "134711.524000", "134711.527000", "134711.529000", "134711.532000", "134711.534000", "134711.537000", "134711.539000", "134711.542000", "134711.544000", "134711.547000", "134711.550000", "134711.552000", "134711.555000", "134731.480000", "134731.482000", "134731.485000", "134731.487000", "134731.490000", "134731.492000", "134731.495000", "134731.497000", "134731.500000", "134731.502000", "134731.505000", "134731.507000", "134731.510000", "134731.512000", "134731.515000", "134731.524000", "134731.526000", "134731.529000", "134731.531000", "134731.534000", "134751.484000", "134751.487000", "134751.489000", "134751.492000", "134751.494000", "134751.497000", "134751.499000", "134751.502000", "134751.504000", "134751.507000", "134751.509000", "134751.512000", "134751.514000", "134751.517000", "134751.520000", "134751.522000", "134751.525000", "134751.527000", "134751.530000", "134751.532000", "134811.454000", "134811.457000", "134811.459000", "134811.461000", "134811.464000", "134811.466000", "134811.469000", "134811.471000", "134811.474000", "134811.476000", "134811.479000", "134811.481000", "134811.484000", "134811.486000", "134851.497000", "134851.499000", "134851.502000", "134851.505000", "134851.507000", "134851.510000", "134851.512000", "134851.515000", "134851.517000", "134851.520000", "134851.522000", "134851.534000", "134851.536000", "134851.539000", "134851.541000", "134851.544000", "134851.546000", "134851.549000", "134851.552000", "134851.554000", "134851.557000", "134851.559000", "134851.562000", "134851.564000", "134851.567000", "134851.569000", "134851.572000", "134931.515000", "134931.517000", "134931.520000", "134931.522000", "134931.525000", "134931.528000", "134931.530000", "134931.532000", "134931.535000", "134931.538000", "134931.540000", "134931.543000", "134931.545000", "134931.548000", "134931.550000", "134931.553000", "134931.555000", "134931.558000", "134931.561000", "134931.571000", "134931.574000", "134931.576000", "134931.579000", "134931.581000", "134931.584000", "134931.587000", "134931.589000", "134959.412000", "134959.415000", "134959.424000", "134959.427000", "134959.429000", "134959.432000", "134959.435000", "134959.438000", "134959.440000", "134959.443000", "134959.446000", "134959.449000", "134959.452000", "134959.454000", "134959.457000", "134959.460000", "134959.463000", "134959.465000", "134959.468000"],
      "InstanceCreationTime": ["134631.564000", "134631.567000", "134631.569000", "134631.572000", "134631.574000", "134631.577000", "134631.579000", "134631.582000", "134631.584000", "134631.587000", "134631.589000", "134631.592000", "134631.594000", "134631.597000", "134631.599000", "134631.602000", "134631.604000", "134631.607000", "134631.609000", "134631.612000", "134631.614000", "134631.617000", "134651.510000", "134651.513000", "134651.516000", "134651.523000", "134651.526000", "134651.528000", "134651.531000", "134651.533000", "134651.536000", "134651.538000", "134651.541000", "134651.543000", "134651.546000", "134651.548000", "134651.551000", "134651.553000", "134651.559000", "134651.561000", "134651.564000", "134651.566000", "134711.504000", "134711.506000", "134711.509000", "134711.512000", "134711.514000", "134711.516000", "134711.519000", "134711.522000", "134711.524000", "134711.527000", "134711.529000", "134711.532000", "134711.534000", "134711.537000", "134711.539000", "134711.542000", "134711.544000", "134711.547000", "134711.550000", "134711.552000", "134711.555000", "134731.480000", "134731.482000", "134731.485000", "134731.487000", "134731.490000", "134731.492000", "134731.495000", "134731.497000", "134731.500000", "134731.502000", "134731.505000", "134731.507000", "134731.510000", "134731.512000", "134731.515000", "134731.524000", "134731.526000", "134731.529000", "134731.531000", "134731.534000", "134751.484000", "134751.487000", "134751.489000", "134751.492000", "134751.494000", "134751.497000", "134751.499000", "134751.502000", "134751.504000", "134751.507000", "134751.509000", "134751.512000", "134751.514000", "134751.517000", "134751.520000", "134751.522000", "134751.525000", "134751.527000", "134751.530000", "134751.532000", "134811.454000", "134811.457000", "134811.459000", "134811.461000", "134811.464000", "134811.466000", "134811.469000", "134811.471000", "134811.474000", "134811.476000", "134811.479000", "134811.481000", "134811.484000", "134811.486000", "134851.497000", "134851.499000", "134851.502000", "134851.505000", "134851.507000", "134851.510000", "134851.512000", "134851.515000", "134851.517000", "134851.520000", "134851.522000", "134851.534000", "134851.536000", "134851.539000", "134851.541000", "134851.544000", "134851.546000", "134851.549000", "134851.552000", "134851.554000", "134851.557000", "134851.559000", "134851.562000", "134851.564000", "134851.567000", "134851.569000", "134851.572000", "134931.515000", "134931.517000", "134931.520000", "134931.522000", "134931.525000", "134931.528000", "134931.530000", "134931.532000", "134931.535000", "134931.538000", "134931.540000", "134931.543000", "134931.545000", "134931.548000", "134931.550000", "134931.553000", "134931.555000", "134931.558000", "134931.561000", "134931.571000", "134931.574000", "134931.576000", "134931.579000", "134931.581000", "134931.584000", "134931.587000", "134931.589000", "134959.412000", "134959.415000", "134959.424000", "134959.427000", "134959.429000", "134959.432000", "134959.435000", "134959.438000", "134959.440000", "134959.443000", "134959.446000", "134959.449000", "134959.452000", "134959.454000", "134959.457000", "134959.460000", "134959.463000", "134959.465000", "134959.468000"],
      "InstanceNumber": [1, 2, 3, 4, 5, 6, 7, 8, 9, 10, 11, 12, 13, 14, 15, 16, 17, 18, 19, 20, 21, 22, 23, 24, 25, 26, 27, 28, 29, 30, 31, 32, 33, 34, 35, 36, 37, 38, 39, 40, 41, 42, 43, 44, 45, 46, 47, 48, 49, 50, 51, 52, 53, 54, 55, 56, 57, 58, 59, 60, 61, 62, 63, 64, 65, 66, 67, 68, 69, 70, 71, 72, 73, 74, 75, 76, 77, 78, 79, 80, 81, 82, 83, 84, 85, 86, 87, 88, 89, 90, 91, 92, 93, 94, 95, 96, 97, 98, 99, 100, 101, 102, 103, 104, 105, 106, 107, 108, 109, 110, 111, 112, 113, 114, 115, 116, 117, 118, 119, 120, 121, 122, 123, 124, 125, 126, 127, 128, 129, 130, 131, 132, 133, 134, 135, 136, 137, 138, 139, 140, 141, 142, 143, 144, 145, 146, 147, 148, 149, 150, 151, 152, 153, 154, 155, 156, 157, 158, 159, 160, 161, 162, 163, 164, 165, 166, 167, 168, 169, 170, 171, 172, 173, 174, 175, 176, 177, 178, 179, 180, 181, 182, 183, 184, 185, 186, 187, 188, 189, 190],
      "WindowCenter": [4892.0, 4888.0, 4892.0, 4890.0, 4892.0, 4894.0, 4894.0, 4886.0, 4866.0, 4890.0, 4890.0, 4888.0, 4894.0, 4888.0, 4892.0, 4888.0, 4892.0, 4866.0, 4888.0, 4890.0, 4892.0, 4892.0, 4890.0, 4888.0, 4892.0, 4888.0, 4888.0, 4890.0, 4892.0, 4868.0, 4888.0, 4890.0, 4866.0, 4892.0, 4892.0, 4896.0, 4892.0, 4892.0, 4890.0, 4892.0, 4888.0, 4890.0, 4890.0, 4888.0, 4894.0, 4890.0, 4868.0, 4890.0, 4892.0, 4890.0, 4894.0, 4890.0, 4890.0, 4892.0, 4890.0, 4890.0, 4890.0, 4890.0, 4890.0, 4888.0, 4892.0, 4892.0, 4888.0, 4892.0, 4890.0, 4890.0, 4886.0, 4890.0, 4890.0, 4892.0, 4888.0, 4892.0, 4890.0, 4890.0, 4864.0, 4862.0, 4894.0, 4894.0, 4894.0, 4892.0, 4866.0, 4888.0, 4886.0, 4888.0, 4862.0, 4888.0, 4888.0, 4892.0, 4892.0, 4890.0, 4890.0, 4894.0, 4888.0, 4892.0, 4888.0, 4892.0, 4886.0, 4890.0, 4888.0, 4866.0, 4890.0, 4890.0, 4892.0, 4890.0, 4892.0, 4890.0, 4888.0, 4888.0, 4888.0, 4886.0, 4890.0, 4888.0, 4866.0, 4888.0, 4892.0, 4866.0, 4892.0, 4868.0, 4868.0, 4888.0, 4888.0, 4892.0, 4886.0, 4892.0, 4890.0, 4892.0, 4894.0, 4892.0, 4864.0, 4890.0, 4888.0, 4890.0, 4888.0, 4892.0, 4890.0, 4890.0, 4888.0, 4890.0, 4886.0, 4866.0, 4892.0, 4886.0, 4888.0, 4886.0, 4888.0, 4866.0, 4892.0, 4886.0, 4890.0, 4888.0, 4864.0, 4866.0, 4890.0, 4890.0, 4888.0, 4890.0, 4888.0, 4888.0, 4888.0, 4868.0, 4866.0, 4890.0, 4892.0, 4890.0, 4866.0, 4894.0, 4888.0, 4888.0, 4890.0, 4888.0, 4866.0, 4888.0, 4892.0, 4890.0, 4868.0, 4890.0, 4892.0, 4864.0, 4890.0, 4892.0, 4886.0, 4888.0, 4870.0, 4888.0, 4890.0, 4864.0, 4868.0, 4888.0, 4892.0, 4890.0],
      "WindowWidth": [18724.0, 18722.0, 18720.0, 18722.0, 18736.0, 18728.0, 18720.0, 18726.0, 18696.0, 18722.0, 18722.0, 18720.0, 18722.0, 18722.0, 18724.0, 18728.0, 18728.0, 18692.0, 18722.0, 18726.0, 18728.0, 18728.0, 18720.0, 18726.0, 18724.0, 18726.0, 18722.0, 18726.0, 18726.0, 18694.0, 18720.0, 18726.0, 18692.0, 18720.0, 18724.0, 18726.0, 18722.0, 18730.0, 18722.0, 18726.0, 18720.0, 18722.0, 18726.0, 18726.0, 18726.0, 18726.0, 18694.0, 18724.0, 18722.0, 18724.0, 18726.0, 18724.0, 18726.0, 18726.0, 18720.0, 18724.0, 18718.0, 18722.0, 18726.0, 18724.0, 18722.0, 18730.0, 18724.0, 18728.0, 18724.0, 18726.0, 18724.0, 18724.0, 18726.0, 18726.0, 18726.0, 18728.0, 18722.0, 18724.0, 18702.0, 18698.0, 18726.0, 18720.0, 18718.0, 18720.0, 18694.0, 18724.0, 18728.0, 18726.0, 18698.0, 18726.0, 18724.0, 18722.0, 18720.0, 18726.0, 18724.0, 18726.0, 18726.0, 18724.0, 18728.0, 18724.0, 18728.0, 18730.0, 18720.0, 18692.0, 18716.0, 18724.0, 18722.0, 18726.0, 18728.0, 18726.0, 18724.0, 18726.0, 18730.0, 18722.0, 18726.0, 18722.0, 18696.0, 18724.0, 18726.0, 18688.0, 18724.0, 18694.0, 18696.0, 18728.0, 18724.0, 18726.0, 18726.0, 18728.0, 18726.0, 18720.0, 18728.0, 18724.0, 18694.0, 18726.0, 18726.0, 18722.0, 18726.0, 18728.0, 18726.0, 18724.0, 18728.0, 18724.0, 18722.0, 18694.0, 18728.0, 18726.0, 18724.0, 18726.0, 18718.0, 18694.0, 18722.0, 18726.0, 18728.0, 18722.0, 18696.0, 18696.0, 18728.0, 18722.0, 18726.0, 18720.0, 18724.0, 18722.0, 18730.0, 18690.0, 18692.0, 18722.0, 18724.0, 18726.0, 18694.0, 18724.0, 18726.0, 18720.0, 18726.0, 18722.0, 18694.0, 18724.0, 18728.0, 18726.0, 18694.0, 18726.0, 18728.0, 18692.0, 18722.0, 18728.0, 18722.0, 18726.0, 18698.0, 18730.0, 18722.0, 18696.0, 18696.0, 18728.0, 18728.0, 18728.0]
    },
    "slices": {}
  }
}