{
  "AcquisitionMatrixPE": 104,
  "AcquisitionNumber": 1,
  "AcquisitionTime": "13:57:36.567500",
  "BandwidthPerPixelPhaseEncode": 17.17,
  "BaseResolution": 104,
  "BodyPartExamined": "BRAIN",
  "CoilString": "HC1-7;NC1_2",
  "ConsistencyInfo": "N4_VE11C_LATEST_20160120",
  "ConversionSoftware": "dcm2niix",
  "ConversionSoftwareVersion": "v1.0.20190902",
  "DerivedVendorReportedEchoSpacing": 0.000560011,
  "DeviceSerialNumber": "167006",
  "DwellTime": 2.1e-06,
  "EchoTime": 0.037,
  "EchoTrainLength": 104,
  "EffectiveEchoSpacing": 0.000560011,
  "FlipAngle": 52,
  "ImageComments": "Unaliased_MB4_PE3_LB",
  "ImageOrientationPatientDICOM": [0.999808, 0.00477727, 0.0190055, 0.0001745, 0.967622, -0.252404],
  "ImageType": [
    "ORIGINAL",
    "PRIMARY",
    "P",
    "MB",
    "ND",
    "MOSAIC"
],
  "ImagingFrequency": 123.259,
  "InPlanePhaseEncodingDirectionDICOM": "COL",
  "InstitutionAddress": "Chemin_Queen-Mary_4565_Montreal_District_CA_H3W_1W5",
  "InstitutionName": "IUGM",
  "InstitutionalDepartmentName": "Department",
  "MRAcquisitionType": "2D",
  "MagneticFieldStrength": 3,
  "Manufacturer": "Siemens",
  "ManufacturersModelName": "Prisma_fit",
  "Modality": "MR",
  "MultibandAccelerationFactor": 4,
  "PartialFourier": 1,
  "PatientPosition": "HFS",
  "PercentPhaseFOV": 100,
  "PhaseEncodingDirection": "j",
  "PhaseEncodingSteps": 104,
  "PhaseResolution": 1,
  "PixelBandwidth": 2290,
  "ProcedureStepDescription": "memory_things",
  "ProtocolName": "func_task-things_run-5",
  "PulseSequenceDetails": "%CustomerSeq%_cmrr_mbep2d_bold",
  "ReceiveCoilActiveElements": "HC1-7;NC1,2",
  "ReceiveCoilName": "HeadNeck_64",
  "ReconMatrixPE": 104,
  "RepetitionTime": 1.49,
  "SAR": 0.0483908,
  "ScanOptions": "FS",
  "ScanningSequence": "EP",
  "SequenceName": "epfid2d1_104",
  "SequenceVariant": "SK_SS",
  "SeriesDescription": "func_task-things_run-5",
  "SeriesNumber": 23,
  "ShimSetting": [634, -7210, -8764, 717, 51, 20, 54, -10],
  "SliceThickness": 2,
  "SliceTiming": [0, 0.785, 0.0975, 0.8825, 0.195, 0.98, 0.295, 1.0775, 0.3925, 1.175, 0.49, 1.275, 0.5875, 1.3725, 0.685, 0, 0.785, 0.0975, 0.8825, 0.195, 0.98, 0.295, 1.0775, 0.3925, 1.175, 0.49, 1.275, 0.5875, 1.3725, 0.685, 0, 0.785, 0.0975, 0.8825, 0.195, 0.98, 0.295, 1.0775, 0.3925, 1.175, 0.49, 1.275, 0.5875, 1.3725, 0.685, 0, 0.785, 0.0975, 0.8825, 0.195, 0.98, 0.295, 1.0775, 0.3925, 1.175, 0.49, 1.275, 0.5875, 1.3725, 0.685],
  "SoftwareVersions": "syngo_MR_E11",
  "SpacingBetweenSlices": 2,
  "StationName": "MRC35049",
  "TaskName": "things",
  "TotalReadoutTime": 0.0576811,
  "TxRefAmp": 233.671,
  "WipMemBlock": "15e83939-3350-4a54-8f0c-2c180f4f2c48||Sequence: R016 ve11c/master r/e634e98; Dec 19 2017 11:00:25 by eja",
  "dcmmeta_affine": [
    [-1.9996159076690674, 0.0003490002709440887, 0.039191823452711105, 108.1073226928711],
    [-0.009554533287882805, 1.9352439641952515, -0.5047174692153931, -74.38790130615234],
    [0.038010939955711365, 0.5048077702522278, 1.9348706007003784, -58.15380859375],
    [0.0, 0.0, 0.0, 1.0]
],
  "dcmmeta_reorient_transform": [
    [0.0, -1.0, 0.0, 103.0],
    [1.0, 0.0, 0.0, 0.0],
    [0.0, 0.0, 1.0, 0.0],
    [0.0, 0.0, 0.0, 1.0]
],
  "dcmmeta_shape": [104, 104, 60, 190],
  "dcmmeta_slice_dim": 2,
  "dcmmeta_version": 0.6,
  "global": {
    "const": {
      "AcquisitionMatrix": [104, 0, 0, 104],
      "AngioFlag": "N",
      "BitsAllocated": 16,
      "BitsStored": 16,
      "BodyPartExamined": "BRAIN",
      "Columns": 832,
      "EchoNumbers": 1,
      "EchoTime": 37.0,
      "EchoTrainLength": 104,
      "FlipAngle": 52.0,
      "HighBit": 15,
      "ImageOrientationPatient": [0.99980796646558, 0.00477726643656, 0.01900547072179, 0.00017450013683, 0.96762195696734, -0.2524038786239],
      "ImagePositionPatient": [-836.13050613106, -832.84885414365, 163.75543039167],
      "ImageType": [
        "ORIGINAL",
        "PRIMARY",
        "P",
        "MB",
        "ND",
        "MOSAIC"
],
      "ImagedNucleus": "1H",
      "ImagingFrequency": 123.258924,
      "InPlanePhaseEncodingDirection": "COL",
      "LargestImagePixelValue": 4095,
      "MRAcquisitionType": "2D",
      "MagneticFieldStrength": 3.0,
      "Manufacturer": "SIEMENS",
      "ManufacturerModelName": "Prisma_fit",
      "Modality": "MR",
      "NumberOfAverages": 1.0,
      "NumberOfPhaseEncodingSteps": 104,
      "PercentPhaseFieldOfView": 100.0,
      "PercentSampling": 100.0,
      "PerformedProcedureStepStartTime": "125811.868000",
      "PhotometricInterpretation": "MONOCHROME2",
      "PixelBandwidth": 2290.0,
      "PixelRepresentation": 0,
      "PixelSpacing": [2.0, 2.0],
      "ProtocolName": "func_task-things_run-5",
      "RepetitionTime": 1490.0,
      "RescaleIntercept": -4096.0,
      "RescaleSlope": 2.0,
      "RescaleType": "US",
      "Rows": 832,
      "SAR": 0.04839084328241,
      "SamplesPerPixel": 1,
      "ScanOptions": "FS",
      "ScanningSequence": "EP",
      "SequenceName": "epfid2d1_104",
      "SequenceVariant": [
        "SK",
        "SS"
],
      "SeriesDescription": "func_task-things_run-5",
      "SeriesNumber": 23,
      "SeriesTime": "135846.602000",
      "SliceLocation": -35.369150583078,
      "SliceThickness": 2.0,
      "SmallestImagePixelValue": 0,
      "SoftwareVersions": "syngo MR E11",
      "SpacingBetweenSlices": 1.9999999579229,
      "SpecificCharacterSet": "ISO_IR 100",
      "StudyID": "1",
      "StudyTime": "125811.763000",
      "TransmitCoilName": "Body",
      "VariableFlipAngleFlag": "N",
      "WindowCenterWidthExplanation": "Algo1",
      "dBdt": 0.0},
    "slices": {}
  },
  "time": {
    "samples": {
      "AcquisitionNumber": [1, 2, 3, 4, 5, 6, 7, 8, 9, 10, 11, 12, 13, 14, 15, 16, 17, 18, 19, 20, 21, 22, 23, 24, 25, 26, 27, 28, 29, 30, 31, 32, 33, 34, 35, 36, 37, 38, 39, 40, 41, 42, 43, 44, 45, 46, 47, 48, 49, 50, 51, 52, 53, 54, 55, 56, 57, 58, 59, 60, 61, 62, 63, 64, 65, 66, 67, 68, 69, 70, 71, 72, 73, 74, 75, 76, 77, 78, 79, 80, 81, 82, 83, 84, 85, 86, 87, 88, 89, 90, 91, 92, 93, 94, 95, 96, 97, 98, 99, 100, 101, 102, 103, 104, 105, 106, 107, 108, 109, 110, 111, 112, 113, 114, 115, 116, 117, 118, 119, 120, 121, 122, 123, 124, 125, 126, 127, 128, 129, 130, 131, 132, 133, 134, 135, 136, 137, 138, 139, 140, 141, 142, 143, 144, 145, 146, 147, 148, 149, 150, 151, 152, 153, 154, 155, 156, 157, 158, 159, 160, 161, 162, 163, 164, 165, 166, 167, 168, 169, 170, 171, 172, 173, 174, 175, 176, 177, 178, 179, 180, 181, 182, 183, 184, 185, 186, 187, 188, 189, 190],
      "AcquisitionTime": ["135736.567500", "135738.057500", "135739.547500", "135741.037500", "135742.527500", "135744.017500", "135745.507500", "135746.997500", "135748.487500", "135749.977500", "135751.467500", "135752.957500", "135754.447500", "135755.937500", "135757.427500", "135758.917500", "135800.407500", "135801.897500", "135803.387500", "135804.877500", "135806.367500", "135807.857500", "135809.347500", "135810.837500", "135812.327500", "135813.817500", "135815.307500", "135816.797500", "135818.287500", "135819.777500", "135821.267500", "135822.757500", "135824.247500", "135825.737500", "135827.227500", "135828.717500", "135830.207500", "135831.697500", "135833.187500", "135834.677500", "135836.167500", "135837.657500", "135839.147500", "135840.637500", "135842.127500", "135843.617500", "135845.107500", "135846.597500", "135848.087500", "135849.577500", "135851.067500", "135852.557500", "135854.047500", "135855.537500", "135857.027500", "135858.517500", "135900.007500", "135901.497500", "135902.987500", "135904.477500", "135905.967500", "135907.457500", "135908.947500", "135910.437500", "135911.927500", "135913.417500", "135914.907500", "135916.397500", "135917.887500", "135919.377500", "135920.867500", "135922.357500", "135923.847500", "135925.337500", "135926.827500", "135928.317500", "135929.807500", "135931.297500", "135932.787500", "135934.277500", "135935.767500", "135937.257500", "135938.747500", "135940.237500", "135941.727500", "135943.217500", "135944.707500", "135946.197500", "135947.687500", "135949.177500", "135950.667500", "135952.157500", "135953.647500", "135955.137500", "135956.627500", "135958.117500", "135959.607500", "140001.097500", "140002.587500", "140004.077500", "140005.567500", "140007.057500", "140008.547500", "140010.037500", "140011.527500", "140013.017500", "140014.507500", "140015.997500", "140017.487500", "140018.977500", "140020.467500", "140021.957500", "140023.447500", "140024.937500", "140026.427500", "140027.917500", "140029.407500", "140030.897500", "140032.387500", "140033.877500", "140035.367500", "140036.857500", "140038.347500", "140039.837500", "140041.327500", "140042.817500", "140044.307500", "140045.797500", "140047.287500", "140048.777500", "140050.267500", "140051.757500", "140053.247500", "140054.737500", "140056.227500", "140057.717500", "140059.207500", "140100.697500", "140102.187500", "140103.677500", "140105.167500", "140106.657500", "140108.147500", "140109.637500", "140111.127500", "140112.617500", "140114.107500", "140115.597500", "140117.087500", "140118.577500", "140120.067500", "140121.557500", "140123.047500", "140124.537500", "140126.027500", "140127.517500", "140129.007500", "140130.497500", "140131.987500", "140133.477500", "140134.967500", "140136.457500", "140137.947500", "140139.437500", "140140.927500", "140142.417500", "140143.907500", "140145.397500", "140146.887500", "140148.377500", "140149.867500", "140151.357500", "140152.847500", "140154.337500", "140155.827500", "140157.317500", "140158.807500", "140200.297500", "140201.787500", "140203.277500", "140204.767500", "140206.257500", "140207.747500", "140209.237500", "140210.727500", "140212.217500", "140213.707500", "140215.197500", "140216.687500", "140218.177500"],
      "ContentTime": ["135846.604000", "135846.607000", "135846.610000", "135846.612000", "135846.614000", "135846.617000", "135846.619000", "135846.622000", "135846.625000", "135846.627000", "135846.630000", "135846.632000", "135846.635000", "135846.637000", "135846.640000", "135846.642000", "135906.579000", "135906.582000", "135906.584000", "135906.587000", "135906.590000", "135906.592000", "135906.594000", "135906.597000", "135906.599000", "135906.602000", "135906.604000", "135906.615000", "135906.618000", "135906.620000", "135906.623000", "135906.625000", "135906.628000", "135906.630000", "135906.633000", "135906.635000", "135926.578000", "135926.581000", "135926.583000", "135926.586000", "135926.588000", "135926.591000", "135926.593000", "135926.596000", "135926.598000", "135926.601000", "135926.603000", "135926.606000", "135926.608000", "135926.611000", "135926.613000", "135926.616000", "135926.619000", "135926.622000", "135926.625000", "135926.655000", "135946.566000", "135946.568000", "135946.571000", "135946.574000", "135946.577000", "135946.579000", "135946.582000", "135946.585000", "135946.588000", "135946.590000", "135946.593000", "135946.596000", "135946.598000", "135946.601000", "135946.604000", "135946.607000", "135946.609000", "135946.612000", "135946.615000", "135946.617000", "140006.571000", "140006.574000", "140006.576000", "140006.578000", "140006.581000", "140006.583000", "140006.586000", "140006.588000", "140006.591000", "140006.593000", "140006.596000", "140006.598000", "140006.601000", "140006.603000", "140006.606000", "140006.608000", "140006.611000", "140006.613000", "140006.616000", "140006.618000", "140006.621000", "140047.047000", "140047.049000", "140047.052000", "140047.055000", "140047.057000", "140047.060000", "140047.062000", "140047.065000", "140047.067000", "140047.070000", "140047.073000", "140047.075000", "140047.077000", "140047.080000", "140047.083000", "140047.085000", "140047.088000", "140047.090000", "140047.093000", "140047.095000", "140047.098000", "140047.101000", "140047.104000", "140047.106000", "140047.109000", "140047.111000", "140047.114000", "140047.117000", "140047.119000", "140047.122000", "140126.622000", "140126.625000", "140126.628000", "140126.631000", "140126.634000", "140126.637000", "140126.639000", "140126.642000", "140126.645000", "140126.647000", "140126.650000", "140126.652000", "140126.655000", "140126.658000", "140126.660000", "140126.663000", "140126.665000", "140126.668000", "140126.671000", "140126.673000", "140126.676000", "140126.678000", "140126.681000", "140126.684000", "140126.686000", "140126.689000", "140206.606000", "140206.609000", "140206.611000", "140206.614000", "140206.616000", "140206.619000", "140206.621000", "140206.624000", "140206.626000", "140206.629000", "140206.632000", "140206.634000", "140206.636000", "140206.639000", "140206.642000", "140206.644000", "140206.647000", "140206.649000", "140206.652000", "140206.654000", "140206.657000", "140206.660000", "140206.662000", "140206.665000", "140206.667000", "140206.670000", "140206.672000", "140220.404000", "140220.407000", "140220.410000", "140220.412000", "140220.419000", "140220.421000", "140220.424000", "140220.426000", "140220.429000", "140220.432000"],
      "InstanceCreationTime": ["135846.604000", "135846.607000", "135846.610000", "135846.612000", "135846.614000", "135846.617000", "135846.619000", "135846.622000", "135846.625000", "135846.627000", "135846.630000", "135846.632000", "135846.635000", "135846.637000", "135846.640000", "135846.642000", "135906.579000", "135906.582000", "135906.584000", "135906.587000", "135906.590000", "135906.592000", "135906.594000", "135906.597000", "135906.599000", "135906.602000", "135906.604000", "135906.615000", "135906.618000", "135906.620000", "135906.623000", "135906.625000", "135906.628000", "135906.630000", "135906.633000", "135906.635000", "135926.578000", "135926.581000", "135926.583000", "135926.586000", "135926.588000", "135926.591000", "135926.593000", "135926.596000", "135926.598000", "135926.601000", "135926.603000", "135926.606000", "135926.608000", "135926.611000", "135926.613000", "135926.616000", "135926.619000", "135926.622000", "135926.625000", "135926.655000", "135946.566000", "135946.568000", "135946.571000", "135946.574000", "135946.577000", "135946.579000", "135946.582000", "135946.585000", "135946.588000", "135946.590000", "135946.593000", "135946.596000", "135946.598000", "135946.601000", "135946.604000", "135946.607000", "135946.609000", "135946.612000", "135946.615000", "135946.617000", "140006.571000", "140006.574000", "140006.576000", "140006.578000", "140006.581000", "140006.583000", "140006.586000", "140006.588000", "140006.591000", "140006.593000", "140006.596000", "140006.598000", "140006.601000", "140006.603000", "140006.606000", "140006.608000", "140006.611000", "140006.613000", "140006.616000", "140006.618000", "140006.621000", "140047.047000", "140047.049000", "140047.052000", "140047.055000", "140047.057000", "140047.060000", "140047.062000", "140047.065000", "140047.067000", "140047.070000", "140047.073000", "140047.075000", "140047.077000", "140047.080000", "140047.083000", "140047.085000", "140047.088000", "140047.090000", "140047.093000", "140047.095000", "140047.098000", "140047.101000", "140047.104000", "140047.106000", "140047.109000", "140047.111000", "140047.114000", "140047.117000", "140047.119000", "140047.122000", "140126.622000", "140126.625000", "140126.628000", "140126.631000", "140126.634000", "140126.637000", "140126.639000", "140126.642000", "140126.645000", "140126.647000", "140126.650000", "140126.652000", "140126.655000", "140126.658000", "140126.660000", "140126.663000", "140126.665000", "140126.668000", "140126.671000", "140126.673000", "140126.676000", "140126.678000", "140126.681000", "140126.684000", "140126.686000", "140126.689000", "140206.606000", "140206.609000", "140206.611000", "140206.614000", "140206.616000", "140206.619000", "140206.621000", "140206.624000", "140206.626000", "140206.629000", "140206.632000", "140206.634000", "140206.636000", "140206.639000", "140206.642000", "140206.644000", "140206.647000", "140206.649000", "140206.652000", "140206.654000", "140206.657000", "140206.660000", "140206.662000", "140206.665000", "140206.667000", "140206.670000", "140206.672000", "140220.404000", "140220.407000", "140220.410000", "140220.412000", "140220.419000", "140220.421000", "140220.424000", "140220.426000", "140220.429000", "140220.432000"],
      "InstanceNumber": [1, 2, 3, 4, 5, 6, 7, 8, 9, 10, 11, 12, 13, 14, 15, 16, 17, 18, 19, 20, 21, 22, 23, 24, 25, 26, 27, 28, 29, 30, 31, 32, 33, 34, 35, 36, 37, 38, 39, 40, 41, 42, 43, 44, 45, 46, 47, 48, 49, 50, 51, 52, 53, 54, 55, 56, 57, 58, 59, 60, 61, 62, 63, 64, 65, 66, 67, 68, 69, 70, 71, 72, 73, 74, 75, 76, 77, 78, 79, 80, 81, 82, 83, 84, 85, 86, 87, 88, 89, 90, 91, 92, 93, 94, 95, 96, 97, 98, 99, 100, 101, 102, 103, 104, 105, 106, 107, 108, 109, 110, 111, 112, 113, 114, 115, 116, 117, 118, 119, 120, 121, 122, 123, 124, 125, 126, 127, 128, 129, 130, 131, 132, 133, 134, 135, 136, 137, 138, 139, 140, 141, 142, 143, 144, 145, 146, 147, 148, 149, 150, 151, 152, 153, 154, 155, 156, 157, 158, 159, 160, 161, 162, 163, 164, 165, 166, 167, 168, 169, 170, 171, 172, 173, 174, 175, 176, 177, 178, 179, 180, 181, 182, 183, 184, 185, 186, 187, 188, 189, 190],
      "WindowCenter": [4894.0, 4892.0, 4896.0, 4898.0, 4892.0, 4888.0, 4894.0, 4898.0, 4900.0, 4896.0, 4898.0, 4898.0, 4894.0, 4894.0, 4894.0, 4892.0, 4892.0, 4894.0, 4896.0, 4896.0, 4900.0, 4898.0, 4898.0, 4892.0, 4900.0, 4892.0, 4896.0, 4890.0, 4894.0, 4898.0, 4896.0, 4896.0, 4900.0, 4900.0, 4896.0, 4896.0, 4894.0, 4894.0, 4896.0, 4896.0, 4898.0, 4896.0, 4898.0, 4894.0, 4900.0, 4892.0, 4896.0, 4896.0, 4896.0, 4894.0, 4896.0, 4894.0, 4896.0, 4896.0, 4894.0, 4892.0, 4896.0, 4894.0, 4898.0, 4896.0, 4894.0, 4892.0, 4896.0, 4896.0, 4896.0, 4898.0, 4894.0, 4896.0, 4896.0, 4896.0, 4894.0, 4898.0, 4894.0, 4898.0, 4896.0, 4896.0, 4898.0, 4892.0, 4896.0, 4894.0, 4898.0, 4896.0, 4898.0, 4898.0, 4898.0, 4892.0, 4894.0, 4892.0, 4894.0, 4896.0, 4898.0, 4898.0, 4892.0, 4896.0, 4894.0, 4892.0, 4894.0, 4894.0, 4896.0, 4896.0, 4894.0, 4896.0, 4894.0, 4892.0, 4894.0, 4894.0, 4896.0, 4892.0, 4896.0, 4890.0, 4896.0, 4894.0, 4896.0, 4896.0, 4894.0, 4896.0, 4896.0, 4890.0, 4892.0, 4892.0, 4894.0, 4894.0, 4896.0, 4896.0, 4892.0, 4896.0, 4894.0, 4892.0, 4894.0, 4894.0, 4892.0, 4894.0, 4894.0, 4898.0, 4894.0, 4902.0, 4900.0, 4892.0, 4894.0, 4894.0, 4896.0, 4894.0, 4898.0, 4896.0, 4896.0, 4896.0, 4896.0, 4896.0, 4896.0, 4898.0, 4898.0, 4894.0, 4896.0, 4900.0, 4896.0, 4894.0, 4896.0, 4894.0, 4898.0, 4894.0, 4900.0, 4896.0, 4894.0, 4892.0, 4896.0, 4900.0, 4896.0, 4896.0, 4894.0, 4896.0, 4898.0, 4896.0, 4896.0, 4894.0, 4894.0, 4894.0, 4900.0, 4900.0, 4900.0, 4894.0, 4894.0, 4896.0, 4896.0, 4894.0, 4896.0, 4894.0, 4898.0, 4894.0, 4896.0, 4898.0],
      "WindowWidth": [18726.0, 18714.0, 18720.0, 18718.0, 18722.0, 18728.0, 18724.0, 18718.0, 18714.0, 18710.0, 18720.0, 18718.0, 18722.0, 18726.0, 18724.0, 18724.0, 18716.0, 18730.0, 18718.0, 18720.0, 18718.0, 18724.0, 18724.0, 18718.0, 18720.0, 18724.0, 18720.0, 18722.0, 18724.0, 18726.0, 18726.0, 18724.0, 18720.0, 18724.0, 18726.0, 18716.0, 18722.0, 18726.0, 18722.0, 18720.0, 18722.0, 18722.0, 18724.0, 18724.0, 18722.0, 18722.0, 18720.0, 18724.0, 18720.0, 18726.0, 18726.0, 18726.0, 18720.0, 18736.0, 18720.0, 18728.0, 18718.0, 18726.0, 18724.0, 18724.0, 18722.0, 18724.0, 18722.0, 18718.0, 18728.0, 18726.0, 18728.0, 18722.0, 18726.0, 18724.0, 18726.0, 18722.0, 18722.0, 18726.0, 18722.0, 18726.0, 18726.0, 18722.0, 18722.0, 18722.0, 18724.0, 18728.0, 18722.0, 18724.0, 18720.0, 18724.0, 18720.0, 18724.0, 18726.0, 18726.0, 18728.0, 18722.0, 18722.0, 18724.0, 18726.0, 18726.0, 18724.0, 18724.0, 18724.0, 18728.0, 18718.0, 18724.0, 18718.0, 18720.0, 18724.0, 18722.0, 18726.0, 18724.0, 18728.0, 18722.0, 18728.0, 18722.0, 18726.0, 18720.0, 18724.0, 18726.0, 18724.0, 18722.0, 18722.0, 18722.0, 18724.0, 18724.0, 18726.0, 18724.0, 18720.0, 18718.0, 18726.0, 18722.0, 18728.0, 18722.0, 18726.0, 18720.0, 18724.0, 18720.0, 18724.0, 18724.0, 18728.0, 18720.0, 18724.0, 18726.0, 18722.0, 18722.0, 18728.0, 18726.0, 18726.0, 18722.0, 18724.0, 18722.0, 18732.0, 18724.0, 18722.0, 18716.0, 18722.0, 18726.0, 18724.0, 18730.0, 18724.0, 18726.0, 18720.0, 18722.0, 18732.0, 18726.0, 18722.0, 18716.0, 18716.0, 18726.0, 18718.0, 18722.0, 18726.0, 18730.0, 18728.0, 18728.0, 18726.0, 18722.0, 18722.0, 18722.0, 18724.0, 18726.0, 18722.0, 18720.0, 18722.0, 18728.0, 18726.0, 18722.0, 18726.0, 18724.0, 18724.0, 18726.0, 18724.0, 18726.0]
    },
    "slices": {}
  }
}