{
  "AcquisitionMatrixPE": 104,
  "AcquisitionNumber": 1,
  "AcquisitionTime": "15:29:53.332500",
  "BandwidthPerPixelPhaseEncode": 17.17,
  "BaseResolution": 104,
  "BodyPartExamined": "BRAIN",
  "CoilString": "HC1-7;NC1_2",
  "ConsistencyInfo": "N4_VE11C_LATEST_20160120",
  "ConversionSoftware": "dcm2niix",
  "ConversionSoftwareVersion": "v1.0.20190902",
  "DerivedVendorReportedEchoSpacing": 0.000560011,
  "DeviceSerialNumber": "167006",
  "DwellTime": 2.1e-06,
  "EchoTime": 0.037,
  "EchoTrainLength": 104,
  "EffectiveEchoSpacing": 0.000560011,
  "FlipAngle": 52,
  "ImageComments": "Unaliased_MB4_PE3_LB",
  "ImageOrientationPatientDICOM": [0.998624, -0.0507277, 0.0132659, 0.0523357, 0.948868, -0.311305],
  "ImageType": [
    "ORIGINAL",
    "PRIMARY",
    "P",
    "MB",
    "ND",
    "MOSAIC"
],
  "ImagingFrequency": 123.259,
  "InPlanePhaseEncodingDirectionDICOM": "COL",
  "InstitutionAddress": "Chemin_Queen-Mary_4565_Montreal_District_CA_H3W_1W5",
  "InstitutionName": "IUGM",
  "InstitutionalDepartmentName": "Department",
  "MRAcquisitionType": "2D",
  "MagneticFieldStrength": 3,
  "Manufacturer": "Siemens",
  "ManufacturersModelName": "Prisma_fit",
  "Modality": "MR",
  "MultibandAccelerationFactor": 4,
  "PartialFourier": 1,
  "PatientPosition": "HFS",
  "PercentPhaseFOV": 100,
  "PhaseEncodingDirection": "j",
  "PhaseEncodingSteps": 104,
  "PhaseResolution": 1,
  "PixelBandwidth": 2290,
  "ProcedureStepDescription": "memory_things",
  "ProtocolName": "func_task-things_run-3",
  "PulseSequenceDetails": "%CustomerSeq%_cmrr_mbep2d_bold",
  "ReceiveCoilActiveElements": "HC1-7;NC1,2",
  "ReceiveCoilName": "HeadNeck_64",
  "ReconMatrixPE": 104,
  "RepetitionTime": 1.49,
  "SAR": 0.0728163,
  "ScanOptions": "FS",
  "ScanningSequence": "EP",
  "SequenceName": "epfid2d1_104",
  "SequenceVariant": "SK_SS",
  "SeriesDescription": "func_task-things_run-3",
  "SeriesNumber": 17,
  "ShimSetting": [628, -7256, -8807, 580, 0, -203, -26, 0],
  "SliceThickness": 2,
  "SliceTiming": [0, 0.7825, 0.0975, 0.88, 0.195, 0.9775, 0.2925, 1.0775, 0.39, 1.175, 0.4875, 1.2725, 0.5875, 1.37, 0.685, 0, 0.7825, 0.0975, 0.88, 0.195, 0.9775, 0.2925, 1.0775, 0.39, 1.175, 0.4875, 1.2725, 0.5875, 1.37, 0.685, 0, 0.7825, 0.0975, 0.88, 0.195, 0.9775, 0.2925, 1.0775, 0.39, 1.175, 0.4875, 1.2725, 0.5875, 1.37, 0.685, 0, 0.7825, 0.0975, 0.88, 0.195, 0.9775, 0.2925, 1.0775, 0.39, 1.175, 0.4875, 1.2725, 0.5875, 1.37, 0.685],
  "SoftwareVersions": "syngo_MR_E11",
  "SpacingBetweenSlices": 2,
  "StationName": "MRC35049",
  "TaskName": "things",
  "TotalReadoutTime": 0.0576811,
  "TxRefAmp": 293.067,
  "WipMemBlock": "4d481321-1754-43bc-b97a-e614cf92c63c||Sequence: R016 ve11c/master r/e634e98; Dec 19 2017 11:00:25 by eja",
  "dcmmeta_affine": [
    [-1.9972487688064575, 0.10467132180929184, -0.006408351473510265, 101.88348388671875],
    [0.10145546495914459, 1.897735595703125, -0.6231423616409302, -72.2363510131836],
    [0.0265318863093853, 0.6226102113723755, 1.9004348516464233, -58.92524719238281],
    [0.0, 0.0, 0.0, 1.0]
],
  "dcmmeta_reorient_transform": [
    [0.0, -1.0, 0.0, 103.0],
    [1.0, 0.0, 0.0, 0.0],
    [0.0, 0.0, 1.0, 0.0],
    [0.0, 0.0, 0.0, 1.0]
],
  "dcmmeta_shape": [104, 104, 60, 190],
  "dcmmeta_slice_dim": 2,
  "dcmmeta_version": 0.6,
  "global": {
    "const": {
      "AcquisitionMatrix": [104, 0, 0, 104],
      "AngioFlag": "N",
      "BitsAllocated": 16,
      "BitsStored": 16,
      "BodyPartExamined": "BRAIN",
      "Columns": 832,
      "EchoNumbers": 1,
      "EchoTime": 37.0,
      "EchoTrainLength": 104,
      "FlipAngle": 52.0,
      "HighBit": 15,
      "ImageOrientationPatient": [0.99862440989272, -0.0507277313194, 0.01326594292158, 0.05233565920793, 0.94886780404345, -0.3113051063266],
      "ImagePositionPatient": [-877.76356173247, -777.07639304548, 222.17611683568],
      "ImageType": [
        "ORIGINAL",
        "PRIMARY",
        "P",
        "MB",
        "ND",
        "MOSAIC"
],
      "ImagedNucleus": "1H",
      "ImagingFrequency": 123.258924,
      "InPlanePhaseEncodingDirection": "COL",
      "LargestImagePixelValue": 4095,
      "MRAcquisitionType": "2D",
      "MagneticFieldStrength": 3.0,
      "Manufacturer": "SIEMENS",
      "ManufacturerModelName": "Prisma_fit",
      "Modality": "MR",
      "NumberOfAverages": 1.0,
      "NumberOfPhaseEncodingSteps": 104,
      "PercentPhaseFieldOfView": 100.0,
      "PercentSampling": 100.0,
      "PerformedProcedureStepStartTime": "145655.529000",
      "PhotometricInterpretation": "MONOCHROME2",
      "PixelBandwidth": 2290.0,
      "PixelRepresentation": 0,
      "PixelSpacing": [2.0, 2.0],
      "ProtocolName": "func_task-things_run-3",
      "RepetitionTime": 1490.0,
      "RescaleIntercept": -4096.0,
      "RescaleSlope": 2.0,
      "RescaleType": "US",
      "Rows": 832,
      "SAR": 0.07281633294717,
      "SamplesPerPixel": 1,
      "ScanOptions": "FS",
      "ScanningSequence": "EP",
      "SequenceName": "epfid2d1_104",
      "SequenceVariant": [
        "SK",
        "SS"
],
      "SeriesDescription": "func_task-things_run-3",
      "SeriesNumber": 17,
      "SeriesTime": "153107.089000",
      "SliceLocation": -33.811485253341,
      "SliceThickness": 2.0,
      "SmallestImagePixelValue": 0,
      "SoftwareVersions": "syngo MR E11",
      "SpacingBetweenSlices": 2.0000000406114,
      "SpecificCharacterSet": "ISO_IR 100",
      "StudyID": "1",
      "StudyTime": "145655.451000",
      "TransmitCoilName": "Body",
      "VariableFlipAngleFlag": "N",
      "WindowCenterWidthExplanation": "Algo1",
      "dBdt": 0.0},
    "slices": {}
  },
  "time": {
    "samples": {
      "AcquisitionNumber": [1, 2, 3, 4, 5, 6, 7, 8, 9, 10, 11, 12, 13, 14, 15, 16, 17, 18, 19, 20, 21, 22, 23, 24, 25, 26, 27, 28, 29, 30, 31, 32, 33, 34, 35, 36, 37, 38, 39, 40, 41, 42, 43, 44, 45, 46, 47, 48, 49, 50, 51, 52, 53, 54, 55, 56, 57, 58, 59, 60, 61, 62, 63, 64, 65, 66, 67, 68, 69, 70, 71, 72, 73, 74, 75, 76, 77, 78, 79, 80, 81, 82, 83, 84, 85, 86, 87, 88, 89, 90, 91, 92, 93, 94, 95, 96, 97, 98, 99, 100, 101, 102, 103, 104, 105, 106, 107, 108, 109, 110, 111, 112, 113, 114, 115, 116, 117, 118, 119, 120, 121, 122, 123, 124, 125, 126, 127, 128, 129, 130, 131, 132, 133, 134, 135, 136, 137, 138, 139, 140, 141, 142, 143, 144, 145, 146, 147, 148, 149, 150, 151, 152, 153, 154, 155, 156, 157, 158, 159, 160, 161, 162, 163, 164, 165, 166, 167, 168, 169, 170, 171, 172, 173, 174, 175, 176, 177, 178, 179, 180, 181, 182, 183, 184, 185, 186, 187, 188, 189, 190],
      "AcquisitionTime": ["152953.332500", "152954.822500", "152956.312500", "152957.802500", "152959.292500", "153000.782500", "153002.272500", "153003.762500", "153005.252500", "153006.742500", "153008.232500", "153009.722500", "153011.212500", "153012.702500", "153014.192500", "153015.682500", "153017.172500", "153018.662500", "153020.152500", "153021.642500", "153023.132500", "153024.622500", "153026.112500", "153027.602500", "153029.092500", "153030.582500", "153032.072500", "153033.562500", "153035.052500", "153036.542500", "153038.032500", "153039.522500", "153041.012500", "153042.502500", "153043.992500", "153045.482500", "153046.972500", "153048.462500", "153049.952500", "153051.442500", "153052.932500", "153054.422500", "153055.912500", "153057.402500", "153058.892500", "153100.382500", "153101.872500", "153103.362500", "153104.852500", "153106.342500", "153107.832500", "153109.322500", "153110.812500", "153112.302500", "153113.792500", "153115.282500", "153116.772500", "153118.262500", "153119.752500", "153121.242500", "153122.732500", "153124.222500", "153125.712500", "153127.202500", "153128.692500", "153130.182500", "153131.672500", "153133.162500", "153134.652500", "153136.142500", "153137.632500", "153139.122500", "153140.612500", "153142.102500", "153143.592500", "153145.082500", "153146.572500", "153148.062500", "153149.552500", "153151.042500", "153152.532500", "153154.022500", "153155.512500", "153157.002500", "153158.492500", "153159.982500", "153201.472500", "153202.962500", "153204.452500", "153205.942500", "153207.432500", "153208.922500", "153210.412500", "153211.902500", "153213.392500", "153214.882500", "153216.372500", "153217.862500", "153219.352500", "153220.842500", "153222.332500", "153223.822500", "153225.312500", "153226.802500", "153228.292500", "153229.782500", "153231.272500", "153232.762500", "153234.252500", "153235.742500", "153237.232500", "153238.722500", "153240.212500", "153241.702500", "153243.192500", "153244.682500", "153246.172500", "153247.662500", "153249.152500", "153250.642500", "153252.132500", "153253.622500", "153255.112500", "153256.602500", "153258.092500", "153259.582500", "153301.072500", "153302.562500", "153304.052500", "153305.542500", "153307.032500", "153308.522500", "153310.012500", "153311.502500", "153312.992500", "153314.482500", "153315.972500", "153317.462500", "153318.952500", "153320.442500", "153321.932500", "153323.422500", "153324.912500", "153326.402500", "153327.892500", "153329.382500", "153330.872500", "153332.362500", "153333.852500", "153335.342500", "153336.832500", "153338.322500", "153339.812500", "153341.302500", "153342.792500", "153344.282500", "153345.772500", "153347.262500", "153348.752500", "153350.242500", "153351.732500", "153353.222500", "153354.712500", "153356.202500", "153357.692500", "153359.182500", "153400.672500", "153402.162500", "153403.652500", "153405.142500", "153406.632500", "153408.122500", "153409.612500", "153411.102500", "153412.592500", "153414.082500", "153415.572500", "153417.062500", "153418.552500", "153420.042500", "153421.532500", "153423.022500", "153424.512500", "153426.002500", "153427.492500", "153428.982500", "153430.472500", "153431.962500", "153433.452500", "153434.942500"],
      "ContentTime": ["153107.091000", "153107.094000", "153107.096000", "153107.099000", "153107.101000", "153107.104000", "153107.106000", "153107.109000", "153107.111000", "153107.114000", "153107.116000", "153107.119000", "153107.121000", "153107.124000", "153107.127000", "153107.129000", "153107.132000", "153107.135000", "153107.137000", "153107.140000", "153127.578000", "153127.581000", "153127.584000", "153127.586000", "153127.589000", "153127.592000", "153127.594000", "153127.597000", "153127.599000", "153127.602000", "153127.605000", "153127.607000", "153127.610000", "153127.612000", "153127.615000", "153127.617000", "153127.620000", "153127.622000", "153127.625000", "153127.627000", "153127.630000", "153147.031000", "153147.034000", "153147.036000", "153147.039000", "153147.041000", "153147.044000", "153147.047000", "153147.049000", "153147.052000", "153147.054000", "153147.057000", "153147.060000", "153147.062000", "153147.065000", "153147.067000", "153147.070000", "153147.072000", "153147.075000", "153147.078000", "153147.080000", "153207.030000", "153207.033000", "153207.035000", "153207.038000", "153207.041000", "153207.043000", "153207.046000", "153207.048000", "153207.051000", "153207.053000", "153207.056000", "153207.058000", "153207.061000", "153207.063000", "153207.066000", "153207.068000", "153207.071000", "153207.073000", "153207.076000", "153207.079000", "153227.046000", "153227.049000", "153227.051000", "153227.054000", "153227.057000", "153227.060000", "153227.063000", "153227.066000", "153227.069000", "153227.071000", "153227.074000", "153227.077000", "153227.080000", "153227.082000", "153227.085000", "153227.088000", "153227.090000", "153227.093000", "153227.096000", "153227.098000", "153307.059000", "153307.062000", "153307.065000", "153307.068000", "153307.070000", "153307.073000", "153307.075000", "153307.078000", "153307.080000", "153307.083000", "153307.085000", "153307.088000", "153307.091000", "153307.093000", "153307.096000", "153307.098000", "153307.108000", "153307.111000", "153307.114000", "153307.116000", "153307.119000", "153307.121000", "153307.124000", "153307.127000", "153307.129000", "153307.132000", "153307.135000", "153307.137000", "153347.072000", "153347.075000", "153347.078000", "153347.081000", "153347.083000", "153347.086000", "153347.088000", "153347.091000", "153347.094000", "153347.096000", "153347.099000", "153347.102000", "153347.104000", "153347.107000", "153347.109000", "153347.112000", "153347.115000", "153347.117000", "153347.120000", "153347.123000", "153347.125000", "153347.128000", "153347.130000", "153347.133000", "153347.136000", "153347.138000", "153347.141000", "153427.053000", "153427.056000", "153427.058000", "153427.061000", "153427.063000", "153427.066000", "153427.068000", "153427.071000", "153427.074000", "153427.076000", "153427.079000", "153427.081000", "153427.084000", "153427.086000", "153427.089000", "153427.091000", "153427.094000", "153427.097000", "153427.099000", "153427.102000", "153427.104000", "153427.107000", "153427.109000", "153427.112000", "153427.114000", "153427.117000", "153427.120000", "153436.674000", "153436.677000", "153436.680000", "153436.683000", "153436.685000", "153436.688000", "153436.690000"],
      "InstanceCreationTime": ["153107.091000", "153107.094000", "153107.096000", "153107.099000", "153107.101000", "153107.104000", "153107.106000", "153107.109000", "153107.111000", "153107.114000", "153107.116000", "153107.119000", "153107.121000", "153107.124000", "153107.127000", "153107.129000", "153107.132000", "153107.135000", "153107.137000", "153107.140000", "153127.578000", "153127.581000", "153127.584000", "153127.586000", "153127.589000", "153127.592000", "153127.594000", "153127.597000", "153127.599000", "153127.602000", "153127.605000", "153127.607000", "153127.610000", "153127.612000", "153127.615000", "153127.617000", "153127.620000", "153127.622000", "153127.625000", "153127.627000", "153127.630000", "153147.031000", "153147.034000", "153147.036000", "153147.039000", "153147.041000", "153147.044000", "153147.047000", "153147.049000", "153147.052000", "153147.054000", "153147.057000", "153147.060000", "153147.062000", "153147.065000", "153147.067000", "153147.070000", "153147.072000", "153147.075000", "153147.078000", "153147.080000", "153207.030000", "153207.033000", "153207.035000", "153207.038000", "153207.041000", "153207.043000", "153207.046000", "153207.048000", "153207.051000", "153207.053000", "153207.056000", "153207.058000", "153207.061000", "153207.063000", "153207.066000", "153207.068000", "153207.071000", "153207.073000", "153207.076000", "153207.079000", "153227.046000", "153227.049000", "153227.051000", "153227.054000", "153227.057000", "153227.060000", "153227.063000", "153227.066000", "153227.069000", "153227.071000", "153227.074000", "153227.077000", "153227.080000", "153227.082000", "153227.085000", "153227.088000", "153227.090000", "153227.093000", "153227.096000", "153227.098000", "153307.059000", "153307.062000", "153307.065000", "153307.068000", "153307.070000", "153307.073000", "153307.075000", "153307.078000", "153307.080000", "153307.083000", "153307.085000", "153307.088000", "153307.091000", "153307.093000", "153307.096000", "153307.098000", "153307.108000", "153307.111000", "153307.114000", "153307.116000", "153307.119000", "153307.121000", "153307.124000", "153307.127000", "153307.129000", "153307.132000", "153307.135000", "153307.137000", "153347.072000", "153347.075000", "153347.078000", "153347.081000", "153347.083000", "153347.086000", "153347.088000", "153347.091000", "153347.094000", "153347.096000", "153347.099000", "153347.102000", "153347.104000", "153347.107000", "153347.109000", "153347.112000", "153347.115000", "153347.117000", "153347.120000", "153347.123000", "153347.125000", "153347.128000", "153347.130000", "153347.133000", "153347.136000", "153347.138000", "153347.141000", "153427.053000", "153427.056000", "153427.058000", "153427.061000", "153427.063000", "153427.066000", "153427.068000", "153427.071000", "153427.074000", "153427.076000", "153427.079000", "153427.081000", "153427.084000", "153427.086000", "153427.089000", "153427.091000", "153427.094000", "153427.097000", "153427.099000", "153427.102000", "153427.104000", "153427.107000", "153427.109000", "153427.112000", "153427.114000", "153427.117000", "153427.120000", "153436.674000", "153436.677000", "153436.680000", "153436.683000", "153436.685000", "153436.688000", "153436.690000"],
      "InstanceNumber": [1, 2, 3, 4, 5, 6, 7, 8, 9, 10, 11, 12, 13, 14, 15, 16, 17, 18, 19, 20, 21, 22, 23, 24, 25, 26, 27, 28, 29, 30, 31, 32, 33, 34, 35, 36, 37, 38, 39, 40, 41, 42, 43, 44, 45, 46, 47, 48, 49, 50, 51, 52, 53, 54, 55, 56, 57, 58, 59, 60, 61, 62, 63, 64, 65, 66, 67, 68, 69, 70, 71, 72, 73, 74, 75, 76, 77, 78, 79, 80, 81, 82, 83, 84, 85, 86, 87, 88, 89, 90, 91, 92, 93, 94, 95, 96, 97, 98, 99, 100, 101, 102, 103, 104, 105, 106, 107, 108, 109, 110, 111, 112, 113, 114, 115, 116, 117, 118, 119, 120, 121, 122, 123, 124, 125, 126, 127, 128, 129, 130, 131, 132, 133, 134, 135, 136, 137, 138, 139, 140, 141, 142, 143, 144, 145, 146, 147, 148, 149, 150, 151, 152, 153, 154, 155, 156, 157, 158, 159, 160, 161, 162, 163, 164, 165, 166, 167, 168, 169, 170, 171, 172, 173, 174, 175, 176, 177, 178, 179, 180, 181, 182, 183, 184, 185, 186, 187, 188, 189, 190],
      "WindowCenter": [4876.0, 4802.0, 4796.0, 4870.0, 4876.0, 4858.0, 4880.0, 4882.0, 4880.0, 4866.0, 4840.0, 4868.0, 4870.0, 4874.0, 4880.0, 4878.0, 4878.0, 4882.0, 4880.0, 4880.0, 4878.0, 4868.0, 4874.0, 4870.0, 4870.0, 4878.0, 4868.0, 4880.0, 4878.0, 4880.0, 4876.0, 4876.0, 4904.0, 4838.0, 4878.0, 4882.0, 4870.0, 4884.0, 4878.0, 4842.0, 4878.0, 4876.0, 4876.0, 4880.0, 4876.0, 4884.0, 4844.0, 4880.0, 4874.0, 4880.0, 4880.0, 4870.0, 4876.0, 4878.0, 4846.0, 4880.0, 4878.0, 4876.0, 4882.0, 4880.0, 4840.0, 4878.0, 4876.0, 4876.0, 4880.0, 4878.0, 4880.0, 4878.0, 4868.0, 4868.0, 4872.0, 4868.0, 4880.0, 4866.0, 4880.0, 4872.0, 4878.0, 4876.0, 4874.0, 4880.0, 4868.0, 4880.0, 4876.0, 4876.0, 4878.0, 4866.0, 4878.0, 4880.0, 4872.0, 4882.0, 4870.0, 4874.0, 4880.0, 4866.0, 4876.0, 4874.0, 4876.0, 4878.0, 4880.0, 4880.0, 4868.0, 4868.0, 4826.0, 4838.0, 4880.0, 4880.0, 4876.0, 4878.0, 4878.0, 4866.0, 4870.0, 4866.0, 4838.0, 4876.0, 4876.0, 4878.0, 4880.0, 4878.0, 4880.0, 4880.0, 4870.0, 4878.0, 4868.0, 4874.0, 4874.0, 4878.0, 4880.0, 4844.0, 4878.0, 4872.0, 4876.0, 4876.0, 4866.0, 4882.0, 4872.0, 4878.0, 4876.0, 4874.0, 4880.0, 4868.0, 4880.0, 4876.0, 4876.0, 4878.0, 4870.0, 4882.0, 4880.0, 4874.0, 4882.0, 4874.0, 4878.0, 4876.0, 4868.0, 4864.0, 4798.0, 4876.0, 4880.0, 4884.0, 4904.0, 4882.0, 4876.0, 4880.0, 4866.0, 4866.0, 4874.0, 4864.0, 4876.0, 4878.0, 4876.0, 4904.0, 4878.0, 4902.0, 4838.0, 4868.0, 4874.0, 4874.0, 4878.0, 4874.0, 4876.0, 4872.0, 4876.0, 4876.0, 4872.0, 4880.0, 4874.0, 4878.0, 4876.0, 4874.0, 4882.0, 4836.0],
      "WindowWidth": [18680.0, 18600.0, 18596.0, 18676.0, 18660.0, 18624.0, 18662.0, 18684.0, 18682.0, 18674.0, 18638.0, 18678.0, 18676.0, 18678.0, 18678.0, 18680.0, 18676.0, 18672.0, 18682.0, 18678.0, 18682.0, 18674.0, 18678.0, 18676.0, 18674.0, 18682.0, 18680.0, 18682.0, 18680.0, 18680.0, 18680.0, 18680.0, 18714.0, 18636.0, 18684.0, 18682.0, 18674.0, 18682.0, 18676.0, 18644.0, 18682.0, 18680.0, 18680.0, 18682.0, 18682.0, 18682.0, 18642.0, 18682.0, 18676.0, 18680.0, 18684.0, 18672.0, 18686.0, 18680.0, 18644.0, 18674.0, 18680.0, 18682.0, 18676.0, 18686.0, 18644.0, 18682.0, 18672.0, 18682.0, 18682.0, 18682.0, 18680.0, 18676.0, 18676.0, 18672.0, 18680.0, 18678.0, 18680.0, 18676.0, 18684.0, 18680.0, 18682.0, 18682.0, 18684.0, 18678.0, 18676.0, 18680.0, 18682.0, 18678.0, 18682.0, 18672.0, 18682.0, 18680.0, 18678.0, 18678.0, 18678.0, 18682.0, 18680.0, 18670.0, 18680.0, 18672.0, 18676.0, 18676.0, 18682.0, 18684.0, 18674.0, 18680.0, 18628.0, 18638.0, 18680.0, 18680.0, 18676.0, 18680.0, 18682.0, 18672.0, 18676.0, 18676.0, 18638.0, 18682.0, 18676.0, 18672.0, 18684.0, 18680.0, 18680.0, 18682.0, 18676.0, 18684.0, 18674.0, 18682.0, 18682.0, 18684.0, 18682.0, 18640.0, 18682.0, 18676.0, 18680.0, 18680.0, 18674.0, 18682.0, 18678.0, 18682.0, 18676.0, 18682.0, 18682.0, 18674.0, 18678.0, 18680.0, 18682.0, 18682.0, 18674.0, 18686.0, 18682.0, 18678.0, 18682.0, 18680.0, 18680.0, 18682.0, 18676.0, 18676.0, 18604.0, 18678.0, 18672.0, 18682.0, 18714.0, 18680.0, 18682.0, 18684.0, 18674.0, 18672.0, 18678.0, 18676.0, 18682.0, 18680.0, 18680.0, 18710.0, 18684.0, 18714.0, 18638.0, 18680.0, 18678.0, 18680.0, 18682.0, 18680.0, 18680.0, 18680.0, 18678.0, 18678.0, 18682.0, 18682.0, 18680.0, 18682.0, 18682.0, 18684.0, 18678.0, 18638.0]
    },
    "slices": {}
  }
}