{
  "AcquisitionMatrixPE": 104,
  "AcquisitionNumber": 1,
  "AcquisitionTime": "15:42:9.125000",
  "BandwidthPerPixelPhaseEncode": 17.17,
  "BaseResolution": 104,
  "BodyPartExamined": "BRAIN",
  "CoilString": "HC1-7;NC1_2",
  "ConsistencyInfo": "N4_VE11C_LATEST_20160120",
  "ConversionSoftware": "dcm2niix",
  "ConversionSoftwareVersion": "v1.0.20190902",
  "DerivedVendorReportedEchoSpacing": 0.000560011,
  "DeviceSerialNumber": "167006",
  "DwellTime": 2.1e-06,
  "EchoTime": 0.037,
  "EchoTrainLength": 104,
  "EffectiveEchoSpacing": 0.000560011,
  "FlipAngle": 52,
  "ImageComments": "Unaliased_MB4_PE3_LB",
  "ImageOrientationPatientDICOM": [0.998624, -0.0507277, 0.0132659, 0.0523357, 0.948868, -0.311305],
  "ImageType": [
    "ORIGINAL",
    "PRIMARY",
    "P",
    "MB",
    "ND",
    "MOSAIC"
],
  "ImagingFrequency": 123.259,
  "InPlanePhaseEncodingDirectionDICOM": "COL",
  "InstitutionAddress": "Chemin_Queen-Mary_4565_Montreal_District_CA_H3W_1W5",
  "InstitutionName": "IUGM",
  "InstitutionalDepartmentName": "Department",
  "MRAcquisitionType": "2D",
  "MagneticFieldStrength": 3,
  "Manufacturer": "Siemens",
  "ManufacturersModelName": "Prisma_fit",
  "Modality": "MR",
  "MultibandAccelerationFactor": 4,
  "PartialFourier": 1,
  "PatientPosition": "HFS",
  "PercentPhaseFOV": 100,
  "PhaseEncodingDirection": "j",
  "PhaseEncodingSteps": 104,
  "PhaseResolution": 1,
  "PixelBandwidth": 2290,
  "ProcedureStepDescription": "memory_things",
  "ProtocolName": "func_task-things_run-5",
  "PulseSequenceDetails": "%CustomerSeq%_cmrr_mbep2d_bold",
  "ReceiveCoilActiveElements": "HC1-7;NC1,2",
  "ReceiveCoilName": "HeadNeck_64",
  "ReconMatrixPE": 104,
  "RepetitionTime": 1.49,
  "SAR": 0.0728163,
  "ScanOptions": "FS",
  "ScanningSequence": "EP",
  "SequenceName": "epfid2d1_104",
  "SequenceVariant": "SK_SS",
  "SeriesDescription": "func_task-things_run-5",
  "SeriesNumber": 23,
  "ShimSetting": [628, -7256, -8807, 580, 0, -203, -26, 0],
  "SliceThickness": 2,
  "SliceTiming": [0, 0.785, 0.0975, 0.8825, 0.1975, 0.98, 0.295, 1.0775, 0.3925, 1.1775, 0.49, 1.275, 0.5875, 1.3725, 0.6875, 0, 0.785, 0.0975, 0.8825, 0.1975, 0.98, 0.295, 1.0775, 0.3925, 1.1775, 0.49, 1.275, 0.5875, 1.3725, 0.6875, 0, 0.785, 0.0975, 0.8825, 0.1975, 0.98, 0.295, 1.0775, 0.3925, 1.1775, 0.49, 1.275, 0.5875, 1.3725, 0.6875, 0, 0.785, 0.0975, 0.8825, 0.1975, 0.98, 0.295, 1.0775, 0.3925, 1.1775, 0.49, 1.275, 0.5875, 1.3725, 0.6875],
  "SoftwareVersions": "syngo_MR_E11",
  "SpacingBetweenSlices": 2,
  "StationName": "MRC35049",
  "TaskName": "things",
  "TotalReadoutTime": 0.0576811,
  "TxRefAmp": 293.067,
  "WipMemBlock": "d11299c9-c84a-48c1-a944-d2815ac76855||Sequence: R016 ve11c/master r/e634e98; Dec 19 2017 11:00:25 by eja",
  "dcmmeta_affine": [
    [-1.9972487688064575, 0.10467132180929184, -0.006408351473510265, 101.88348388671875],
    [0.10145546495914459, 1.897735595703125, -0.6231423616409302, -72.2363510131836],
    [0.0265318863093853, 0.6226102113723755, 1.9004348516464233, -58.92524719238281],
    [0.0, 0.0, 0.0, 1.0]
],
  "dcmmeta_reorient_transform": [
    [0.0, -1.0, 0.0, 103.0],
    [1.0, 0.0, 0.0, 0.0],
    [0.0, 0.0, 1.0, 0.0],
    [0.0, 0.0, 0.0, 1.0]
],
  "dcmmeta_shape": [104, 104, 60, 190],
  "dcmmeta_slice_dim": 2,
  "dcmmeta_version": 0.6,
  "global": {
    "const": {
      "AcquisitionMatrix": [104, 0, 0, 104],
      "AngioFlag": "N",
      "BitsAllocated": 16,
      "BitsStored": 16,
      "BodyPartExamined": "BRAIN",
      "Columns": 832,
      "EchoNumbers": 1,
      "EchoTime": 37.0,
      "EchoTrainLength": 104,
      "FlipAngle": 52.0,
      "HighBit": 15,
      "ImageOrientationPatient": [0.99862440989272, -0.0507277313194, 0.01326594292158, 0.05233565920793, 0.94886780404345, -0.3113051063266],
      "ImagePositionPatient": [-877.76356173247, -777.07639304548, 222.17611683568],
      "ImageType": [
        "ORIGINAL",
        "PRIMARY",
        "P",
        "MB",
        "ND",
        "MOSAIC"
],
      "ImagedNucleus": "1H",
      "ImagingFrequency": 123.258928,
      "InPlanePhaseEncodingDirection": "COL",
      "LargestImagePixelValue": 4095,
      "MRAcquisitionType": "2D",
      "MagneticFieldStrength": 3.0,
      "Manufacturer": "SIEMENS",
      "ManufacturerModelName": "Prisma_fit",
      "Modality": "MR",
      "NumberOfAverages": 1.0,
      "NumberOfPhaseEncodingSteps": 104,
      "PercentPhaseFieldOfView": 100.0,
      "PercentSampling": 100.0,
      "PerformedProcedureStepStartTime": "145655.529000",
      "PhotometricInterpretation": "MONOCHROME2",
      "PixelBandwidth": 2290.0,
      "PixelRepresentation": 0,
      "PixelSpacing": [2.0, 2.0],
      "ProtocolName": "func_task-things_run-5",
      "RepetitionTime": 1490.0,
      "RescaleIntercept": -4096.0,
      "RescaleSlope": 2.0,
      "RescaleType": "US",
      "Rows": 832,
      "SAR": 0.07281633294717,
      "SamplesPerPixel": 1,
      "ScanOptions": "FS",
      "ScanningSequence": "EP",
      "SequenceName": "epfid2d1_104",
      "SequenceVariant": [
        "SK",
        "SS"
],
      "SeriesDescription": "func_task-things_run-5",
      "SeriesNumber": 23,
      "SeriesTime": "154325.306000",
      "SliceLocation": -33.811485253341,
      "SliceThickness": 2.0,
      "SmallestImagePixelValue": 0,
      "SoftwareVersions": "syngo MR E11",
      "SpacingBetweenSlices": 2.0000000406114,
      "SpecificCharacterSet": "ISO_IR 100",
      "StudyID": "1",
      "StudyTime": "145655.451000",
      "TransmitCoilName": "Body",
      "VariableFlipAngleFlag": "N",
      "WindowCenterWidthExplanation": "Algo1",
      "dBdt": 0.0},
    "slices": {}
  },
  "time": {
    "samples": {
      "AcquisitionNumber": [1, 2, 3, 4, 5, 6, 7, 8, 9, 10, 11, 12, 13, 14, 15, 16, 17, 18, 19, 20, 21, 22, 23, 24, 25, 26, 27, 28, 29, 30, 31, 32, 33, 34, 35, 36, 37, 38, 39, 40, 41, 42, 43, 44, 45, 46, 47, 48, 49, 50, 51, 52, 53, 54, 55, 56, 57, 58, 59, 60, 61, 62, 63, 64, 65, 66, 67, 68, 69, 70, 71, 72, 73, 74, 75, 76, 77, 78, 79, 80, 81, 82, 83, 84, 85, 86, 87, 88, 89, 90, 91, 92, 93, 94, 95, 96, 97, 98, 99, 100, 101, 102, 103, 104, 105, 106, 107, 108, 109, 110, 111, 112, 113, 114, 115, 116, 117, 118, 119, 120, 121, 122, 123, 124, 125, 126, 127, 128, 129, 130, 131, 132, 133, 134, 135, 136, 137, 138, 139, 140, 141, 142, 143, 144, 145, 146, 147, 148, 149, 150, 151, 152, 153, 154, 155, 156, 157, 158, 159, 160, 161, 162, 163, 164, 165, 166, 167, 168, 169, 170, 171, 172, 173, 174, 175, 176, 177, 178, 179, 180, 181, 182, 183, 184, 185, 186, 187, 188, 189, 190],
      "AcquisitionTime": ["154209.125000", "154210.615000", "154212.105000", "154213.595000", "154215.085000", "154216.575000", "154218.065000", "154219.555000", "154221.045000", "154222.535000", "154224.025000", "154225.515000", "154227.005000", "154228.495000", "154229.985000", "154231.475000", "154232.965000", "154234.455000", "154235.945000", "154237.435000", "154238.925000", "154240.415000", "154241.905000", "154243.395000", "154244.885000", "154246.375000", "154247.865000", "154249.355000", "154250.845000", "154252.335000", "154253.825000", "154255.315000", "154256.805000", "154258.295000", "154259.785000", "154301.275000", "154302.765000", "154304.255000", "154305.745000", "154307.235000", "154308.725000", "154310.215000", "154311.705000", "154313.195000", "154314.685000", "154316.175000", "154317.665000", "154319.155000", "154320.645000", "154322.135000", "154323.625000", "154325.115000", "154326.605000", "154328.095000", "154329.585000", "154331.075000", "154332.565000", "154334.055000", "154335.545000", "154337.035000", "154338.525000", "154340.015000", "154341.505000", "154342.995000", "154344.485000", "154345.975000", "154347.465000", "154348.955000", "154350.445000", "154351.935000", "154353.425000", "154354.915000", "154356.405000", "154357.895000", "154359.385000", "154400.875000", "154402.365000", "154403.855000", "154405.345000", "154406.835000", "154408.325000", "154409.815000", "154411.305000", "154412.795000", "154414.285000", "154415.775000", "154417.265000", "154418.755000", "154420.245000", "154421.735000", "154423.225000", "154424.715000", "154426.205000", "154427.695000", "154429.185000", "154430.675000", "154432.165000", "154433.655000", "154435.145000", "154436.635000", "154438.125000", "154439.615000", "154441.105000", "154442.595000", "154444.085000", "154445.575000", "154447.065000", "154448.555000", "154450.045000", "154451.535000", "154453.025000", "154454.515000", "154456.005000", "154457.495000", "154458.985000", "154500.475000", "154501.965000", "154503.455000", "154504.945000", "154506.435000", "154507.925000", "154509.415000", "154510.905000", "154512.395000", "154513.885000", "154515.375000", "154516.865000", "154518.355000", "154519.845000", "154521.335000", "154522.825000", "154524.315000", "154525.805000", "154527.295000", "154528.785000", "154530.275000", "154531.765000", "154533.255000", "154534.745000", "154536.235000", "154537.725000", "154539.215000", "154540.705000", "154542.195000", "154543.685000", "154545.175000", "154546.665000", "154548.155000", "154549.645000", "154551.135000", "154552.625000", "154554.115000", "154555.605000", "154557.095000", "154558.585000", "154600.075000", "154601.565000", "154603.055000", "154604.545000", "154606.035000", "154607.525000", "154609.015000", "154610.505000", "154611.995000", "154613.485000", "154614.975000", "154616.465000", "154617.955000", "154619.445000", "154620.935000", "154622.425000", "154623.915000", "154625.405000", "154626.895000", "154628.385000", "154629.875000", "154631.365000", "154632.855000", "154634.345000", "154635.835000", "154637.325000", "154638.815000", "154640.305000", "154641.795000", "154643.285000", "154644.775000", "154646.265000", "154647.755000", "154649.245000", "154650.735000"],
      "ContentTime": ["154325.308000", "154325.311000", "154325.313000", "154325.316000", "154325.318000", "154325.321000", "154325.323000", "154325.326000", "154325.328000", "154325.331000", "154325.334000", "154325.341000", "154325.344000", "154325.347000", "154325.349000", "154325.352000", "154325.354000", "154325.357000", "154325.359000", "154325.362000", "154325.364000", "154325.367000", "154344.837000", "154344.840000", "154344.843000", "154344.845000", "154344.848000", "154344.857000", "154344.860000", "154344.862000", "154344.865000", "154344.874000", "154344.877000", "154344.879000", "154344.882000", "154344.884000", "154344.887000", "154344.889000", "154344.892000", "154344.895000", "154344.897000", "154344.900000", "154344.902000", "154404.819000", "154404.822000", "154404.825000", "154404.827000", "154404.830000", "154404.832000", "154404.835000", "154404.837000", "154404.840000", "154404.843000", "154404.845000", "154404.848000", "154404.850000", "154404.853000", "154404.855000", "154404.858000", "154404.860000", "154404.863000", "154404.865000", "154404.868000", "154424.818000", "154424.821000", "154424.824000", "154424.826000", "154424.829000", "154424.831000", "154424.834000", "154424.836000", "154424.839000", "154424.842000", "154424.844000", "154424.847000", "154424.850000", "154424.852000", "154424.855000", "154424.857000", "154424.868000", "154424.870000", "154424.873000", "154424.875000", "154444.817000", "154444.820000", "154444.828000", "154444.831000", "154444.834000", "154444.836000", "154444.839000", "154444.841000", "154444.844000", "154444.847000", "154444.849000", "154444.852000", "154444.855000", "154444.857000", "154444.860000", "154444.862000", "154444.865000", "154444.867000", "154444.870000", "154444.873000", "154524.876000", "154524.887000", "154524.890000", "154524.893000", "154524.895000", "154524.898000", "154524.900000", "154524.903000", "154524.906000", "154524.908000", "154524.911000", "154524.913000", "154524.916000", "154524.918000", "154524.921000", "154524.924000", "154524.926000", "154524.929000", "154524.931000", "154524.934000", "154524.936000", "154524.939000", "154524.941000", "154524.944000", "154524.947000", "154524.957000", "154524.959000", "154604.856000", "154604.859000", "154604.862000", "154604.864000", "154604.867000", "154604.870000", "154604.872000", "154604.875000", "154604.877000", "154604.880000", "154604.882000", "154604.885000", "154604.888000", "154604.890000", "154604.893000", "154604.895000", "154604.898000", "154604.900000", "154604.903000", "154604.906000", "154604.908000", "154604.911000", "154604.914000", "154604.916000", "154604.919000", "154604.921000", "154604.924000", "154644.852000", "154644.855000", "154644.858000", "154644.860000", "154644.863000", "154644.866000", "154644.868000", "154644.871000", "154644.881000", "154644.883000", "154644.886000", "154644.888000", "154644.891000", "154644.894000", "154644.896000", "154644.899000", "154644.901000", "154644.904000", "154644.906000", "154644.909000", "154644.911000", "154644.914000", "154644.917000", "154644.919000", "154644.922000", "154644.924000", "154644.927000", "154652.781000", "154652.785000", "154652.788000", "154652.791000", "154652.793000", "154652.796000"],
      "InstanceCreationTime": ["154325.308000", "154325.311000", "154325.313000", "154325.316000", "154325.318000", "154325.321000", "154325.323000", "154325.326000", "154325.328000", "154325.331000", "154325.334000", "154325.341000", "154325.344000", "154325.347000", "154325.349000", "154325.352000", "154325.354000", "154325.357000", "154325.359000", "154325.362000", "154325.364000", "154325.367000", "154344.837000", "154344.840000", "154344.843000", "154344.845000", "154344.848000", "154344.857000", "154344.860000", "154344.862000", "154344.865000", "154344.874000", "154344.877000", "154344.879000", "154344.882000", "154344.884000", "154344.887000", "154344.889000", "154344.892000", "154344.895000", "154344.897000", "154344.900000", "154344.902000", "154404.819000", "154404.822000", "154404.825000", "154404.827000", "154404.830000", "154404.832000", "154404.835000", "154404.837000", "154404.840000", "154404.843000", "154404.845000", "154404.848000", "154404.850000", "154404.853000", "154404.855000", "154404.858000", "154404.860000", "154404.863000", "154404.865000", "154404.868000", "154424.818000", "154424.821000", "154424.824000", "154424.826000", "154424.829000", "154424.831000", "154424.834000", "154424.836000", "154424.839000", "154424.842000", "154424.844000", "154424.847000", "154424.850000", "154424.852000", "154424.855000", "154424.857000", "154424.868000", "154424.870000", "154424.873000", "154424.875000", "154444.817000", "154444.820000", "154444.828000", "154444.831000", "154444.834000", "154444.836000", "154444.839000", "154444.841000", "154444.844000", "154444.847000", "154444.849000", "154444.852000", "154444.855000", "154444.857000", "154444.860000", "154444.862000", "154444.865000", "154444.867000", "154444.870000", "154444.873000", "154524.876000", "154524.887000", "154524.890000", "154524.893000", "154524.895000", "154524.898000", "154524.900000", "154524.903000", "154524.906000", "154524.908000", "154524.911000", "154524.913000", "154524.916000", "154524.918000", "154524.921000", "154524.924000", "154524.926000", "154524.929000", "154524.931000", "154524.934000", "154524.936000", "154524.939000", "154524.941000", "154524.944000", "154524.947000", "154524.957000", "154524.959000", "154604.856000", "154604.859000", "154604.862000", "154604.864000", "154604.867000", "154604.870000", "154604.872000", "154604.875000", "154604.877000", "154604.880000", "154604.882000", "154604.885000", "154604.888000", "154604.890000", "154604.893000", "154604.895000", "154604.898000", "154604.900000", "154604.903000", "154604.906000", "154604.908000", "154604.911000", "154604.914000", "154604.916000", "154604.919000", "154604.921000", "154604.924000", "154644.852000", "154644.855000", "154644.858000", "154644.860000", "154644.863000", "154644.866000", "154644.868000", "154644.871000", "154644.881000", "154644.883000", "154644.886000", "154644.888000", "154644.891000", "154644.894000", "154644.896000", "154644.899000", "154644.901000", "154644.904000", "154644.906000", "154644.909000", "154644.911000", "154644.914000", "154644.917000", "154644.919000", "154644.922000", "154644.924000", "154644.927000", "154652.781000", "154652.785000", "154652.788000", "154652.791000", "154652.793000", "154652.796000"],
      "InstanceNumber": [1, 2, 3, 4, 5, 6, 7, 8, 9, 10, 11, 12, 13, 14, 15, 16, 17, 18, 19, 20, 21, 22, 23, 24, 25, 26, 27, 28, 29, 30, 31, 32, 33, 34, 35, 36, 37, 38, 39, 40, 41, 42, 43, 44, 45, 46, 47, 48, 49, 50, 51, 52, 53, 54, 55, 56, 57, 58, 59, 60, 61, 62, 63, 64, 65, 66, 67, 68, 69, 70, 71, 72, 73, 74, 75, 76, 77, 78, 79, 80, 81, 82, 83, 84, 85, 86, 87, 88, 89, 90, 91, 92, 93, 94, 95, 96, 97, 98, 99, 100, 101, 102, 103, 104, 105, 106, 107, 108, 109, 110, 111, 112, 113, 114, 115, 116, 117, 118, 119, 120, 121, 122, 123, 124, 125, 126, 127, 128, 129, 130, 131, 132, 133, 134, 135, 136, 137, 138, 139, 140, 141, 142, 143, 144, 145, 146, 147, 148, 149, 150, 151, 152, 153, 154, 155, 156, 157, 158, 159, 160, 161, 162, 163, 164, 165, 166, 167, 168, 169, 170, 171, 172, 173, 174, 175, 176, 177, 178, 179, 180, 181, 182, 183, 184, 185, 186, 187, 188, 189, 190],
      "WindowCenter": [4802.0, 4872.0, 4880.0, 4836.0, 4866.0, 4834.0, 4832.0, 4836.0, 4832.0, 4838.0, 4832.0, 4836.0, 4844.0, 4838.0, 4866.0, 4836.0, 4836.0, 4842.0, 4802.0, 4832.0, 4838.0, 4832.0, 4844.0, 4846.0, 4808.0, 4842.0, 4876.0, 4836.0, 4864.0, 4840.0, 4838.0, 4826.0, 4804.0, 4834.0, 4840.0, 4868.0, 4832.0, 4840.0, 4870.0, 4832.0, 4832.0, 4838.0, 4832.0, 4830.0, 4840.0, 4804.0, 4836.0, 4866.0, 4834.0, 4866.0, 4836.0, 4806.0, 4804.0, 4842.0, 4876.0, 4882.0, 4876.0, 4868.0, 4838.0, 4832.0, 4804.0, 4828.0, 4830.0, 4802.0, 4840.0, 4870.0, 4870.0, 4830.0, 4840.0, 4834.0, 4830.0, 4834.0, 4830.0, 4838.0, 4824.0, 4804.0, 4864.0, 4862.0, 4834.0, 4864.0, 4802.0, 4836.0, 4834.0, 4828.0, 4862.0, 4830.0, 4802.0, 4838.0, 4832.0, 4840.0, 4866.0, 4832.0, 4832.0, 4836.0, 4826.0, 4832.0, 4830.0, 4804.0, 4838.0, 4864.0, 4828.0, 4838.0, 4832.0, 4800.0, 4830.0, 4838.0, 4828.0, 4826.0, 4840.0, 4870.0, 4870.0, 4866.0, 4842.0, 4836.0, 4832.0, 4828.0, 4832.0, 4830.0, 4804.0, 4842.0, 4838.0, 4838.0, 4866.0, 4834.0, 4830.0, 4836.0, 4828.0, 4830.0, 4836.0, 4828.0, 4840.0, 4826.0, 4806.0, 4838.0, 4830.0, 4836.0, 4804.0, 4832.0, 4828.0, 4828.0, 4830.0, 4834.0, 4836.0, 4832.0, 4838.0, 4828.0, 4830.0, 4804.0, 4804.0, 4804.0, 4864.0, 4904.0, 4906.0, 4880.0, 4844.0, 4830.0, 4826.0, 4828.0, 4826.0, 4826.0, 4804.0, 4804.0, 4866.0, 4878.0, 4878.0, 4880.0, 4836.0, 4832.0, 4828.0, 4804.0, 4826.0, 4828.0, 4828.0, 4832.0, 4828.0, 4866.0, 4872.0, 4870.0, 4826.0, 4836.0, 4804.0, 4804.0, 4832.0, 4828.0, 4830.0, 4806.0, 4808.0, 4830.0, 4870.0, 4876.0],
      "WindowWidth": [18596.0, 18678.0, 18690.0, 18642.0, 18678.0, 18634.0, 18634.0, 18638.0, 18634.0, 18636.0, 18634.0, 18642.0, 18646.0, 18634.0, 18676.0, 18638.0, 18636.0, 18646.0, 18600.0, 18634.0, 18642.0, 18632.0, 18646.0, 18644.0, 18600.0, 18642.0, 18684.0, 18638.0, 18668.0, 18640.0, 18640.0, 18632.0, 18604.0, 18630.0, 18644.0, 18676.0, 18632.0, 18642.0, 18678.0, 18636.0, 18630.0, 18640.0, 18634.0, 18630.0, 18640.0, 18598.0, 18640.0, 18676.0, 18636.0, 18672.0, 18636.0, 18610.0, 18608.0, 18644.0, 18686.0, 18688.0, 18686.0, 18674.0, 18638.0, 18630.0, 18602.0, 18630.0, 18628.0, 18598.0, 18644.0, 18682.0, 18684.0, 18628.0, 18642.0, 18640.0, 18630.0, 18640.0, 18632.0, 18638.0, 18630.0, 18600.0, 18670.0, 18670.0, 18634.0, 18674.0, 18598.0, 18636.0, 18636.0, 18632.0, 18674.0, 18632.0, 18598.0, 18644.0, 18630.0, 18644.0, 18676.0, 18636.0, 18640.0, 18636.0, 18632.0, 18636.0, 18630.0, 18602.0, 18642.0, 18668.0, 18632.0, 18640.0, 18634.0, 18604.0, 18632.0, 18642.0, 18632.0, 18636.0, 18646.0, 18678.0, 18678.0, 18674.0, 18642.0, 18640.0, 18632.0, 18636.0, 18638.0, 18628.0, 18600.0, 18638.0, 18644.0, 18640.0, 18674.0, 18636.0, 18636.0, 18640.0, 18634.0, 18632.0, 18638.0, 18632.0, 18646.0, 18634.0, 18604.0, 18642.0, 18634.0, 18642.0, 18602.0, 18632.0, 18632.0, 18638.0, 18630.0, 18640.0, 18638.0, 18634.0, 18634.0, 18634.0, 18630.0, 18600.0, 18618.0, 18612.0, 18672.0, 18716.0, 18718.0, 18690.0, 18650.0, 18634.0, 18634.0, 18632.0, 18636.0, 18634.0, 18610.0, 18610.0, 18678.0, 18686.0, 18688.0, 18688.0, 18640.0, 18634.0, 18634.0, 18610.0, 18638.0, 18634.0, 18636.0, 18640.0, 18634.0, 18670.0, 18682.0, 18678.0, 18634.0, 18638.0, 18610.0, 18604.0, 18636.0, 18636.0, 18634.0, 18612.0, 18618.0, 18638.0, 18680.0, 18684.0]
    },
    "slices": {}
  }
}