{
  "AcquisitionMatrixPE": 104,
  "AcquisitionNumber": 1,
  "AcquisitionTime": "15:23:36.342500",
  "BandwidthPerPixelPhaseEncode": 17.17,
  "BaseResolution": 104,
  "BodyPartExamined": "BRAIN",
  "CoilString": "HC1-7;NC1_2",
  "ConsistencyInfo": "N4_VE11C_LATEST_20160120",
  "ConversionSoftware": "dcm2niix",
  "ConversionSoftwareVersion": "v1.0.20190902",
  "DerivedVendorReportedEchoSpacing": 0.000560011,
  "DeviceSerialNumber": "167006",
  "DwellTime": 2.1e-06,
  "EchoTime": 0.037,
  "EchoTrainLength": 104,
  "EffectiveEchoSpacing": 0.000560011,
  "FlipAngle": 52,
  "ImageComments": "Unaliased_MB4_PE3_LB",
  "ImageOrientationPatientDICOM": [0.998624, -0.0507277, 0.0132659, 0.0523357, 0.948868, -0.311305],
  "ImageType": [
    "ORIGINAL",
    "PRIMARY",
    "P",
    "MB",
    "ND",
    "MOSAIC"
],
  "ImagingFrequency": 123.259,
  "InPlanePhaseEncodingDirectionDICOM": "COL",
  "InstitutionAddress": "Chemin_Queen-Mary_4565_Montreal_District_CA_H3W_1W5",
  "InstitutionName": "IUGM",
  "InstitutionalDepartmentName": "Department",
  "MRAcquisitionType": "2D",
  "MagneticFieldStrength": 3,
  "Manufacturer": "Siemens",
  "ManufacturersModelName": "Prisma_fit",
  "Modality": "MR",
  "MultibandAccelerationFactor": 4,
  "PartialFourier": 1,
  "PatientPosition": "HFS",
  "PercentPhaseFOV": 100,
  "PhaseEncodingDirection": "j",
  "PhaseEncodingSteps": 104,
  "PhaseResolution": 1,
  "PixelBandwidth": 2290,
  "ProcedureStepDescription": "memory_things",
  "ProtocolName": "func_task-things_run-2",
  "PulseSequenceDetails": "%CustomerSeq%_cmrr_mbep2d_bold",
  "ReceiveCoilActiveElements": "HC1-7;NC1,2",
  "ReceiveCoilName": "HeadNeck_64",
  "ReconMatrixPE": 104,
  "RepetitionTime": 1.49,
  "SAR": 0.0728163,
  "ScanOptions": "FS",
  "ScanningSequence": "EP",
  "SequenceName": "epfid2d1_104",
  "SequenceVariant": "SK_SS",
  "SeriesDescription": "func_task-things_run-2",
  "SeriesNumber": 14,
  "ShimSetting": [628, -7256, -8807, 580, 0, -203, -26, 0],
  "SliceThickness": 2,
  "SliceTiming": [0, 0.785, 0.1, 0.8825, 0.1975, 0.98, 0.295, 1.0775, 0.3925, 1.1775, 0.49, 1.275, 0.59, 1.3725, 0.6875, 0, 0.785, 0.1, 0.8825, 0.1975, 0.98, 0.295, 1.0775, 0.3925, 1.1775, 0.49, 1.275, 0.59, 1.3725, 0.6875, 0, 0.785, 0.1, 0.8825, 0.1975, 0.98, 0.295, 1.0775, 0.3925, 1.1775, 0.49, 1.275, 0.59, 1.3725, 0.6875, 0, 0.785, 0.1, 0.8825, 0.1975, 0.98, 0.295, 1.0775, 0.3925, 1.1775, 0.49, 1.275, 0.59, 1.3725, 0.6875],
  "SoftwareVersions": "syngo_MR_E11",
  "SpacingBetweenSlices": 2,
  "StationName": "MRC35049",
  "TaskName": "things",
  "TotalReadoutTime": 0.0576811,
  "TxRefAmp": 293.067,
  "WipMemBlock": "b1890093-254f-46b0-b040-9123d641300b||Sequence: R016 ve11c/master r/e634e98; Dec 19 2017 11:00:25 by eja",
  "dcmmeta_affine": [
    [-1.9972487688064575, 0.10467132180929184, -0.006408351473510265, 101.88348388671875],
    [0.10145546495914459, 1.897735595703125, -0.6231423616409302, -72.2363510131836],
    [0.0265318863093853, 0.6226102113723755, 1.9004348516464233, -58.92524719238281],
    [0.0, 0.0, 0.0, 1.0]
],
  "dcmmeta_reorient_transform": [
    [0.0, -1.0, 0.0, 103.0],
    [1.0, 0.0, 0.0, 0.0],
    [0.0, 0.0, 1.0, 0.0],
    [0.0, 0.0, 0.0, 1.0]
],
  "dcmmeta_shape": [104, 104, 60, 190],
  "dcmmeta_slice_dim": 2,
  "dcmmeta_version": 0.6,
  "global": {
    "const": {
      "AcquisitionMatrix": [104, 0, 0, 104],
      "AngioFlag": "N",
      "BitsAllocated": 16,
      "BitsStored": 16,
      "BodyPartExamined": "BRAIN",
      "Columns": 832,
      "EchoNumbers": 1,
      "EchoTime": 37.0,
      "EchoTrainLength": 104,
      "FlipAngle": 52.0,
      "HighBit": 15,
      "ImageOrientationPatient": [0.99862440989272, -0.0507277313194, 0.01326594292158, 0.05233565920793, 0.94886780404345, -0.3113051063266],
      "ImagePositionPatient": [-877.76356173247, -777.07639304548, 222.17611683568],
      "ImageType": [
        "ORIGINAL",
        "PRIMARY",
        "P",
        "MB",
        "ND",
        "MOSAIC"
],
      "ImagedNucleus": "1H",
      "ImagingFrequency": 123.258922,
      "InPlanePhaseEncodingDirection": "COL",
      "LargestImagePixelValue": 4095,
      "MRAcquisitionType": "2D",
      "MagneticFieldStrength": 3.0,
      "Manufacturer": "SIEMENS",
      "ManufacturerModelName": "Prisma_fit",
      "Modality": "MR",
      "NumberOfAverages": 1.0,
      "NumberOfPhaseEncodingSteps": 104,
      "PercentPhaseFieldOfView": 100.0,
      "PercentSampling": 100.0,
      "PerformedProcedureStepStartTime": "145655.529000",
      "PhotometricInterpretation": "MONOCHROME2",
      "PixelBandwidth": 2290.0,
      "PixelRepresentation": 0,
      "PixelSpacing": [2.0, 2.0],
      "ProtocolName": "func_task-things_run-2",
      "RepetitionTime": 1490.0,
      "RescaleIntercept": -4096.0,
      "RescaleSlope": 2.0,
      "RescaleType": "US",
      "Rows": 832,
      "SAR": 0.07281633294717,
      "SamplesPerPixel": 1,
      "ScanOptions": "FS",
      "ScanningSequence": "EP",
      "SequenceName": "epfid2d1_104",
      "SequenceVariant": [
        "SK",
        "SS"
],
      "SeriesDescription": "func_task-things_run-2",
      "SeriesNumber": 14,
      "SeriesTime": "152504.939000",
      "SliceLocation": -33.811485253341,
      "SliceThickness": 2.0,
      "SmallestImagePixelValue": 0,
      "SoftwareVersions": "syngo MR E11",
      "SpacingBetweenSlices": 2.0000000406114,
      "SpecificCharacterSet": "ISO_IR 100",
      "StudyID": "1",
      "StudyTime": "145655.451000",
      "TransmitCoilName": "Body",
      "VariableFlipAngleFlag": "N",
      "WindowCenterWidthExplanation": "Algo1",
      "dBdt": 0.0},
    "slices": {}
  },
  "time": {
    "samples": {
      "AcquisitionNumber": [1, 2, 3, 4, 5, 6, 7, 8, 9, 10, 11, 12, 13, 14, 15, 16, 17, 18, 19, 20, 21, 22, 23, 24, 25, 26, 27, 28, 29, 30, 31, 32, 33, 34, 35, 36, 37, 38, 39, 40, 41, 42, 43, 44, 45, 46, 47, 48, 49, 50, 51, 52, 53, 54, 55, 56, 57, 58, 59, 60, 61, 62, 63, 64, 65, 66, 67, 68, 69, 70, 71, 72, 73, 74, 75, 76, 77, 78, 79, 80, 81, 82, 83, 84, 85, 86, 87, 88, 89, 90, 91, 92, 93, 94, 95, 96, 97, 98, 99, 100, 101, 102, 103, 104, 105, 106, 107, 108, 109, 110, 111, 112, 113, 114, 115, 116, 117, 118, 119, 120, 121, 122, 123, 124, 125, 126, 127, 128, 129, 130, 131, 132, 133, 134, 135, 136, 137, 138, 139, 140, 141, 142, 143, 144, 145, 146, 147, 148, 149, 150, 151, 152, 153, 154, 155, 156, 157, 158, 159, 160, 161, 162, 163, 164, 165, 166, 167, 168, 169, 170, 171, 172, 173, 174, 175, 176, 177, 178, 179, 180, 181, 182, 183, 184, 185, 186, 187, 188, 189, 190],
      "AcquisitionTime": ["152336.342500", "152337.832500", "152339.322500", "152340.812500", "152342.302500", "152343.792500", "152345.282500", "152346.772500", "152348.262500", "152349.752500", "152351.242500", "152352.732500", "152354.222500", "152355.712500", "152357.202500", "152358.692500", "152400.182500", "152401.672500", "152403.162500", "152404.652500", "152406.142500", "152407.632500", "152409.122500", "152410.612500", "152412.102500", "152413.592500", "152415.082500", "152416.572500", "152418.062500", "152419.552500", "152421.042500", "152422.532500", "152424.022500", "152425.512500", "152427.002500", "152428.492500", "152429.982500", "152431.472500", "152432.962500", "152434.452500", "152435.942500", "152437.432500", "152438.922500", "152440.412500", "152441.902500", "152443.392500", "152444.882500", "152446.372500", "152447.862500", "152449.352500", "152450.842500", "152452.332500", "152453.822500", "152455.312500", "152456.802500", "152458.292500", "152459.782500", "152501.272500", "152502.762500", "152504.252500", "152505.742500", "152507.232500", "152508.722500", "152510.212500", "152511.702500", "152513.192500", "152514.682500", "152516.172500", "152517.662500", "152519.152500", "152520.642500", "152522.132500", "152523.622500", "152525.112500", "152526.602500", "152528.092500", "152529.582500", "152531.072500", "152532.562500", "152534.052500", "152535.542500", "152537.032500", "152538.522500", "152540.012500", "152541.502500", "152542.992500", "152544.482500", "152545.972500", "152547.462500", "152548.952500", "152550.442500", "152551.932500", "152553.422500", "152554.912500", "152556.402500", "152557.892500", "152559.382500", "152600.872500", "152602.362500", "152603.852500", "152605.342500", "152606.832500", "152608.322500", "152609.812500", "152611.302500", "152612.792500", "152614.282500", "152615.772500", "152617.262500", "152618.752500", "152620.242500", "152621.732500", "152623.222500", "152624.712500", "152626.202500", "152627.692500", "152629.182500", "152630.672500", "152632.162500", "152633.652500", "152635.142500", "152636.632500", "152638.122500", "152639.612500", "152641.102500", "152642.592500", "152644.082500", "152645.572500", "152647.062500", "152648.552500", "152650.042500", "152651.532500", "152653.022500", "152654.512500", "152656.002500", "152657.492500", "152658.982500", "152700.472500", "152701.962500", "152703.452500", "152704.942500", "152706.432500", "152707.922500", "152709.412500", "152710.902500", "152712.392500", "152713.882500", "152715.372500", "152716.862500", "152718.352500", "152719.842500", "152721.332500", "152722.822500", "152724.312500", "152725.802500", "152727.292500", "152728.782500", "152730.272500", "152731.762500", "152733.252500", "152734.742500", "152736.232500", "152737.722500", "152739.212500", "152740.702500", "152742.192500", "152743.682500", "152745.172500", "152746.662500", "152748.152500", "152749.642500", "152751.132500", "152752.622500", "152754.112500", "152755.602500", "152757.092500", "152758.582500", "152800.072500", "152801.562500", "152803.052500", "152804.542500", "152806.032500", "152807.522500", "152809.012500", "152810.502500", "152811.992500", "152813.482500", "152814.972500", "152816.462500", "152817.952500"],
      "ContentTime": ["152504.941000", "152504.943000", "152504.946000", "152504.949000", "152504.951000", "152504.954000", "152504.956000", "152504.959000", "152504.961000", "152504.964000", "152504.966000", "152504.969000", "152504.972000", "152504.974000", "152504.977000", "152504.979000", "152504.982000", "152504.984000", "152504.987000", "152504.990000", "152504.992000", "152504.995000", "152504.997000", "152505.001000", "152505.009000", "152505.012000", "152505.014000", "152505.017000", "152505.019000", "152505.022000", "152505.024000", "152505.027000", "152505.029000", "152524.819000", "152524.830000", "152524.833000", "152524.843000", "152524.846000", "152524.848000", "152524.851000", "152524.853000", "152524.856000", "152524.858000", "152524.861000", "152524.864000", "152524.866000", "152524.869000", "152524.871000", "152524.874000", "152524.876000", "152524.879000", "152524.881000", "152524.884000", "152544.871000", "152544.874000", "152544.876000", "152544.879000", "152544.881000", "152544.891000", "152544.893000", "152544.896000", "152544.898000", "152544.901000", "152544.904000", "152544.906000", "152544.909000", "152544.911000", "152544.914000", "152544.916000", "152544.919000", "152544.922000", "152544.924000", "152544.927000", "152604.820000", "152604.823000", "152604.825000", "152604.828000", "152604.831000", "152604.833000", "152604.836000", "152604.838000", "152604.841000", "152604.843000", "152604.846000", "152604.849000", "152604.851000", "152604.854000", "152604.856000", "152604.859000", "152604.861000", "152604.864000", "152604.867000", "152604.869000", "152604.875000", "152644.903000", "152644.905000", "152644.908000", "152644.911000", "152644.913000", "152644.916000", "152644.918000", "152644.921000", "152644.923000", "152644.926000", "152644.929000", "152644.931000", "152644.934000", "152644.937000", "152644.939000", "152644.942000", "152644.944000", "152644.947000", "152644.949000", "152644.952000", "152644.955000", "152644.957000", "152644.960000", "152644.962000", "152644.965000", "152644.967000", "152644.977000", "152644.980000", "152644.983000", "152644.985000", "152644.988000", "152724.876000", "152724.888000", "152724.891000", "152724.893000", "152724.896000", "152724.899000", "152724.901000", "152724.904000", "152724.907000", "152724.910000", "152724.912000", "152724.915000", "152724.917000", "152724.920000", "152724.923000", "152724.925000", "152724.928000", "152724.930000", "152724.933000", "152724.935000", "152724.938000", "152724.941000", "152724.943000", "152724.946000", "152724.948000", "152724.951000", "152724.954000", "152804.863000", "152804.866000", "152804.868000", "152804.871000", "152804.873000", "152804.876000", "152804.879000", "152804.881000", "152804.884000", "152804.886000", "152804.889000", "152804.891000", "152804.894000", "152804.896000", "152804.899000", "152804.901000", "152804.904000", "152804.906000", "152804.909000", "152804.912000", "152804.914000", "152804.917000", "152804.919000", "152804.922000", "152804.925000", "152804.928000", "152804.930000", "152820.279000", "152820.282000", "152820.285000", "152820.287000", "152820.290000", "152820.292000", "152820.295000", "152820.298000", "152820.300000", "152820.303000", "152820.305000"],
      "InstanceCreationTime": ["152504.941000", "152504.943000", "152504.946000", "152504.949000", "152504.951000", "152504.954000", "152504.956000", "152504.959000", "152504.961000", "152504.964000", "152504.966000", "152504.969000", "152504.972000", "152504.974000", "152504.977000", "152504.979000", "152504.982000", "152504.984000", "152504.987000", "152504.990000", "152504.992000", "152504.995000", "152504.997000", "152505.001000", "152505.009000", "152505.012000", "152505.014000", "152505.017000", "152505.019000", "152505.022000", "152505.024000", "152505.027000", "152505.029000", "152524.819000", "152524.830000", "152524.833000", "152524.843000", "152524.846000", "152524.848000", "152524.851000", "152524.853000", "152524.856000", "152524.858000", "152524.861000", "152524.864000", "152524.866000", "152524.869000", "152524.871000", "152524.874000", "152524.876000", "152524.879000", "152524.881000", "152524.884000", "152544.871000", "152544.874000", "152544.876000", "152544.879000", "152544.881000", "152544.891000", "152544.893000", "152544.896000", "152544.898000", "152544.901000", "152544.904000", "152544.906000", "152544.909000", "152544.911000", "152544.914000", "152544.916000", "152544.919000", "152544.922000", "152544.924000", "152544.927000", "152604.820000", "152604.823000", "152604.825000", "152604.828000", "152604.831000", "152604.833000", "152604.836000", "152604.838000", "152604.841000", "152604.843000", "152604.846000", "152604.849000", "152604.851000", "152604.854000", "152604.856000", "152604.859000", "152604.861000", "152604.864000", "152604.867000", "152604.869000", "152604.875000", "152644.903000", "152644.905000", "152644.908000", "152644.911000", "152644.913000", "152644.916000", "152644.918000", "152644.921000", "152644.923000", "152644.926000", "152644.929000", "152644.931000", "152644.934000", "152644.937000", "152644.939000", "152644.942000", "152644.944000", "152644.947000", "152644.949000", "152644.952000", "152644.955000", "152644.957000", "152644.960000", "152644.962000", "152644.965000", "152644.967000", "152644.977000", "152644.980000", "152644.983000", "152644.985000", "152644.988000", "152724.876000", "152724.888000", "152724.891000", "152724.893000", "152724.896000", "152724.899000", "152724.901000", "152724.904000", "152724.907000", "152724.910000", "152724.912000", "152724.915000", "152724.917000", "152724.920000", "152724.923000", "152724.925000", "152724.928000", "152724.930000", "152724.933000", "152724.935000", "152724.938000", "152724.941000", "152724.943000", "152724.946000", "152724.948000", "152724.951000", "152724.954000", "152804.863000", "152804.866000", "152804.868000", "152804.871000", "152804.873000", "152804.876000", "152804.879000", "152804.881000", "152804.884000", "152804.886000", "152804.889000", "152804.891000", "152804.894000", "152804.896000", "152804.899000", "152804.901000", "152804.904000", "152804.906000", "152804.909000", "152804.912000", "152804.914000", "152804.917000", "152804.919000", "152804.922000", "152804.925000", "152804.928000", "152804.930000", "152820.279000", "152820.282000", "152820.285000", "152820.287000", "152820.290000", "152820.292000", "152820.295000", "152820.298000", "152820.300000", "152820.303000", "152820.305000"],
      "InstanceNumber": [1, 2, 3, 4, 5, 6, 7, 8, 9, 10, 11, 12, 13, 14, 15, 16, 17, 18, 19, 20, 21, 22, 23, 24, 25, 26, 27, 28, 29, 30, 31, 32, 33, 34, 35, 36, 37, 38, 39, 40, 41, 42, 43, 44, 45, 46, 47, 48, 49, 50, 51, 52, 53, 54, 55, 56, 57, 58, 59, 60, 61, 62, 63, 64, 65, 66, 67, 68, 69, 70, 71, 72, 73, 74, 75, 76, 77, 78, 79, 80, 81, 82, 83, 84, 85, 86, 87, 88, 89, 90, 91, 92, 93, 94, 95, 96, 97, 98, 99, 100, 101, 102, 103, 104, 105, 106, 107, 108, 109, 110, 111, 112, 113, 114, 115, 116, 117, 118, 119, 120, 121, 122, 123, 124, 125, 126, 127, 128, 129, 130, 131, 132, 133, 134, 135, 136, 137, 138, 139, 140, 141, 142, 143, 144, 145, 146, 147, 148, 149, 150, 151, 152, 153, 154, 155, 156, 157, 158, 159, 160, 161, 162, 163, 164, 165, 166, 167, 168, 169, 170, 171, 172, 173, 174, 175, 176, 177, 178, 179, 180, 181, 182, 183, 184, 185, 186, 187, 188, 189, 190],
      "WindowCenter": [4868.0, 4876.0, 4882.0, 4844.0, 4878.0, 4834.0, 4836.0, 4872.0, 4838.0, 4874.0, 4874.0, 4876.0, 4870.0, 4848.0, 4850.0, 4840.0, 4850.0, 4842.0, 4842.0, 4848.0, 4840.0, 4876.0, 4848.0, 4872.0, 4876.0, 4812.0, 4806.0, 4868.0, 4874.0, 4876.0, 4880.0, 4846.0, 4874.0, 4844.0, 4844.0, 4870.0, 4834.0, 4842.0, 4878.0, 4870.0, 4876.0, 4880.0, 4842.0, 4864.0, 4880.0, 4846.0, 4870.0, 4874.0, 4844.0, 4838.0, 4876.0, 4844.0, 4846.0, 4874.0, 4844.0, 4876.0, 4874.0, 4836.0, 4876.0, 4874.0, 4806.0, 4842.0, 4876.0, 4876.0, 4876.0, 4880.0, 4866.0, 4874.0, 4870.0, 4830.0, 4842.0, 4874.0, 4872.0, 4876.0, 4872.0, 4844.0, 4874.0, 4872.0, 4846.0, 4836.0, 4872.0, 4870.0, 4874.0, 4876.0, 4844.0, 4870.0, 4872.0, 4846.0, 4844.0, 4876.0, 4842.0, 4842.0, 4872.0, 4840.0, 4874.0, 4876.0, 4838.0, 4872.0, 4874.0, 4844.0, 4874.0, 4844.0, 4876.0, 4846.0, 4840.0, 4872.0, 4840.0, 4870.0, 4872.0, 4846.0, 4874.0, 4844.0, 4846.0, 4874.0, 4844.0, 4840.0, 4876.0, 4842.0, 4842.0, 4872.0, 4842.0, 4874.0, 4876.0, 4842.0, 4870.0, 4876.0, 4832.0, 4840.0, 4870.0, 4844.0, 4874.0, 4844.0, 4878.0, 4846.0, 4872.0, 4846.0, 4864.0, 4872.0, 4868.0, 4874.0, 4876.0, 4832.0, 4802.0, 4832.0, 4878.0, 4880.0, 4878.0, 4874.0, 4870.0, 4844.0, 4838.0, 4832.0, 4842.0, 4838.0, 4872.0, 4878.0, 4842.0, 4876.0, 4876.0, 4842.0, 4874.0, 4866.0, 4840.0, 4872.0, 4840.0, 4874.0, 4846.0, 4872.0, 4878.0, 4870.0, 4878.0, 4844.0, 4846.0, 4834.0, 4844.0, 4878.0, 4840.0, 4874.0, 4844.0, 4868.0, 4844.0, 4838.0, 4876.0, 4870.0, 4842.0, 4874.0, 4868.0, 4834.0, 4870.0, 4872.0],
      "WindowWidth": [18674.0, 18670.0, 18682.0, 18644.0, 18682.0, 18636.0, 18632.0, 18672.0, 18636.0, 18684.0, 18682.0, 18676.0, 18672.0, 18642.0, 18642.0, 18634.0, 18636.0, 18636.0, 18638.0, 18644.0, 18642.0, 18676.0, 18646.0, 18670.0, 18676.0, 18598.0, 18600.0, 18674.0, 18680.0, 18678.0, 18680.0, 18646.0, 18680.0, 18644.0, 18636.0, 18678.0, 18634.0, 18644.0, 18686.0, 18676.0, 18678.0, 18682.0, 18640.0, 18672.0, 18680.0, 18638.0, 18678.0, 18674.0, 18642.0, 18638.0, 18678.0, 18646.0, 18648.0, 18678.0, 18640.0, 18674.0, 18680.0, 18636.0, 18676.0, 18678.0, 18602.0, 18638.0, 18674.0, 18680.0, 18682.0, 18680.0, 18676.0, 18680.0, 18672.0, 18636.0, 18644.0, 18680.0, 18672.0, 18680.0, 18676.0, 18640.0, 18680.0, 18676.0, 18642.0, 18638.0, 18674.0, 18674.0, 18678.0, 18678.0, 18640.0, 18674.0, 18678.0, 18644.0, 18642.0, 18682.0, 18642.0, 18642.0, 18672.0, 18634.0, 18676.0, 18682.0, 18642.0, 18680.0, 18682.0, 18640.0, 18678.0, 18640.0, 18676.0, 18642.0, 18638.0, 18682.0, 18642.0, 18674.0, 18674.0, 18640.0, 18676.0, 18640.0, 18642.0, 18676.0, 18640.0, 18640.0, 18680.0, 18640.0, 18640.0, 18676.0, 18644.0, 18680.0, 18680.0, 18636.0, 18674.0, 18684.0, 18628.0, 18640.0, 18678.0, 18640.0, 18674.0, 18646.0, 18686.0, 18646.0, 18674.0, 18646.0, 18676.0, 18676.0, 18672.0, 18682.0, 18680.0, 18632.0, 18610.0, 18638.0, 18678.0, 18674.0, 18668.0, 18680.0, 18678.0, 18640.0, 18636.0, 18628.0, 18640.0, 18636.0, 18678.0, 18680.0, 18642.0, 18680.0, 18678.0, 18638.0, 18676.0, 18674.0, 18640.0, 18678.0, 18640.0, 18680.0, 18642.0, 18676.0, 18684.0, 18674.0, 18680.0, 18644.0, 18638.0, 18630.0, 18644.0, 18678.0, 18638.0, 18684.0, 18642.0, 18670.0, 18644.0, 18638.0, 18680.0, 18678.0, 18644.0, 18680.0, 18678.0, 18632.0, 18674.0, 18674.0]
    },
    "slices": {}
  }
}