{
  "AcquisitionMatrixPE": 104,
  "AcquisitionNumber": 1,
  "AcquisitionTime": "15:17:24.867500",
  "BandwidthPerPixelPhaseEncode": 17.17,
  "BaseResolution": 104,
  "BodyPartExamined": "BRAIN",
  "CoilString": "HC1-7;NC1_2",
  "ConsistencyInfo": "N4_VE11C_LATEST_20160120",
  "ConversionSoftware": "dcm2niix",
  "ConversionSoftwareVersion": "v1.0.20190902",
  "DerivedVendorReportedEchoSpacing": 0.000560011,
  "DeviceSerialNumber": "167006",
  "DwellTime": 2.1e-06,
  "EchoTime": 0.037,
  "EchoTrainLength": 104,
  "EffectiveEchoSpacing": 0.000560011,
  "FlipAngle": 52,
  "ImageComments": "Unaliased_MB4_PE3_LB",
  "ImageOrientationPatientDICOM": [0.998624, -0.0507277, 0.0132659, 0.0523357, 0.948868, -0.311305],
  "ImageType": [
    "ORIGINAL",
    "PRIMARY",
    "P",
    "MB",
    "ND",
    "MOSAIC"
],
  "ImagingFrequency": 123.259,
  "InPlanePhaseEncodingDirectionDICOM": "COL",
  "InstitutionAddress": "Chemin_Queen-Mary_4565_Montreal_District_CA_H3W_1W5",
  "InstitutionName": "IUGM",
  "InstitutionalDepartmentName": "Department",
  "MRAcquisitionType": "2D",
  "MagneticFieldStrength": 3,
  "Manufacturer": "Siemens",
  "ManufacturersModelName": "Prisma_fit",
  "Modality": "MR",
  "MultibandAccelerationFactor": 4,
  "PartialFourier": 1,
  "PatientPosition": "HFS",
  "PercentPhaseFOV": 100,
  "PhaseEncodingDirection": "j",
  "PhaseEncodingSteps": 104,
  "PhaseResolution": 1,
  "PixelBandwidth": 2290,
  "ProcedureStepDescription": "memory_things",
  "ProtocolName": "func_task-things_run-1",
  "PulseSequenceDetails": "%CustomerSeq%_cmrr_mbep2d_bold",
  "ReceiveCoilActiveElements": "HC1-7;NC1,2",
  "ReceiveCoilName": "HeadNeck_64",
  "ReconMatrixPE": 104,
  "RepetitionTime": 1.49,
  "SAR": 0.0728163,
  "ScanOptions": "FS",
  "ScanningSequence": "EP",
  "SequenceName": "epfid2d1_104",
  "SequenceVariant": "SK_SS",
  "SeriesDescription": "func_task-things_run-1",
  "SeriesNumber": 11,
  "ShimSetting": [628, -7256, -8807, 580, 0, -203, -26, 0],
  "SliceThickness": 2,
  "SliceTiming": [0, 0.785, 0.0975, 0.8825, 0.1975, 0.98, 0.295, 1.0775, 0.3925, 1.1775, 0.49, 1.275, 0.5875, 1.3725, 0.6875, 0, 0.785, 0.0975, 0.8825, 0.1975, 0.98, 0.295, 1.0775, 0.3925, 1.1775, 0.49, 1.275, 0.5875, 1.3725, 0.6875, 0, 0.785, 0.0975, 0.8825, 0.1975, 0.98, 0.295, 1.0775, 0.3925, 1.1775, 0.49, 1.275, 0.5875, 1.3725, 0.6875, 0, 0.785, 0.0975, 0.8825, 0.1975, 0.98, 0.295, 1.0775, 0.3925, 1.1775, 0.49, 1.275, 0.5875, 1.3725, 0.6875],
  "SoftwareVersions": "syngo_MR_E11",
  "SpacingBetweenSlices": 2,
  "StationName": "MRC35049",
  "TaskName": "things",
  "TotalReadoutTime": 0.0576811,
  "TxRefAmp": 293.067,
  "WipMemBlock": "571cf15d-7e46-41ae-a06c-a4d620832754||Sequence: R016 ve11c/master r/e634e98; Dec 19 2017 11:00:25 by eja",
  "dcmmeta_affine": [
    [-1.9972487688064575, 0.10467132180929184, -0.006408351473510265, 101.88348388671875],
    [0.10145546495914459, 1.897735595703125, -0.6231423616409302, -72.2363510131836],
    [0.0265318863093853, 0.6226102113723755, 1.9004348516464233, -58.92524719238281],
    [0.0, 0.0, 0.0, 1.0]
],
  "dcmmeta_reorient_transform": [
    [0.0, -1.0, 0.0, 103.0],
    [1.0, 0.0, 0.0, 0.0],
    [0.0, 0.0, 1.0, 0.0],
    [0.0, 0.0, 0.0, 1.0]
],
  "dcmmeta_shape": [104, 104, 60, 190],
  "dcmmeta_slice_dim": 2,
  "dcmmeta_version": 0.6,
  "global": {
    "const": {
      "AcquisitionMatrix": [104, 0, 0, 104],
      "AngioFlag": "N",
      "BitsAllocated": 16,
      "BitsStored": 16,
      "BodyPartExamined": "BRAIN",
      "Columns": 832,
      "EchoNumbers": 1,
      "EchoTime": 37.0,
      "EchoTrainLength": 104,
      "FlipAngle": 52.0,
      "HighBit": 15,
      "ImageOrientationPatient": [0.99862440989272, -0.0507277313194, 0.01326594292158, 0.05233565920793, 0.94886780404345, -0.3113051063266],
      "ImagePositionPatient": [-877.76356173247, -777.07639304548, 222.17611683568],
      "ImageType": [
        "ORIGINAL",
        "PRIMARY",
        "P",
        "MB",
        "ND",
        "MOSAIC"
],
      "ImagedNucleus": "1H",
      "ImagingFrequency": 123.258917,
      "InPlanePhaseEncodingDirection": "COL",
      "LargestImagePixelValue": 4095,
      "MRAcquisitionType": "2D",
      "MagneticFieldStrength": 3.0,
      "Manufacturer": "SIEMENS",
      "ManufacturerModelName": "Prisma_fit",
      "Modality": "MR",
      "NumberOfAverages": 1.0,
      "NumberOfPhaseEncodingSteps": 104,
      "PercentPhaseFieldOfView": 100.0,
      "PercentSampling": 100.0,
      "PerformedProcedureStepStartTime": "145655.529000",
      "PhotometricInterpretation": "MONOCHROME2",
      "PixelBandwidth": 2290.0,
      "PixelRepresentation": 0,
      "PixelSpacing": [2.0, 2.0],
      "ProtocolName": "func_task-things_run-1",
      "RepetitionTime": 1490.0,
      "RescaleIntercept": -4096.0,
      "RescaleSlope": 2.0,
      "RescaleType": "US",
      "Rows": 832,
      "SAR": 0.07281633294717,
      "SamplesPerPixel": 1,
      "ScanOptions": "FS",
      "ScanningSequence": "EP",
      "SequenceName": "epfid2d1_104",
      "SequenceVariant": [
        "SK",
        "SS"
],
      "SeriesDescription": "func_task-things_run-1",
      "SeriesNumber": 11,
      "SeriesTime": "151821.943000",
      "SliceLocation": -33.811485253341,
      "SliceThickness": 2.0,
      "SmallestImagePixelValue": 0,
      "SoftwareVersions": "syngo MR E11",
      "SpacingBetweenSlices": 2.0000000406114,
      "SpecificCharacterSet": "ISO_IR 100",
      "StudyID": "1",
      "StudyTime": "145655.451000",
      "TransmitCoilName": "Body",
      "VariableFlipAngleFlag": "N",
      "WindowCenterWidthExplanation": "Algo1",
      "dBdt": 0.0},
    "slices": {}
  },
  "time": {
    "samples": {
      "AcquisitionNumber": [1, 2, 3, 4, 5, 6, 7, 8, 9, 10, 11, 12, 13, 14, 15, 16, 17, 18, 19, 20, 21, 22, 23, 24, 25, 26, 27, 28, 29, 30, 31, 32, 33, 34, 35, 36, 37, 38, 39, 40, 41, 42, 43, 44, 45, 46, 47, 48, 49, 50, 51, 52, 53, 54, 55, 56, 57, 58, 59, 60, 61, 62, 63, 64, 65, 66, 67, 68, 69, 70, 71, 72, 73, 74, 75, 76, 77, 78, 79, 80, 81, 82, 83, 84, 85, 86, 87, 88, 89, 90, 91, 92, 93, 94, 95, 96, 97, 98, 99, 100, 101, 102, 103, 104, 105, 106, 107, 108, 109, 110, 111, 112, 113, 114, 115, 116, 117, 118, 119, 120, 121, 122, 123, 124, 125, 126, 127, 128, 129, 130, 131, 132, 133, 134, 135, 136, 137, 138, 139, 140, 141, 142, 143, 144, 145, 146, 147, 148, 149, 150, 151, 152, 153, 154, 155, 156, 157, 158, 159, 160, 161, 162, 163, 164, 165, 166, 167, 168, 169, 170, 171, 172, 173, 174, 175, 176, 177, 178, 179, 180, 181, 182, 183, 184, 185, 186, 187, 188, 189, 190],
      "AcquisitionTime": ["151724.867500", "151726.357500", "151727.847500", "151729.337500", "151730.827500", "151732.317500", "151733.807500", "151735.297500", "151736.787500", "151738.277500", "151739.767500", "151741.257500", "151742.747500", "151744.237500", "151745.727500", "151747.217500", "151748.707500", "151750.197500", "151751.687500", "151753.177500", "151754.667500", "151756.157500", "151757.647500", "151759.137500", "151800.627500", "151802.117500", "151803.607500", "151805.097500", "151806.587500", "151808.077500", "151809.567500", "151811.057500", "151812.547500", "151814.037500", "151815.527500", "151817.017500", "151818.507500", "151819.997500", "151821.487500", "151822.977500", "151824.467500", "151825.957500", "151827.447500", "151828.937500", "151830.427500", "151831.917500", "151833.407500", "151834.897500", "151836.387500", "151837.877500", "151839.367500", "151840.857500", "151842.347500", "151843.837500", "151845.327500", "151846.817500", "151848.307500", "151849.797500", "151851.287500", "151852.777500", "151854.267500", "151855.757500", "151857.247500", "151858.737500", "151900.227500", "151901.717500", "151903.207500", "151904.697500", "151906.187500", "151907.677500", "151909.167500", "151910.657500", "151912.147500", "151913.637500", "151915.127500", "151916.617500", "151918.107500", "151919.597500", "151921.087500", "151922.577500", "151924.067500", "151925.557500", "151927.047500", "151928.537500", "151930.027500", "151931.517500", "151933.007500", "151934.497500", "151935.987500", "151937.477500", "151938.967500", "151940.457500", "151941.947500", "151943.437500", "151944.927500", "151946.417500", "151947.907500", "151949.397500", "151950.887500", "151952.377500", "151953.867500", "151955.357500", "151956.847500", "151958.337500", "151959.827500", "152001.317500", "152002.807500", "152004.297500", "152005.787500", "152007.277500", "152008.767500", "152010.257500", "152011.747500", "152013.237500", "152014.727500", "152016.217500", "152017.707500", "152019.197500", "152020.687500", "152022.177500", "152023.667500", "152025.157500", "152026.647500", "152028.137500", "152029.627500", "152031.117500", "152032.607500", "152034.097500", "152035.587500", "152037.077500", "152038.567500", "152040.057500", "152041.547500", "152043.037500", "152044.527500", "152046.017500", "152047.507500", "152048.997500", "152050.487500", "152051.977500", "152053.467500", "152054.957500", "152056.447500", "152057.937500", "152059.427500", "152100.917500", "152102.407500", "152103.897500", "152105.387500", "152106.877500", "152108.367500", "152109.857500", "152111.347500", "152112.837500", "152114.327500", "152115.817500", "152117.307500", "152118.797500", "152120.287500", "152121.777500", "152123.267500", "152124.757500", "152126.247500", "152127.737500", "152129.227500", "152130.717500", "152132.207500", "152133.697500", "152135.187500", "152136.677500", "152138.167500", "152139.657500", "152141.147500", "152142.637500", "152144.127500", "152145.617500", "152147.107500", "152148.597500", "152150.087500", "152151.577500", "152153.067500", "152154.557500", "152156.047500", "152157.537500", "152159.027500", "152200.517500", "152202.007500", "152203.497500", "152204.987500", "152206.477500"],
      "ContentTime": ["151821.945000", "151821.948000", "151821.951000", "151842.496000", "151842.499000", "151842.502000", "151842.504000", "151842.507000", "151842.509000", "151842.512000", "151842.514000", "151842.525000", "151842.527000", "151842.530000", "151842.532000", "151842.535000", "151842.537000", "151842.540000", "151842.542000", "151842.545000", "151842.547000", "151842.550000", "151842.552000", "151842.555000", "151901.993000", "151901.996000", "151902.000000", "151902.002000", "151902.005000", "151902.007000", "151902.010000", "151902.012000", "151902.015000", "151902.017000", "151902.020000", "151902.022000", "151902.025000", "151902.027000", "151902.078000", "151902.080000", "151902.083000", "151902.089000", "151902.092000", "151902.094000", "151921.992000", "151921.995000", "151921.997000", "151922.000000", "151922.002000", "151922.007000", "151922.009000", "151922.012000", "151922.014000", "151922.017000", "151922.019000", "151922.022000", "151922.024000", "151922.027000", "151922.029000", "151922.032000", "151922.034000", "151922.037000", "151922.039000", "151922.042000", "151941.991000", "151941.994000", "151941.996000", "151942.000000", "151942.002000", "151942.005000", "151942.007000", "151942.010000", "151942.013000", "151942.015000", "151942.018000", "151942.020000", "151942.023000", "151942.025000", "151942.028000", "151942.030000", "151942.033000", "151942.035000", "151942.038000", "151942.040000", "152001.984000", "152001.987000", "152001.990000", "152001.992000", "152001.995000", "152001.997000", "152002.001000", "152002.004000", "152002.006000", "152002.009000", "152002.012000", "152002.014000", "152002.017000", "152002.019000", "152002.022000", "152002.024000", "152002.027000", "152002.029000", "152002.032000", "152002.034000", "152042.027000", "152042.030000", "152042.032000", "152042.035000", "152042.037000", "152042.040000", "152042.043000", "152042.045000", "152042.048000", "152042.050000", "152042.053000", "152042.055000", "152042.058000", "152042.060000", "152042.063000", "152042.065000", "152042.068000", "152042.071000", "152042.073000", "152042.076000", "152042.078000", "152042.081000", "152042.083000", "152042.086000", "152042.091000", "152042.094000", "152042.097000", "152122.023000", "152122.026000", "152122.029000", "152122.031000", "152122.034000", "152122.036000", "152122.039000", "152122.041000", "152122.044000", "152122.046000", "152122.049000", "152122.051000", "152122.054000", "152122.057000", "152122.059000", "152122.062000", "152122.064000", "152122.067000", "152122.069000", "152122.072000", "152122.075000", "152122.077000", "152122.080000", "152122.082000", "152122.085000", "152122.087000", "152122.090000", "152202.042000", "152202.045000", "152202.048000", "152202.051000", "152202.053000", "152202.056000", "152202.058000", "152202.061000", "152202.063000", "152202.066000", "152202.068000", "152202.071000", "152202.073000", "152202.076000", "152202.079000", "152202.081000", "152202.084000", "152202.086000", "152202.089000", "152202.091000", "152202.095000", "152202.098000", "152202.100000", "152202.103000", "152202.105000", "152202.108000", "152202.110000", "152208.824000", "152208.828000", "152208.830000", "152208.833000", "152208.835000"],
      "InstanceCreationTime": ["151821.945000", "151821.948000", "151821.951000", "151842.496000", "151842.499000", "151842.502000", "151842.504000", "151842.507000", "151842.509000", "151842.512000", "151842.514000", "151842.525000", "151842.527000", "151842.530000", "151842.532000", "151842.535000", "151842.537000", "151842.540000", "151842.542000", "151842.545000", "151842.547000", "151842.550000", "151842.552000", "151842.555000", "151901.993000", "151901.996000", "151902.000000", "151902.002000", "151902.005000", "151902.007000", "151902.010000", "151902.012000", "151902.015000", "151902.017000", "151902.020000", "151902.022000", "151902.025000", "151902.027000", "151902.078000", "151902.080000", "151902.083000", "151902.089000", "151902.092000", "151902.094000", "151921.992000", "151921.995000", "151921.997000", "151922.000000", "151922.002000", "151922.007000", "151922.009000", "151922.012000", "151922.014000", "151922.017000", "151922.019000", "151922.022000", "151922.024000", "151922.027000", "151922.029000", "151922.032000", "151922.034000", "151922.037000", "151922.039000", "151922.042000", "151941.991000", "151941.994000", "151941.996000", "151942.000000", "151942.002000", "151942.005000", "151942.007000", "151942.010000", "151942.013000", "151942.015000", "151942.018000", "151942.020000", "151942.023000", "151942.025000", "151942.028000", "151942.030000", "151942.033000", "151942.035000", "151942.038000", "151942.040000", "152001.984000", "152001.987000", "152001.990000", "152001.992000", "152001.995000", "152001.997000", "152002.001000", "152002.004000", "152002.006000", "152002.009000", "152002.012000", "152002.014000", "152002.017000", "152002.019000", "152002.022000", "152002.024000", "152002.027000", "152002.029000", "152002.032000", "152002.034000", "152042.027000", "152042.030000", "152042.032000", "152042.035000", "152042.037000", "152042.040000", "152042.043000", "152042.045000", "152042.048000", "152042.050000", "152042.053000", "152042.055000", "152042.058000", "152042.060000", "152042.063000", "152042.065000", "152042.068000", "152042.071000", "152042.073000", "152042.076000", "152042.078000", "152042.081000", "152042.083000", "152042.086000", "152042.091000", "152042.094000", "152042.097000", "152122.023000", "152122.026000", "152122.029000", "152122.031000", "152122.034000", "152122.036000", "152122.039000", "152122.041000", "152122.044000", "152122.046000", "152122.049000", "152122.051000", "152122.054000", "152122.057000", "152122.059000", "152122.062000", "152122.064000", "152122.067000", "152122.069000", "152122.072000", "152122.075000", "152122.077000", "152122.080000", "152122.082000", "152122.085000", "152122.087000", "152122.090000", "152202.042000", "152202.045000", "152202.048000", "152202.051000", "152202.053000", "152202.056000", "152202.058000", "152202.061000", "152202.063000", "152202.066000", "152202.068000", "152202.071000", "152202.073000", "152202.076000", "152202.079000", "152202.081000", "152202.084000", "152202.086000", "152202.089000", "152202.091000", "152202.095000", "152202.098000", "152202.100000", "152202.103000", "152202.105000", "152202.108000", "152202.110000", "152208.824000", "152208.828000", "152208.830000", "152208.833000", "152208.835000"],
      "InstanceNumber": [1, 2, 3, 4, 5, 6, 7, 8, 9, 10, 11, 12, 13, 14, 15, 16, 17, 18, 19, 20, 21, 22, 23, 24, 25, 26, 27, 28, 29, 30, 31, 32, 33, 34, 35, 36, 37, 38, 39, 40, 41, 42, 43, 44, 45, 46, 47, 48, 49, 50, 51, 52, 53, 54, 55, 56, 57, 58, 59, 60, 61, 62, 63, 64, 65, 66, 67, 68, 69, 70, 71, 72, 73, 74, 75, 76, 77, 78, 79, 80, 81, 82, 83, 84, 85, 86, 87, 88, 89, 90, 91, 92, 93, 94, 95, 96, 97, 98, 99, 100, 101, 102, 103, 104, 105, 106, 107, 108, 109, 110, 111, 112, 113, 114, 115, 116, 117, 118, 119, 120, 121, 122, 123, 124, 125, 126, 127, 128, 129, 130, 131, 132, 133, 134, 135, 136, 137, 138, 139, 140, 141, 142, 143, 144, 145, 146, 147, 148, 149, 150, 151, 152, 153, 154, 155, 156, 157, 158, 159, 160, 161, 162, 163, 164, 165, 166, 167, 168, 169, 170, 171, 172, 173, 174, 175, 176, 177, 178, 179, 180, 181, 182, 183, 184, 185, 186, 187, 188, 189, 190],
      "WindowCenter": [4870.0, 4844.0, 4874.0, 4836.0, 4872.0, 4876.0, 4846.0, 4874.0, 4836.0, 4844.0, 4870.0, 4844.0, 4872.0, 4844.0, 4874.0, 4846.0, 4838.0, 4876.0, 4842.0, 4872.0, 4874.0, 4840.0, 4870.0, 4872.0, 4836.0, 4844.0, 4876.0, 4842.0, 4844.0, 4840.0, 4842.0, 4874.0, 4870.0, 4848.0, 4840.0, 4848.0, 4844.0, 4836.0, 4870.0, 4846.0, 4842.0, 4874.0, 4846.0, 4874.0, 4850.0, 4804.0, 4808.0, 4846.0, 4876.0, 4850.0, 4872.0, 4852.0, 4842.0, 4846.0, 4842.0, 4834.0, 4844.0, 4844.0, 4836.0, 4850.0, 4848.0, 4844.0, 4848.0, 4836.0, 4838.0, 4872.0, 4834.0, 4842.0, 4846.0, 4840.0, 4846.0, 4814.0, 4844.0, 4842.0, 4810.0, 4844.0, 4842.0, 4838.0, 4846.0, 4840.0, 4842.0, 4844.0, 4808.0, 4840.0, 4844.0, 4838.0, 4846.0, 4838.0, 4842.0, 4846.0, 4842.0, 4846.0, 4844.0, 4808.0, 4838.0, 4842.0, 4806.0, 4806.0, 4836.0, 4852.0, 4854.0, 4848.0, 4854.0, 4842.0, 4814.0, 4836.0, 4834.0, 4812.0, 4816.0, 4844.0, 4814.0, 4848.0, 4842.0, 4842.0, 4840.0, 4810.0, 4812.0, 4838.0, 4808.0, 4834.0, 4840.0, 4808.0, 4844.0, 4850.0, 4850.0, 4842.0, 4810.0, 4810.0, 4840.0, 4844.0, 4836.0, 4832.0, 4842.0, 4836.0, 4836.0, 4846.0, 4812.0, 4844.0, 4844.0, 4810.0, 4810.0, 4840.0, 4812.0, 4838.0, 4840.0, 4812.0, 4840.0, 4834.0, 4812.0, 4842.0, 4842.0, 4810.0, 4840.0, 4810.0, 4836.0, 4844.0, 4808.0, 4840.0, 4842.0, 4810.0, 4840.0, 4842.0, 4808.0, 4838.0, 4838.0, 4808.0, 4838.0, 4836.0, 4838.0, 4844.0, 4810.0, 4840.0, 4836.0, 4814.0, 4838.0, 4808.0, 4840.0, 4838.0, 4834.0, 4846.0, 4808.0, 4806.0, 4840.0, 4836.0, 4842.0, 4836.0, 4842.0, 4834.0, 4808.0, 4840.0],
      "WindowWidth": [18674.0, 18644.0, 18674.0, 18634.0, 18680.0, 18676.0, 18640.0, 18674.0, 18632.0, 18642.0, 18674.0, 18638.0, 18676.0, 18642.0, 18676.0, 18640.0, 18630.0, 18678.0, 18638.0, 18674.0, 18672.0, 18636.0, 18672.0, 18674.0, 18632.0, 18638.0, 18680.0, 18632.0, 18644.0, 18642.0, 18640.0, 18676.0, 18670.0, 18640.0, 18636.0, 18638.0, 18636.0, 18632.0, 18672.0, 18638.0, 18636.0, 18676.0, 18636.0, 18676.0, 18648.0, 18600.0, 18602.0, 18646.0, 18672.0, 18646.0, 18676.0, 18646.0, 18636.0, 18640.0, 18638.0, 18632.0, 18638.0, 18640.0, 18634.0, 18646.0, 18640.0, 18640.0, 18646.0, 18634.0, 18634.0, 18676.0, 18626.0, 18636.0, 18638.0, 18634.0, 18638.0, 18598.0, 18638.0, 18634.0, 18594.0, 18634.0, 18632.0, 18632.0, 18638.0, 18634.0, 18640.0, 18634.0, 18594.0, 18634.0, 18632.0, 18628.0, 18638.0, 18628.0, 18634.0, 18638.0, 18634.0, 18642.0, 18634.0, 18592.0, 18628.0, 18634.0, 18602.0, 18608.0, 18632.0, 18640.0, 18642.0, 18638.0, 18642.0, 18636.0, 18602.0, 18632.0, 18624.0, 18596.0, 18594.0, 18644.0, 18600.0, 18642.0, 18638.0, 18640.0, 18636.0, 18596.0, 18592.0, 18624.0, 18596.0, 18626.0, 18636.0, 18588.0, 18636.0, 18640.0, 18638.0, 18636.0, 18596.0, 18600.0, 18628.0, 18630.0, 18628.0, 18630.0, 18632.0, 18630.0, 18632.0, 18640.0, 18596.0, 18640.0, 18636.0, 18592.0, 18600.0, 18634.0, 18600.0, 18628.0, 18636.0, 18596.0, 18632.0, 18630.0, 18598.0, 18636.0, 18630.0, 18598.0, 18630.0, 18594.0, 18626.0, 18636.0, 18592.0, 18632.0, 18638.0, 18596.0, 18634.0, 18636.0, 18594.0, 18632.0, 18634.0, 18594.0, 18632.0, 18626.0, 18630.0, 18634.0, 18594.0, 18634.0, 18630.0, 18602.0, 18628.0, 18598.0, 18638.0, 18634.0, 18630.0, 18640.0, 18592.0, 18592.0, 18636.0, 18630.0, 18634.0, 18630.0, 18638.0, 18628.0, 18596.0, 18634.0]
    },
    "slices": {}
  }
}