{
  "AcquisitionMatrixPE": 104,
  "AcquisitionNumber": 1,
  "AcquisitionTime": "15:29:53.332500",
  "BandwidthPerPixelPhaseEncode": 17.17,
  "BaseResolution": 104,
  "BodyPartExamined": "BRAIN",
  "CoilString": "HC1-7;NC1_2",
  "ConsistencyInfo": "N4_VE11C_LATEST_20160120",
  "ConversionSoftware": "dcm2niix",
  "ConversionSoftwareVersion": "v1.0.20190902",
  "DerivedVendorReportedEchoSpacing": 0.000560011,
  "DeviceSerialNumber": "167006",
  "DwellTime": 2.1e-06,
  "EchoTime": 0.037,
  "EchoTrainLength": 104,
  "EffectiveEchoSpacing": 0.000560011,
  "FlipAngle": 52,
  "ImageComments": "Unaliased_MB4_PE3_LB",
  "ImageOrientationPatientDICOM": [0.998624, -0.0507277, 0.0132659, 0.0523357, 0.948868, -0.311305],
  "ImageType": [
    "ORIGINAL",
    "PRIMARY",
    "M",
    "MB",
    "ND",
    "MOSAIC"
],
  "ImagingFrequency": 123.259,
  "InPlanePhaseEncodingDirectionDICOM": "COL",
  "InstitutionAddress": "Chemin_Queen-Mary_4565_Montreal_District_CA_H3W_1W5",
  "InstitutionName": "IUGM",
  "InstitutionalDepartmentName": "Department",
  "MRAcquisitionType": "2D",
  "MagneticFieldStrength": 3,
  "Manufacturer": "Siemens",
  "ManufacturersModelName": "Prisma_fit",
  "Modality": "MR",
  "MultibandAccelerationFactor": 4,
  "PartialFourier": 1,
  "PatientPosition": "HFS",
  "PercentPhaseFOV": 100,
  "PhaseEncodingDirection": "j",
  "PhaseEncodingSteps": 104,
  "PhaseResolution": 1,
  "PixelBandwidth": 2290,
  "ProcedureStepDescription": "memory_things",
  "ProtocolName": "func_task-things_run-3",
  "PulseSequenceDetails": "%CustomerSeq%_cmrr_mbep2d_bold",
  "ReceiveCoilActiveElements": "HC1-7;NC1,2",
  "ReceiveCoilName": "HeadNeck_64",
  "ReconMatrixPE": 104,
  "RepetitionTime": 1.49,
  "SAR": 0.0728163,
  "ScanOptions": "FS",
  "ScanningSequence": "EP",
  "SequenceName": "epfid2d1_104",
  "SequenceVariant": "SK_SS",
  "SeriesDescription": "func_task-things_run-3",
  "SeriesNumber": 16,
  "ShimSetting": [628, -7256, -8807, 580, 0, -203, -26, 0],
  "SliceThickness": 2,
  "SliceTiming": [0, 0.7825, 0.0975, 0.88, 0.195, 0.9775, 0.2925, 1.0775, 0.39, 1.175, 0.4875, 1.2725, 0.5875, 1.37, 0.685, 0, 0.7825, 0.0975, 0.88, 0.195, 0.9775, 0.2925, 1.0775, 0.39, 1.175, 0.4875, 1.2725, 0.5875, 1.37, 0.685, 0, 0.7825, 0.0975, 0.88, 0.195, 0.9775, 0.2925, 1.0775, 0.39, 1.175, 0.4875, 1.2725, 0.5875, 1.37, 0.685, 0, 0.7825, 0.0975, 0.88, 0.195, 0.9775, 0.2925, 1.0775, 0.39, 1.175, 0.4875, 1.2725, 0.5875, 1.37, 0.685],
  "SoftwareVersions": "syngo_MR_E11",
  "SpacingBetweenSlices": 2,
  "StationName": "MRC35049",
  "TaskName": "things",
  "TotalReadoutTime": 0.0576811,
  "TxRefAmp": 293.067,
  "WipMemBlock": "4d481321-1754-43bc-b97a-e614cf92c63c||Sequence: R016 ve11c/master r/e634e98; Dec 19 2017 11:00:25 by eja",
  "dcmmeta_affine": [
    [-1.9972487688064575, 0.10467132180929184, -0.006408351473510265, 101.88348388671875],
    [0.10145546495914459, 1.897735595703125, -0.6231423616409302, -72.2363510131836],
    [0.0265318863093853, 0.6226102113723755, 1.9004348516464233, -58.92524719238281],
    [0.0, 0.0, 0.0, 1.0]
],
  "dcmmeta_reorient_transform": [
    [0.0, -1.0, 0.0, 103.0],
    [1.0, 0.0, 0.0, 0.0],
    [0.0, 0.0, 1.0, 0.0],
    [0.0, 0.0, 0.0, 1.0]
],
  "dcmmeta_shape": [104, 104, 60, 190],
  "dcmmeta_slice_dim": 2,
  "dcmmeta_version": 0.6,
  "global": {
    "const": {
      "AcquisitionMatrix": [104, 0, 0, 104],
      "AngioFlag": "N",
      "BitsAllocated": 16,
      "BitsStored": 16,
      "BodyPartExamined": "BRAIN",
      "Columns": 832,
      "EchoNumbers": 1,
      "EchoTime": 37.0,
      "EchoTrainLength": 104,
      "FlipAngle": 52.0,
      "HighBit": 15,
      "ImageOrientationPatient": [0.99862440989272, -0.0507277313194, 0.01326594292158, 0.05233565920793, 0.94886780404345, -0.3113051063266],
      "ImagePositionPatient": [-877.76356173247, -777.07639304548, 222.17611683568],
      "ImageType": [
        "ORIGINAL",
        "PRIMARY",
        "M",
        "MB",
        "ND",
        "MOSAIC"
],
      "ImagedNucleus": "1H",
      "ImagingFrequency": 123.258924,
      "InPlanePhaseEncodingDirection": "COL",
      "MRAcquisitionType": "2D",
      "MagneticFieldStrength": 3.0,
      "Manufacturer": "SIEMENS",
      "ManufacturerModelName": "Prisma_fit",
      "Modality": "MR",
      "NumberOfAverages": 1.0,
      "NumberOfPhaseEncodingSteps": 104,
      "PercentPhaseFieldOfView": 100.0,
      "PercentSampling": 100.0,
      "PerformedProcedureStepStartTime": "145655.529000",
      "PhotometricInterpretation": "MONOCHROME2",
      "PixelBandwidth": 2290.0,
      "PixelRepresentation": 0,
      "PixelSpacing": [2.0, 2.0],
      "ProtocolName": "func_task-things_run-3",
      "RepetitionTime": 1490.0,
      "Rows": 832,
      "SAR": 0.07281633294717,
      "SamplesPerPixel": 1,
      "ScanOptions": "FS",
      "ScanningSequence": "EP",
      "SequenceName": "epfid2d1_104",
      "SequenceVariant": [
        "SK",
        "SS"
],
      "SeriesDescription": "func_task-things_run-3",
      "SeriesNumber": 16,
      "SeriesTime": "153106.972000",
      "SliceLocation": -33.811485253341,
      "SliceThickness": 2.0,
      "SmallestImagePixelValue": 0,
      "SoftwareVersions": "syngo MR E11",
      "SpacingBetweenSlices": 2.0000000406114,
      "SpecificCharacterSet": "ISO_IR 100",
      "StudyID": "1",
      "StudyTime": "145655.451000",
      "TransmitCoilName": "Body",
      "VariableFlipAngleFlag": "N",
      "WindowCenterWidthExplanation": "Algo1",
      "dBdt": 0.0},
    "slices": {}
  },
  "time": {
    "samples": {
      "AcquisitionNumber": [1, 2, 3, 4, 5, 6, 7, 8, 9, 10, 11, 12, 13, 14, 15, 16, 17, 18, 19, 20, 21, 22, 23, 24, 25, 26, 27, 28, 29, 30, 31, 32, 33, 34, 35, 36, 37, 38, 39, 40, 41, 42, 43, 44, 45, 46, 47, 48, 49, 50, 51, 52, 53, 54, 55, 56, 57, 58, 59, 60, 61, 62, 63, 64, 65, 66, 67, 68, 69, 70, 71, 72, 73, 74, 75, 76, 77, 78, 79, 80, 81, 82, 83, 84, 85, 86, 87, 88, 89, 90, 91, 92, 93, 94, 95, 96, 97, 98, 99, 100, 101, 102, 103, 104, 105, 106, 107, 108, 109, 110, 111, 112, 113, 114, 115, 116, 117, 118, 119, 120, 121, 122, 123, 124, 125, 126, 127, 128, 129, 130, 131, 132, 133, 134, 135, 136, 137, 138, 139, 140, 141, 142, 143, 144, 145, 146, 147, 148, 149, 150, 151, 152, 153, 154, 155, 156, 157, 158, 159, 160, 161, 162, 163, 164, 165, 166, 167, 168, 169, 170, 171, 172, 173, 174, 175, 176, 177, 178, 179, 180, 181, 182, 183, 184, 185, 186, 187, 188, 189, 190],
      "AcquisitionTime": ["152953.332500", "152954.822500", "152956.312500", "152957.802500", "152959.292500", "153000.782500", "153002.272500", "153003.762500", "153005.252500", "153006.742500", "153008.232500", "153009.722500", "153011.212500", "153012.702500", "153014.192500", "153015.682500", "153017.172500", "153018.662500", "153020.152500", "153021.642500", "153023.132500", "153024.622500", "153026.112500", "153027.602500", "153029.092500", "153030.582500", "153032.072500", "153033.562500", "153035.052500", "153036.542500", "153038.032500", "153039.522500", "153041.012500", "153042.502500", "153043.992500", "153045.482500", "153046.972500", "153048.462500", "153049.952500", "153051.442500", "153052.932500", "153054.422500", "153055.912500", "153057.402500", "153058.892500", "153100.382500", "153101.872500", "153103.362500", "153104.852500", "153106.342500", "153107.832500", "153109.322500", "153110.812500", "153112.302500", "153113.792500", "153115.282500", "153116.772500", "153118.262500", "153119.752500", "153121.242500", "153122.732500", "153124.222500", "153125.712500", "153127.202500", "153128.692500", "153130.182500", "153131.672500", "153133.162500", "153134.652500", "153136.142500", "153137.632500", "153139.122500", "153140.612500", "153142.102500", "153143.592500", "153145.082500", "153146.572500", "153148.062500", "153149.552500", "153151.042500", "153152.532500", "153154.022500", "153155.512500", "153157.002500", "153158.492500", "153159.982500", "153201.472500", "153202.962500", "153204.452500", "153205.942500", "153207.432500", "153208.922500", "153210.412500", "153211.902500", "153213.392500", "153214.882500", "153216.372500", "153217.862500", "153219.352500", "153220.842500", "153222.332500", "153223.822500", "153225.312500", "153226.802500", "153228.292500", "153229.782500", "153231.272500", "153232.762500", "153234.252500", "153235.742500", "153237.232500", "153238.722500", "153240.212500", "153241.702500", "153243.192500", "153244.682500", "153246.172500", "153247.662500", "153249.152500", "153250.642500", "153252.132500", "153253.622500", "153255.112500", "153256.602500", "153258.092500", "153259.582500", "153301.072500", "153302.562500", "153304.052500", "153305.542500", "153307.032500", "153308.522500", "153310.012500", "153311.502500", "153312.992500", "153314.482500", "153315.972500", "153317.462500", "153318.952500", "153320.442500", "153321.932500", "153323.422500", "153324.912500", "153326.402500", "153327.892500", "153329.382500", "153330.872500", "153332.362500", "153333.852500", "153335.342500", "153336.832500", "153338.322500", "153339.812500", "153341.302500", "153342.792500", "153344.282500", "153345.772500", "153347.262500", "153348.752500", "153350.242500", "153351.732500", "153353.222500", "153354.712500", "153356.202500", "153357.692500", "153359.182500", "153400.672500", "153402.162500", "153403.652500", "153405.142500", "153406.632500", "153408.122500", "153409.612500", "153411.102500", "153412.592500", "153414.082500", "153415.572500", "153417.062500", "153418.552500", "153420.042500", "153421.532500", "153423.022500", "153424.512500", "153426.002500", "153427.492500", "153428.982500", "153430.472500", "153431.962500", "153433.452500", "153434.942500"],
      "ContentTime": ["153106.975000", "153106.979000", "153106.982000", "153106.986000", "153106.989000", "153106.992000", "153106.996000", "153106.999000", "153107.003000", "153107.006000", "153107.009000", "153107.013000", "153107.016000", "153107.019000", "153107.030000", "153107.033000", "153107.036000", "153107.040000", "153107.043000", "153107.046000", "153107.050000", "153126.916000", "153126.920000", "153126.923000", "153126.931000", "153126.935000", "153126.938000", "153126.942000", "153126.954000", "153126.957000", "153126.961000", "153126.964000", "153126.968000", "153126.982000", "153126.985000", "153126.988000", "153126.992000", "153126.995000", "153126.999000", "153127.002000", "153127.006000", "153146.917000", "153146.921000", "153146.924000", "153146.928000", "153146.931000", "153146.934000", "153146.938000", "153146.941000", "153146.945000", "153146.948000", "153146.952000", "153146.955000", "153146.958000", "153146.962000", "153146.965000", "153146.968000", "153146.972000", "153146.975000", "153146.978000", "153146.982000", "153206.917000", "153206.921000", "153206.924000", "153206.928000", "153206.931000", "153206.935000", "153206.938000", "153206.941000", "153206.945000", "153206.948000", "153206.952000", "153206.955000", "153206.958000", "153206.962000", "153206.965000", "153206.968000", "153206.972000", "153206.975000", "153206.980000", "153206.983000", "153226.917000", "153226.921000", "153226.931000", "153226.935000", "153226.938000", "153226.941000", "153226.945000", "153226.948000", "153226.952000", "153226.955000", "153226.959000", "153226.962000", "153226.965000", "153226.969000", "153226.972000", "153226.982000", "153226.985000", "153226.988000", "153226.992000", "153226.995000", "153306.916000", "153306.920000", "153306.924000", "153306.927000", "153306.930000", "153306.934000", "153306.937000", "153306.940000", "153306.944000", "153306.947000", "153306.950000", "153306.954000", "153306.957000", "153306.960000", "153306.964000", "153306.967000", "153306.971000", "153306.974000", "153306.978000", "153306.981000", "153306.985000", "153306.988000", "153306.992000", "153306.995000", "153306.998000", "153307.003000", "153307.007000", "153307.010000", "153346.916000", "153346.920000", "153346.924000", "153346.927000", "153346.935000", "153346.939000", "153346.942000", "153346.946000", "153346.949000", "153346.953000", "153346.956000", "153346.960000", "153346.963000", "153346.966000", "153346.970000", "153346.973000", "153346.977000", "153346.980000", "153346.983000", "153346.987000", "153346.990000", "153346.994000", "153346.997000", "153347.002000", "153347.005000", "153347.008000", "153347.012000", "153426.917000", "153426.921000", "153426.924000", "153426.928000", "153426.931000", "153426.935000", "153426.938000", "153426.942000", "153426.945000", "153426.948000", "153426.952000", "153426.955000", "153426.958000", "153426.962000", "153426.965000", "153426.969000", "153426.972000", "153426.976000", "153426.979000", "153426.982000", "153426.986000", "153426.989000", "153426.992000", "153426.996000", "153426.999000", "153427.003000", "153427.006000", "153436.622000", "153436.626000", "153436.629000", "153436.633000", "153436.636000", "153436.640000", "153436.644000"],
      "InstanceCreationTime": ["153106.975000", "153106.979000", "153106.982000", "153106.986000", "153106.989000", "153106.992000", "153106.996000", "153106.999000", "153107.003000", "153107.006000", "153107.009000", "153107.013000", "153107.016000", "153107.019000", "153107.030000", "153107.033000", "153107.036000", "153107.040000", "153107.043000", "153107.046000", "153107.050000", "153126.916000", "153126.920000", "153126.923000", "153126.931000", "153126.935000", "153126.938000", "153126.942000", "153126.954000", "153126.957000", "153126.961000", "153126.964000", "153126.968000", "153126.982000", "153126.985000", "153126.988000", "153126.992000", "153126.995000", "153126.999000", "153127.002000", "153127.006000", "153146.917000", "153146.921000", "153146.924000", "153146.928000", "153146.931000", "153146.934000", "153146.938000", "153146.941000", "153146.945000", "153146.948000", "153146.952000", "153146.955000", "153146.958000", "153146.962000", "153146.965000", "153146.968000", "153146.972000", "153146.975000", "153146.978000", "153146.982000", "153206.917000", "153206.921000", "153206.924000", "153206.928000", "153206.931000", "153206.935000", "153206.938000", "153206.941000", "153206.945000", "153206.948000", "153206.952000", "153206.955000", "153206.958000", "153206.962000", "153206.965000", "153206.968000", "153206.972000", "153206.975000", "153206.980000", "153206.983000", "153226.917000", "153226.921000", "153226.931000", "153226.935000", "153226.938000", "153226.941000", "153226.945000", "153226.948000", "153226.952000", "153226.955000", "153226.959000", "153226.962000", "153226.965000", "153226.969000", "153226.972000", "153226.982000", "153226.985000", "153226.988000", "153226.992000", "153226.995000", "153306.916000", "153306.920000", "153306.924000", "153306.927000", "153306.930000", "153306.934000", "153306.937000", "153306.940000", "153306.944000", "153306.947000", "153306.950000", "153306.954000", "153306.957000", "153306.960000", "153306.964000", "153306.967000", "153306.971000", "153306.974000", "153306.978000", "153306.981000", "153306.985000", "153306.988000", "153306.992000", "153306.995000", "153306.998000", "153307.003000", "153307.007000", "153307.010000", "153346.916000", "153346.920000", "153346.924000", "153346.927000", "153346.935000", "153346.939000", "153346.942000", "153346.946000", "153346.949000", "153346.953000", "153346.956000", "153346.960000", "153346.963000", "153346.966000", "153346.970000", "153346.973000", "153346.977000", "153346.980000", "153346.983000", "153346.987000", "153346.990000", "153346.994000", "153346.997000", "153347.002000", "153347.005000", "153347.008000", "153347.012000", "153426.917000", "153426.921000", "153426.924000", "153426.928000", "153426.931000", "153426.935000", "153426.938000", "153426.942000", "153426.945000", "153426.948000", "153426.952000", "153426.955000", "153426.958000", "153426.962000", "153426.965000", "153426.969000", "153426.972000", "153426.976000", "153426.979000", "153426.982000", "153426.986000", "153426.989000", "153426.992000", "153426.996000", "153426.999000", "153427.003000", "153427.006000", "153436.622000", "153436.626000", "153436.629000", "153436.633000", "153436.636000", "153436.640000", "153436.644000"],
      "InstanceNumber": [1, 2, 3, 4, 5, 6, 7, 8, 9, 10, 11, 12, 13, 14, 15, 16, 17, 18, 19, 20, 21, 22, 23, 24, 25, 26, 27, 28, 29, 30, 31, 32, 33, 34, 35, 36, 37, 38, 39, 40, 41, 42, 43, 44, 45, 46, 47, 48, 49, 50, 51, 52, 53, 54, 55, 56, 57, 58, 59, 60, 61, 62, 63, 64, 65, 66, 67, 68, 69, 70, 71, 72, 73, 74, 75, 76, 77, 78, 79, 80, 81, 82, 83, 84, 85, 86, 87, 88, 89, 90, 91, 92, 93, 94, 95, 96, 97, 98, 99, 100, 101, 102, 103, 104, 105, 106, 107, 108, 109, 110, 111, 112, 113, 114, 115, 116, 117, 118, 119, 120, 121, 122, 123, 124, 125, 126, 127, 128, 129, 130, 131, 132, 133, 134, 135, 136, 137, 138, 139, 140, 141, 142, 143, 144, 145, 146, 147, 148, 149, 150, 151, 152, 153, 154, 155, 156, 157, 158, 159, 160, 161, 162, 163, 164, 165, 166, 167, 168, 169, 170, 171, 172, 173, 174, 175, 176, 177, 178, 179, 180, 181, 182, 183, 184, 185, 186, 187, 188, 189, 190],
      "LargestImagePixelValue": [45717, 44552, 43249, 40884, 40067, 40992, 41254, 41236, 41605, 41720, 41489, 40412, 41544, 40850, 40742, 41836, 40986, 41430, 42174, 41883, 41646, 41790, 41864, 42025, 41303, 40954, 41226, 41320, 41509, 41936, 41951, 41808, 41774, 41956, 40461, 41149, 40829, 41555, 41492, 41558, 40771, 41739, 40983, 41620, 41245, 41493, 42068, 41119, 41747, 40531, 41375, 41399, 40680, 40859, 41160, 40362, 41492, 41642, 41134, 41798, 41872, 40628, 41287, 41297, 40516, 41172, 39575, 40366, 40840, 39968, 40063, 40665, 40234, 41691, 40213, 41330, 40712, 41489, 41487, 40974, 41434, 40187, 41409, 40098, 41366, 40835, 40895, 41289, 41614, 40799, 42040, 41045, 41032, 41529, 41189, 41260, 40763, 41126, 41774, 41690, 41293, 40914, 40722, 39799, 39937, 39758, 40055, 40748, 39817, 41130, 40510, 41561, 40993, 39839, 41216, 40249, 40867, 41353, 41140, 41481, 41917, 41281, 41528, 40544, 41533, 40973, 40946, 41315, 39779, 41738, 40735, 41259, 41633, 40781, 41723, 41211, 41785, 41119, 41384, 41766, 41259, 41918, 41509, 41232, 41648, 41551, 41386, 41863, 41155, 41583, 40702, 40788, 41141, 41287, 41730, 39625, 40304, 41314, 40650, 41068, 41013, 40259, 40914, 40943, 40951, 41200, 40455, 41541, 41351, 41014, 41682, 41114, 41534, 40323, 41775, 41573, 41202, 41169, 40954, 40987, 40502, 40801, 41619, 40884, 41705, 40787, 41216, 41125, 40403, 41600],
      "WindowCenter": [10363.0, 10301.0, 10296.0, 10282.0, 10246.0, 10245.0, 10234.0, 10225.0, 10224.0, 10209.0, 10198.0, 10190.0, 10208.0, 10215.0, 10228.0, 10253.0, 10237.0, 10244.0, 10254.0, 10254.0, 10257.0, 10272.0, 10272.0, 10273.0, 10265.0, 10251.0, 10256.0, 10261.0, 10275.0, 10267.0, 10257.0, 10254.0, 10254.0, 10260.0, 10246.0, 10257.0, 10245.0, 10245.0, 10248.0, 10254.0, 10250.0, 10260.0, 10236.0, 10245.0, 10248.0, 10247.0, 10245.0, 10233.0, 10243.0, 10233.0, 10236.0, 10235.0, 10229.0, 10246.0, 10246.0, 10229.0, 10244.0, 10230.0, 10216.0, 10232.0, 10241.0, 10240.0, 10249.0, 10231.0, 10210.0, 10213.0, 10204.0, 10209.0, 10220.0, 10209.0, 10217.0, 10223.0, 10217.0, 10222.0, 10210.0, 10220.0, 10209.0, 10226.0, 10228.0, 10216.0, 10227.0, 10217.0, 10228.0, 10225.0, 10237.0, 10240.0, 10238.0, 10232.0, 10229.0, 10225.0, 10244.0, 10238.0, 10234.0, 10238.0, 10231.0, 10229.0, 10223.0, 10237.0, 10244.0, 10229.0, 10228.0, 10221.0, 10229.0, 10234.0, 10234.0, 10214.0, 10209.0, 10220.0, 10202.0, 10203.0, 10190.0, 10193.0, 10196.0, 10204.0, 10235.0, 10218.0, 10216.0, 10222.0, 10229.0, 10245.0, 10253.0, 10248.0, 10247.0, 10228.0, 10232.0, 10224.0, 10231.0, 10244.0, 10238.0, 10269.0, 10252.0, 10254.0, 10246.0, 10227.0, 10230.0, 10223.0, 10234.0, 10225.0, 10223.0, 10230.0, 10225.0, 10242.0, 10239.0, 10241.0, 10246.0, 10233.0, 10242.0, 10256.0, 10249.0, 10247.0, 10226.0, 10226.0, 10230.0, 10246.0, 10270.0, 10256.0, 10242.0, 10242.0, 10217.0, 10196.0, 10178.0, 10164.0, 10176.0, 10185.0, 10210.0, 10224.0, 10216.0, 10233.0, 10235.0, 10237.0, 10242.0, 10234.0, 10246.0, 10263.0, 10291.0, 10286.0, 10248.0, 10223.0, 10199.0, 10210.0, 10203.0, 10210.0, 10222.0, 10220.0, 10225.0, 10216.0, 10225.0, 10233.0, 10225.0, 10246.0],
      "WindowWidth": [22366.0, 22188.0, 22154.0, 22122.0, 22037.0, 22017.0, 21990.0, 21969.0, 21964.0, 21930.0, 21903.0, 21895.0, 21931.0, 21947.0, 21981.0, 22029.0, 22000.0, 22012.0, 22031.0, 22027.0, 22036.0, 22070.0, 22069.0, 22075.0, 22056.0, 22028.0, 22039.0, 22049.0, 22077.0, 22060.0, 22039.0, 22030.0, 22031.0, 22044.0, 22019.0, 22039.0, 22018.0, 22011.0, 22021.0, 22035.0, 22028.0, 22045.0, 21996.0, 22012.0, 22022.0, 22018.0, 22013.0, 21987.0, 22008.0, 21990.0, 21992.0, 21992.0, 21978.0, 22016.0, 22017.0, 21984.0, 22009.0, 21982.0, 21952.0, 21983.0, 22005.0, 22007.0, 22027.0, 21986.0, 21939.0, 21944.0, 21934.0, 21942.0, 21962.0, 21938.0, 21958.0, 21969.0, 21959.0, 21968.0, 21944.0, 21961.0, 21942.0, 21974.0, 21979.0, 21956.0, 21975.0, 21957.0, 21980.0, 21976.0, 22000.0, 22009.0, 22004.0, 21990.0, 21980.0, 21973.0, 22013.0, 22001.0, 21994.0, 22002.0, 21987.0, 21983.0, 21971.0, 21999.0, 22013.0, 21978.0, 21976.0, 21961.0, 21984.0, 22000.0, 21998.0, 21958.0, 21940.0, 21959.0, 21927.0, 21923.0, 21895.0, 21898.0, 21908.0, 21931.0, 21996.0, 21961.0, 21954.0, 21968.0, 21984.0, 22018.0, 22035.0, 22022.0, 22020.0, 21983.0, 21987.0, 21974.0, 21989.0, 22016.0, 22008.0, 22070.0, 22036.0, 22036.0, 22020.0, 21979.0, 21983.0, 21970.0, 21990.0, 21975.0, 21968.0, 21984.0, 21975.0, 22009.0, 22005.0, 22010.0, 22018.0, 21990.0, 22012.0, 22041.0, 22027.0, 22021.0, 21977.0, 21977.0, 21984.0, 22021.0, 22074.0, 22054.0, 22019.0, 22013.0, 21962.0, 21907.0, 21866.0, 21837.0, 21862.0, 21885.0, 21941.0, 21969.0, 21957.0, 21991.0, 21995.0, 22001.0, 22011.0, 21992.0, 22021.0, 22066.0, 22124.0, 22109.0, 22027.0, 21970.0, 21918.0, 21939.0, 21925.0, 21941.0, 21966.0, 21965.0, 21972.0, 21955.0, 21973.0, 21993.0, 21978.0, 22013.0]
    },
    "slices": {}
  }
}