{
  "AcquisitionMatrixPE": 104,
  "AcquisitionNumber": 1,
  "AcquisitionTime": "15:36:4.710000",
  "BandwidthPerPixelPhaseEncode": 17.17,
  "BaseResolution": 104,
  "BodyPartExamined": "BRAIN",
  "CoilString": "HC1-7;NC1_2",
  "ConsistencyInfo": "N4_VE11C_LATEST_20160120",
  "ConversionSoftware": "dcm2niix",
  "ConversionSoftwareVersion": "v1.0.20190902",
  "DerivedVendorReportedEchoSpacing": 0.000560011,
  "DeviceSerialNumber": "167006",
  "DwellTime": 2.1e-06,
  "EchoTime": 0.037,
  "EchoTrainLength": 104,
  "EffectiveEchoSpacing": 0.000560011,
  "FlipAngle": 52,
  "ImageComments": "Unaliased_MB4_PE3_LB",
  "ImageOrientationPatientDICOM": [0.998624, -0.0507277, 0.0132659, 0.0523357, 0.948868, -0.311305],
  "ImageType": [
    "ORIGINAL",
    "PRIMARY",
    "P",
    "MB",
    "ND",
    "MOSAIC"
],
  "ImagingFrequency": 123.259,
  "InPlanePhaseEncodingDirectionDICOM": "COL",
  "InstitutionAddress": "Chemin_Queen-Mary_4565_Montreal_District_CA_H3W_1W5",
  "InstitutionName": "IUGM",
  "InstitutionalDepartmentName": "Department",
  "MRAcquisitionType": "2D",
  "MagneticFieldStrength": 3,
  "Manufacturer": "Siemens",
  "ManufacturersModelName": "Prisma_fit",
  "Modality": "MR",
  "MultibandAccelerationFactor": 4,
  "PartialFourier": 1,
  "PatientPosition": "HFS",
  "PercentPhaseFOV": 100,
  "PhaseEncodingDirection": "j",
  "PhaseEncodingSteps": 104,
  "PhaseResolution": 1,
  "PixelBandwidth": 2290,
  "ProcedureStepDescription": "memory_things",
  "ProtocolName": "func_task-things_run-4",
  "PulseSequenceDetails": "%CustomerSeq%_cmrr_mbep2d_bold",
  "ReceiveCoilActiveElements": "HC1-7;NC1,2",
  "ReceiveCoilName": "HeadNeck_64",
  "ReconMatrixPE": 104,
  "RepetitionTime": 1.49,
  "SAR": 0.0728163,
  "ScanOptions": "FS",
  "ScanningSequence": "EP",
  "SequenceName": "epfid2d1_104",
  "SequenceVariant": "SK_SS",
  "SeriesDescription": "func_task-things_run-4",
  "SeriesNumber": 20,
  "ShimSetting": [628, -7256, -8807, 580, 0, -203, -26, 0],
  "SliceThickness": 2,
  "SliceTiming": [0, 0.785, 0.1, 0.8825, 0.1975, 0.98, 0.295, 1.08, 0.3925, 1.1775, 0.49, 1.275, 0.59, 1.3725, 0.6875, 0, 0.785, 0.1, 0.8825, 0.1975, 0.98, 0.295, 1.08, 0.3925, 1.1775, 0.49, 1.275, 0.59, 1.3725, 0.6875, 0, 0.785, 0.1, 0.8825, 0.1975, 0.98, 0.295, 1.08, 0.3925, 1.1775, 0.49, 1.275, 0.59, 1.3725, 0.6875, 0, 0.785, 0.1, 0.8825, 0.1975, 0.98, 0.295, 1.08, 0.3925, 1.1775, 0.49, 1.275, 0.59, 1.3725, 0.6875],
  "SoftwareVersions": "syngo_MR_E11",
  "SpacingBetweenSlices": 2,
  "StationName": "MRC35049",
  "TaskName": "things",
  "TotalReadoutTime": 0.0576811,
  "TxRefAmp": 293.067,
  "WipMemBlock": "ec888efe-0620-46da-a7f2-16c01f7667a7||Sequence: R016 ve11c/master r/e634e98; Dec 19 2017 11:00:25 by eja",
  "dcmmeta_affine": [
    [-1.9972487688064575, 0.10467132180929184, -0.006408351473510265, 101.88348388671875],
    [0.10145546495914459, 1.897735595703125, -0.6231423616409302, -72.2363510131836],
    [0.0265318863093853, 0.6226102113723755, 1.9004348516464233, -58.92524719238281],
    [0.0, 0.0, 0.0, 1.0]
],
  "dcmmeta_reorient_transform": [
    [0.0, -1.0, 0.0, 103.0],
    [1.0, 0.0, 0.0, 0.0],
    [0.0, 0.0, 1.0, 0.0],
    [0.0, 0.0, 0.0, 1.0]
],
  "dcmmeta_shape": [104, 104, 60, 190],
  "dcmmeta_slice_dim": 2,
  "dcmmeta_version": 0.6,
  "global": {
    "const": {
      "AcquisitionMatrix": [104, 0, 0, 104],
      "AngioFlag": "N",
      "BitsAllocated": 16,
      "BitsStored": 16,
      "BodyPartExamined": "BRAIN",
      "Columns": 832,
      "EchoNumbers": 1,
      "EchoTime": 37.0,
      "EchoTrainLength": 104,
      "FlipAngle": 52.0,
      "HighBit": 15,
      "ImageOrientationPatient": [0.99862440989272, -0.0507277313194, 0.01326594292158, 0.05233565920793, 0.94886780404345, -0.3113051063266],
      "ImagePositionPatient": [-877.76356173247, -777.07639304548, 222.17611683568],
      "ImageType": [
        "ORIGINAL",
        "PRIMARY",
        "P",
        "MB",
        "ND",
        "MOSAIC"
],
      "ImagedNucleus": "1H",
      "ImagingFrequency": 123.258928,
      "InPlanePhaseEncodingDirection": "COL",
      "LargestImagePixelValue": 4095,
      "MRAcquisitionType": "2D",
      "MagneticFieldStrength": 3.0,
      "Manufacturer": "SIEMENS",
      "ManufacturerModelName": "Prisma_fit",
      "Modality": "MR",
      "NumberOfAverages": 1.0,
      "NumberOfPhaseEncodingSteps": 104,
      "PercentPhaseFieldOfView": 100.0,
      "PercentSampling": 100.0,
      "PerformedProcedureStepStartTime": "145655.529000",
      "PhotometricInterpretation": "MONOCHROME2",
      "PixelBandwidth": 2290.0,
      "PixelRepresentation": 0,
      "PixelSpacing": [2.0, 2.0],
      "ProtocolName": "func_task-things_run-4",
      "RepetitionTime": 1490.0,
      "RescaleIntercept": -4096.0,
      "RescaleSlope": 2.0,
      "RescaleType": "US",
      "Rows": 832,
      "SAR": 0.07281633294717,
      "SamplesPerPixel": 1,
      "ScanOptions": "FS",
      "ScanningSequence": "EP",
      "SequenceName": "epfid2d1_104",
      "SequenceVariant": [
        "SK",
        "SS"
],
      "SeriesDescription": "func_task-things_run-4",
      "SeriesNumber": 20,
      "SeriesTime": "153722.101000",
      "SliceLocation": -33.811485253341,
      "SliceThickness": 2.0,
      "SmallestImagePixelValue": 0,
      "SoftwareVersions": "syngo MR E11",
      "SpacingBetweenSlices": 2.0000000406114,
      "SpecificCharacterSet": "ISO_IR 100",
      "StudyID": "1",
      "StudyTime": "145655.451000",
      "TransmitCoilName": "Body",
      "VariableFlipAngleFlag": "N",
      "WindowCenterWidthExplanation": "Algo1",
      "dBdt": 0.0},
    "slices": {}
  },
  "time": {
    "samples": {
      "AcquisitionNumber": [1, 2, 3, 4, 5, 6, 7, 8, 9, 10, 11, 12, 13, 14, 15, 16, 17, 18, 19, 20, 21, 22, 23, 24, 25, 26, 27, 28, 29, 30, 31, 32, 33, 34, 35, 36, 37, 38, 39, 40, 41, 42, 43, 44, 45, 46, 47, 48, 49, 50, 51, 52, 53, 54, 55, 56, 57, 58, 59, 60, 61, 62, 63, 64, 65, 66, 67, 68, 69, 70, 71, 72, 73, 74, 75, 76, 77, 78, 79, 80, 81, 82, 83, 84, 85, 86, 87, 88, 89, 90, 91, 92, 93, 94, 95, 96, 97, 98, 99, 100, 101, 102, 103, 104, 105, 106, 107, 108, 109, 110, 111, 112, 113, 114, 115, 116, 117, 118, 119, 120, 121, 122, 123, 124, 125, 126, 127, 128, 129, 130, 131, 132, 133, 134, 135, 136, 137, 138, 139, 140, 141, 142, 143, 144, 145, 146, 147, 148, 149, 150, 151, 152, 153, 154, 155, 156, 157, 158, 159, 160, 161, 162, 163, 164, 165, 166, 167, 168, 169, 170, 171, 172, 173, 174, 175, 176, 177, 178, 179, 180, 181, 182, 183, 184, 185, 186, 187, 188, 189, 190],
      "AcquisitionTime": ["153604.710000", "153606.200000", "153607.690000", "153609.180000", "153610.670000", "153612.160000", "153613.650000", "153615.140000", "153616.630000", "153618.120000", "153619.610000", "153621.100000", "153622.590000", "153624.080000", "153625.570000", "153627.060000", "153628.550000", "153630.040000", "153631.530000", "153633.020000", "153634.510000", "153636.000000", "153637.490000", "153638.980000", "153640.470000", "153641.960000", "153643.450000", "153644.940000", "153646.430000", "153647.920000", "153649.410000", "153650.900000", "153652.390000", "153653.880000", "153655.370000", "153656.860000", "153658.350000", "153659.840000", "153701.330000", "153702.820000", "153704.310000", "153705.800000", "153707.290000", "153708.780000", "153710.270000", "153711.760000", "153713.250000", "153714.740000", "153716.230000", "153717.720000", "153719.210000", "153720.700000", "153722.190000", "153723.680000", "153725.170000", "153726.660000", "153728.150000", "153729.640000", "153731.130000", "153732.620000", "153734.110000", "153735.600000", "153737.090000", "153738.580000", "153740.070000", "153741.560000", "153743.050000", "153744.540000", "153746.030000", "153747.520000", "153749.010000", "153750.500000", "153751.990000", "153753.480000", "153754.970000", "153756.460000", "153757.950000", "153759.440000", "153800.930000", "153802.420000", "153803.910000", "153805.400000", "153806.890000", "153808.380000", "153809.870000", "153811.360000", "153812.850000", "153814.340000", "153815.830000", "153817.320000", "153818.810000", "153820.300000", "153821.790000", "153823.280000", "153824.770000", "153826.260000", "153827.750000", "153829.240000", "153830.730000", "153832.220000", "153833.710000", "153835.200000", "153836.690000", "153838.180000", "153839.670000", "153841.160000", "153842.650000", "153844.140000", "153845.630000", "153847.120000", "153848.610000", "153850.100000", "153851.590000", "153853.080000", "153854.570000", "153856.060000", "153857.550000", "153859.040000", "153900.530000", "153902.020000", "153903.510000", "153905.000000", "153906.490000", "153907.980000", "153909.470000", "153910.960000", "153912.450000", "153913.940000", "153915.430000", "153916.920000", "153918.410000", "153919.900000", "153921.390000", "153922.880000", "153924.370000", "153925.860000", "153927.350000", "153928.840000", "153930.330000", "153931.820000", "153933.310000", "153934.800000", "153936.290000", "153937.780000", "153939.270000", "153940.760000", "153942.250000", "153943.740000", "153945.230000", "153946.720000", "153948.210000", "153949.700000", "153951.190000", "153952.680000", "153954.170000", "153955.660000", "153957.150000", "153958.640000", "154000.130000", "154001.620000", "154003.110000", "154004.600000", "154006.090000", "154007.580000", "154009.070000", "154010.560000", "154012.050000", "154013.540000", "154015.030000", "154016.520000", "154018.010000", "154019.500000", "154020.990000", "154022.480000", "154023.970000", "154025.460000", "154026.950000", "154028.440000", "154029.930000", "154031.420000", "154032.910000", "154034.400000", "154035.890000", "154037.380000", "154038.870000", "154040.360000", "154041.850000", "154043.340000", "154044.830000", "154046.320000"],
      "ContentTime": ["153722.103000", "153722.106000", "153722.108000", "153722.111000", "153722.113000", "153722.116000", "153722.118000", "153722.121000", "153722.124000", "153722.126000", "153722.129000", "153722.131000", "153722.134000", "153722.136000", "153722.139000", "153722.141000", "153722.152000", "153722.155000", "153722.157000", "153722.160000", "153722.168000", "153722.171000", "153722.173000", "153722.176000", "153741.981000", "153741.984000", "153741.986000", "153741.989000", "153741.991000", "153741.994000", "153741.996000", "153742.000000", "153742.002000", "153742.005000", "153742.008000", "153742.010000", "153742.013000", "153742.015000", "153742.018000", "153742.020000", "153742.028000", "153742.030000", "153742.033000", "153742.035000", "153801.991000", "153801.994000", "153801.997000", "153802.000000", "153802.003000", "153802.013000", "153802.016000", "153802.018000", "153802.021000", "153802.024000", "153802.026000", "153802.029000", "153802.031000", "153802.034000", "153802.037000", "153802.039000", "153802.042000", "153802.044000", "153802.047000", "153802.050000", "153821.990000", "153821.993000", "153821.996000", "153821.998000", "153822.001000", "153822.003000", "153822.006000", "153822.009000", "153822.011000", "153822.014000", "153822.016000", "153822.019000", "153822.028000", "153822.030000", "153822.033000", "153822.036000", "153822.038000", "153822.041000", "153822.043000", "153822.046000", "153841.989000", "153841.992000", "153841.995000", "153842.001000", "153842.004000", "153842.007000", "153842.019000", "153842.022000", "153842.024000", "153842.027000", "153842.029000", "153842.032000", "153842.035000", "153842.037000", "153842.040000", "153842.042000", "153842.045000", "153842.047000", "153842.050000", "153842.052000", "153922.033000", "153922.036000", "153922.038000", "153922.041000", "153922.043000", "153922.046000", "153922.048000", "153922.051000", "153922.054000", "153922.056000", "153922.059000", "153922.062000", "153922.064000", "153922.067000", "153922.069000", "153922.076000", "153922.079000", "153922.081000", "153922.084000", "153922.087000", "153922.089000", "153922.092000", "153922.094000", "153922.097000", "153922.099000", "153922.102000", "153922.105000", "154002.023000", "154002.025000", "154002.028000", "154002.030000", "154002.033000", "154002.036000", "154002.038000", "154002.041000", "154002.043000", "154002.055000", "154002.057000", "154002.060000", "154002.062000", "154002.065000", "154002.067000", "154002.070000", "154002.072000", "154002.075000", "154002.078000", "154002.080000", "154002.083000", "154002.085000", "154002.088000", "154002.090000", "154002.093000", "154002.096000", "154002.098000", "154042.030000", "154042.033000", "154042.035000", "154042.038000", "154042.040000", "154042.051000", "154042.053000", "154042.056000", "154042.058000", "154042.061000", "154042.064000", "154042.066000", "154042.069000", "154042.071000", "154042.074000", "154042.077000", "154042.079000", "154042.082000", "154042.085000", "154042.087000", "154042.090000", "154042.092000", "154042.095000", "154042.097000", "154042.100000", "154042.102000", "154042.105000", "154048.573000", "154048.577000", "154048.579000", "154048.582000", "154048.584000"],
      "InstanceCreationTime": ["153722.103000", "153722.106000", "153722.108000", "153722.111000", "153722.113000", "153722.116000", "153722.118000", "153722.121000", "153722.124000", "153722.126000", "153722.129000", "153722.131000", "153722.134000", "153722.136000", "153722.139000", "153722.141000", "153722.152000", "153722.155000", "153722.157000", "153722.160000", "153722.168000", "153722.171000", "153722.173000", "153722.176000", "153741.981000", "153741.984000", "153741.986000", "153741.989000", "153741.991000", "153741.994000", "153741.996000", "153742.000000", "153742.002000", "153742.005000", "153742.008000", "153742.010000", "153742.013000", "153742.015000", "153742.018000", "153742.020000", "153742.028000", "153742.030000", "153742.033000", "153742.035000", "153801.991000", "153801.994000", "153801.997000", "153802.000000", "153802.003000", "153802.013000", "153802.016000", "153802.018000", "153802.021000", "153802.024000", "153802.026000", "153802.029000", "153802.031000", "153802.034000", "153802.037000", "153802.039000", "153802.042000", "153802.044000", "153802.047000", "153802.050000", "153821.990000", "153821.993000", "153821.996000", "153821.998000", "153822.001000", "153822.003000", "153822.006000", "153822.009000", "153822.011000", "153822.014000", "153822.016000", "153822.019000", "153822.028000", "153822.030000", "153822.033000", "153822.036000", "153822.038000", "153822.041000", "153822.043000", "153822.046000", "153841.989000", "153841.992000", "153841.995000", "153842.001000", "153842.004000", "153842.007000", "153842.019000", "153842.022000", "153842.024000", "153842.027000", "153842.029000", "153842.032000", "153842.035000", "153842.037000", "153842.040000", "153842.042000", "153842.045000", "153842.047000", "153842.050000", "153842.052000", "153922.033000", "153922.036000", "153922.038000", "153922.041000", "153922.043000", "153922.046000", "153922.048000", "153922.051000", "153922.054000", "153922.056000", "153922.059000", "153922.062000", "153922.064000", "153922.067000", "153922.069000", "153922.076000", "153922.079000", "153922.081000", "153922.084000", "153922.087000", "153922.089000", "153922.092000", "153922.094000", "153922.097000", "153922.099000", "153922.102000", "153922.105000", "154002.023000", "154002.025000", "154002.028000", "154002.030000", "154002.033000", "154002.036000", "154002.038000", "154002.041000", "154002.043000", "154002.055000", "154002.057000", "154002.060000", "154002.062000", "154002.065000", "154002.067000", "154002.070000", "154002.072000", "154002.075000", "154002.078000", "154002.080000", "154002.083000", "154002.085000", "154002.088000", "154002.090000", "154002.093000", "154002.096000", "154002.098000", "154042.030000", "154042.033000", "154042.035000", "154042.038000", "154042.040000", "154042.051000", "154042.053000", "154042.056000", "154042.058000", "154042.061000", "154042.064000", "154042.066000", "154042.069000", "154042.071000", "154042.074000", "154042.077000", "154042.079000", "154042.082000", "154042.085000", "154042.087000", "154042.090000", "154042.092000", "154042.095000", "154042.097000", "154042.100000", "154042.102000", "154042.105000", "154048.573000", "154048.577000", "154048.579000", "154048.582000", "154048.584000"],
      "InstanceNumber": [1, 2, 3, 4, 5, 6, 7, 8, 9, 10, 11, 12, 13, 14, 15, 16, 17, 18, 19, 20, 21, 22, 23, 24, 25, 26, 27, 28, 29, 30, 31, 32, 33, 34, 35, 36, 37, 38, 39, 40, 41, 42, 43, 44, 45, 46, 47, 48, 49, 50, 51, 52, 53, 54, 55, 56, 57, 58, 59, 60, 61, 62, 63, 64, 65, 66, 67, 68, 69, 70, 71, 72, 73, 74, 75, 76, 77, 78, 79, 80, 81, 82, 83, 84, 85, 86, 87, 88, 89, 90, 91, 92, 93, 94, 95, 96, 97, 98, 99, 100, 101, 102, 103, 104, 105, 106, 107, 108, 109, 110, 111, 112, 113, 114, 115, 116, 117, 118, 119, 120, 121, 122, 123, 124, 125, 126, 127, 128, 129, 130, 131, 132, 133, 134, 135, 136, 137, 138, 139, 140, 141, 142, 143, 144, 145, 146, 147, 148, 149, 150, 151, 152, 153, 154, 155, 156, 157, 158, 159, 160, 161, 162, 163, 164, 165, 166, 167, 168, 169, 170, 171, 172, 173, 174, 175, 176, 177, 178, 179, 180, 181, 182, 183, 184, 185, 186, 187, 188, 189, 190],
      "WindowCenter": [4880.0, 4882.0, 4836.0, 4794.0, 4834.0, 4880.0, 4904.0, 4876.0, 4882.0, 4870.0, 4870.0, 4868.0, 4834.0, 4840.0, 4868.0, 4876.0, 4882.0, 4878.0, 4868.0, 4876.0, 4902.0, 4842.0, 4874.0, 4878.0, 4880.0, 4878.0, 4806.0, 4834.0, 4904.0, 4884.0, 4880.0, 4872.0, 4872.0, 4874.0, 4878.0, 4882.0, 4884.0, 4872.0, 4870.0, 4874.0, 4866.0, 4872.0, 4878.0, 4906.0, 4882.0, 4868.0, 4874.0, 4872.0, 4834.0, 4866.0, 4882.0, 4848.0, 4878.0, 4872.0, 4884.0, 4872.0, 4882.0, 4880.0, 4868.0, 4878.0, 4878.0, 4876.0, 4882.0, 4880.0, 4838.0, 4868.0, 4882.0, 4902.0, 4870.0, 4880.0, 4884.0, 4868.0, 4878.0, 4878.0, 4870.0, 4878.0, 4880.0, 4880.0, 4840.0, 4880.0, 4880.0, 4844.0, 4880.0, 4882.0, 4874.0, 4880.0, 4882.0, 4870.0, 4876.0, 4882.0, 4838.0, 4844.0, 4880.0, 4882.0, 4880.0, 4882.0, 4878.0, 4874.0, 4880.0, 4844.0, 4874.0, 4882.0, 4874.0, 4880.0, 4880.0, 4882.0, 4874.0, 4882.0, 4878.0, 4868.0, 4882.0, 4880.0, 4872.0, 4880.0, 4884.0, 4876.0, 4880.0, 4880.0, 4840.0, 4880.0, 4876.0, 4880.0, 4880.0, 4880.0, 4880.0, 4878.0, 4872.0, 4880.0, 4882.0, 4868.0, 4880.0, 4884.0, 4868.0, 4876.0, 4880.0, 4880.0, 4880.0, 4870.0, 4842.0, 4876.0, 4872.0, 4878.0, 4878.0, 4880.0, 4882.0, 4866.0, 4838.0, 4882.0, 4904.0, 4878.0, 4878.0, 4840.0, 4876.0, 4882.0, 4878.0, 4872.0, 4880.0, 4876.0, 4874.0, 4882.0, 4880.0, 4878.0, 4880.0, 4874.0, 4882.0, 4872.0, 4836.0, 4876.0, 4880.0, 4880.0, 4882.0, 4882.0, 4878.0, 4876.0, 4878.0, 4866.0, 4882.0, 4880.0, 4868.0, 4876.0, 4878.0, 4882.0, 4882.0, 4880.0, 4872.0, 4882.0, 4882.0, 4876.0, 4880.0, 4882.0],
      "WindowWidth": [18688.0, 18680.0, 18642.0, 18594.0, 18640.0, 18680.0, 18702.0, 18660.0, 18684.0, 18680.0, 18678.0, 18678.0, 18636.0, 18640.0, 18680.0, 18680.0, 18672.0, 18678.0, 18682.0, 18690.0, 18714.0, 18648.0, 18684.0, 18684.0, 18686.0, 18686.0, 18602.0, 18632.0, 18710.0, 18676.0, 18672.0, 18686.0, 18684.0, 18684.0, 18688.0, 18686.0, 18680.0, 18688.0, 18674.0, 18678.0, 18674.0, 18680.0, 18684.0, 18708.0, 18684.0, 18676.0, 18682.0, 18680.0, 18636.0, 18682.0, 18684.0, 18636.0, 18676.0, 18674.0, 18682.0, 18684.0, 18680.0, 18680.0, 18678.0, 18676.0, 18680.0, 18680.0, 18686.0, 18676.0, 18640.0, 18678.0, 18684.0, 18710.0, 18682.0, 18684.0, 18680.0, 18676.0, 18686.0, 18682.0, 18682.0, 18686.0, 18676.0, 18684.0, 18640.0, 18682.0, 18680.0, 18642.0, 18684.0, 18678.0, 18684.0, 18682.0, 18680.0, 18678.0, 18678.0, 18684.0, 18638.0, 18646.0, 18674.0, 18682.0, 18680.0, 18676.0, 18684.0, 18682.0, 18680.0, 18646.0, 18682.0, 18680.0, 18676.0, 18684.0, 18684.0, 18676.0, 18682.0, 18684.0, 18680.0, 18678.0, 18680.0, 18682.0, 18678.0, 18678.0, 18676.0, 18682.0, 18676.0, 18680.0, 18640.0, 18682.0, 18682.0, 18682.0, 18672.0, 18684.0, 18680.0, 18682.0, 18682.0, 18680.0, 18680.0, 18672.0, 18684.0, 18674.0, 18676.0, 18676.0, 18664.0, 18686.0, 18680.0, 18674.0, 18646.0, 18680.0, 18676.0, 18684.0, 18682.0, 18684.0, 18670.0, 18674.0, 18636.0, 18680.0, 18704.0, 18676.0, 18678.0, 18640.0, 18682.0, 18684.0, 18676.0, 18678.0, 18678.0, 18680.0, 18684.0, 18678.0, 18682.0, 18680.0, 18674.0, 18680.0, 18680.0, 18674.0, 18632.0, 18682.0, 18674.0, 18682.0, 18680.0, 18670.0, 18678.0, 18674.0, 18680.0, 18678.0, 18684.0, 18680.0, 18676.0, 18676.0, 18672.0, 18684.0, 18678.0, 18680.0, 18680.0, 18682.0, 18680.0, 18684.0, 18678.0, 18674.0]
    },
    "slices": {}
  }
}