{
  "AcquisitionMatrixPE": 104,
  "AcquisitionNumber": 1,
  "AcquisitionTime": "15:36:4.710000",
  "BandwidthPerPixelPhaseEncode": 17.17,
  "BaseResolution": 104,
  "BodyPartExamined": "BRAIN",
  "CoilString": "HC1-7;NC1_2",
  "ConsistencyInfo": "N4_VE11C_LATEST_20160120",
  "ConversionSoftware": "dcm2niix",
  "ConversionSoftwareVersion": "v1.0.20190902",
  "DerivedVendorReportedEchoSpacing": 0.000560011,
  "DeviceSerialNumber": "167006",
  "DwellTime": 2.1e-06,
  "EchoTime": 0.037,
  "EchoTrainLength": 104,
  "EffectiveEchoSpacing": 0.000560011,
  "FlipAngle": 52,
  "ImageComments": "Unaliased_MB4_PE3_LB",
  "ImageOrientationPatientDICOM": [0.998624, -0.0507277, 0.0132659, 0.0523357, 0.948868, -0.311305],
  "ImageType": [
    "ORIGINAL",
    "PRIMARY",
    "M",
    "MB",
    "ND",
    "MOSAIC"
],
  "ImagingFrequency": 123.259,
  "InPlanePhaseEncodingDirectionDICOM": "COL",
  "InstitutionAddress": "Chemin_Queen-Mary_4565_Montreal_District_CA_H3W_1W5",
  "InstitutionName": "IUGM",
  "InstitutionalDepartmentName": "Department",
  "MRAcquisitionType": "2D",
  "MagneticFieldStrength": 3,
  "Manufacturer": "Siemens",
  "ManufacturersModelName": "Prisma_fit",
  "Modality": "MR",
  "MultibandAccelerationFactor": 4,
  "PartialFourier": 1,
  "PatientPosition": "HFS",
  "PercentPhaseFOV": 100,
  "PhaseEncodingDirection": "j",
  "PhaseEncodingSteps": 104,
  "PhaseResolution": 1,
  "PixelBandwidth": 2290,
  "ProcedureStepDescription": "memory_things",
  "ProtocolName": "func_task-things_run-4",
  "PulseSequenceDetails": "%CustomerSeq%_cmrr_mbep2d_bold",
  "ReceiveCoilActiveElements": "HC1-7;NC1,2",
  "ReceiveCoilName": "HeadNeck_64",
  "ReconMatrixPE": 104,
  "RepetitionTime": 1.49,
  "SAR": 0.0728163,
  "ScanOptions": "FS",
  "ScanningSequence": "EP",
  "SequenceName": "epfid2d1_104",
  "SequenceVariant": "SK_SS",
  "SeriesDescription": "func_task-things_run-4",
  "SeriesNumber": 19,
  "ShimSetting": [628, -7256, -8807, 580, 0, -203, -26, 0],
  "SliceThickness": 2,
  "SliceTiming": [0, 0.785, 0.1, 0.8825, 0.1975, 0.98, 0.295, 1.08, 0.3925, 1.1775, 0.49, 1.275, 0.59, 1.3725, 0.6875, 0, 0.785, 0.1, 0.8825, 0.1975, 0.98, 0.295, 1.08, 0.3925, 1.1775, 0.49, 1.275, 0.59, 1.3725, 0.6875, 0, 0.785, 0.1, 0.8825, 0.1975, 0.98, 0.295, 1.08, 0.3925, 1.1775, 0.49, 1.275, 0.59, 1.3725, 0.6875, 0, 0.785, 0.1, 0.8825, 0.1975, 0.98, 0.295, 1.08, 0.3925, 1.1775, 0.49, 1.275, 0.59, 1.3725, 0.6875],
  "SoftwareVersions": "syngo_MR_E11",
  "SpacingBetweenSlices": 2,
  "StationName": "MRC35049",
  "TaskName": "things",
  "TotalReadoutTime": 0.0576811,
  "TxRefAmp": 293.067,
  "WipMemBlock": "ec888efe-0620-46da-a7f2-16c01f7667a7||Sequence: R016 ve11c/master r/e634e98; Dec 19 2017 11:00:25 by eja",
  "dcmmeta_affine": [
    [-1.9972487688064575, 0.10467132180929184, -0.006408351473510265, 101.88348388671875],
    [0.10145546495914459, 1.897735595703125, -0.6231423616409302, -72.2363510131836],
    [0.0265318863093853, 0.6226102113723755, 1.9004348516464233, -58.92524719238281],
    [0.0, 0.0, 0.0, 1.0]
],
  "dcmmeta_reorient_transform": [
    [0.0, -1.0, 0.0, 103.0],
    [1.0, 0.0, 0.0, 0.0],
    [0.0, 0.0, 1.0, 0.0],
    [0.0, 0.0, 0.0, 1.0]
],
  "dcmmeta_shape": [104, 104, 60, 190],
  "dcmmeta_slice_dim": 2,
  "dcmmeta_version": 0.6,
  "global": {
    "const": {
      "AcquisitionMatrix": [104, 0, 0, 104],
      "AngioFlag": "N",
      "BitsAllocated": 16,
      "BitsStored": 16,
      "BodyPartExamined": "BRAIN",
      "Columns": 832,
      "EchoNumbers": 1,
      "EchoTime": 37.0,
      "EchoTrainLength": 104,
      "FlipAngle": 52.0,
      "HighBit": 15,
      "ImageOrientationPatient": [0.99862440989272, -0.0507277313194, 0.01326594292158, 0.05233565920793, 0.94886780404345, -0.3113051063266],
      "ImagePositionPatient": [-877.76356173247, -777.07639304548, 222.17611683568],
      "ImageType": [
        "ORIGINAL",
        "PRIMARY",
        "M",
        "MB",
        "ND",
        "MOSAIC"
],
      "ImagedNucleus": "1H",
      "ImagingFrequency": 123.258928,
      "InPlanePhaseEncodingDirection": "COL",
      "MRAcquisitionType": "2D",
      "MagneticFieldStrength": 3.0,
      "Manufacturer": "SIEMENS",
      "ManufacturerModelName": "Prisma_fit",
      "Modality": "MR",
      "NumberOfAverages": 1.0,
      "NumberOfPhaseEncodingSteps": 104,
      "PercentPhaseFieldOfView": 100.0,
      "PercentSampling": 100.0,
      "PerformedProcedureStepStartTime": "145655.529000",
      "PhotometricInterpretation": "MONOCHROME2",
      "PixelBandwidth": 2290.0,
      "PixelRepresentation": 0,
      "PixelSpacing": [2.0, 2.0],
      "ProtocolName": "func_task-things_run-4",
      "RepetitionTime": 1490.0,
      "Rows": 832,
      "SAR": 0.07281633294717,
      "SamplesPerPixel": 1,
      "ScanOptions": "FS",
      "ScanningSequence": "EP",
      "SequenceName": "epfid2d1_104",
      "SequenceVariant": [
        "SK",
        "SS"
],
      "SeriesDescription": "func_task-things_run-4",
      "SeriesNumber": 19,
      "SeriesTime": "153721.922000",
      "SliceLocation": -33.811485253341,
      "SliceThickness": 2.0,
      "SmallestImagePixelValue": 0,
      "SoftwareVersions": "syngo MR E11",
      "SpacingBetweenSlices": 2.0000000406114,
      "SpecificCharacterSet": "ISO_IR 100",
      "StudyID": "1",
      "StudyTime": "145655.451000",
      "TransmitCoilName": "Body",
      "VariableFlipAngleFlag": "N",
      "WindowCenterWidthExplanation": "Algo1",
      "dBdt": 0.0},
    "slices": {}
  },
  "time": {
    "samples": {
      "AcquisitionNumber": [1, 2, 3, 4, 5, 6, 7, 8, 9, 10, 11, 12, 13, 14, 15, 16, 17, 18, 19, 20, 21, 22, 23, 24, 25, 26, 27, 28, 29, 30, 31, 32, 33, 34, 35, 36, 37, 38, 39, 40, 41, 42, 43, 44, 45, 46, 47, 48, 49, 50, 51, 52, 53, 54, 55, 56, 57, 58, 59, 60, 61, 62, 63, 64, 65, 66, 67, 68, 69, 70, 71, 72, 73, 74, 75, 76, 77, 78, 79, 80, 81, 82, 83, 84, 85, 86, 87, 88, 89, 90, 91, 92, 93, 94, 95, 96, 97, 98, 99, 100, 101, 102, 103, 104, 105, 106, 107, 108, 109, 110, 111, 112, 113, 114, 115, 116, 117, 118, 119, 120, 121, 122, 123, 124, 125, 126, 127, 128, 129, 130, 131, 132, 133, 134, 135, 136, 137, 138, 139, 140, 141, 142, 143, 144, 145, 146, 147, 148, 149, 150, 151, 152, 153, 154, 155, 156, 157, 158, 159, 160, 161, 162, 163, 164, 165, 166, 167, 168, 169, 170, 171, 172, 173, 174, 175, 176, 177, 178, 179, 180, 181, 182, 183, 184, 185, 186, 187, 188, 189, 190],
      "AcquisitionTime": ["153604.710000", "153606.200000", "153607.690000", "153609.180000", "153610.670000", "153612.160000", "153613.650000", "153615.140000", "153616.630000", "153618.120000", "153619.610000", "153621.100000", "153622.590000", "153624.080000", "153625.570000", "153627.060000", "153628.550000", "153630.040000", "153631.530000", "153633.020000", "153634.510000", "153636.000000", "153637.490000", "153638.980000", "153640.470000", "153641.960000", "153643.450000", "153644.940000", "153646.430000", "153647.920000", "153649.410000", "153650.900000", "153652.390000", "153653.880000", "153655.370000", "153656.860000", "153658.350000", "153659.840000", "153701.330000", "153702.820000", "153704.310000", "153705.800000", "153707.290000", "153708.780000", "153710.270000", "153711.760000", "153713.250000", "153714.740000", "153716.230000", "153717.720000", "153719.210000", "153720.700000", "153722.190000", "153723.680000", "153725.170000", "153726.660000", "153728.150000", "153729.640000", "153731.130000", "153732.620000", "153734.110000", "153735.600000", "153737.090000", "153738.580000", "153740.070000", "153741.560000", "153743.050000", "153744.540000", "153746.030000", "153747.520000", "153749.010000", "153750.500000", "153751.990000", "153753.480000", "153754.970000", "153756.460000", "153757.950000", "153759.440000", "153800.930000", "153802.420000", "153803.910000", "153805.400000", "153806.890000", "153808.380000", "153809.870000", "153811.360000", "153812.850000", "153814.340000", "153815.830000", "153817.320000", "153818.810000", "153820.300000", "153821.790000", "153823.280000", "153824.770000", "153826.260000", "153827.750000", "153829.240000", "153830.730000", "153832.220000", "153833.710000", "153835.200000", "153836.690000", "153838.180000", "153839.670000", "153841.160000", "153842.650000", "153844.140000", "153845.630000", "153847.120000", "153848.610000", "153850.100000", "153851.590000", "153853.080000", "153854.570000", "153856.060000", "153857.550000", "153859.040000", "153900.530000", "153902.020000", "153903.510000", "153905.000000", "153906.490000", "153907.980000", "153909.470000", "153910.960000", "153912.450000", "153913.940000", "153915.430000", "153916.920000", "153918.410000", "153919.900000", "153921.390000", "153922.880000", "153924.370000", "153925.860000", "153927.350000", "153928.840000", "153930.330000", "153931.820000", "153933.310000", "153934.800000", "153936.290000", "153937.780000", "153939.270000", "153940.760000", "153942.250000", "153943.740000", "153945.230000", "153946.720000", "153948.210000", "153949.700000", "153951.190000", "153952.680000", "153954.170000", "153955.660000", "153957.150000", "153958.640000", "154000.130000", "154001.620000", "154003.110000", "154004.600000", "154006.090000", "154007.580000", "154009.070000", "154010.560000", "154012.050000", "154013.540000", "154015.030000", "154016.520000", "154018.010000", "154019.500000", "154020.990000", "154022.480000", "154023.970000", "154025.460000", "154026.950000", "154028.440000", "154029.930000", "154031.420000", "154032.910000", "154034.400000", "154035.890000", "154037.380000", "154038.870000", "154040.360000", "154041.850000", "154043.340000", "154044.830000", "154046.320000"],
      "ContentTime": ["153721.926000", "153721.929000", "153721.933000", "153721.943000", "153721.946000", "153721.962000", "153721.966000", "153721.969000", "153721.973000", "153721.976000", "153721.979000", "153721.983000", "153721.987000", "153721.990000", "153721.993000", "153721.997000", "153722.001000", "153722.005000", "153722.008000", "153722.011000", "153722.015000", "153722.028000", "153722.031000", "153722.035000", "153741.875000", "153741.879000", "153741.882000", "153741.886000", "153741.889000", "153741.892000", "153741.896000", "153741.899000", "153741.903000", "153741.906000", "153741.910000", "153741.913000", "153741.916000", "153741.920000", "153741.923000", "153741.926000", "153741.930000", "153741.933000", "153741.937000", "153741.940000", "153801.875000", "153801.879000", "153801.882000", "153801.886000", "153801.889000", "153801.893000", "153801.896000", "153801.899000", "153801.903000", "153801.906000", "153801.909000", "153801.913000", "153801.916000", "153801.920000", "153801.923000", "153801.926000", "153801.930000", "153801.933000", "153801.937000", "153801.940000", "153821.874000", "153821.878000", "153821.881000", "153821.885000", "153821.888000", "153821.891000", "153821.895000", "153821.898000", "153821.902000", "153821.905000", "153821.908000", "153821.912000", "153821.915000", "153821.918000", "153821.922000", "153821.925000", "153821.929000", "153821.932000", "153821.935000", "153821.939000", "153841.874000", "153841.878000", "153841.881000", "153841.885000", "153841.888000", "153841.892000", "153841.895000", "153841.899000", "153841.902000", "153841.905000", "153841.909000", "153841.912000", "153841.915000", "153841.923000", "153841.927000", "153841.930000", "153841.934000", "153841.937000", "153841.940000", "153841.944000", "153841.951000", "153921.876000", "153921.880000", "153921.884000", "153921.893000", "153921.897000", "153921.900000", "153921.904000", "153921.907000", "153921.910000", "153921.914000", "153921.917000", "153921.921000", "153921.939000", "153921.943000", "153921.946000", "153921.950000", "153921.953000", "153921.957000", "153921.960000", "153921.963000", "153921.967000", "153921.970000", "153921.974000", "153921.977000", "153921.981000", "153921.984000", "154001.875000", "154001.879000", "154001.882000", "154001.886000", "154001.889000", "154001.893000", "154001.896000", "154001.899000", "154001.903000", "154001.906000", "154001.910000", "154001.913000", "154001.916000", "154001.920000", "154001.923000", "154001.926000", "154001.930000", "154001.933000", "154001.937000", "154001.940000", "154001.943000", "154001.947000", "154001.950000", "154001.953000", "154001.957000", "154001.960000", "154001.963000", "154041.874000", "154041.878000", "154041.881000", "154041.885000", "154041.888000", "154041.892000", "154041.895000", "154041.899000", "154041.902000", "154041.906000", "154041.909000", "154041.913000", "154041.925000", "154041.928000", "154041.932000", "154041.935000", "154041.939000", "154041.942000", "154041.945000", "154041.949000", "154041.952000", "154041.956000", "154041.959000", "154041.962000", "154041.966000", "154041.969000", "154041.973000", "154048.498000", "154048.502000", "154048.514000", "154048.517000", "154048.521000"],
      "InstanceCreationTime": ["153721.926000", "153721.929000", "153721.933000", "153721.943000", "153721.946000", "153721.962000", "153721.966000", "153721.969000", "153721.973000", "153721.976000", "153721.979000", "153721.983000", "153721.987000", "153721.990000", "153721.993000", "153721.997000", "153722.001000", "153722.005000", "153722.008000", "153722.011000", "153722.015000", "153722.028000", "153722.031000", "153722.035000", "153741.875000", "153741.879000", "153741.882000", "153741.886000", "153741.889000", "153741.892000", "153741.896000", "153741.899000", "153741.903000", "153741.906000", "153741.910000", "153741.913000", "153741.916000", "153741.920000", "153741.923000", "153741.926000", "153741.930000", "153741.933000", "153741.937000", "153741.940000", "153801.875000", "153801.879000", "153801.882000", "153801.886000", "153801.889000", "153801.893000", "153801.896000", "153801.899000", "153801.903000", "153801.906000", "153801.909000", "153801.913000", "153801.916000", "153801.920000", "153801.923000", "153801.926000", "153801.930000", "153801.933000", "153801.937000", "153801.940000", "153821.874000", "153821.878000", "153821.881000", "153821.885000", "153821.888000", "153821.891000", "153821.895000", "153821.898000", "153821.902000", "153821.905000", "153821.908000", "153821.912000", "153821.915000", "153821.918000", "153821.922000", "153821.925000", "153821.929000", "153821.932000", "153821.935000", "153821.939000", "153841.874000", "153841.878000", "153841.881000", "153841.885000", "153841.888000", "153841.892000", "153841.895000", "153841.899000", "153841.902000", "153841.905000", "153841.909000", "153841.912000", "153841.915000", "153841.923000", "153841.927000", "153841.930000", "153841.934000", "153841.937000", "153841.940000", "153841.944000", "153841.951000", "153921.876000", "153921.880000", "153921.884000", "153921.893000", "153921.897000", "153921.900000", "153921.904000", "153921.907000", "153921.910000", "153921.914000", "153921.917000", "153921.921000", "153921.939000", "153921.943000", "153921.946000", "153921.950000", "153921.953000", "153921.957000", "153921.960000", "153921.963000", "153921.967000", "153921.970000", "153921.974000", "153921.977000", "153921.981000", "153921.984000", "154001.875000", "154001.879000", "154001.882000", "154001.886000", "154001.889000", "154001.893000", "154001.896000", "154001.899000", "154001.903000", "154001.906000", "154001.910000", "154001.913000", "154001.916000", "154001.920000", "154001.923000", "154001.926000", "154001.930000", "154001.933000", "154001.937000", "154001.940000", "154001.943000", "154001.947000", "154001.950000", "154001.953000", "154001.957000", "154001.960000", "154001.963000", "154041.874000", "154041.878000", "154041.881000", "154041.885000", "154041.888000", "154041.892000", "154041.895000", "154041.899000", "154041.902000", "154041.906000", "154041.909000", "154041.913000", "154041.925000", "154041.928000", "154041.932000", "154041.935000", "154041.939000", "154041.942000", "154041.945000", "154041.949000", "154041.952000", "154041.956000", "154041.959000", "154041.962000", "154041.966000", "154041.969000", "154041.973000", "154048.498000", "154048.502000", "154048.514000", "154048.517000", "154048.521000"],
      "InstanceNumber": [1, 2, 3, 4, 5, 6, 7, 8, 9, 10, 11, 12, 13, 14, 15, 16, 17, 18, 19, 20, 21, 22, 23, 24, 25, 26, 27, 28, 29, 30, 31, 32, 33, 34, 35, 36, 37, 38, 39, 40, 41, 42, 43, 44, 45, 46, 47, 48, 49, 50, 51, 52, 53, 54, 55, 56, 57, 58, 59, 60, 61, 62, 63, 64, 65, 66, 67, 68, 69, 70, 71, 72, 73, 74, 75, 76, 77, 78, 79, 80, 81, 82, 83, 84, 85, 86, 87, 88, 89, 90, 91, 92, 93, 94, 95, 96, 97, 98, 99, 100, 101, 102, 103, 104, 105, 106, 107, 108, 109, 110, 111, 112, 113, 114, 115, 116, 117, 118, 119, 120, 121, 122, 123, 124, 125, 126, 127, 128, 129, 130, 131, 132, 133, 134, 135, 136, 137, 138, 139, 140, 141, 142, 143, 144, 145, 146, 147, 148, 149, 150, 151, 152, 153, 154, 155, 156, 157, 158, 159, 160, 161, 162, 163, 164, 165, 166, 167, 168, 169, 170, 171, 172, 173, 174, 175, 176, 177, 178, 179, 180, 181, 182, 183, 184, 185, 186, 187, 188, 189, 190],
      "LargestImagePixelValue": [42047, 40983, 40628, 40531, 41452, 41034, 40959, 40463, 39444, 39553, 40520, 40361, 40649, 40916, 40802, 40288, 40567, 40006, 39928, 40696, 40441, 40264, 41119, 41270, 41181, 41149, 40183, 40632, 41257, 40481, 41052, 39565, 41158, 40462, 41005, 40862, 40623, 39521, 40515, 40382, 40055, 40493, 40569, 39731, 39750, 39767, 40929, 40376, 39907, 40740, 40244, 37670, 44945, 41016, 41373, 39926, 40169, 39400, 39649, 39834, 40059, 39546, 40196, 39491, 39573, 39992, 39827, 39742, 39679, 39841, 39938, 39432, 40196, 39512, 39592, 40277, 39985, 40018, 40241, 40079, 40538, 39503, 40331, 40539, 39880, 40229, 40645, 39854, 39946, 39679, 39456, 40597, 40564, 40326, 39765, 39755, 39596, 40068, 40225, 39968, 40279, 40410, 39945, 39851, 40391, 39731, 39768, 40011, 39729, 39555, 40122, 39331, 39338, 39998, 39650, 39698, 40392, 40254, 39269, 40404, 39768, 40036, 39494, 39547, 40243, 39763, 39878, 40701, 39449, 39657, 39754, 39809, 39721, 40200, 40565, 39467, 39705, 39353, 40060, 40107, 39365, 40112, 39662, 39901, 40653, 39512, 39736, 40235, 40061, 39903, 39537, 39747, 40129, 39596, 39538, 39322, 39353, 39582, 39150, 39468, 38948, 39376, 39062, 38869, 39095, 38870, 39085, 39624, 39009, 39080, 39105, 39029, 39023, 38910, 39091, 38975, 39098, 38853, 38971, 39218, 39282, 38965, 38846, 38832, 39011, 38879, 39099, 39199, 39151, 39352],
      "WindowCenter": [10304.0, 10242.0, 10232.0, 10232.0, 10255.0, 10222.0, 10204.0, 10190.0, 10177.0, 10190.0, 10203.0, 10175.0, 10171.0, 10193.0, 10210.0, 10204.0, 10196.0, 10190.0, 10197.0, 10219.0, 10216.0, 10207.0, 10211.0, 10241.0, 10246.0, 10229.0, 10216.0, 10237.0, 10245.0, 10230.0, 10208.0, 10193.0, 10218.0, 10224.0, 10216.0, 10198.0, 10189.0, 10186.0, 10212.0, 10216.0, 10209.0, 10207.0, 10231.0, 10229.0, 10228.0, 10223.0, 10248.0, 10259.0, 10260.0, 10258.0, 10252.0, 10204.0, 10336.0, 10223.0, 10304.0, 10274.0, 10267.0, 10256.0, 10247.0, 10225.0, 10205.0, 10202.0, 10224.0, 10229.0, 10244.0, 10246.0, 10224.0, 10217.0, 10239.0, 10260.0, 10247.0, 10223.0, 10223.0, 10220.0, 10232.0, 10243.0, 10242.0, 10251.0, 10258.0, 10243.0, 10223.0, 10195.0, 10219.0, 10252.0, 10273.0, 10267.0, 10240.0, 10211.0, 10206.0, 10216.0, 10223.0, 10248.0, 10269.0, 10247.0, 10210.0, 10203.0, 10207.0, 10204.0, 10212.0, 10212.0, 10205.0, 10213.0, 10206.0, 10199.0, 10225.0, 10245.0, 10241.0, 10217.0, 10192.0, 10187.0, 10202.0, 10213.0, 10215.0, 10230.0, 10226.0, 10209.0, 10211.0, 10221.0, 10215.0, 10227.0, 10217.0, 10212.0, 10198.0, 10204.0, 10202.0, 10196.0, 10190.0, 10192.0, 10190.0, 10212.0, 10222.0, 10215.0, 10185.0, 10181.0, 10206.0, 10214.0, 10219.0, 10224.0, 10220.0, 10199.0, 10190.0, 10193.0, 10202.0, 10203.0, 10197.0, 10182.0, 10187.0, 10208.0, 10211.0, 10189.0, 10171.0, 10184.0, 10218.0, 10232.0, 10202.0, 10177.0, 10181.0, 10205.0, 10202.0, 10193.0, 10185.0, 10182.0, 10193.0, 10200.0, 10211.0, 10213.0, 10210.0, 10215.0, 10204.0, 10188.0, 10191.0, 10200.0, 10201.0, 10187.0, 10185.0, 10185.0, 10195.0, 10196.0, 10193.0, 10203.0, 10202.0, 10201.0, 10188.0, 10177.0, 10169.0, 10176.0, 10193.0, 10201.0, 10203.0, 10204.0],
      "WindowWidth": [22253.0, 22073.0, 22026.0, 22014.0, 22059.0, 21982.0, 21938.0, 21901.0, 21874.0, 21902.0, 21927.0, 21867.0, 21856.0, 21903.0, 21944.0, 21934.0, 21915.0, 21901.0, 21916.0, 21964.0, 21960.0, 21940.0, 21947.0, 22012.0, 22027.0, 21989.0, 21960.0, 22010.0, 22028.0, 21990.0, 21942.0, 21912.0, 21963.0, 21979.0, 21960.0, 21918.0, 21897.0, 21896.0, 21949.0, 21964.0, 21948.0, 21941.0, 21995.0, 21994.0, 21990.0, 21982.0, 22034.0, 22059.0, 22064.0, 22058.0, 22049.0, 21944.0, 22255.0, 21963.0, 22161.0, 22092.0, 22069.0, 22047.0, 22026.0, 21978.0, 21929.0, 21920.0, 21970.0, 21987.0, 22019.0, 22024.0, 21975.0, 21957.0, 22007.0, 22055.0, 22030.0, 21975.0, 21969.0, 21966.0, 21991.0, 22023.0, 22019.0, 22036.0, 22051.0, 22016.0, 21970.0, 21911.0, 21961.0, 22037.0, 22084.0, 22070.0, 22008.0, 21945.0, 21932.0, 21957.0, 21974.0, 22026.0, 22073.0, 22026.0, 21946.0, 21930.0, 21939.0, 21932.0, 21950.0, 21948.0, 21934.0, 21952.0, 21941.0, 21924.0, 21981.0, 22023.0, 22017.0, 21961.0, 21907.0, 21891.0, 21927.0, 21953.0, 21959.0, 21993.0, 21985.0, 21947.0, 21946.0, 21971.0, 21960.0, 21983.0, 21967.0, 21952.0, 21924.0, 21932.0, 21927.0, 21916.0, 21903.0, 21904.0, 21901.0, 21951.0, 21973.0, 21960.0, 21894.0, 21882.0, 21934.0, 21952.0, 21965.0, 21978.0, 21967.0, 21923.0, 21902.0, 21906.0, 21928.0, 21930.0, 21917.0, 21886.0, 21895.0, 21939.0, 21948.0, 21900.0, 21855.0, 21881.0, 21961.0, 21997.0, 21931.0, 21874.0, 21884.0, 21936.0, 21933.0, 21912.0, 21892.0, 21886.0, 21911.0, 21929.0, 21953.0, 21960.0, 21951.0, 21959.0, 21935.0, 21902.0, 21905.0, 21927.0, 21929.0, 21898.0, 21891.0, 21892.0, 21916.0, 21922.0, 21911.0, 21930.0, 21933.0, 21927.0, 21902.0, 21877.0, 21857.0, 21865.0, 21909.0, 21926.0, 21934.0, 21936.0]
    },
    "slices": {}
  }
}