{
  "AcquisitionMatrixPE": 104,
  "AcquisitionNumber": 1,
  "AcquisitionTime": "09:51:3.512500",
  "BandwidthPerPixelPhaseEncode": 17.17,
  "BaseResolution": 104,
  "BodyPartExamined": "BRAIN",
  "CoilString": "HC1-7;NC1_2",
  "ConsistencyInfo": "N4_VE11C_LATEST_20160120",
  "ConversionSoftware": "dcm2niix",
  "ConversionSoftwareVersion": "v1.0.20190902",
  "DerivedVendorReportedEchoSpacing": 0.000560011,
  "DeviceSerialNumber": "167006",
  "DwellTime": 2.1e-06,
  "EchoTime": 0.037,
  "EchoTrainLength": 104,
  "EffectiveEchoSpacing": 0.000560011,
  "FlipAngle": 52,
  "ImageComments": "Unaliased_MB4_PE3_LB",
  "ImageOrientationPatientDICOM": [0.99578, 0.0820285, 0.0411504, -0.0541039, 0.886922, -0.45874],
  "ImageType": [
    "ORIGINAL",
    "PRIMARY",
    "M",
    "MB",
    "ND",
    "MOSAIC"
],
  "ImagingFrequency": 123.259,
  "InPlanePhaseEncodingDirectionDICOM": "COL",
  "InstitutionAddress": "Chemin_Queen-Mary_4565_Montreal_District_CA_H3W_1W5",
  "InstitutionName": "IUGM",
  "InstitutionalDepartmentName": "Department",
  "MRAcquisitionType": "2D",
  "MagneticFieldStrength": 3,
  "Manufacturer": "Siemens",
  "ManufacturersModelName": "Prisma_fit",
  "Modality": "MR",
  "MultibandAccelerationFactor": 4,
  "PartialFourier": 1,
  "PatientPosition": "HFS",
  "PercentPhaseFOV": 100,
  "PhaseEncodingDirection": "j",
  "PhaseEncodingSteps": 104,
  "PhaseResolution": 1,
  "PixelBandwidth": 2290,
  "ProcedureStepDescription": "memory_things",
  "ProtocolName": "func_task-things_run-2",
  "PulseSequenceDetails": "%CustomerSeq%_cmrr_mbep2d_bold",
  "ReceiveCoilActiveElements": "HC1-7;NC1,2",
  "ReceiveCoilName": "HeadNeck_64",
  "ReconMatrixPE": 104,
  "RepetitionTime": 1.49,
  "SAR": 0.0504024,
  "ScanOptions": "FS",
  "ScanningSequence": "EP",
  "SequenceName": "epfid2d1_104",
  "SequenceVariant": "SK_SS",
  "SeriesDescription": "func_task-things_run-2",
  "SeriesNumber": 16,
  "ShimSetting": [630, -7158, -8904, 586, 110, 92, -75, -6],
  "SliceThickness": 2,
  "SliceTiming": [0, 0.785, 0.1, 0.8825, 0.1975, 0.98, 0.295, 1.08, 0.3925, 1.1775, 0.49, 1.275, 0.59, 1.3725, 0.6875, 0, 0.785, 0.1, 0.8825, 0.1975, 0.98, 0.295, 1.08, 0.3925, 1.1775, 0.49, 1.275, 0.59, 1.3725, 0.6875, 0, 0.785, 0.1, 0.8825, 0.1975, 0.98, 0.295, 1.08, 0.3925, 1.1775, 0.49, 1.275, 0.59, 1.3725, 0.6875, 0, 0.785, 0.1, 0.8825, 0.1975, 0.98, 0.295, 1.08, 0.3925, 1.1775, 0.49, 1.275, 0.59, 1.3725, 0.6875],
  "SoftwareVersions": "syngo_MR_E11",
  "SpacingBetweenSlices": 2,
  "StationName": "MRC35049",
  "TaskName": "things",
  "TotalReadoutTime": 0.0576811,
  "TxRefAmp": 273.461,
  "WipMemBlock": "278eb12c-0bae-4e30-befa-d5985a7180ff||Sequence: R016 ve11c/master r/e634e98; Dec 19 2017 11:00:25 by eja",
  "dcmmeta_affine": [
    [-1.9915601015090942, -0.10820771008729935, 0.1482539027929306, 108.06926727294922],
    [-0.16405697166919708, 1.7738441228866577, -0.9091546535491943, -44.03923034667969],
    [0.08230089396238327, 0.9174791574478149, 1.7752348184585571, -96.74661254882812],
    [0.0, 0.0, 0.0, 1.0]
],
  "dcmmeta_reorient_transform": [
    [0.0, -1.0, 0.0, 103.0],
    [1.0, 0.0, 0.0, 0.0],
    [0.0, 0.0, 1.0, 0.0],
    [0.0, 0.0, 0.0, 1.0]
],
  "dcmmeta_shape": [104, 104, 60, 190],
  "dcmmeta_slice_dim": 2,
  "dcmmeta_version": 0.6,
  "global": {
    "const": {
      "AcquisitionMatrix": [104, 0, 0, 104],
      "AngioFlag": "N",
      "BitsAllocated": 16,
      "BitsStored": 16,
      "BodyPartExamined": "BRAIN",
      "Columns": 832,
      "EchoNumbers": 1,
      "EchoTime": 37.0,
      "EchoTrainLength": 104,
      "FlipAngle": 52.0,
      "HighBit": 15,
      "ImageOrientationPatient": [0.99578007998476, 0.08202848942481, 0.04115044627024, -0.0541038534374, 0.88692207535086, -0.4587395833134],
      "ImagePositionPatient": [-782.46416785926, -844.06272865801, 301.75863635463],
      "ImageType": [
        "ORIGINAL",
        "PRIMARY",
        "M",
        "MB",
        "ND",
        "MOSAIC"
],
      "ImagedNucleus": "1H",
      "ImagingFrequency": 123.259004,
      "InPlanePhaseEncodingDirection": "COL",
      "MRAcquisitionType": "2D",
      "MagneticFieldStrength": 3.0,
      "Manufacturer": "SIEMENS",
      "ManufacturerModelName": "Prisma_fit",
      "Modality": "MR",
      "NumberOfAverages": 1.0,
      "NumberOfPhaseEncodingSteps": 104,
      "PercentPhaseFieldOfView": 100.0,
      "PercentSampling": 100.0,
      "PerformedProcedureStepStartTime": "085549.388000",
      "PhotometricInterpretation": "MONOCHROME2",
      "PixelBandwidth": 2290.0,
      "PixelRepresentation": 0,
      "PixelSpacing": [2.0, 2.0],
      "ProtocolName": "func_task-things_run-2",
      "RepetitionTime": 1490.0,
      "Rows": 832,
      "SAR": 0.050402443607,
      "SamplesPerPixel": 1,
      "ScanOptions": "FS",
      "ScanningSequence": "EP",
      "SequenceName": "epfid2d1_104",
      "SequenceVariant": [
        "SK",
        "SS"
],
      "SeriesDescription": "func_task-things_run-2",
      "SeriesNumber": 16,
      "SeriesTime": "095225.016000",
      "SliceLocation": -57.843891489584,
      "SliceThickness": 2.0,
      "SmallestImagePixelValue": 0,
      "SoftwareVersions": "syngo MR E11",
      "SpacingBetweenSlices": 1.9999999808226,
      "SpecificCharacterSet": "ISO_IR 100",
      "StudyID": "1",
      "StudyTime": "085549.236000",
      "TransmitCoilName": "Body",
      "VariableFlipAngleFlag": "N",
      "WindowCenterWidthExplanation": "Algo1",
      "dBdt": 0.0},
    "slices": {}
  },
  "time": {
    "samples": {
      "AcquisitionNumber": [1, 2, 3, 4, 5, 6, 7, 8, 9, 10, 11, 12, 13, 14, 15, 16, 17, 18, 19, 20, 21, 22, 23, 24, 25, 26, 27, 28, 29, 30, 31, 32, 33, 34, 35, 36, 37, 38, 39, 40, 41, 42, 43, 44, 45, 46, 47, 48, 49, 50, 51, 52, 53, 54, 55, 56, 57, 58, 59, 60, 61, 62, 63, 64, 65, 66, 67, 68, 69, 70, 71, 72, 73, 74, 75, 76, 77, 78, 79, 80, 81, 82, 83, 84, 85, 86, 87, 88, 89, 90, 91, 92, 93, 94, 95, 96, 97, 98, 99, 100, 101, 102, 103, 104, 105, 106, 107, 108, 109, 110, 111, 112, 113, 114, 115, 116, 117, 118, 119, 120, 121, 122, 123, 124, 125, 126, 127, 128, 129, 130, 131, 132, 133, 134, 135, 136, 137, 138, 139, 140, 141, 142, 143, 144, 145, 146, 147, 148, 149, 150, 151, 152, 153, 154, 155, 156, 157, 158, 159, 160, 161, 162, 163, 164, 165, 166, 167, 168, 169, 170, 171, 172, 173, 174, 175, 176, 177, 178, 179, 180, 181, 182, 183, 184, 185, 186, 187, 188, 189, 190],
      "AcquisitionTime": ["095103.512500", "095105.002500", "095106.492500", "095107.982500", "095109.472500", "095110.962500", "095112.452500", "095113.942500", "095115.432500", "095116.922500", "095118.412500", "095119.902500", "095121.392500", "095122.882500", "095124.372500", "095125.862500", "095127.352500", "095128.842500", "095130.332500", "095131.822500", "095133.312500", "095134.802500", "095136.292500", "095137.782500", "095139.272500", "095140.762500", "095142.252500", "095143.742500", "095145.232500", "095146.722500", "095148.212500", "095149.702500", "095151.192500", "095152.682500", "095154.172500", "095155.662500", "095157.152500", "095158.642500", "095200.132500", "095201.622500", "095203.112500", "095204.602500", "095206.092500", "095207.582500", "095209.072500", "095210.562500", "095212.052500", "095213.542500", "095215.032500", "095216.522500", "095218.012500", "095219.502500", "095220.992500", "095222.482500", "095223.972500", "095225.462500", "095226.952500", "095228.442500", "095229.932500", "095231.422500", "095232.912500", "095234.402500", "095235.892500", "095237.382500", "095238.872500", "095240.362500", "095241.852500", "095243.342500", "095244.832500", "095246.322500", "095247.812500", "095249.302500", "095250.792500", "095252.282500", "095253.772500", "095255.262500", "095256.752500", "095258.242500", "095259.732500", "095301.222500", "095302.712500", "095304.202500", "095305.692500", "095307.182500", "095308.672500", "095310.162500", "095311.652500", "095313.142500", "095314.632500", "095316.122500", "095317.612500", "095319.102500", "095320.592500", "095322.082500", "095323.572500", "095325.062500", "095326.552500", "095328.042500", "095329.532500", "095331.022500", "095332.512500", "095334.002500", "095335.492500", "095336.982500", "095338.472500", "095339.962500", "095341.452500", "095342.942500", "095344.432500", "095345.922500", "095347.412500", "095348.902500", "095350.392500", "095351.882500", "095353.372500", "095354.862500", "095356.352500", "095357.842500", "095359.332500", "095400.822500", "095402.312500", "095403.802500", "095405.292500", "095406.782500", "095408.272500", "095409.762500", "095411.252500", "095412.742500", "095414.232500", "095415.722500", "095417.212500", "095418.702500", "095420.192500", "095421.682500", "095423.172500", "095424.662500", "095426.152500", "095427.642500", "095429.132500", "095430.622500", "095432.112500", "095433.602500", "095435.092500", "095436.582500", "095438.072500", "095439.562500", "095441.052500", "095442.542500", "095444.032500", "095445.522500", "095447.012500", "095448.502500", "095449.992500", "095451.482500", "095452.972500", "095454.462500", "095455.952500", "095457.442500", "095458.932500", "095500.422500", "095501.912500", "095503.402500", "095504.892500", "095506.382500", "095507.872500", "095509.362500", "095510.852500", "095512.342500", "095513.832500", "095515.322500", "095516.812500", "095518.302500", "095519.792500", "095521.282500", "095522.772500", "095524.262500", "095525.752500", "095527.242500", "095528.732500", "095530.222500", "095531.712500", "095533.202500", "095534.692500", "095536.182500", "095537.672500", "095539.162500", "095540.652500", "095542.142500", "095543.632500", "095545.122500"],
      "ContentTime": ["095225.019000", "095225.023000", "095225.027000", "095225.030000", "095225.034000", "095225.037000", "095225.040000", "095225.044000", "095225.047000", "095225.050000", "095225.054000", "095225.057000", "095225.061000", "095225.072000", "095225.080000", "095225.083000", "095225.086000", "095225.090000", "095225.093000", "095225.096000", "095225.100000", "095225.103000", "095225.107000", "095225.110000", "095225.113000", "095225.117000", "095225.120000", "095225.123000", "095244.979000", "095244.983000", "095244.986000", "095244.990000", "095244.993000", "095244.996000", "095245.001000", "095245.004000", "095245.008000", "095245.011000", "095245.014000", "095245.018000", "095245.021000", "095245.025000", "095245.028000", "095245.032000", "095245.035000", "095245.038000", "095245.057000", "095245.061000", "095304.979000", "095304.983000", "095304.986000", "095304.990000", "095304.993000", "095304.996000", "095305.001000", "095305.004000", "095305.007000", "095305.011000", "095305.015000", "095305.018000", "095305.021000", "095305.025000", "095305.028000", "095305.031000", "095305.035000", "095305.038000", "095305.042000", "095305.045000", "095324.979000", "095324.983000", "095324.986000", "095324.990000", "095324.993000", "095324.996000", "095325.001000", "095325.004000", "095325.008000", "095325.011000", "095325.014000", "095325.018000", "095325.021000", "095325.025000", "095325.036000", "095325.040000", "095325.043000", "095325.047000", "095325.050000", "095325.053000", "095404.979000", "095404.983000", "095404.986000", "095404.990000", "095404.993000", "095404.997000", "095405.001000", "095405.004000", "095405.008000", "095405.011000", "095405.015000", "095405.018000", "095405.021000", "095405.025000", "095405.028000", "095405.032000", "095405.035000", "095405.038000", "095405.042000", "095405.045000", "095405.048000", "095405.052000", "095405.055000", "095405.059000", "095405.062000", "095405.066000", "095405.069000", "095405.072000", "095405.076000", "095405.079000", "095405.083000", "095405.086000", "095405.089000", "095444.980000", "095444.984000", "095444.988000", "095444.991000", "095444.995000", "095444.998000", "095445.003000", "095445.006000", "095445.009000", "095445.013000", "095445.016000", "095445.019000", "095445.023000", "095445.026000", "095445.029000", "095445.033000", "095445.037000", "095445.040000", "095445.043000", "095445.047000", "095445.050000", "095445.054000", "095445.057000", "095445.060000", "095445.064000", "095445.067000", "095524.979000", "095524.983000", "095524.987000", "095524.990000", "095524.993000", "095524.997000", "095525.001000", "095525.005000", "095525.008000", "095525.011000", "095525.015000", "095525.018000", "095525.022000", "095525.025000", "095525.028000", "095525.032000", "095525.035000", "095525.039000", "095525.071000", "095525.074000", "095525.078000", "095525.081000", "095525.084000", "095525.088000", "095525.091000", "095525.095000", "095525.098000", "095547.762000", "095547.766000", "095547.770000", "095547.773000", "095547.776000", "095547.780000", "095547.806000", "095547.810000", "095547.813000", "095547.816000", "095547.820000", "095547.823000", "095547.827000", "095547.830000", "095547.833000", "095547.842000"],
      "InstanceCreationTime": ["095225.019000", "095225.023000", "095225.027000", "095225.030000", "095225.034000", "095225.037000", "095225.040000", "095225.044000", "095225.047000", "095225.050000", "095225.054000", "095225.057000", "095225.061000", "095225.072000", "095225.080000", "095225.083000", "095225.086000", "095225.090000", "095225.093000", "095225.096000", "095225.100000", "095225.103000", "095225.107000", "095225.110000", "095225.113000", "095225.117000", "095225.120000", "095225.123000", "095244.979000", "095244.983000", "095244.986000", "095244.990000", "095244.993000", "095244.996000", "095245.001000", "095245.004000", "095245.008000", "095245.011000", "095245.014000", "095245.018000", "095245.021000", "095245.025000", "095245.028000", "095245.032000", "095245.035000", "095245.038000", "095245.057000", "095245.061000", "095304.979000", "095304.983000", "095304.986000", "095304.990000", "095304.993000", "095304.996000", "095305.001000", "095305.004000", "095305.007000", "095305.011000", "095305.015000", "095305.018000", "095305.021000", "095305.025000", "095305.028000", "095305.031000", "095305.035000", "095305.038000", "095305.042000", "095305.045000", "095324.979000", "095324.983000", "095324.986000", "095324.990000", "095324.993000", "095324.996000", "095325.001000", "095325.004000", "095325.008000", "095325.011000", "095325.014000", "095325.018000", "095325.021000", "095325.025000", "095325.036000", "095325.040000", "095325.043000", "095325.047000", "095325.050000", "095325.053000", "095404.979000", "095404.983000", "095404.986000", "095404.990000", "095404.993000", "095404.997000", "095405.001000", "095405.004000", "095405.008000", "095405.011000", "095405.015000", "095405.018000", "095405.021000", "095405.025000", "095405.028000", "095405.032000", "095405.035000", "095405.038000", "095405.042000", "095405.045000", "095405.048000", "095405.052000", "095405.055000", "095405.059000", "095405.062000", "095405.066000", "095405.069000", "095405.072000", "095405.076000", "095405.079000", "095405.083000", "095405.086000", "095405.089000", "095444.980000", "095444.984000", "095444.988000", "095444.991000", "095444.995000", "095444.998000", "095445.003000", "095445.006000", "095445.009000", "095445.013000", "095445.016000", "095445.019000", "095445.023000", "095445.026000", "095445.029000", "095445.033000", "095445.037000", "095445.040000", "095445.043000", "095445.047000", "095445.050000", "095445.054000", "095445.057000", "095445.060000", "095445.064000", "095445.067000", "095524.979000", "095524.983000", "095524.987000", "095524.990000", "095524.993000", "095524.997000", "095525.001000", "095525.005000", "095525.008000", "095525.011000", "095525.015000", "095525.018000", "095525.022000", "095525.025000", "095525.028000", "095525.032000", "095525.035000", "095525.039000", "095525.071000", "095525.074000", "095525.078000", "095525.081000", "095525.084000", "095525.088000", "095525.091000", "095525.095000", "095525.098000", "095547.762000", "095547.766000", "095547.770000", "095547.773000", "095547.776000", "095547.780000", "095547.806000", "095547.810000", "095547.813000", "095547.816000", "095547.820000", "095547.823000", "095547.827000", "095547.830000", "095547.833000", "095547.842000"],
      "InstanceNumber": [1, 2, 3, 4, 5, 6, 7, 8, 9, 10, 11, 12, 13, 14, 15, 16, 17, 18, 19, 20, 21, 22, 23, 24, 25, 26, 27, 28, 29, 30, 31, 32, 33, 34, 35, 36, 37, 38, 39, 40, 41, 42, 43, 44, 45, 46, 47, 48, 49, 50, 51, 52, 53, 54, 55, 56, 57, 58, 59, 60, 61, 62, 63, 64, 65, 66, 67, 68, 69, 70, 71, 72, 73, 74, 75, 76, 77, 78, 79, 80, 81, 82, 83, 84, 85, 86, 87, 88, 89, 90, 91, 92, 93, 94, 95, 96, 97, 98, 99, 100, 101, 102, 103, 104, 105, 106, 107, 108, 109, 110, 111, 112, 113, 114, 115, 116, 117, 118, 119, 120, 121, 122, 123, 124, 125, 126, 127, 128, 129, 130, 131, 132, 133, 134, 135, 136, 137, 138, 139, 140, 141, 142, 143, 144, 145, 146, 147, 148, 149, 150, 151, 152, 153, 154, 155, 156, 157, 158, 159, 160, 161, 162, 163, 164, 165, 166, 167, 168, 169, 170, 171, 172, 173, 174, 175, 176, 177, 178, 179, 180, 181, 182, 183, 184, 185, 186, 187, 188, 189, 190],
      "LargestImagePixelValue": [43421, 42203, 41581, 40993, 42716, 40538, 40281, 40002, 40656, 41995, 43560, 42108, 40672, 40654, 40919, 42767, 42291, 40201, 40249, 40431, 41559, 42393, 43089, 40800, 40462, 40596, 40365, 41607, 42617, 40206, 40723, 42101, 42210, 42963, 41312, 40433, 40269, 41517, 42597, 42237, 40471, 40459, 41338, 42949, 43608, 43005, 40477, 40209, 41066, 40764, 42428, 42766, 39944, 39858, 41728, 42066, 42796, 41958, 40240, 40358, 40771, 42101, 43293, 40830, 40120, 40834, 41789, 40009, 39849, 40058, 41519, 39757, 39935, 40548, 41297, 41897, 42313, 39975, 39742, 41301, 41802, 43859, 40241, 39870, 39532, 42436, 43500, 42420, 40342, 41806, 41865, 42539, 43861, 40478, 40109, 40795, 40970, 41904, 43596, 42754, 39952, 40801, 41372, 41574, 42199, 41758, 40172, 40332, 42396, 42816, 42472, 39791, 40467, 41437, 41997, 39594, 39469, 40824, 41041, 41117, 42531, 40394, 38915, 39880, 40409, 39423, 38704, 39895, 40178, 39324, 38434, 38280, 38371, 39283, 40151, 40467, 41099, 41909, 41639, 38648, 37990, 38509, 38633, 39701, 41633, 40370, 38447, 38627, 39872, 41040, 41845, 38209, 38132, 38361, 39528, 38976, 39854, 37973, 37697, 37940, 38047, 38846, 38298, 38300, 38721, 37898, 37954, 38434, 37936, 38186, 38096, 38110, 37684, 37987, 38938, 37131, 38372, 38359, 37885, 37219, 38026, 37601, 37363, 37123, 37256, 38417, 38427, 38923, 38467, 37982],
      "WindowCenter": [10582.0, 10511.0, 10468.0, 10440.0, 10451.0, 10437.0, 10457.0, 10486.0, 10486.0, 10477.0, 10471.0, 10445.0, 10441.0, 10482.0, 10495.0, 10508.0, 10484.0, 10460.0, 10468.0, 10467.0, 10466.0, 10470.0, 10486.0, 10470.0, 10469.0, 10460.0, 10441.0, 10439.0, 10443.0, 10434.0, 10457.0, 10481.0, 10465.0, 10459.0, 10432.0, 10428.0, 10446.0, 10458.0, 10470.0, 10470.0, 10464.0, 10476.0, 10474.0, 10471.0, 10466.0, 10467.0, 10465.0, 10479.0, 10482.0, 10458.0, 10462.0, 10465.0, 10449.0, 10479.0, 10489.0, 10475.0, 10468.0, 10453.0, 10452.0, 10475.0, 10476.0, 10473.0, 10466.0, 10426.0, 10428.0, 10451.0, 10463.0, 10432.0, 10431.0, 10425.0, 10446.0, 10427.0, 10459.0, 10475.0, 10470.0, 10465.0, 10455.0, 10449.0, 10472.0, 10484.0, 10479.0, 10485.0, 10434.0, 10450.0, 10456.0, 10475.0, 10494.0, 10484.0, 10457.0, 10469.0, 10452.0, 10447.0, 10468.0, 10451.0, 10459.0, 10461.0, 10442.0, 10434.0, 10450.0, 10452.0, 10439.0, 10458.0, 10441.0, 10427.0, 10428.0, 10426.0, 10434.0, 10461.0, 10476.0, 10465.0, 10449.0, 10426.0, 10448.0, 10463.0, 10461.0, 10428.0, 10430.0, 10440.0, 10438.0, 10438.0, 10465.0, 10459.0, 10462.0, 10463.0, 10443.0, 10412.0, 10405.0, 10450.0, 10461.0, 10448.0, 10439.0, 10438.0, 10414.0, 10403.0, 10403.0, 10417.0, 10442.0, 10468.0, 10470.0, 10427.0, 10405.0, 10392.0, 10381.0, 10398.0, 10446.0, 10456.0, 10461.0, 10455.0, 10446.0, 10440.0, 10444.0, 10420.0, 10448.0, 10456.0, 10450.0, 10433.0, 10435.0, 10412.0, 10431.0, 10439.0, 10421.0, 10415.0, 10405.0, 10411.0, 10439.0, 10430.0, 10420.0, 10416.0, 10407.0, 10425.0, 10438.0, 10432.0, 10423.0, 10429.0, 10448.0, 10436.0, 10462.0, 10446.0, 10424.0, 10409.0, 10421.0, 10421.0, 10434.0, 10443.0, 10433.0, 10431.0, 10405.0, 10414.0, 10425.0, 10424.0],
      "WindowWidth": [22482.0, 22300.0, 22192.0, 22126.0, 22141.0, 22113.0, 22166.0, 22234.0, 22230.0, 22200.0, 22174.0, 22123.0, 22125.0, 22225.0, 22255.0, 22274.0, 22219.0, 22174.0, 22194.0, 22188.0, 22180.0, 22184.0, 22218.0, 22188.0, 22191.0, 22170.0, 22125.0, 22111.0, 22119.0, 22110.0, 22167.0, 22210.0, 22171.0, 22152.0, 22094.0, 22096.0, 22137.0, 22161.0, 22184.0, 22183.0, 22180.0, 22213.0, 22206.0, 22188.0, 22175.0, 22179.0, 22186.0, 22221.0, 22219.0, 22164.0, 22166.0, 22170.0, 22152.0, 22222.0, 22237.0, 22195.0, 22174.0, 22144.0, 22151.0, 22208.0, 22209.0, 22192.0, 22171.0, 22088.0, 22097.0, 22147.0, 22168.0, 22103.0, 22103.0, 22091.0, 22129.0, 22099.0, 22173.0, 22206.0, 22188.0, 22173.0, 22151.0, 22149.0, 22207.0, 22227.0, 22207.0, 22211.0, 22110.0, 22149.0, 22165.0, 22193.0, 22234.0, 22215.0, 22166.0, 22181.0, 22143.0, 22127.0, 22172.0, 22144.0, 22170.0, 22168.0, 22120.0, 22099.0, 22129.0, 22136.0, 22123.0, 22162.0, 22121.0, 22083.0, 22084.0, 22087.0, 22115.0, 22178.0, 22200.0, 22170.0, 22132.0, 22091.0, 22140.0, 22171.0, 22165.0, 22094.0, 22104.0, 22123.0, 22114.0, 22115.0, 22173.0, 22170.0, 22185.0, 22180.0, 22131.0, 22061.0, 22050.0, 22150.0, 22175.0, 22149.0, 22132.0, 22131.0, 22075.0, 22042.0, 22039.0, 22070.0, 22128.0, 22184.0, 22188.0, 22100.0, 22056.0, 22024.0, 21998.0, 22031.0, 22133.0, 22166.0, 22185.0, 22167.0, 22139.0, 22120.0, 22129.0, 22092.0, 22161.0, 22175.0, 22152.0, 22114.0, 22113.0, 22072.0, 22120.0, 22134.0, 22090.0, 22071.0, 22047.0, 22064.0, 22131.0, 22111.0, 22085.0, 22073.0, 22052.0, 22097.0, 22128.0, 22117.0, 22094.0, 22108.0, 22147.0, 22134.0, 22185.0, 22149.0, 22101.0, 22066.0, 22094.0, 22090.0, 22125.0, 22153.0, 22127.0, 22112.0, 22055.0, 22072.0, 22099.0, 22101.0]
    },
    "slices": {}
  }
}