{
  "AcquisitionMatrixPE": 104,
  "AcquisitionNumber": 1,
  "AcquisitionTime": "10:11:42.087500",
  "BandwidthPerPixelPhaseEncode": 17.17,
  "BaseResolution": 104,
  "BodyPartExamined": "BRAIN",
  "CoilString": "HC1-7;NC1_2",
  "ConsistencyInfo": "N4_VE11C_LATEST_20160120",
  "ConversionSoftware": "dcm2niix",
  "ConversionSoftwareVersion": "v1.0.20190902",
  "DerivedVendorReportedEchoSpacing": 0.000560011,
  "DeviceSerialNumber": "167006",
  "DwellTime": 2.1e-06,
  "EchoTime": 0.037,
  "EchoTrainLength": 104,
  "EffectiveEchoSpacing": 0.000560011,
  "FlipAngle": 52,
  "ImageComments": "Unaliased_MB4_PE3_LB",
  "ImageOrientationPatientDICOM": [0.995562, 0.0893782, 0.0294456, -0.0680452, 0.899872, -0.430814],
  "ImageType": [
    "ORIGINAL",
    "PRIMARY",
    "M",
    "MB",
    "ND",
    "MOSAIC"
],
  "ImagingFrequency": 123.259,
  "InPlanePhaseEncodingDirectionDICOM": "COL",
  "InstitutionAddress": "Chemin_Queen-Mary_4565_Montreal_District_CA_H3W_1W5",
  "InstitutionName": "IUGM",
  "InstitutionalDepartmentName": "Department",
  "MRAcquisitionType": "2D",
  "MagneticFieldStrength": 3,
  "Manufacturer": "Siemens",
  "ManufacturersModelName": "Prisma_fit",
  "Modality": "MR",
  "MultibandAccelerationFactor": 4,
  "PartialFourier": 1,
  "PatientPosition": "HFS",
  "PercentPhaseFOV": 100,
  "PhaseEncodingDirection": "j",
  "PhaseEncodingSteps": 104,
  "PhaseResolution": 1,
  "PixelBandwidth": 2290,
  "ProcedureStepDescription": "memory_things",
  "ProtocolName": "func_task-things_run-4",
  "PulseSequenceDetails": "%CustomerSeq%_cmrr_mbep2d_bold",
  "ReceiveCoilActiveElements": "HC1-7;NC1,2",
  "ReceiveCoilName": "HeadNeck_64",
  "ReconMatrixPE": 104,
  "RepetitionTime": 1.49,
  "SAR": 0.0504024,
  "ScanOptions": "FS",
  "ScanningSequence": "EP",
  "SequenceName": "epfid2d1_104",
  "SequenceVariant": "SK_SS",
  "SeriesDescription": "func_task-things_run-4",
  "SeriesNumber": 30,
  "ShimSetting": [630, -7155, -8902, 583, 110, 118, -84, -7],
  "SliceThickness": 2,
  "SliceTiming": [0, 0.785, 0.0975, 0.8825, 0.195, 0.98, 0.295, 1.0775, 0.3925, 1.175, 0.49, 1.2725, 0.5875, 1.3725, 0.685, 0, 0.785, 0.0975, 0.8825, 0.195, 0.98, 0.295, 1.0775, 0.3925, 1.175, 0.49, 1.2725, 0.5875, 1.3725, 0.685, 0, 0.785, 0.0975, 0.8825, 0.195, 0.98, 0.295, 1.0775, 0.3925, 1.175, 0.49, 1.2725, 0.5875, 1.3725, 0.685, 0, 0.785, 0.0975, 0.8825, 0.195, 0.98, 0.295, 1.0775, 0.3925, 1.175, 0.49, 1.2725, 0.5875, 1.3725, 0.685],
  "SoftwareVersions": "syngo_MR_E11",
  "SpacingBetweenSlices": 2,
  "StationName": "MRC35049",
  "TaskName": "things",
  "TotalReadoutTime": 0.0576811,
  "TxRefAmp": 273.461,
  "WipMemBlock": "bfa7f22e-5e8c-41ee-ba7c-134359074b90||Sequence: R016 ve11c/master r/e634e98; Dec 19 2017 11:00:25 by eja",
  "dcmmeta_affine": [
    [-1.9911247491836548, -0.136090487241745, 0.13000532984733582, 109.60735321044922],
    [-0.17875634133815765, 1.7997432947158813, -0.8537975549697876, -45.2473258972168],
    [0.05889124050736427, 0.8616284132003784, 1.8039202690124512, -93.54976654052734],
    [0.0, 0.0, 0.0, 1.0]
],
  "dcmmeta_reorient_transform": [
    [0.0, -1.0, 0.0, 103.0],
    [1.0, 0.0, 0.0, 0.0],
    [0.0, 0.0, 1.0, 0.0],
    [0.0, 0.0, 0.0, 1.0]
],
  "dcmmeta_shape": [104, 104, 60, 190],
  "dcmmeta_slice_dim": 2,
  "dcmmeta_version": 0.6,
  "global": {
    "const": {
      "AcquisitionMatrix": [104, 0, 0, 104],
      "AngioFlag": "N",
      "BitsAllocated": 16,
      "BitsStored": 16,
      "BodyPartExamined": "BRAIN",
      "Columns": 832,
      "EchoNumbers": 1,
      "EchoTime": 37.0,
      "EchoTrainLength": 104,
      "FlipAngle": 52.0,
      "HighBit": 15,
      "ImageOrientationPatient": [0.99556240290274, 0.08937817056797, 0.02944562025899, -0.0680452464041, 0.89987163640822, -0.4308142087139],
      "ImagePositionPatient": [-770.82252069303, -860.30009065541, 287.3942892212],
      "ImageType": [
        "ORIGINAL",
        "PRIMARY",
        "M",
        "MB",
        "ND",
        "MOSAIC"
],
      "ImagedNucleus": "1H",
      "ImagingFrequency": 123.259011,
      "InPlanePhaseEncodingDirection": "COL",
      "MRAcquisitionType": "2D",
      "MagneticFieldStrength": 3.0,
      "Manufacturer": "SIEMENS",
      "ManufacturerModelName": "Prisma_fit",
      "Modality": "MR",
      "NumberOfAverages": 1.0,
      "NumberOfPhaseEncodingSteps": 104,
      "PercentPhaseFieldOfView": 100.0,
      "PercentSampling": 100.0,
      "PerformedProcedureStepStartTime": "085549.388000",
      "PhotometricInterpretation": "MONOCHROME2",
      "PixelBandwidth": 2290.0,
      "PixelRepresentation": 0,
      "PixelSpacing": [2.0, 2.0],
      "ProtocolName": "func_task-things_run-4",
      "RepetitionTime": 1490.0,
      "Rows": 832,
      "SAR": 0.050402443607,
      "SamplesPerPixel": 1,
      "ScanOptions": "FS",
      "ScanningSequence": "EP",
      "SequenceName": "epfid2d1_104",
      "SequenceVariant": [
        "SK",
        "SS"
],
      "SeriesDescription": "func_task-things_run-4",
      "SeriesNumber": 30,
      "SeriesTime": "101301.833000",
      "SliceLocation": -57.937363941132,
      "SliceThickness": 2.0,
      "SmallestImagePixelValue": 0,
      "SoftwareVersions": "syngo MR E11",
      "SpacingBetweenSlices": 1.9999999599063,
      "SpecificCharacterSet": "ISO_IR 100",
      "StudyID": "1",
      "StudyTime": "085549.236000",
      "TransmitCoilName": "Body",
      "VariableFlipAngleFlag": "N",
      "WindowCenterWidthExplanation": "Algo1",
      "dBdt": 0.0},
    "slices": {}
  },
  "time": {
    "samples": {
      "AcquisitionNumber": [1, 2, 3, 4, 5, 6, 7, 8, 9, 10, 11, 12, 13, 14, 15, 16, 17, 18, 19, 20, 21, 22, 23, 24, 25, 26, 27, 28, 29, 30, 31, 32, 33, 34, 35, 36, 37, 38, 39, 40, 41, 42, 43, 44, 45, 46, 47, 48, 49, 50, 51, 52, 53, 54, 55, 56, 57, 58, 59, 60, 61, 62, 63, 64, 65, 66, 67, 68, 69, 70, 71, 72, 73, 74, 75, 76, 77, 78, 79, 80, 81, 82, 83, 84, 85, 86, 87, 88, 89, 90, 91, 92, 93, 94, 95, 96, 97, 98, 99, 100, 101, 102, 103, 104, 105, 106, 107, 108, 109, 110, 111, 112, 113, 114, 115, 116, 117, 118, 119, 120, 121, 122, 123, 124, 125, 126, 127, 128, 129, 130, 131, 132, 133, 134, 135, 136, 137, 138, 139, 140, 141, 142, 143, 144, 145, 146, 147, 148, 149, 150, 151, 152, 153, 154, 155, 156, 157, 158, 159, 160, 161, 162, 163, 164, 165, 166, 167, 168, 169, 170, 171, 172, 173, 174, 175, 176, 177, 178, 179, 180, 181, 182, 183, 184, 185, 186, 187, 188, 189, 190],
      "AcquisitionTime": ["101142.087500", "101143.577500", "101145.067500", "101146.557500", "101148.047500", "101149.537500", "101151.027500", "101152.517500", "101154.007500", "101155.497500", "101156.987500", "101158.477500", "101159.967500", "101201.457500", "101202.947500", "101204.437500", "101205.927500", "101207.417500", "101208.907500", "101210.397500", "101211.887500", "101213.377500", "101214.867500", "101216.357500", "101217.847500", "101219.337500", "101220.827500", "101222.317500", "101223.807500", "101225.297500", "101226.787500", "101228.277500", "101229.767500", "101231.257500", "101232.747500", "101234.237500", "101235.727500", "101237.217500", "101238.707500", "101240.197500", "101241.687500", "101243.177500", "101244.667500", "101246.157500", "101247.647500", "101249.137500", "101250.627500", "101252.117500", "101253.607500", "101255.097500", "101256.587500", "101258.077500", "101259.567500", "101301.057500", "101302.547500", "101304.037500", "101305.527500", "101307.017500", "101308.507500", "101309.997500", "101311.487500", "101312.977500", "101314.467500", "101315.957500", "101317.447500", "101318.937500", "101320.427500", "101321.917500", "101323.407500", "101324.897500", "101326.387500", "101327.877500", "101329.367500", "101330.857500", "101332.347500", "101333.837500", "101335.327500", "101336.817500", "101338.307500", "101339.797500", "101341.287500", "101342.777500", "101344.267500", "101345.757500", "101347.247500", "101348.737500", "101350.227500", "101351.717500", "101353.207500", "101354.697500", "101356.187500", "101357.677500", "101359.167500", "101400.657500", "101402.147500", "101403.637500", "101405.127500", "101406.617500", "101408.107500", "101409.597500", "101411.087500", "101412.577500", "101414.067500", "101415.557500", "101417.047500", "101418.537500", "101420.027500", "101421.517500", "101423.007500", "101424.497500", "101425.987500", "101427.477500", "101428.967500", "101430.457500", "101431.947500", "101433.437500", "101434.927500", "101436.417500", "101437.907500", "101439.397500", "101440.887500", "101442.377500", "101443.867500", "101445.357500", "101446.847500", "101448.337500", "101449.827500", "101451.317500", "101452.807500", "101454.297500", "101455.787500", "101457.277500", "101458.767500", "101500.257500", "101501.747500", "101503.237500", "101504.727500", "101506.217500", "101507.707500", "101509.197500", "101510.687500", "101512.177500", "101513.667500", "101515.157500", "101516.647500", "101518.137500", "101519.627500", "101521.117500", "101522.607500", "101524.097500", "101525.587500", "101527.077500", "101528.567500", "101530.057500", "101531.547500", "101533.037500", "101534.527500", "101536.017500", "101537.507500", "101538.997500", "101540.487500", "101541.977500", "101543.467500", "101544.957500", "101546.447500", "101547.937500", "101549.427500", "101550.917500", "101552.407500", "101553.897500", "101555.387500", "101556.877500", "101558.367500", "101559.857500", "101601.347500", "101602.837500", "101604.327500", "101605.817500", "101607.307500", "101608.797500", "101610.287500", "101611.777500", "101613.267500", "101614.757500", "101616.247500", "101617.737500", "101619.227500", "101620.717500", "101622.207500", "101623.697500"],
      "ContentTime": ["101301.836000", "101301.841000", "101301.844000", "101301.848000", "101301.851000", "101301.854000", "101301.858000", "101301.861000", "101301.865000", "101301.868000", "101301.871000", "101301.875000", "101301.878000", "101301.882000", "101301.885000", "101301.888000", "101301.892000", "101301.895000", "101301.898000", "101301.902000", "101301.905000", "101301.909000", "101301.912000", "101301.915000", "101301.919000", "101321.803000", "101321.807000", "101321.811000", "101321.814000", "101321.817000", "101321.821000", "101321.824000", "101321.828000", "101321.831000", "101321.834000", "101321.838000", "101321.841000", "101321.844000", "101321.848000", "101321.851000", "101321.855000", "101321.858000", "101321.861000", "101321.865000", "101321.868000", "101341.803000", "101341.807000", "101341.810000", "101341.814000", "101341.817000", "101341.820000", "101341.824000", "101341.827000", "101341.830000", "101341.834000", "101341.837000", "101341.840000", "101341.844000", "101341.847000", "101341.864000", "101341.868000", "101341.871000", "101341.874000", "101341.879000", "101341.882000", "101401.803000", "101401.807000", "101401.810000", "101401.814000", "101401.817000", "101401.820000", "101401.824000", "101401.827000", "101401.831000", "101401.834000", "101401.837000", "101401.841000", "101401.844000", "101401.848000", "101401.851000", "101401.854000", "101401.858000", "101401.861000", "101401.865000", "101401.868000", "101421.802000", "101421.806000", "101421.809000", "101421.813000", "101421.816000", "101421.820000", "101421.823000", "101421.826000", "101421.830000", "101421.833000", "101421.838000", "101421.842000", "101421.845000", "101421.849000", "101421.852000", "101421.856000", "101421.859000", "101421.863000", "101421.866000", "101421.870000", "101421.873000", "101501.802000", "101501.806000", "101501.810000", "101501.813000", "101501.816000", "101501.820000", "101501.823000", "101501.827000", "101501.830000", "101501.843000", "101501.846000", "101501.850000", "101501.853000", "101501.857000", "101501.860000", "101501.863000", "101501.867000", "101501.870000", "101501.874000", "101501.877000", "101501.881000", "101501.884000", "101501.887000", "101501.891000", "101501.894000", "101501.897000", "101501.901000", "101541.803000", "101541.807000", "101541.810000", "101541.814000", "101541.817000", "101541.821000", "101541.824000", "101541.828000", "101541.831000", "101541.834000", "101541.838000", "101541.841000", "101541.845000", "101541.848000", "101541.851000", "101541.855000", "101541.858000", "101541.862000", "101541.866000", "101541.869000", "101541.880000", "101541.883000", "101541.887000", "101541.890000", "101541.894000", "101541.897000", "101541.900000", "101621.803000", "101621.807000", "101621.810000", "101621.814000", "101621.817000", "101621.821000", "101621.824000", "101621.827000", "101621.831000", "101621.834000", "101621.838000", "101621.841000", "101621.845000", "101621.848000", "101621.851000", "101621.855000", "101621.858000", "101621.862000", "101621.865000", "101621.869000", "101621.872000", "101621.875000", "101621.879000", "101621.882000", "101621.886000", "101621.889000", "101621.892000", "101625.707000", "101625.711000", "101625.715000"],
      "InstanceCreationTime": ["101301.836000", "101301.841000", "101301.844000", "101301.848000", "101301.851000", "101301.854000", "101301.858000", "101301.861000", "101301.865000", "101301.868000", "101301.871000", "101301.875000", "101301.878000", "101301.882000", "101301.885000", "101301.888000", "101301.892000", "101301.895000", "101301.898000", "101301.902000", "101301.905000", "101301.909000", "101301.912000", "101301.915000", "101301.919000", "101321.803000", "101321.807000", "101321.811000", "101321.814000", "101321.817000", "101321.821000", "101321.824000", "101321.828000", "101321.831000", "101321.834000", "101321.838000", "101321.841000", "101321.844000", "101321.848000", "101321.851000", "101321.855000", "101321.858000", "101321.861000", "101321.865000", "101321.868000", "101341.803000", "101341.807000", "101341.810000", "101341.814000", "101341.817000", "101341.820000", "101341.824000", "101341.827000", "101341.830000", "101341.834000", "101341.837000", "101341.840000", "101341.844000", "101341.847000", "101341.864000", "101341.868000", "101341.871000", "101341.874000", "101341.879000", "101341.882000", "101401.803000", "101401.807000", "101401.810000", "101401.814000", "101401.817000", "101401.820000", "101401.824000", "101401.827000", "101401.831000", "101401.834000", "101401.837000", "101401.841000", "101401.844000", "101401.848000", "101401.851000", "101401.854000", "101401.858000", "101401.861000", "101401.865000", "101401.868000", "101421.802000", "101421.806000", "101421.809000", "101421.813000", "101421.816000", "101421.820000", "101421.823000", "101421.826000", "101421.830000", "101421.833000", "101421.838000", "101421.842000", "101421.845000", "101421.849000", "101421.852000", "101421.856000", "101421.859000", "101421.863000", "101421.866000", "101421.870000", "101421.873000", "101501.802000", "101501.806000", "101501.810000", "101501.813000", "101501.816000", "101501.820000", "101501.823000", "101501.827000", "101501.830000", "101501.843000", "101501.846000", "101501.850000", "101501.853000", "101501.857000", "101501.860000", "101501.863000", "101501.867000", "101501.870000", "101501.874000", "101501.877000", "101501.881000", "101501.884000", "101501.887000", "101501.891000", "101501.894000", "101501.897000", "101501.901000", "101541.803000", "101541.807000", "101541.810000", "101541.814000", "101541.817000", "101541.821000", "101541.824000", "101541.828000", "101541.831000", "101541.834000", "101541.838000", "101541.841000", "101541.845000", "101541.848000", "101541.851000", "101541.855000", "101541.858000", "101541.862000", "101541.866000", "101541.869000", "101541.880000", "101541.883000", "101541.887000", "101541.890000", "101541.894000", "101541.897000", "101541.900000", "101621.803000", "101621.807000", "101621.810000", "101621.814000", "101621.817000", "101621.821000", "101621.824000", "101621.827000", "101621.831000", "101621.834000", "101621.838000", "101621.841000", "101621.845000", "101621.848000", "101621.851000", "101621.855000", "101621.858000", "101621.862000", "101621.865000", "101621.869000", "101621.872000", "101621.875000", "101621.879000", "101621.882000", "101621.886000", "101621.889000", "101621.892000", "101625.707000", "101625.711000", "101625.715000"],
      "InstanceNumber": [1, 2, 3, 4, 5, 6, 7, 8, 9, 10, 11, 12, 13, 14, 15, 16, 17, 18, 19, 20, 21, 22, 23, 24, 25, 26, 27, 28, 29, 30, 31, 32, 33, 34, 35, 36, 37, 38, 39, 40, 41, 42, 43, 44, 45, 46, 47, 48, 49, 50, 51, 52, 53, 54, 55, 56, 57, 58, 59, 60, 61, 62, 63, 64, 65, 66, 67, 68, 69, 70, 71, 72, 73, 74, 75, 76, 77, 78, 79, 80, 81, 82, 83, 84, 85, 86, 87, 88, 89, 90, 91, 92, 93, 94, 95, 96, 97, 98, 99, 100, 101, 102, 103, 104, 105, 106, 107, 108, 109, 110, 111, 112, 113, 114, 115, 116, 117, 118, 119, 120, 121, 122, 123, 124, 125, 126, 127, 128, 129, 130, 131, 132, 133, 134, 135, 136, 137, 138, 139, 140, 141, 142, 143, 144, 145, 146, 147, 148, 149, 150, 151, 152, 153, 154, 155, 156, 157, 158, 159, 160, 161, 162, 163, 164, 165, 166, 167, 168, 169, 170, 171, 172, 173, 174, 175, 176, 177, 178, 179, 180, 181, 182, 183, 184, 185, 186, 187, 188, 189, 190],
      "LargestImagePixelValue": [45612, 45432, 44661, 43716, 42956, 42868, 43270, 44419, 44552, 43709, 44040, 42706, 43936, 43470, 43308, 44590, 44556, 44386, 43913, 44642, 44245, 43495, 45617, 44612, 44507, 42878, 44166, 44606, 45426, 44812, 44441, 44062, 43754, 45084, 44175, 44230, 45652, 45521, 44448, 44228, 44582, 44146, 44635, 45290, 44381, 44375, 44132, 46164, 46064, 45715, 45115, 45321, 46368, 46436, 46129, 45286, 44548, 45215, 45695, 46099, 45796, 46563, 46269, 45054, 44716, 46365, 45902, 45546, 45335, 44348, 45066, 45417, 44677, 43544, 43142, 43798, 44810, 45984, 45353, 45338, 45596, 45838, 44402, 44816, 45455, 46269, 45827, 44795, 44843, 45656, 45158, 45060, 45334, 46764, 45701, 44371, 44827, 44772, 44608, 44611, 43644, 42838, 42755, 43510, 42873, 42958, 42516, 41419, 41222, 41881, 41631, 41453, 41692, 41804, 42332, 41867, 41578, 41451, 41491, 41323, 42050, 41511, 41449, 41377, 41218, 41272, 41106, 41194, 41466, 39896, 39507, 39106, 38707, 38429, 38625, 38669, 38516, 39316, 40537, 39235, 38658, 38750, 38694, 38364, 38110, 38386, 39001, 38879, 38905, 39880, 38677, 39310, 40946, 38735, 38590, 38459, 38846, 38741, 39063, 39168, 38986, 39407, 39828, 39292, 39105, 38340, 38520, 38788, 38505, 39698, 39627, 38858, 39438, 39971, 39599, 39403, 39636, 39593, 39322, 39061, 39925, 39638, 39489, 38835, 38872, 39655, 39642, 40377, 39861, 39306],
      "WindowCenter": [10628.0, 10596.0, 10595.0, 10595.0, 10610.0, 10610.0, 10599.0, 10591.0, 10586.0, 10573.0, 10582.0, 10597.0, 10605.0, 10579.0, 10562.0, 10568.0, 10575.0, 10585.0, 10582.0, 10593.0, 10573.0, 10558.0, 10562.0, 10566.0, 10610.0, 10614.0, 10601.0, 10573.0, 10561.0, 10545.0, 10548.0, 10564.0, 10590.0, 10602.0, 10570.0, 10544.0, 10541.0, 10529.0, 10532.0, 10555.0, 10565.0, 10559.0, 10563.0, 10564.0, 10572.0, 10582.0, 10560.0, 10554.0, 10548.0, 10542.0, 10562.0, 10592.0, 10589.0, 10571.0, 10560.0, 10552.0, 10563.0, 10587.0, 10586.0, 10575.0, 10563.0, 10562.0, 10557.0, 10564.0, 10585.0, 10597.0, 10576.0, 10565.0, 10556.0, 10569.0, 10594.0, 10594.0, 10571.0, 10556.0, 10576.0, 10594.0, 10598.0, 10592.0, 10585.0, 10593.0, 10603.0, 10603.0, 10591.0, 10574.0, 10559.0, 10559.0, 10567.0, 10591.0, 10606.0, 10602.0, 10570.0, 10551.0, 10549.0, 10581.0, 10596.0, 10600.0, 10591.0, 10565.0, 10546.0, 10536.0, 10539.0, 10569.0, 10598.0, 10594.0, 10577.0, 10550.0, 10533.0, 10530.0, 10573.0, 10580.0, 10556.0, 10536.0, 10533.0, 10539.0, 10555.0, 10545.0, 10555.0, 10556.0, 10547.0, 10531.0, 10542.0, 10552.0, 10577.0, 10584.0, 10577.0, 10573.0, 10552.0, 10580.0, 10599.0, 10574.0, 10576.0, 10581.0, 10568.0, 10540.0, 10519.0, 10517.0, 10544.0, 10578.0, 10597.0, 10571.0, 10550.0, 10530.0, 10509.0, 10498.0, 10493.0, 10526.0, 10559.0, 10554.0, 10541.0, 10534.0, 10526.0, 10551.0, 10572.0, 10553.0, 10561.0, 10561.0, 10550.0, 10531.0, 10526.0, 10525.0, 10534.0, 10568.0, 10577.0, 10561.0, 10534.0, 10511.0, 10518.0, 10545.0, 10549.0, 10551.0, 10538.0, 10526.0, 10550.0, 10574.0, 10565.0, 10559.0, 10557.0, 10563.0, 10574.0, 10569.0, 10585.0, 10573.0, 10554.0, 10529.0, 10546.0, 10587.0, 10591.0, 10587.0, 10568.0, 10556.0],
      "WindowWidth": [22568.0, 22477.0, 22468.0, 22471.0, 22507.0, 22502.0, 22470.0, 22446.0, 22432.0, 22406.0, 22428.0, 22472.0, 22487.0, 22422.0, 22382.0, 22392.0, 22408.0, 22433.0, 22427.0, 22450.0, 22405.0, 22375.0, 22378.0, 22390.0, 22502.0, 22515.0, 22479.0, 22409.0, 22372.0, 22337.0, 22347.0, 22387.0, 22455.0, 22476.0, 22401.0, 22339.0, 22327.0, 22298.0, 22312.0, 22373.0, 22391.0, 22377.0, 22386.0, 22381.0, 22408.0, 22432.0, 22379.0, 22355.0, 22340.0, 22330.0, 22383.0, 22452.0, 22439.0, 22393.0, 22372.0, 22354.0, 22395.0, 22446.0, 22440.0, 22409.0, 22379.0, 22371.0, 22362.0, 22386.0, 22436.0, 22461.0, 22414.0, 22386.0, 22367.0, 22410.0, 22462.0, 22458.0, 22409.0, 22378.0, 22426.0, 22468.0, 22472.0, 22451.0, 22439.0, 22460.0, 22481.0, 22480.0, 22455.0, 22411.0, 22375.0, 22371.0, 22387.0, 22452.0, 22490.0, 22475.0, 22400.0, 22354.0, 22350.0, 22420.0, 22458.0, 22474.0, 22451.0, 22389.0, 22347.0, 22327.0, 22338.0, 22414.0, 22480.0, 22469.0, 22429.0, 22362.0, 22327.0, 22329.0, 22432.0, 22441.0, 22383.0, 22335.0, 22327.0, 22341.0, 22378.0, 22357.0, 22381.0, 22387.0, 22364.0, 22331.0, 22354.0, 22381.0, 22438.0, 22455.0, 22437.0, 22427.0, 22381.0, 22445.0, 22489.0, 22437.0, 22442.0, 22462.0, 22437.0, 22367.0, 22317.0, 22313.0, 22378.0, 22452.0, 22485.0, 22428.0, 22384.0, 22335.0, 22287.0, 22262.0, 22254.0, 22338.0, 22409.0, 22394.0, 22359.0, 22337.0, 22330.0, 22391.0, 22430.0, 22393.0, 22421.0, 22416.0, 22391.0, 22342.0, 22327.0, 22325.0, 22347.0, 22427.0, 22443.0, 22411.0, 22342.0, 22293.0, 22314.0, 22380.0, 22387.0, 22385.0, 22350.0, 22330.0, 22388.0, 22445.0, 22417.0, 22408.0, 22402.0, 22416.0, 22444.0, 22431.0, 22469.0, 22442.0, 22395.0, 22339.0, 22382.0, 22473.0, 22481.0, 22469.0, 22421.0, 22400.0]
    },
    "slices": {}
  }
}