{
  "AcquisitionMatrixPE": 104,
  "AcquisitionNumber": 1,
  "AcquisitionTime": "10:17:56.410000",
  "BandwidthPerPixelPhaseEncode": 17.17,
  "BaseResolution": 104,
  "BodyPartExamined": "BRAIN",
  "CoilString": "HC1-7;NC1_2",
  "ConsistencyInfo": "N4_VE11C_LATEST_20160120",
  "ConversionSoftware": "dcm2niix",
  "ConversionSoftwareVersion": "v1.0.20190902",
  "DerivedVendorReportedEchoSpacing": 0.000560011,
  "DeviceSerialNumber": "167006",
  "DwellTime": 2.1e-06,
  "EchoTime": 0.037,
  "EchoTrainLength": 104,
  "EffectiveEchoSpacing": 0.000560011,
  "FlipAngle": 52,
  "ImageComments": "Unaliased_MB4_PE3_LB",
  "ImageOrientationPatientDICOM": [0.995562, 0.0893782, 0.0294456, -0.0680452, 0.899872, -0.430814],
  "ImageType": [
    "ORIGINAL",
    "PRIMARY",
    "P",
    "MB",
    "ND",
    "MOSAIC"
],
  "ImagingFrequency": 123.259,
  "InPlanePhaseEncodingDirectionDICOM": "COL",
  "InstitutionAddress": "Chemin_Queen-Mary_4565_Montreal_District_CA_H3W_1W5",
  "InstitutionName": "IUGM",
  "InstitutionalDepartmentName": "Department",
  "MRAcquisitionType": "2D",
  "MagneticFieldStrength": 3,
  "Manufacturer": "Siemens",
  "ManufacturersModelName": "Prisma_fit",
  "Modality": "MR",
  "MultibandAccelerationFactor": 4,
  "PartialFourier": 1,
  "PatientPosition": "HFS",
  "PercentPhaseFOV": 100,
  "PhaseEncodingDirection": "j",
  "PhaseEncodingSteps": 104,
  "PhaseResolution": 1,
  "PixelBandwidth": 2290,
  "ProcedureStepDescription": "memory_things",
  "ProtocolName": "func_task-things_run-5",
  "PulseSequenceDetails": "%CustomerSeq%_cmrr_mbep2d_bold",
  "ReceiveCoilActiveElements": "HC1-7;NC1,2",
  "ReceiveCoilName": "HeadNeck_64",
  "ReconMatrixPE": 104,
  "RepetitionTime": 1.49,
  "SAR": 0.0504024,
  "ScanOptions": "FS",
  "ScanningSequence": "EP",
  "SequenceName": "epfid2d1_104",
  "SequenceVariant": "SK_SS",
  "SeriesDescription": "func_task-things_run-5",
  "SeriesNumber": 34,
  "ShimSetting": [630, -7155, -8902, 583, 110, 118, -84, -7],
  "SliceThickness": 2,
  "SliceTiming": [0, 0.7825, 0.0975, 0.88, 0.195, 0.98, 0.2925, 1.0775, 0.39, 1.175, 0.49, 1.2725, 0.5875, 1.37, 0.685, 0, 0.7825, 0.0975, 0.88, 0.195, 0.98, 0.2925, 1.0775, 0.39, 1.175, 0.49, 1.2725, 0.5875, 1.37, 0.685, 0, 0.7825, 0.0975, 0.88, 0.195, 0.98, 0.2925, 1.0775, 0.39, 1.175, 0.49, 1.2725, 0.5875, 1.37, 0.685, 0, 0.7825, 0.0975, 0.88, 0.195, 0.98, 0.2925, 1.0775, 0.39, 1.175, 0.49, 1.2725, 0.5875, 1.37, 0.685],
  "SoftwareVersions": "syngo_MR_E11",
  "SpacingBetweenSlices": 2,
  "StationName": "MRC35049",
  "TaskName": "things",
  "TotalReadoutTime": 0.0576811,
  "TxRefAmp": 273.461,
  "WipMemBlock": "26fd1fdb-3e3f-4442-938d-a1f64528d96d||Sequence: R016 ve11c/master r/e634e98; Dec 19 2017 11:00:25 by eja",
  "dcmmeta_affine": [
    [-1.9911247491836548, -0.136090487241745, 0.13000532984733582, 109.60735321044922],
    [-0.17875634133815765, 1.7997432947158813, -0.8537975549697876, -45.2473258972168],
    [0.05889124050736427, 0.8616284132003784, 1.8039202690124512, -93.54976654052734],
    [0.0, 0.0, 0.0, 1.0]
],
  "dcmmeta_reorient_transform": [
    [0.0, -1.0, 0.0, 103.0],
    [1.0, 0.0, 0.0, 0.0],
    [0.0, 0.0, 1.0, 0.0],
    [0.0, 0.0, 0.0, 1.0]
],
  "dcmmeta_shape": [104, 104, 60, 190],
  "dcmmeta_slice_dim": 2,
  "dcmmeta_version": 0.6,
  "global": {
    "const": {
      "AcquisitionMatrix": [104, 0, 0, 104],
      "AngioFlag": "N",
      "BitsAllocated": 16,
      "BitsStored": 16,
      "BodyPartExamined": "BRAIN",
      "Columns": 832,
      "EchoNumbers": 1,
      "EchoTime": 37.0,
      "EchoTrainLength": 104,
      "FlipAngle": 52.0,
      "HighBit": 15,
      "ImageOrientationPatient": [0.99556240290274, 0.08937817056797, 0.02944562025899, -0.0680452464041, 0.89987163640822, -0.4308142087139],
      "ImagePositionPatient": [-770.82252069303, -860.30009065541, 287.3942892212],
      "ImageType": [
        "ORIGINAL",
        "PRIMARY",
        "P",
        "MB",
        "ND",
        "MOSAIC"
],
      "ImagedNucleus": "1H",
      "ImagingFrequency": 123.25901,
      "InPlanePhaseEncodingDirection": "COL",
      "LargestImagePixelValue": 4095,
      "MRAcquisitionType": "2D",
      "MagneticFieldStrength": 3.0,
      "Manufacturer": "SIEMENS",
      "ManufacturerModelName": "Prisma_fit",
      "Modality": "MR",
      "NumberOfAverages": 1.0,
      "NumberOfPhaseEncodingSteps": 104,
      "PercentPhaseFieldOfView": 100.0,
      "PercentSampling": 100.0,
      "PerformedProcedureStepStartTime": "085549.388000",
      "PhotometricInterpretation": "MONOCHROME2",
      "PixelBandwidth": 2290.0,
      "PixelRepresentation": 0,
      "PixelSpacing": [2.0, 2.0],
      "ProtocolName": "func_task-things_run-5",
      "RepetitionTime": 1490.0,
      "RescaleIntercept": -4096.0,
      "RescaleSlope": 2.0,
      "RescaleType": "US",
      "Rows": 832,
      "SAR": 0.050402443607,
      "SamplesPerPixel": 1,
      "ScanOptions": "FS",
      "ScanningSequence": "EP",
      "SequenceName": "epfid2d1_104",
      "SequenceVariant": [
        "SK",
        "SS"
],
      "SeriesDescription": "func_task-things_run-5",
      "SeriesNumber": 34,
      "SeriesTime": "101925.188000",
      "SliceLocation": -57.937363941132,
      "SliceThickness": 2.0,
      "SmallestImagePixelValue": 0,
      "SoftwareVersions": "syngo MR E11",
      "SpacingBetweenSlices": 1.9999999599063,
      "SpecificCharacterSet": "ISO_IR 100",
      "StudyID": "1",
      "StudyTime": "085549.236000",
      "TransmitCoilName": "Body",
      "VariableFlipAngleFlag": "N",
      "WindowCenterWidthExplanation": "Algo1",
      "dBdt": 0.0},
    "slices": {}
  },
  "time": {
    "samples": {
      "AcquisitionNumber": [1, 2, 3, 4, 5, 6, 7, 8, 9, 10, 11, 12, 13, 14, 15, 16, 17, 18, 19, 20, 21, 22, 23, 24, 25, 26, 27, 28, 29, 30, 31, 32, 33, 34, 35, 36, 37, 38, 39, 40, 41, 42, 43, 44, 45, 46, 47, 48, 49, 50, 51, 52, 53, 54, 55, 56, 57, 58, 59, 60, 61, 62, 63, 64, 65, 66, 67, 68, 69, 70, 71, 72, 73, 74, 75, 76, 77, 78, 79, 80, 81, 82, 83, 84, 85, 86, 87, 88, 89, 90, 91, 92, 93, 94, 95, 96, 97, 98, 99, 100, 101, 102, 103, 104, 105, 106, 107, 108, 109, 110, 111, 112, 113, 114, 115, 116, 117, 118, 119, 120, 121, 122, 123, 124, 125, 126, 127, 128, 129, 130, 131, 132, 133, 134, 135, 136, 137, 138, 139, 140, 141, 142, 143, 144, 145, 146, 147, 148, 149, 150, 151, 152, 153, 154, 155, 156, 157, 158, 159, 160, 161, 162, 163, 164, 165, 166, 167, 168, 169, 170, 171, 172, 173, 174, 175, 176, 177, 178, 179, 180, 181, 182, 183, 184, 185, 186, 187, 188, 189, 190],
      "AcquisitionTime": ["101756.410000", "101757.900000", "101759.390000", "101800.880000", "101802.370000", "101803.860000", "101805.350000", "101806.840000", "101808.330000", "101809.820000", "101811.310000", "101812.800000", "101814.290000", "101815.780000", "101817.270000", "101818.760000", "101820.250000", "101821.740000", "101823.230000", "101824.720000", "101826.210000", "101827.700000", "101829.190000", "101830.680000", "101832.170000", "101833.660000", "101835.150000", "101836.640000", "101838.130000", "101839.620000", "101841.110000", "101842.600000", "101844.090000", "101845.580000", "101847.070000", "101848.560000", "101850.050000", "101851.540000", "101853.030000", "101854.520000", "101856.010000", "101857.500000", "101858.990000", "101900.480000", "101901.970000", "101903.460000", "101904.950000", "101906.440000", "101907.930000", "101909.420000", "101910.910000", "101912.400000", "101913.890000", "101915.380000", "101916.870000", "101918.360000", "101919.850000", "101921.340000", "101922.830000", "101924.320000", "101925.810000", "101927.300000", "101928.790000", "101930.280000", "101931.770000", "101933.260000", "101934.750000", "101936.240000", "101937.730000", "101939.220000", "101940.710000", "101942.200000", "101943.690000", "101945.180000", "101946.670000", "101948.160000", "101949.650000", "101951.140000", "101952.630000", "101954.120000", "101955.610000", "101957.100000", "101958.590000", "102000.080000", "102001.570000", "102003.060000", "102004.550000", "102006.040000", "102007.530000", "102009.020000", "102010.510000", "102012.000000", "102013.490000", "102014.980000", "102016.470000", "102017.960000", "102019.450000", "102020.940000", "102022.430000", "102023.920000", "102025.410000", "102026.900000", "102028.390000", "102029.880000", "102031.370000", "102032.860000", "102034.350000", "102035.840000", "102037.330000", "102038.820000", "102040.310000", "102041.800000", "102043.290000", "102044.780000", "102046.270000", "102047.760000", "102049.250000", "102050.740000", "102052.230000", "102053.720000", "102055.210000", "102056.700000", "102058.190000", "102059.680000", "102101.170000", "102102.660000", "102104.150000", "102105.640000", "102107.130000", "102108.620000", "102110.110000", "102111.600000", "102113.090000", "102114.580000", "102116.070000", "102117.560000", "102119.050000", "102120.540000", "102122.030000", "102123.520000", "102125.010000", "102126.500000", "102127.990000", "102129.480000", "102130.970000", "102132.460000", "102133.950000", "102135.440000", "102136.930000", "102138.420000", "102139.910000", "102141.400000", "102142.890000", "102144.380000", "102145.870000", "102147.360000", "102148.850000", "102150.340000", "102151.830000", "102153.320000", "102154.810000", "102156.300000", "102157.790000", "102159.280000", "102200.770000", "102202.260000", "102203.750000", "102205.240000", "102206.730000", "102208.220000", "102209.710000", "102211.200000", "102212.690000", "102214.180000", "102215.670000", "102217.160000", "102218.650000", "102220.140000", "102221.630000", "102223.120000", "102224.610000", "102226.100000", "102227.590000", "102229.080000", "102230.570000", "102232.060000", "102233.550000", "102235.040000", "102236.530000", "102238.020000"],
      "ContentTime": ["101925.190000", "101925.202000", "101925.204000", "101925.207000", "101925.209000", "101925.212000", "101925.215000", "101925.217000", "101925.220000", "101925.222000", "101925.225000", "101925.227000", "101925.230000", "101925.233000", "101925.235000", "101925.238000", "101925.240000", "101925.243000", "101925.245000", "101925.248000", "101925.250000", "101925.253000", "101925.256000", "101925.258000", "101925.261000", "101925.263000", "101925.266000", "101925.268000", "101925.271000", "101925.273000", "101925.276000", "101925.279000", "101925.281000", "101925.284000", "101925.286000", "101945.096000", "101945.099000", "101945.102000", "101945.104000", "101945.107000", "101945.110000", "101945.112000", "101945.115000", "101945.117000", "101945.120000", "101945.122000", "101945.125000", "101945.127000", "101945.130000", "101945.132000", "101945.135000", "101945.138000", "101945.140000", "101945.143000", "101945.145000", "102005.627000", "102005.629000", "102005.632000", "102005.635000", "102005.637000", "102005.640000", "102005.642000", "102005.645000", "102005.647000", "102005.650000", "102005.652000", "102005.655000", "102005.657000", "102005.660000", "102005.662000", "102005.665000", "102005.667000", "102005.670000", "102005.672000", "102005.675000", "102025.090000", "102025.093000", "102025.096000", "102025.099000", "102025.103000", "102025.105000", "102025.108000", "102025.110000", "102025.113000", "102025.115000", "102025.118000", "102025.120000", "102025.123000", "102025.125000", "102025.128000", "102025.130000", "102025.133000", "102025.135000", "102025.138000", "102025.141000", "102105.154000", "102105.157000", "102105.159000", "102105.162000", "102105.164000", "102105.167000", "102105.169000", "102105.172000", "102105.174000", "102105.177000", "102105.179000", "102105.182000", "102105.185000", "102105.187000", "102105.190000", "102105.192000", "102105.195000", "102105.197000", "102105.200000", "102105.202000", "102105.205000", "102105.207000", "102105.210000", "102105.212000", "102105.215000", "102105.218000", "102105.220000", "102105.223000", "102105.225000", "102105.228000", "102105.230000", "102145.115000", "102145.118000", "102145.121000", "102145.123000", "102145.126000", "102145.129000", "102145.131000", "102145.134000", "102145.136000", "102145.139000", "102145.142000", "102145.144000", "102145.147000", "102145.150000", "102145.152000", "102145.155000", "102145.158000", "102145.160000", "102145.163000", "102145.165000", "102145.168000", "102145.171000", "102145.173000", "102145.176000", "102145.179000", "102145.181000", "102145.184000", "102225.124000", "102225.127000", "102225.130000", "102225.132000", "102225.135000", "102225.137000", "102225.140000", "102225.143000", "102225.145000", "102225.148000", "102225.150000", "102225.153000", "102225.155000", "102225.158000", "102225.160000", "102225.163000", "102225.165000", "102225.168000", "102225.171000", "102225.173000", "102225.176000", "102225.179000", "102225.181000", "102225.184000", "102225.186000", "102225.189000", "102240.216000", "102240.219000", "102240.221000", "102240.224000", "102240.226000", "102240.229000", "102240.232000", "102240.234000", "102240.237000", "102240.239000", "102240.242000"],
      "InstanceCreationTime": ["101925.190000", "101925.202000", "101925.204000", "101925.207000", "101925.209000", "101925.212000", "101925.215000", "101925.217000", "101925.220000", "101925.222000", "101925.225000", "101925.227000", "101925.230000", "101925.233000", "101925.235000", "101925.238000", "101925.240000", "101925.243000", "101925.245000", "101925.248000", "101925.250000", "101925.253000", "101925.256000", "101925.258000", "101925.261000", "101925.263000", "101925.266000", "101925.268000", "101925.271000", "101925.273000", "101925.276000", "101925.279000", "101925.281000", "101925.284000", "101925.286000", "101945.096000", "101945.099000", "101945.102000", "101945.104000", "101945.107000", "101945.110000", "101945.112000", "101945.115000", "101945.117000", "101945.120000", "101945.122000", "101945.125000", "101945.127000", "101945.130000", "101945.132000", "101945.135000", "101945.138000", "101945.140000", "101945.143000", "101945.145000", "102005.627000", "102005.629000", "102005.632000", "102005.635000", "102005.637000", "102005.640000", "102005.642000", "102005.645000", "102005.647000", "102005.650000", "102005.652000", "102005.655000", "102005.657000", "102005.660000", "102005.662000", "102005.665000", "102005.667000", "102005.670000", "102005.672000", "102005.675000", "102025.090000", "102025.093000", "102025.096000", "102025.099000", "102025.103000", "102025.105000", "102025.108000", "102025.110000", "102025.113000", "102025.115000", "102025.118000", "102025.120000", "102025.123000", "102025.125000", "102025.128000", "102025.130000", "102025.133000", "102025.135000", "102025.138000", "102025.141000", "102105.154000", "102105.157000", "102105.159000", "102105.162000", "102105.164000", "102105.167000", "102105.169000", "102105.172000", "102105.174000", "102105.177000", "102105.179000", "102105.182000", "102105.185000", "102105.187000", "102105.190000", "102105.192000", "102105.195000", "102105.197000", "102105.200000", "102105.202000", "102105.205000", "102105.207000", "102105.210000", "102105.212000", "102105.215000", "102105.218000", "102105.220000", "102105.223000", "102105.225000", "102105.228000", "102105.230000", "102145.115000", "102145.118000", "102145.121000", "102145.123000", "102145.126000", "102145.129000", "102145.131000", "102145.134000", "102145.136000", "102145.139000", "102145.142000", "102145.144000", "102145.147000", "102145.150000", "102145.152000", "102145.155000", "102145.158000", "102145.160000", "102145.163000", "102145.165000", "102145.168000", "102145.171000", "102145.173000", "102145.176000", "102145.179000", "102145.181000", "102145.184000", "102225.124000", "102225.127000", "102225.130000", "102225.132000", "102225.135000", "102225.137000", "102225.140000", "102225.143000", "102225.145000", "102225.148000", "102225.150000", "102225.153000", "102225.155000", "102225.158000", "102225.160000", "102225.163000", "102225.165000", "102225.168000", "102225.171000", "102225.173000", "102225.176000", "102225.179000", "102225.181000", "102225.184000", "102225.186000", "102225.189000", "102240.216000", "102240.219000", "102240.221000", "102240.224000", "102240.226000", "102240.229000", "102240.232000", "102240.234000", "102240.237000", "102240.239000", "102240.242000"],
      "InstanceNumber": [1, 2, 3, 4, 5, 6, 7, 8, 9, 10, 11, 12, 13, 14, 15, 16, 17, 18, 19, 20, 21, 22, 23, 24, 25, 26, 27, 28, 29, 30, 31, 32, 33, 34, 35, 36, 37, 38, 39, 40, 41, 42, 43, 44, 45, 46, 47, 48, 49, 50, 51, 52, 53, 54, 55, 56, 57, 58, 59, 60, 61, 62, 63, 64, 65, 66, 67, 68, 69, 70, 71, 72, 73, 74, 75, 76, 77, 78, 79, 80, 81, 82, 83, 84, 85, 86, 87, 88, 89, 90, 91, 92, 93, 94, 95, 96, 97, 98, 99, 100, 101, 102, 103, 104, 105, 106, 107, 108, 109, 110, 111, 112, 113, 114, 115, 116, 117, 118, 119, 120, 121, 122, 123, 124, 125, 126, 127, 128, 129, 130, 131, 132, 133, 134, 135, 136, 137, 138, 139, 140, 141, 142, 143, 144, 145, 146, 147, 148, 149, 150, 151, 152, 153, 154, 155, 156, 157, 158, 159, 160, 161, 162, 163, 164, 165, 166, 167, 168, 169, 170, 171, 172, 173, 174, 175, 176, 177, 178, 179, 180, 181, 182, 183, 184, 185, 186, 187, 188, 189, 190],
      "WindowCenter": [4854.0, 4854.0, 4854.0, 4854.0, 4854.0, 4850.0, 4856.0, 4856.0, 4852.0, 4854.0, 4854.0, 4854.0, 4852.0, 4852.0, 4854.0, 4854.0, 4854.0, 4852.0, 4854.0, 4854.0, 4852.0, 4854.0, 4852.0, 4852.0, 4852.0, 4854.0, 4876.0, 4878.0, 4856.0, 4854.0, 4852.0, 4856.0, 4854.0, 4852.0, 4852.0, 4854.0, 4852.0, 4854.0, 4856.0, 4850.0, 4856.0, 4854.0, 4856.0, 4852.0, 4852.0, 4856.0, 4856.0, 4854.0, 4854.0, 4856.0, 4854.0, 4854.0, 4854.0, 4854.0, 4854.0, 4852.0, 4854.0, 4876.0, 4854.0, 4856.0, 4880.0, 4856.0, 4854.0, 4856.0, 4854.0, 4858.0, 4854.0, 4858.0, 4880.0, 4856.0, 4858.0, 4856.0, 4856.0, 4854.0, 4856.0, 4856.0, 4856.0, 4858.0, 4858.0, 4856.0, 4858.0, 4876.0, 4860.0, 4856.0, 4856.0, 4856.0, 4880.0, 4852.0, 4856.0, 4856.0, 4856.0, 4860.0, 4856.0, 4880.0, 4852.0, 4878.0, 4856.0, 4856.0, 4852.0, 4856.0, 4856.0, 4858.0, 4854.0, 4856.0, 4856.0, 4882.0, 4880.0, 4858.0, 4856.0, 4856.0, 4854.0, 4882.0, 4878.0, 4878.0, 4858.0, 4878.0, 4856.0, 4854.0, 4858.0, 4854.0, 4854.0, 4856.0, 4856.0, 4856.0, 4858.0, 4856.0, 4858.0, 4880.0, 4878.0, 4856.0, 4858.0, 4854.0, 4856.0, 4856.0, 4880.0, 4882.0, 4880.0, 4852.0, 4854.0, 4854.0, 4856.0, 4880.0, 4876.0, 4856.0, 4858.0, 4856.0, 4860.0, 4876.0, 4854.0, 4854.0, 4856.0, 4856.0, 4852.0, 4880.0, 4880.0, 4858.0, 4856.0, 4856.0, 4882.0, 4882.0, 4882.0, 4854.0, 4856.0, 4852.0, 4856.0, 4880.0, 4878.0, 4854.0, 4854.0, 4854.0, 4854.0, 4856.0, 4854.0, 4856.0, 4878.0, 4878.0, 4858.0, 4856.0, 4858.0, 4856.0, 4858.0, 4880.0, 4854.0, 4854.0, 4856.0, 4856.0, 4854.0, 4858.0, 4878.0, 4856.0],
      "WindowWidth": [18618.0, 18622.0, 18622.0, 18624.0, 18620.0, 18626.0, 18628.0, 18620.0, 18618.0, 18624.0, 18622.0, 18622.0, 18618.0, 18622.0, 18622.0, 18618.0, 18624.0, 18622.0, 18622.0, 18628.0, 18622.0, 18618.0, 18620.0, 18620.0, 18620.0, 18624.0, 18658.0, 18660.0, 18628.0, 18618.0, 18618.0, 18620.0, 18624.0, 18614.0, 18616.0, 18620.0, 18616.0, 18624.0, 18622.0, 18612.0, 18618.0, 18614.0, 18622.0, 18614.0, 18620.0, 18624.0, 18622.0, 18614.0, 18616.0, 18618.0, 18618.0, 18618.0, 18622.0, 18622.0, 18622.0, 18618.0, 18618.0, 18654.0, 18618.0, 18624.0, 18650.0, 18620.0, 18614.0, 18620.0, 18620.0, 18614.0, 18620.0, 18622.0, 18656.0, 18624.0, 18618.0, 18620.0, 18616.0, 18618.0, 18622.0, 18624.0, 18620.0, 18622.0, 18618.0, 18618.0, 18622.0, 18648.0, 18624.0, 18616.0, 18620.0, 18618.0, 18656.0, 18620.0, 18618.0, 18622.0, 18622.0, 18626.0, 18618.0, 18654.0, 18616.0, 18648.0, 18622.0, 18616.0, 18620.0, 18622.0, 18622.0, 18618.0, 18620.0, 18618.0, 18624.0, 18668.0, 18664.0, 18622.0, 18616.0, 18616.0, 18620.0, 18654.0, 18654.0, 18652.0, 18622.0, 18652.0, 18622.0, 18616.0, 18628.0, 18620.0, 18616.0, 18626.0, 18622.0, 18620.0, 18618.0, 18622.0, 18622.0, 18658.0, 18652.0, 18622.0, 18622.0, 18620.0, 18612.0, 18620.0, 18662.0, 18674.0, 18654.0, 18614.0, 18618.0, 18612.0, 18618.0, 18658.0, 18652.0, 18620.0, 18616.0, 18622.0, 18622.0, 18652.0, 18620.0, 18616.0, 18614.0, 18614.0, 18612.0, 18656.0, 18658.0, 18622.0, 18620.0, 18614.0, 18650.0, 18656.0, 18654.0, 18616.0, 18622.0, 18616.0, 18622.0, 18650.0, 18656.0, 18616.0, 18618.0, 18622.0, 18620.0, 18622.0, 18624.0, 18628.0, 18658.0, 18656.0, 18618.0, 18622.0, 18618.0, 18618.0, 18624.0, 18658.0, 18616.0, 18620.0, 18624.0, 18620.0, 18616.0, 18624.0, 18658.0, 18624.0]
    },
    "slices": {}
  }
}