{
  "AcquisitionMatrixPE": 104,
  "AcquisitionNumber": 1,
  "AcquisitionTime": "10:05:7.440000",
  "BandwidthPerPixelPhaseEncode": 17.17,
  "BaseResolution": 104,
  "BodyPartExamined": "BRAIN",
  "CoilString": "HC1-7;NC1_2",
  "ConsistencyInfo": "N4_VE11C_LATEST_20160120",
  "ConversionSoftware": "dcm2niix",
  "ConversionSoftwareVersion": "v1.0.20190902",
  "DerivedVendorReportedEchoSpacing": 0.000560011,
  "DeviceSerialNumber": "167006",
  "DwellTime": 2.1e-06,
  "EchoTime": 0.037,
  "EchoTrainLength": 104,
  "EffectiveEchoSpacing": 0.000560011,
  "FlipAngle": 52,
  "ImageComments": "Unaliased_MB4_PE3_LB",
  "ImageOrientationPatientDICOM": [0.995562, 0.0893782, 0.0294456, -0.0680452, 0.899872, -0.430814],
  "ImageType": [
    "ORIGINAL",
    "PRIMARY",
    "M",
    "MB",
    "ND",
    "MOSAIC"
],
  "ImagingFrequency": 123.259,
  "InPlanePhaseEncodingDirectionDICOM": "COL",
  "InstitutionAddress": "Chemin_Queen-Mary_4565_Montreal_District_CA_H3W_1W5",
  "InstitutionName": "IUGM",
  "InstitutionalDepartmentName": "Department",
  "MRAcquisitionType": "2D",
  "MagneticFieldStrength": 3,
  "Manufacturer": "Siemens",
  "ManufacturersModelName": "Prisma_fit",
  "Modality": "MR",
  "MultibandAccelerationFactor": 4,
  "PartialFourier": 1,
  "PatientPosition": "HFS",
  "PercentPhaseFOV": 100,
  "PhaseEncodingDirection": "j",
  "PhaseEncodingSteps": 104,
  "PhaseResolution": 1,
  "PixelBandwidth": 2290,
  "ProcedureStepDescription": "memory_things",
  "ProtocolName": "func_task-things_run-3",
  "PulseSequenceDetails": "%CustomerSeq%_cmrr_mbep2d_bold",
  "ReceiveCoilActiveElements": "HC1-7;NC1,2",
  "ReceiveCoilName": "HeadNeck_64",
  "ReconMatrixPE": 104,
  "RepetitionTime": 1.49,
  "SAR": 0.0504024,
  "ScanOptions": "FS",
  "ScanningSequence": "EP",
  "SequenceName": "epfid2d1_104",
  "SequenceVariant": "SK_SS",
  "SeriesDescription": "func_task-things_run-3",
  "SeriesNumber": 27,
  "ShimSetting": [630, -7155, -8902, 583, 110, 118, -84, -7],
  "SliceThickness": 2,
  "SliceTiming": [0, 0.785, 0.1, 0.8825, 0.1975, 0.98, 0.295, 1.08, 0.3925, 1.1775, 0.49, 1.275, 0.59, 1.3725, 0.6875, 0, 0.785, 0.1, 0.8825, 0.1975, 0.98, 0.295, 1.08, 0.3925, 1.1775, 0.49, 1.275, 0.59, 1.3725, 0.6875, 0, 0.785, 0.1, 0.8825, 0.1975, 0.98, 0.295, 1.08, 0.3925, 1.1775, 0.49, 1.275, 0.59, 1.3725, 0.6875, 0, 0.785, 0.1, 0.8825, 0.1975, 0.98, 0.295, 1.08, 0.3925, 1.1775, 0.49, 1.275, 0.59, 1.3725, 0.6875],
  "SoftwareVersions": "syngo_MR_E11",
  "SpacingBetweenSlices": 2,
  "StationName": "MRC35049",
  "TaskName": "things",
  "TotalReadoutTime": 0.0576811,
  "TxRefAmp": 273.461,
  "WipMemBlock": "ccb3415f-7535-497c-b4e2-b981b575970a||Sequence: R016 ve11c/master r/e634e98; Dec 19 2017 11:00:25 by eja",
  "dcmmeta_affine": [
    [-1.9911247491836548, -0.136090487241745, 0.13000532984733582, 109.60735321044922],
    [-0.17875634133815765, 1.7997432947158813, -0.8537975549697876, -45.2473258972168],
    [0.05889124050736427, 0.8616284132003784, 1.8039202690124512, -93.54976654052734],
    [0.0, 0.0, 0.0, 1.0]
],
  "dcmmeta_reorient_transform": [
    [0.0, -1.0, 0.0, 103.0],
    [1.0, 0.0, 0.0, 0.0],
    [0.0, 0.0, 1.0, 0.0],
    [0.0, 0.0, 0.0, 1.0]
],
  "dcmmeta_shape": [104, 104, 60, 190],
  "dcmmeta_slice_dim": 2,
  "dcmmeta_version": 0.6,
  "global": {
    "const": {
      "AcquisitionMatrix": [104, 0, 0, 104],
      "AngioFlag": "N",
      "BitsAllocated": 16,
      "BitsStored": 16,
      "BodyPartExamined": "BRAIN",
      "Columns": 832,
      "EchoNumbers": 1,
      "EchoTime": 37.0,
      "EchoTrainLength": 104,
      "FlipAngle": 52.0,
      "HighBit": 15,
      "ImageOrientationPatient": [0.99556240290274, 0.08937817056797, 0.02944562025899, -0.0680452464041, 0.89987163640822, -0.4308142087139],
      "ImagePositionPatient": [-770.82252069303, -860.30009065541, 287.3942892212],
      "ImageType": [
        "ORIGINAL",
        "PRIMARY",
        "M",
        "MB",
        "ND",
        "MOSAIC"
],
      "ImagedNucleus": "1H",
      "ImagingFrequency": 123.259005,
      "InPlanePhaseEncodingDirection": "COL",
      "MRAcquisitionType": "2D",
      "MagneticFieldStrength": 3.0,
      "Manufacturer": "SIEMENS",
      "ManufacturerModelName": "Prisma_fit",
      "Modality": "MR",
      "NumberOfAverages": 1.0,
      "NumberOfPhaseEncodingSteps": 104,
      "PercentPhaseFieldOfView": 100.0,
      "PercentSampling": 100.0,
      "PerformedProcedureStepStartTime": "085549.388000",
      "PhotometricInterpretation": "MONOCHROME2",
      "PixelBandwidth": 2290.0,
      "PixelRepresentation": 0,
      "PixelSpacing": [2.0, 2.0],
      "ProtocolName": "func_task-things_run-3",
      "RepetitionTime": 1490.0,
      "Rows": 832,
      "SAR": 0.050402443607,
      "SamplesPerPixel": 1,
      "ScanOptions": "FS",
      "ScanningSequence": "EP",
      "SequenceName": "epfid2d1_104",
      "SequenceVariant": [
        "SK",
        "SS"
],
      "SeriesDescription": "func_task-things_run-3",
      "SeriesNumber": 27,
      "SeriesTime": "100612.430000",
      "SliceLocation": -57.937363941132,
      "SliceThickness": 2.0,
      "SmallestImagePixelValue": 0,
      "SoftwareVersions": "syngo MR E11",
      "SpacingBetweenSlices": 1.9999999599063,
      "SpecificCharacterSet": "ISO_IR 100",
      "StudyID": "1",
      "StudyTime": "085549.236000",
      "TransmitCoilName": "Body",
      "VariableFlipAngleFlag": "N",
      "WindowCenterWidthExplanation": "Algo1",
      "dBdt": 0.0},
    "slices": {}
  },
  "time": {
    "samples": {
      "AcquisitionNumber": [1, 2, 3, 4, 5, 6, 7, 8, 9, 10, 11, 12, 13, 14, 15, 16, 17, 18, 19, 20, 21, 22, 23, 24, 25, 26, 27, 28, 29, 30, 31, 32, 33, 34, 35, 36, 37, 38, 39, 40, 41, 42, 43, 44, 45, 46, 47, 48, 49, 50, 51, 52, 53, 54, 55, 56, 57, 58, 59, 60, 61, 62, 63, 64, 65, 66, 67, 68, 69, 70, 71, 72, 73, 74, 75, 76, 77, 78, 79, 80, 81, 82, 83, 84, 85, 86, 87, 88, 89, 90, 91, 92, 93, 94, 95, 96, 97, 98, 99, 100, 101, 102, 103, 104, 105, 106, 107, 108, 109, 110, 111, 112, 113, 114, 115, 116, 117, 118, 119, 120, 121, 122, 123, 124, 125, 126, 127, 128, 129, 130, 131, 132, 133, 134, 135, 136, 137, 138, 139, 140, 141, 142, 143, 144, 145, 146, 147, 148, 149, 150, 151, 152, 153, 154, 155, 156, 157, 158, 159, 160, 161, 162, 163, 164, 165, 166, 167, 168, 169, 170, 171, 172, 173, 174, 175, 176, 177, 178, 179, 180, 181, 182, 183, 184, 185, 186, 187, 188, 189, 190],
      "AcquisitionTime": ["100507.440000", "100508.930000", "100510.420000", "100511.910000", "100513.400000", "100514.890000", "100516.380000", "100517.870000", "100519.360000", "100520.850000", "100522.340000", "100523.830000", "100525.320000", "100526.810000", "100528.300000", "100529.790000", "100531.280000", "100532.770000", "100534.260000", "100535.750000", "100537.240000", "100538.730000", "100540.220000", "100541.710000", "100543.200000", "100544.690000", "100546.180000", "100547.670000", "100549.160000", "100550.650000", "100552.140000", "100553.630000", "100555.120000", "100556.610000", "100558.100000", "100559.590000", "100601.080000", "100602.570000", "100604.060000", "100605.550000", "100607.040000", "100608.530000", "100610.020000", "100611.510000", "100613.000000", "100614.490000", "100615.980000", "100617.470000", "100618.960000", "100620.450000", "100621.940000", "100623.430000", "100624.920000", "100626.410000", "100627.900000", "100629.390000", "100630.880000", "100632.370000", "100633.860000", "100635.350000", "100636.840000", "100638.330000", "100639.820000", "100641.310000", "100642.800000", "100644.290000", "100645.780000", "100647.270000", "100648.760000", "100650.250000", "100651.740000", "100653.230000", "100654.720000", "100656.210000", "100657.700000", "100659.190000", "100700.680000", "100702.170000", "100703.660000", "100705.150000", "100706.640000", "100708.130000", "100709.620000", "100711.110000", "100712.600000", "100714.090000", "100715.580000", "100717.070000", "100718.560000", "100720.050000", "100721.540000", "100723.030000", "100724.520000", "100726.010000", "100727.500000", "100728.990000", "100730.480000", "100731.970000", "100733.460000", "100734.950000", "100736.440000", "100737.930000", "100739.420000", "100740.910000", "100742.400000", "100743.890000", "100745.380000", "100746.870000", "100748.360000", "100749.850000", "100751.340000", "100752.830000", "100754.320000", "100755.810000", "100757.300000", "100758.790000", "100800.280000", "100801.770000", "100803.260000", "100804.750000", "100806.240000", "100807.730000", "100809.220000", "100810.710000", "100812.200000", "100813.690000", "100815.180000", "100816.670000", "100818.160000", "100819.650000", "100821.140000", "100822.630000", "100824.120000", "100825.610000", "100827.100000", "100828.590000", "100830.080000", "100831.570000", "100833.060000", "100834.550000", "100836.040000", "100837.530000", "100839.020000", "100840.510000", "100842.000000", "100843.490000", "100844.980000", "100846.470000", "100847.960000", "100849.450000", "100850.940000", "100852.430000", "100853.920000", "100855.410000", "100856.900000", "100858.390000", "100859.880000", "100901.370000", "100902.860000", "100904.350000", "100905.840000", "100907.330000", "100908.820000", "100910.310000", "100911.800000", "100913.290000", "100914.780000", "100916.270000", "100917.760000", "100919.250000", "100920.740000", "100922.230000", "100923.720000", "100925.210000", "100926.700000", "100928.190000", "100929.680000", "100931.170000", "100932.660000", "100934.150000", "100935.640000", "100937.130000", "100938.620000", "100940.110000", "100941.600000", "100943.090000", "100944.580000", "100946.070000", "100947.560000", "100949.050000"],
      "ContentTime": ["100612.434000", "100612.437000", "100612.441000", "100612.444000", "100612.448000", "100612.451000", "100612.455000", "100612.458000", "100612.461000", "100612.467000", "100632.385000", "100632.389000", "100632.392000", "100632.396000", "100632.399000", "100632.402000", "100632.406000", "100632.409000", "100632.412000", "100632.416000", "100632.419000", "100632.423000", "100632.426000", "100632.435000", "100632.438000", "100632.441000", "100632.445000", "100632.448000", "100632.452000", "100632.455000", "100632.458000", "100652.385000", "100652.389000", "100652.392000", "100652.396000", "100652.399000", "100652.403000", "100652.406000", "100652.410000", "100652.413000", "100652.417000", "100652.420000", "100652.424000", "100652.427000", "100652.431000", "100652.434000", "100652.438000", "100652.441000", "100652.444000", "100652.448000", "100652.451000", "100712.385000", "100712.389000", "100712.392000", "100712.396000", "100712.399000", "100712.402000", "100712.406000", "100712.409000", "100712.413000", "100712.416000", "100712.419000", "100712.423000", "100712.426000", "100712.429000", "100712.433000", "100712.436000", "100712.446000", "100712.450000", "100712.453000", "100712.456000", "100732.386000", "100732.390000", "100732.393000", "100732.404000", "100732.407000", "100732.411000", "100732.429000", "100732.432000", "100732.436000", "100732.439000", "100732.442000", "100732.446000", "100732.449000", "100732.453000", "100732.456000", "100732.459000", "100732.463000", "100732.466000", "100732.470000", "100732.473000", "100812.385000", "100812.389000", "100812.392000", "100812.396000", "100812.399000", "100812.403000", "100812.406000", "100812.410000", "100812.413000", "100812.416000", "100812.420000", "100812.423000", "100812.427000", "100812.430000", "100812.433000", "100812.437000", "100812.440000", "100812.444000", "100812.447000", "100812.450000", "100812.454000", "100812.457000", "100812.461000", "100812.464000", "100812.468000", "100812.471000", "100812.474000", "100812.478000", "100812.481000", "100812.485000", "100812.488000", "100812.492000", "100852.385000", "100852.389000", "100852.392000", "100852.396000", "100852.404000", "100852.407000", "100852.411000", "100852.414000", "100852.418000", "100852.421000", "100852.424000", "100852.428000", "100852.432000", "100852.435000", "100852.438000", "100852.442000", "100852.445000", "100852.449000", "100852.452000", "100852.455000", "100852.459000", "100852.462000", "100852.466000", "100852.469000", "100852.472000", "100852.476000", "100852.479000", "100932.386000", "100932.390000", "100932.393000", "100932.397000", "100932.400000", "100932.404000", "100932.407000", "100932.410000", "100932.414000", "100932.417000", "100932.421000", "100932.424000", "100932.427000", "100932.431000", "100932.434000", "100932.437000", "100932.441000", "100932.444000", "100932.448000", "100932.451000", "100932.454000", "100932.458000", "100932.461000", "100932.465000", "100932.468000", "100932.472000", "100932.475000", "100951.514000", "100951.517000", "100951.521000", "100951.524000", "100951.528000", "100951.531000", "100951.535000", "100951.539000", "100951.543000", "100951.546000", "100951.550000", "100951.553000", "100951.557000"],
      "InstanceCreationTime": ["100612.434000", "100612.437000", "100612.441000", "100612.444000", "100612.448000", "100612.451000", "100612.455000", "100612.458000", "100612.461000", "100612.467000", "100632.385000", "100632.389000", "100632.392000", "100632.396000", "100632.399000", "100632.402000", "100632.406000", "100632.409000", "100632.412000", "100632.416000", "100632.419000", "100632.423000", "100632.426000", "100632.435000", "100632.438000", "100632.441000", "100632.445000", "100632.448000", "100632.452000", "100632.455000", "100632.458000", "100652.385000", "100652.389000", "100652.392000", "100652.396000", "100652.399000", "100652.403000", "100652.406000", "100652.410000", "100652.413000", "100652.417000", "100652.420000", "100652.424000", "100652.427000", "100652.431000", "100652.434000", "100652.438000", "100652.441000", "100652.444000", "100652.448000", "100652.451000", "100712.385000", "100712.389000", "100712.392000", "100712.396000", "100712.399000", "100712.402000", "100712.406000", "100712.409000", "100712.413000", "100712.416000", "100712.419000", "100712.423000", "100712.426000", "100712.429000", "100712.433000", "100712.436000", "100712.446000", "100712.450000", "100712.453000", "100712.456000", "100732.386000", "100732.390000", "100732.393000", "100732.404000", "100732.407000", "100732.411000", "100732.429000", "100732.432000", "100732.436000", "100732.439000", "100732.442000", "100732.446000", "100732.449000", "100732.453000", "100732.456000", "100732.459000", "100732.463000", "100732.466000", "100732.470000", "100732.473000", "100812.385000", "100812.389000", "100812.392000", "100812.396000", "100812.399000", "100812.403000", "100812.406000", "100812.410000", "100812.413000", "100812.416000", "100812.420000", "100812.423000", "100812.427000", "100812.430000", "100812.433000", "100812.437000", "100812.440000", "100812.444000", "100812.447000", "100812.450000", "100812.454000", "100812.457000", "100812.461000", "100812.464000", "100812.468000", "100812.471000", "100812.474000", "100812.478000", "100812.481000", "100812.485000", "100812.488000", "100812.492000", "100852.385000", "100852.389000", "100852.392000", "100852.396000", "100852.404000", "100852.407000", "100852.411000", "100852.414000", "100852.418000", "100852.421000", "100852.424000", "100852.428000", "100852.432000", "100852.435000", "100852.438000", "100852.442000", "100852.445000", "100852.449000", "100852.452000", "100852.455000", "100852.459000", "100852.462000", "100852.466000", "100852.469000", "100852.472000", "100852.476000", "100852.479000", "100932.386000", "100932.390000", "100932.393000", "100932.397000", "100932.400000", "100932.404000", "100932.407000", "100932.410000", "100932.414000", "100932.417000", "100932.421000", "100932.424000", "100932.427000", "100932.431000", "100932.434000", "100932.437000", "100932.441000", "100932.444000", "100932.448000", "100932.451000", "100932.454000", "100932.458000", "100932.461000", "100932.465000", "100932.468000", "100932.472000", "100932.475000", "100951.514000", "100951.517000", "100951.521000", "100951.524000", "100951.528000", "100951.531000", "100951.535000", "100951.539000", "100951.543000", "100951.546000", "100951.550000", "100951.553000", "100951.557000"],
      "InstanceNumber": [1, 2, 3, 4, 5, 6, 7, 8, 9, 10, 11, 12, 13, 14, 15, 16, 17, 18, 19, 20, 21, 22, 23, 24, 25, 26, 27, 28, 29, 30, 31, 32, 33, 34, 35, 36, 37, 38, 39, 40, 41, 42, 43, 44, 45, 46, 47, 48, 49, 50, 51, 52, 53, 54, 55, 56, 57, 58, 59, 60, 61, 62, 63, 64, 65, 66, 67, 68, 69, 70, 71, 72, 73, 74, 75, 76, 77, 78, 79, 80, 81, 82, 83, 84, 85, 86, 87, 88, 89, 90, 91, 92, 93, 94, 95, 96, 97, 98, 99, 100, 101, 102, 103, 104, 105, 106, 107, 108, 109, 110, 111, 112, 113, 114, 115, 116, 117, 118, 119, 120, 121, 122, 123, 124, 125, 126, 127, 128, 129, 130, 131, 132, 133, 134, 135, 136, 137, 138, 139, 140, 141, 142, 143, 144, 145, 146, 147, 148, 149, 150, 151, 152, 153, 154, 155, 156, 157, 158, 159, 160, 161, 162, 163, 164, 165, 166, 167, 168, 169, 170, 171, 172, 173, 174, 175, 176, 177, 178, 179, 180, 181, 182, 183, 184, 185, 186, 187, 188, 189, 190],
      "LargestImagePixelValue": [44814, 43406, 43197, 43134, 42402, 40827, 40881, 42049, 42311, 42539, 43830, 43079, 41946, 42437, 42068, 42396, 41498, 40985, 41981, 42273, 42912, 42656, 41291, 41445, 41667, 41683, 41749, 42242, 40572, 40619, 41718, 41877, 42193, 42208, 41368, 41300, 41825, 42013, 41955, 41588, 40308, 40431, 41075, 41724, 41605, 41443, 40859, 40541, 41259, 41858, 41386, 41598, 41121, 40840, 41357, 41583, 41880, 41178, 39842, 40329, 40602, 40887, 39707, 39718, 39872, 40149, 39922, 39971, 39166, 39580, 40394, 40197, 39949, 39177, 38848, 39438, 39842, 40215, 40300, 39872, 39118, 39871, 40075, 40165, 39851, 38696, 39423, 39427, 40697, 40613, 39717, 39426, 39467, 40451, 39095, 39102, 38877, 39774, 40491, 40458, 38883, 39320, 39426, 40157, 40560, 39529, 39088, 39256, 39582, 39983, 39825, 40031, 39237, 39001, 39583, 40234, 39929, 39363, 39080, 38816, 39767, 39682, 39081, 38776, 40565, 40537, 40961, 39823, 39653, 40275, 40188, 41208, 41176, 39842, 38856, 39422, 39339, 40257, 41373, 40520, 38668, 39945, 40313, 40555, 40773, 39640, 39100, 40163, 40555, 40487, 39238, 39904, 39660, 40372, 39683, 39174, 39580, 39935, 40956, 40674, 41287, 41275, 41971, 40329, 40174, 40538, 40774, 41581, 41394, 40929, 40320, 41187, 41346, 40976, 41163, 41302, 40658, 40397, 40630, 40751, 41888, 41494, 40577, 40617, 40718, 41274, 40447, 40049, 40172, 40939],
      "WindowCenter": [10657.0, 10643.0, 10627.0, 10609.0, 10592.0, 10573.0, 10583.0, 10585.0, 10581.0, 10587.0, 10607.0, 10602.0, 10603.0, 10593.0, 10562.0, 10549.0, 10532.0, 10544.0, 10564.0, 10564.0, 10569.0, 10563.0, 10560.0, 10584.0, 10579.0, 10575.0, 10579.0, 10582.0, 10573.0, 10576.0, 10563.0, 10549.0, 10547.0, 10563.0, 10568.0, 10587.0, 10585.0, 10568.0, 10559.0, 10558.0, 10566.0, 10578.0, 10575.0, 10562.0, 10551.0, 10550.0, 10557.0, 10574.0, 10580.0, 10570.0, 10556.0, 10546.0, 10553.0, 10578.0, 10581.0, 10571.0, 10560.0, 10544.0, 10535.0, 10555.0, 10549.0, 10538.0, 10518.0, 10534.0, 10539.0, 10533.0, 10531.0, 10539.0, 10539.0, 10542.0, 10530.0, 10520.0, 10521.0, 10527.0, 10550.0, 10549.0, 10534.0, 10521.0, 10513.0, 10518.0, 10535.0, 10543.0, 10532.0, 10522.0, 10506.0, 10503.0, 10534.0, 10534.0, 10528.0, 10512.0, 10498.0, 10513.0, 10519.0, 10529.0, 10509.0, 10518.0, 10512.0, 10514.0, 10524.0, 10519.0, 10526.0, 10538.0, 10523.0, 10516.0, 10518.0, 10506.0, 10519.0, 10533.0, 10519.0, 10506.0, 10506.0, 10520.0, 10542.0, 10549.0, 10538.0, 10530.0, 10508.0, 10513.0, 10528.0, 10531.0, 10532.0, 10517.0, 10507.0, 10530.0, 10570.0, 10555.0, 10544.0, 10536.0, 10536.0, 10518.0, 10495.0, 10488.0, 10495.0, 10511.0, 10535.0, 10555.0, 10539.0, 10530.0, 10526.0, 10517.0, 10513.0, 10525.0, 10521.0, 10517.0, 10510.0, 10521.0, 10536.0, 10539.0, 10518.0, 10499.0, 10485.0, 10511.0, 10523.0, 10521.0, 10510.0, 10517.0, 10542.0, 10549.0, 10548.0, 10527.0, 10523.0, 10528.0, 10550.0, 10554.0, 10556.0, 10533.0, 10513.0, 10519.0, 10506.0, 10531.0, 10548.0, 10555.0, 10544.0, 10520.0, 10524.0, 10523.0, 10537.0, 10542.0, 10533.0, 10513.0, 10519.0, 10520.0, 10540.0, 10556.0, 10539.0, 10526.0, 10495.0, 10504.0, 10526.0, 10534.0],
      "WindowWidth": [22633.0, 22593.0, 22543.0, 22494.0, 22450.0, 22413.0, 22438.0, 22438.0, 22426.0, 22439.0, 22483.0, 22472.0, 22481.0, 22452.0, 22378.0, 22348.0, 22312.0, 22349.0, 22388.0, 22384.0, 22394.0, 22382.0, 22382.0, 22437.0, 22424.0, 22411.0, 22422.0, 22427.0, 22415.0, 22421.0, 22387.0, 22350.0, 22347.0, 22385.0, 22404.0, 22447.0, 22440.0, 22395.0, 22375.0, 22376.0, 22404.0, 22432.0, 22422.0, 22388.0, 22360.0, 22357.0, 22374.0, 22418.0, 22430.0, 22406.0, 22375.0, 22355.0, 22372.0, 22430.0, 22436.0, 22409.0, 22384.0, 22345.0, 22332.0, 22373.0, 22357.0, 22330.0, 22290.0, 22330.0, 22339.0, 22324.0, 22318.0, 22338.0, 22345.0, 22347.0, 22313.0, 22291.0, 22298.0, 22318.0, 22375.0, 22369.0, 22327.0, 22294.0, 22279.0, 22292.0, 22337.0, 22353.0, 22320.0, 22297.0, 22262.0, 22267.0, 22335.0, 22332.0, 22312.0, 22274.0, 22253.0, 22284.0, 22302.0, 22316.0, 22274.0, 22300.0, 22282.0, 22280.0, 22301.0, 22294.0, 22319.0, 22346.0, 22313.0, 22290.0, 22289.0, 22270.0, 22306.0, 22334.0, 22298.0, 22265.0, 22266.0, 22300.0, 22355.0, 22374.0, 22343.0, 22317.0, 22267.0, 22282.0, 22323.0, 22331.0, 22325.0, 22289.0, 22270.0, 22330.0, 22411.0, 22376.0, 22345.0, 22336.0, 22335.0, 22291.0, 22235.0, 22215.0, 22236.0, 22278.0, 22343.0, 22384.0, 22343.0, 22315.0, 22305.0, 22282.0, 22286.0, 22310.0, 22296.0, 22287.0, 22272.0, 22302.0, 22341.0, 22342.0, 22286.0, 22242.0, 22215.0, 22277.0, 22306.0, 22300.0, 22270.0, 22294.0, 22353.0, 22364.0, 22357.0, 22312.0, 22299.0, 22311.0, 22358.0, 22376.0, 22378.0, 22325.0, 22279.0, 22287.0, 22261.0, 22322.0, 22369.0, 22380.0, 22353.0, 22299.0, 22305.0, 22304.0, 22344.0, 22355.0, 22332.0, 22280.0, 22290.0, 22292.0, 22345.0, 22388.0, 22345.0, 22311.0, 22241.0, 22266.0, 22314.0, 22331.0]
    },
    "slices": {}
  }
}