{
  "AcquisitionMatrixPE": 104,
  "AcquisitionNumber": 1,
  "AcquisitionTime": "14:07:32.707500",
  "BandwidthPerPixelPhaseEncode": 17.17,
  "BaseResolution": 104,
  "BodyPartExamined": "BRAIN",
  "CoilString": "HC1-7;NC1_2",
  "ConsistencyInfo": "N4_VE11C_LATEST_20160120",
  "ConversionSoftware": "dcm2niix",
  "ConversionSoftwareVersion": "v1.0.20190902",
  "DerivedVendorReportedEchoSpacing": 0.000560011,
  "DeviceSerialNumber": "167006",
  "DwellTime": 2.1e-06,
  "EchoTime": 0.037,
  "EchoTrainLength": 104,
  "EffectiveEchoSpacing": 0.000560011,
  "FlipAngle": 52,
  "ImageComments": "Unaliased_MB4_PE3_LB",
  "ImageOrientationPatientDICOM": [0.998279, 0.0532659, 0.0245412, -0.0465537, 0.974209, -0.220794],
  "ImageType": [
    "ORIGINAL",
    "PRIMARY",
    "M",
    "MB",
    "ND",
    "MOSAIC"
],
  "ImagingFrequency": 123.259,
  "InPlanePhaseEncodingDirectionDICOM": "COL",
  "InstitutionAddress": "Chemin_Queen-Mary_4565_Montreal_District_CA_H3W_1W5",
  "InstitutionName": "IUGM",
  "InstitutionalDepartmentName": "Department",
  "MRAcquisitionType": "2D",
  "MagneticFieldStrength": 3,
  "Manufacturer": "Siemens",
  "ManufacturersModelName": "Prisma_fit",
  "Modality": "MR",
  "MultibandAccelerationFactor": 4,
  "PartialFourier": 1,
  "PatientPosition": "HFS",
  "PercentPhaseFOV": 100,
  "PhaseEncodingDirection": "j",
  "PhaseEncodingSteps": 104,
  "PhaseResolution": 1,
  "PixelBandwidth": 2290,
  "ProcedureStepDescription": "memory_things",
  "ProtocolName": "func_task-things_run-4",
  "PulseSequenceDetails": "%CustomerSeq%_cmrr_mbep2d_bold",
  "ReceiveCoilActiveElements": "HC1-7;NC1,2",
  "ReceiveCoilName": "HeadNeck_64",
  "ReconMatrixPE": 104,
  "RepetitionTime": 1.49,
  "SAR": 0.0363083,
  "ScanOptions": "FS",
  "ScanningSequence": "EP",
  "SequenceName": "epfid2d1_104",
  "SequenceVariant": "SK_SS",
  "SeriesDescription": "func_task-things_run-4",
  "SeriesNumber": 19,
  "ShimSetting": [636, -7237, -8765, 666, 39, -73, 141, -1],
  "SliceThickness": 2,
  "SliceTiming": [0, 0.785, 0.1, 0.8825, 0.1975, 0.98, 0.295, 1.08, 0.3925, 1.1775, 0.49, 1.275, 0.59, 1.3725, 0.6875, 0, 0.785, 0.1, 0.8825, 0.1975, 0.98, 0.295, 1.08, 0.3925, 1.1775, 0.49, 1.275, 0.59, 1.3725, 0.6875, 0, 0.785, 0.1, 0.8825, 0.1975, 0.98, 0.295, 1.08, 0.3925, 1.1775, 0.49, 1.275, 0.59, 1.3725, 0.6875, 0, 0.785, 0.1, 0.8825, 0.1975, 0.98, 0.295, 1.08, 0.3925, 1.1775, 0.49, 1.275, 0.59, 1.3725, 0.6875],
  "SoftwareVersions": "syngo_MR_E11",
  "SpacingBetweenSlices": 2,
  "StationName": "MRC35049",
  "TaskName": "things",
  "TotalReadoutTime": 0.0576811,
  "TxRefAmp": 212.607,
  "WipMemBlock": "f6fad653-649e-4523-80a1-083ed5cdf4d7||Sequence: R016 ve11c/master r/e634e98; Dec 19 2017 11:00:25 by eja",
  "dcmmeta_affine": [
    [-1.9965574741363525, -0.09310749918222427, 0.07133802771568298, 111.80641174316406],
    [-0.10653188824653625, 1.9484176635742188, -0.4385424554347992, -71.393310546875],
    [0.04908234253525734, 0.44158750772476196, 1.9500234127044678, -50.073387145996094],
    [0.0, 0.0, 0.0, 1.0]
],
  "dcmmeta_reorient_transform": [
    [0.0, -1.0, 0.0, 103.0],
    [1.0, 0.0, 0.0, 0.0],
    [0.0, 0.0, 1.0, 0.0],
    [0.0, 0.0, 0.0, 1.0]
],
  "dcmmeta_shape": [104, 104, 60, 190],
  "dcmmeta_slice_dim": 2,
  "dcmmeta_version": 0.6,
  "global": {
    "const": {
      "AcquisitionMatrix": [104, 0, 0, 104],
      "AngioFlag": "N",
      "BitsAllocated": 16,
      "BitsStored": 16,
      "BodyPartExamined": "BRAIN",
      "Columns": 832,
      "EchoNumbers": 1,
      "EchoTime": 37.0,
      "EchoTrainLength": 104,
      "FlipAngle": 52.0,
      "HighBit": 15,
      "ImageOrientationPatient": [0.99827875365552, 0.05326594493933, 0.02454117172648, -0.0465537477371, 0.97420884265263, -0.2207937487092],
      "ImagePositionPatient": [-795.07214483124, -877.29535979385, 138.28200290583],
      "ImageType": [
        "ORIGINAL",
        "PRIMARY",
        "M",
        "MB",
        "ND",
        "MOSAIC"
],
      "ImagedNucleus": "1H",
      "ImagingFrequency": 123.258958,
      "InPlanePhaseEncodingDirection": "COL",
      "MRAcquisitionType": "2D",
      "MagneticFieldStrength": 3.0,
      "Manufacturer": "SIEMENS",
      "ManufacturerModelName": "Prisma_fit",
      "Modality": "MR",
      "NumberOfAverages": 1.0,
      "NumberOfPhaseEncodingSteps": 104,
      "PercentPhaseFieldOfView": 100.0,
      "PercentSampling": 100.0,
      "PerformedProcedureStepStartTime": "125858.760000",
      "PhotometricInterpretation": "MONOCHROME2",
      "PixelBandwidth": 2290.0,
      "PixelRepresentation": 0,
      "PixelSpacing": [2.0, 2.0],
      "ProtocolName": "func_task-things_run-4",
      "RepetitionTime": 1490.0,
      "Rows": 832,
      "SAR": 0.03630834352498,
      "SamplesPerPixel": 1,
      "ScanOptions": "FS",
      "ScanningSequence": "EP",
      "SequenceName": "epfid2d1_104",
      "SequenceVariant": [
        "SK",
        "SS"
],
      "SeriesDescription": "func_task-things_run-4",
      "SeriesNumber": 19,
      "SeriesTime": "140846.960000",
      "SliceLocation": -29.179615113887,
      "SliceThickness": 2.0,
      "SmallestImagePixelValue": 0,
      "SoftwareVersions": "syngo MR E11",
      "SpacingBetweenSlices": 1.9999999609282,
      "SpecificCharacterSet": "ISO_IR 100",
      "StudyID": "1",
      "StudyTime": "125858.670000",
      "TransmitCoilName": "Body",
      "VariableFlipAngleFlag": "N",
      "WindowCenterWidthExplanation": "Algo1",
      "dBdt": 0.0},
    "slices": {}
  },
  "time": {
    "samples": {
      "AcquisitionNumber": [1, 2, 3, 4, 5, 6, 7, 8, 9, 10, 11, 12, 13, 14, 15, 16, 17, 18, 19, 20, 21, 22, 23, 24, 25, 26, 27, 28, 29, 30, 31, 32, 33, 34, 35, 36, 37, 38, 39, 40, 41, 42, 43, 44, 45, 46, 47, 48, 49, 50, 51, 52, 53, 54, 55, 56, 57, 58, 59, 60, 61, 62, 63, 64, 65, 66, 67, 68, 69, 70, 71, 72, 73, 74, 75, 76, 77, 78, 79, 80, 81, 82, 83, 84, 85, 86, 87, 88, 89, 90, 91, 92, 93, 94, 95, 96, 97, 98, 99, 100, 101, 102, 103, 104, 105, 106, 107, 108, 109, 110, 111, 112, 113, 114, 115, 116, 117, 118, 119, 120, 121, 122, 123, 124, 125, 126, 127, 128, 129, 130, 131, 132, 133, 134, 135, 136, 137, 138, 139, 140, 141, 142, 143, 144, 145, 146, 147, 148, 149, 150, 151, 152, 153, 154, 155, 156, 157, 158, 159, 160, 161, 162, 163, 164, 165, 166, 167, 168, 169, 170, 171, 172, 173, 174, 175, 176, 177, 178, 179, 180, 181, 182, 183, 184, 185, 186, 187, 188, 189, 190],
      "AcquisitionTime": ["140732.707500", "140734.197500", "140735.687500", "140737.177500", "140738.667500", "140740.157500", "140741.647500", "140743.137500", "140744.627500", "140746.117500", "140747.607500", "140749.097500", "140750.587500", "140752.077500", "140753.567500", "140755.057500", "140756.547500", "140758.037500", "140759.527500", "140801.017500", "140802.507500", "140803.997500", "140805.487500", "140806.977500", "140808.467500", "140809.957500", "140811.447500", "140812.937500", "140814.427500", "140815.917500", "140817.407500", "140818.897500", "140820.387500", "140821.877500", "140823.367500", "140824.857500", "140826.347500", "140827.837500", "140829.327500", "140830.817500", "140832.307500", "140833.797500", "140835.287500", "140836.777500", "140838.267500", "140839.757500", "140841.247500", "140842.737500", "140844.227500", "140845.717500", "140847.207500", "140848.697500", "140850.187500", "140851.677500", "140853.167500", "140854.657500", "140856.147500", "140857.637500", "140859.127500", "140900.617500", "140902.107500", "140903.597500", "140905.087500", "140906.577500", "140908.067500", "140909.557500", "140911.047500", "140912.537500", "140914.027500", "140915.517500", "140917.007500", "140918.497500", "140919.987500", "140921.477500", "140922.967500", "140924.457500", "140925.947500", "140927.437500", "140928.927500", "140930.417500", "140931.907500", "140933.397500", "140934.887500", "140936.377500", "140937.867500", "140939.357500", "140940.847500", "140942.337500", "140943.827500", "140945.317500", "140946.807500", "140948.297500", "140949.787500", "140951.277500", "140952.767500", "140954.257500", "140955.747500", "140957.237500", "140958.727500", "141000.217500", "141001.707500", "141003.197500", "141004.687500", "141006.177500", "141007.667500", "141009.157500", "141010.647500", "141012.137500", "141013.627500", "141015.117500", "141016.607500", "141018.097500", "141019.587500", "141021.077500", "141022.567500", "141024.057500", "141025.547500", "141027.037500", "141028.527500", "141030.017500", "141031.507500", "141032.997500", "141034.487500", "141035.977500", "141037.467500", "141038.957500", "141040.447500", "141041.937500", "141043.427500", "141044.917500", "141046.407500", "141047.897500", "141049.387500", "141050.877500", "141052.367500", "141053.857500", "141055.347500", "141056.837500", "141058.327500", "141059.817500", "141101.307500", "141102.797500", "141104.287500", "141105.777500", "141107.267500", "141108.757500", "141110.247500", "141111.737500", "141113.227500", "141114.717500", "141116.207500", "141117.697500", "141119.187500", "141120.677500", "141122.167500", "141123.657500", "141125.147500", "141126.637500", "141128.127500", "141129.617500", "141131.107500", "141132.597500", "141134.087500", "141135.577500", "141137.067500", "141138.557500", "141140.047500", "141141.537500", "141143.027500", "141144.517500", "141146.007500", "141147.497500", "141148.987500", "141150.477500", "141151.967500", "141153.457500", "141154.947500", "141156.437500", "141157.927500", "141159.417500", "141200.907500", "141202.397500", "141203.887500", "141205.377500", "141206.867500", "141208.357500", "141209.847500", "141211.337500", "141212.827500", "141214.317500"],
      "ContentTime": ["140846.963000", "140846.967000", "140846.970000", "140846.974000", "140846.977000", "140846.980000", "140846.984000", "140846.987000", "140846.991000", "140846.994000", "140846.997000", "140847.002000", "140847.005000", "140847.008000", "140847.012000", "140847.015000", "140847.019000", "140906.917000", "140906.921000", "140906.924000", "140906.928000", "140906.931000", "140906.934000", "140906.938000", "140906.941000", "140906.945000", "140906.948000", "140906.951000", "140906.955000", "140906.958000", "140906.968000", "140906.972000", "140906.975000", "140906.979000", "140906.982000", "140906.985000", "140906.989000", "140926.916000", "140926.920000", "140926.923000", "140926.927000", "140926.930000", "140926.933000", "140926.937000", "140926.940000", "140926.954000", "140926.957000", "140926.961000", "140926.964000", "140926.968000", "140926.971000", "140926.974000", "140926.978000", "140926.981000", "140926.984000", "140926.988000", "140926.991000", "140946.916000", "140946.920000", "140946.923000", "140946.927000", "140946.930000", "140946.934000", "140946.937000", "140946.940000", "140946.944000", "140946.947000", "140946.950000", "140946.954000", "140946.957000", "140946.960000", "140946.964000", "140946.967000", "140946.976000", "140946.979000", "140946.983000", "140946.986000", "141006.916000", "141006.920000", "141006.923000", "141006.927000", "141006.930000", "141006.933000", "141006.937000", "141006.940000", "141006.944000", "141006.947000", "141006.950000", "141006.954000", "141006.957000", "141006.960000", "141006.964000", "141006.967000", "141006.970000", "141006.974000", "141006.984000", "141006.988000", "141046.917000", "141046.927000", "141046.931000", "141046.934000", "141046.938000", "141046.941000", "141046.944000", "141046.948000", "141046.951000", "141046.955000", "141046.958000", "141046.961000", "141046.965000", "141046.968000", "141046.972000", "141046.975000", "141046.978000", "141046.982000", "141046.985000", "141046.989000", "141046.992000", "141046.996000", "141047.000000", "141047.004000", "141047.007000", "141047.010000", "141047.014000", "141047.017000", "141047.021000", "141047.024000", "141047.028000", "141047.031000", "141126.917000", "141126.921000", "141126.925000", "141126.928000", "141126.931000", "141126.935000", "141126.938000", "141126.942000", "141126.945000", "141126.949000", "141126.952000", "141126.956000", "141126.959000", "141126.963000", "141126.966000", "141126.970000", "141126.973000", "141126.977000", "141126.980000", "141126.983000", "141126.987000", "141127.000000", "141127.017000", "141127.021000", "141127.024000", "141127.028000", "141127.031000", "141206.916000", "141206.920000", "141206.923000", "141206.927000", "141206.930000", "141206.934000", "141206.937000", "141206.941000", "141206.944000", "141206.948000", "141206.951000", "141206.955000", "141206.958000", "141206.962000", "141206.965000", "141206.969000", "141206.972000", "141206.975000", "141206.979000", "141206.982000", "141206.985000", "141206.989000", "141206.992000", "141206.996000", "141207.000000", "141207.004000", "141207.012000", "141216.535000", "141216.548000", "141216.551000", "141216.555000", "141216.558000", "141216.562000", "141216.565000"],
      "InstanceCreationTime": ["140846.963000", "140846.967000", "140846.970000", "140846.974000", "140846.977000", "140846.980000", "140846.984000", "140846.987000", "140846.991000", "140846.994000", "140846.997000", "140847.002000", "140847.005000", "140847.008000", "140847.012000", "140847.015000", "140847.019000", "140906.917000", "140906.921000", "140906.924000", "140906.928000", "140906.931000", "140906.934000", "140906.938000", "140906.941000", "140906.945000", "140906.948000", "140906.951000", "140906.955000", "140906.958000", "140906.968000", "140906.972000", "140906.975000", "140906.979000", "140906.982000", "140906.985000", "140906.989000", "140926.916000", "140926.920000", "140926.923000", "140926.927000", "140926.930000", "140926.933000", "140926.937000", "140926.940000", "140926.954000", "140926.957000", "140926.961000", "140926.964000", "140926.968000", "140926.971000", "140926.974000", "140926.978000", "140926.981000", "140926.984000", "140926.988000", "140926.991000", "140946.916000", "140946.920000", "140946.923000", "140946.927000", "140946.930000", "140946.934000", "140946.937000", "140946.940000", "140946.944000", "140946.947000", "140946.950000", "140946.954000", "140946.957000", "140946.960000", "140946.964000", "140946.967000", "140946.976000", "140946.979000", "140946.983000", "140946.986000", "141006.916000", "141006.920000", "141006.923000", "141006.927000", "141006.930000", "141006.933000", "141006.937000", "141006.940000", "141006.944000", "141006.947000", "141006.950000", "141006.954000", "141006.957000", "141006.960000", "141006.964000", "141006.967000", "141006.970000", "141006.974000", "141006.984000", "141006.988000", "141046.917000", "141046.927000", "141046.931000", "141046.934000", "141046.938000", "141046.941000", "141046.944000", "141046.948000", "141046.951000", "141046.955000", "141046.958000", "141046.961000", "141046.965000", "141046.968000", "141046.972000", "141046.975000", "141046.978000", "141046.982000", "141046.985000", "141046.989000", "141046.992000", "141046.996000", "141047.000000", "141047.004000", "141047.007000", "141047.010000", "141047.014000", "141047.017000", "141047.021000", "141047.024000", "141047.028000", "141047.031000", "141126.917000", "141126.921000", "141126.925000", "141126.928000", "141126.931000", "141126.935000", "141126.938000", "141126.942000", "141126.945000", "141126.949000", "141126.952000", "141126.956000", "141126.959000", "141126.963000", "141126.966000", "141126.970000", "141126.973000", "141126.977000", "141126.980000", "141126.983000", "141126.987000", "141127.000000", "141127.017000", "141127.021000", "141127.024000", "141127.028000", "141127.031000", "141206.916000", "141206.920000", "141206.923000", "141206.927000", "141206.930000", "141206.934000", "141206.937000", "141206.941000", "141206.944000", "141206.948000", "141206.951000", "141206.955000", "141206.958000", "141206.962000", "141206.965000", "141206.969000", "141206.972000", "141206.975000", "141206.979000", "141206.982000", "141206.985000", "141206.989000", "141206.992000", "141206.996000", "141207.000000", "141207.004000", "141207.012000", "141216.535000", "141216.548000", "141216.551000", "141216.555000", "141216.558000", "141216.562000", "141216.565000"],
      "InstanceNumber": [1, 2, 3, 4, 5, 6, 7, 8, 9, 10, 11, 12, 13, 14, 15, 16, 17, 18, 19, 20, 21, 22, 23, 24, 25, 26, 27, 28, 29, 30, 31, 32, 33, 34, 35, 36, 37, 38, 39, 40, 41, 42, 43, 44, 45, 46, 47, 48, 49, 50, 51, 52, 53, 54, 55, 56, 57, 58, 59, 60, 61, 62, 63, 64, 65, 66, 67, 68, 69, 70, 71, 72, 73, 74, 75, 76, 77, 78, 79, 80, 81, 82, 83, 84, 85, 86, 87, 88, 89, 90, 91, 92, 93, 94, 95, 96, 97, 98, 99, 100, 101, 102, 103, 104, 105, 106, 107, 108, 109, 110, 111, 112, 113, 114, 115, 116, 117, 118, 119, 120, 121, 122, 123, 124, 125, 126, 127, 128, 129, 130, 131, 132, 133, 134, 135, 136, 137, 138, 139, 140, 141, 142, 143, 144, 145, 146, 147, 148, 149, 150, 151, 152, 153, 154, 155, 156, 157, 158, 159, 160, 161, 162, 163, 164, 165, 166, 167, 168, 169, 170, 171, 172, 173, 174, 175, 176, 177, 178, 179, 180, 181, 182, 183, 184, 185, 186, 187, 188, 189, 190],
      "LargestImagePixelValue": [38621, 37892, 37001, 37016, 36723, 36565, 36650, 36898, 36605, 36322, 36448, 36659, 37064, 36608, 36510, 36515, 36535, 36482, 36740, 36379, 36324, 36624, 36783, 36345, 36778, 36434, 36512, 36605, 36616, 36556, 36436, 36347, 36307, 36332, 36120, 36336, 36174, 36438, 36221, 36224, 36181, 36288, 36287, 36408, 36204, 36305, 36393, 36475, 36705, 36425, 36485, 36374, 36720, 36498, 36658, 36715, 36520, 36521, 36336, 36394, 36509, 37071, 36862, 36267, 36584, 36594, 36928, 36416, 36434, 36298, 36731, 36345, 36602, 36384, 36401, 36323, 36354, 36358, 36173, 36354, 36475, 35906, 36402, 36081, 36227, 36180, 36138, 36188, 36354, 36368, 36563, 36799, 36476, 36431, 36601, 36445, 36102, 36491, 35924, 36298, 36389, 36141, 36347, 36226, 36370, 35959, 36288, 36547, 36421, 36350, 36598, 36584, 36070, 36150, 36168, 35884, 36209, 36223, 36051, 36119, 36031, 35805, 35893, 36119, 36504, 36098, 36565, 36272, 35885, 35988, 36245, 36390, 36374, 36653, 36314, 36532, 36153, 35938, 36410, 36176, 36159, 36178, 36298, 36377, 36430, 36689, 36285, 36206, 36312, 36504, 36361, 36440, 36648, 36495, 36528, 36479, 36560, 36279, 36579, 36316, 36769, 36523, 36358, 36548, 36475, 36388, 36271, 36243, 36236, 36241, 36638, 36191, 36267, 36193, 36087, 36525, 36335, 36504, 36290, 35796, 36210, 36126, 36467, 36389, 36096, 35788, 36150, 35693, 35622, 35782],
      "WindowCenter": [10010.0, 9987.0, 9971.0, 9967.0, 9958.0, 9949.0, 9956.0, 9965.0, 9968.0, 9974.0, 9966.0, 9956.0, 9960.0, 9947.0, 9953.0, 9955.0, 9945.0, 9939.0, 9946.0, 9945.0, 9938.0, 9936.0, 9945.0, 9945.0, 9953.0, 9944.0, 9935.0, 9919.0, 9918.0, 9927.0, 9928.0, 9943.0, 9940.0, 9947.0, 9946.0, 9954.0, 9955.0, 9956.0, 9958.0, 9958.0, 9963.0, 9959.0, 9965.0, 9965.0, 9957.0, 9956.0, 9963.0, 9965.0, 9970.0, 9965.0, 9964.0, 9962.0, 9972.0, 9957.0, 9928.0, 9915.0, 9916.0, 9933.0, 9927.0, 9909.0, 9901.0, 9905.0, 9914.0, 9918.0, 9925.0, 9925.0, 9924.0, 9925.0, 9928.0, 9937.0, 9942.0, 9928.0, 9929.0, 9942.0, 9953.0, 9961.0, 9963.0, 9963.0, 9954.0, 9946.0, 9960.0, 9966.0, 9980.0, 9982.0, 9975.0, 9965.0, 9964.0, 9958.0, 9957.0, 9954.0, 9954.0, 9946.0, 9947.0, 9954.0, 9955.0, 9948.0, 9946.0, 9945.0, 9941.0, 9938.0, 9935.0, 9927.0, 9935.0, 9947.0, 9948.0, 9925.0, 9912.0, 9907.0, 9907.0, 9924.0, 9943.0, 9962.0, 9966.0, 9974.0, 9975.0, 9967.0, 9955.0, 9953.0, 9956.0, 9966.0, 9967.0, 9968.0, 9959.0, 9946.0, 9936.0, 9936.0, 9950.0, 9947.0, 9939.0, 9937.0, 9929.0, 9940.0, 9936.0, 9935.0, 9935.0, 9933.0, 9935.0, 9938.0, 9959.0, 9955.0, 9955.0, 9954.0, 9963.0, 9964.0, 9951.0, 9943.0, 9919.0, 9901.0, 9901.0, 9908.0, 9916.0, 9915.0, 9909.0, 9905.0, 9905.0, 9915.0, 9923.0, 9922.0, 9924.0, 9927.0, 9933.0, 9927.0, 9933.0, 9944.0, 9952.0, 9951.0, 9937.0, 9936.0, 9944.0, 9946.0, 9952.0, 9947.0, 9945.0, 9930.0, 9926.0, 9917.0, 9932.0, 9935.0, 9937.0, 9938.0, 9945.0, 9943.0, 9936.0, 9934.0, 9955.0, 9959.0, 9967.0, 9953.0, 9935.0, 9923.0],
      "WindowWidth": [21272.0, 21200.0, 21155.0, 21135.0, 21113.0, 21090.0, 21105.0, 21125.0, 21133.0, 21145.0, 21126.0, 21102.0, 21109.0, 21084.0, 21097.0, 21101.0, 21077.0, 21066.0, 21080.0, 21076.0, 21060.0, 21056.0, 21075.0, 21078.0, 21091.0, 21071.0, 21050.0, 21018.0, 21015.0, 21038.0, 21040.0, 21070.0, 21070.0, 21082.0, 21079.0, 21097.0, 21101.0, 21105.0, 21110.0, 21109.0, 21118.0, 21113.0, 21125.0, 21123.0, 21106.0, 21102.0, 21118.0, 21122.0, 21132.0, 21123.0, 21122.0, 21115.0, 21137.0, 21103.0, 21035.0, 21003.0, 21009.0, 21049.0, 21037.0, 20993.0, 20974.0, 20982.0, 21004.0, 21018.0, 21030.0, 21030.0, 21027.0, 21031.0, 21040.0, 21057.0, 21063.0, 21037.0, 21040.0, 21068.0, 21095.0, 21113.0, 21120.0, 21118.0, 21098.0, 21081.0, 21111.0, 21129.0, 21158.0, 21163.0, 21150.0, 21124.0, 21121.0, 21111.0, 21108.0, 21099.0, 21097.0, 21080.0, 21085.0, 21099.0, 21102.0, 21084.0, 21081.0, 21078.0, 21072.0, 21063.0, 21051.0, 21033.0, 21054.0, 21082.0, 21083.0, 21035.0, 21003.0, 20989.0, 20990.0, 21030.0, 21073.0, 21118.0, 21130.0, 21149.0, 21150.0, 21130.0, 21101.0, 21096.0, 21105.0, 21129.0, 21130.0, 21133.0, 21110.0, 21079.0, 21054.0, 21056.0, 21086.0, 21084.0, 21065.0, 21057.0, 21041.0, 21061.0, 21056.0, 21054.0, 21052.0, 21048.0, 21054.0, 21066.0, 21107.0, 21103.0, 21103.0, 21099.0, 21121.0, 21122.0, 21089.0, 21069.0, 21014.0, 20978.0, 20978.0, 20991.0, 21009.0, 21003.0, 20992.0, 20984.0, 20984.0, 21011.0, 21027.0, 21026.0, 21030.0, 21039.0, 21048.0, 21035.0, 21049.0, 21073.0, 21094.0, 21089.0, 21059.0, 21057.0, 21077.0, 21080.0, 21091.0, 21081.0, 21077.0, 21043.0, 21033.0, 21013.0, 21045.0, 21054.0, 21059.0, 21063.0, 21080.0, 21073.0, 21056.0, 21053.0, 21094.0, 21106.0, 21121.0, 21090.0, 21048.0, 21020.0]
    },
    "slices": {}
  }
}