{
  "AcquisitionMatrixPE": 104,
  "AcquisitionNumber": 1,
  "AcquisitionTime": "14:13:35.455000",
  "BandwidthPerPixelPhaseEncode": 17.17,
  "BaseResolution": 104,
  "BodyPartExamined": "BRAIN",
  "CoilString": "HC1-7;NC1_2",
  "ConsistencyInfo": "N4_VE11C_LATEST_20160120",
  "ConversionSoftware": "dcm2niix",
  "ConversionSoftwareVersion": "v1.0.20190902",
  "DerivedVendorReportedEchoSpacing": 0.000560011,
  "DeviceSerialNumber": "167006",
  "DwellTime": 2.1e-06,
  "EchoTime": 0.037,
  "EchoTrainLength": 104,
  "EffectiveEchoSpacing": 0.000560011,
  "FlipAngle": 52,
  "ImageComments": "Unaliased_MB4_PE3_LB",
  "ImageOrientationPatientDICOM": [0.998279, 0.0532659, 0.0245412, -0.0465537, 0.974209, -0.220794],
  "ImageType": [
    "ORIGINAL",
    "PRIMARY",
    "P",
    "MB",
    "ND",
    "MOSAIC"
],
  "ImagingFrequency": 123.259,
  "InPlanePhaseEncodingDirectionDICOM": "COL",
  "InstitutionAddress": "Chemin_Queen-Mary_4565_Montreal_District_CA_H3W_1W5",
  "InstitutionName": "IUGM",
  "InstitutionalDepartmentName": "Department",
  "MRAcquisitionType": "2D",
  "MagneticFieldStrength": 3,
  "Manufacturer": "Siemens",
  "ManufacturersModelName": "Prisma_fit",
  "Modality": "MR",
  "MultibandAccelerationFactor": 4,
  "PartialFourier": 1,
  "PatientPosition": "HFS",
  "PercentPhaseFOV": 100,
  "PhaseEncodingDirection": "j",
  "PhaseEncodingSteps": 104,
  "PhaseResolution": 1,
  "PixelBandwidth": 2290,
  "ProcedureStepDescription": "memory_things",
  "ProtocolName": "func_task-things_run-5",
  "PulseSequenceDetails": "%CustomerSeq%_cmrr_mbep2d_bold",
  "ReceiveCoilActiveElements": "HC1-7;NC1,2",
  "ReceiveCoilName": "HeadNeck_64",
  "ReconMatrixPE": 104,
  "RepetitionTime": 1.49,
  "SAR": 0.0363083,
  "ScanOptions": "FS",
  "ScanningSequence": "EP",
  "SequenceName": "epfid2d1_104",
  "SequenceVariant": "SK_SS",
  "SeriesDescription": "func_task-things_run-5",
  "SeriesNumber": 23,
  "ShimSetting": [636, -7237, -8765, 666, 39, -73, 141, -1],
  "SliceThickness": 2,
  "SliceTiming": [0, 0.785, 0.1, 0.8825, 0.1975, 0.98, 0.295, 1.08, 0.3925, 1.1775, 0.49, 1.275, 0.59, 1.3725, 0.6875, 0, 0.785, 0.1, 0.8825, 0.1975, 0.98, 0.295, 1.08, 0.3925, 1.1775, 0.49, 1.275, 0.59, 1.3725, 0.6875, 0, 0.785, 0.1, 0.8825, 0.1975, 0.98, 0.295, 1.08, 0.3925, 1.1775, 0.49, 1.275, 0.59, 1.3725, 0.6875, 0, 0.785, 0.1, 0.8825, 0.1975, 0.98, 0.295, 1.08, 0.3925, 1.1775, 0.49, 1.275, 0.59, 1.3725, 0.6875],
  "SoftwareVersions": "syngo_MR_E11",
  "SpacingBetweenSlices": 2,
  "StationName": "MRC35049",
  "TaskName": "things",
  "TotalReadoutTime": 0.0576811,
  "TxRefAmp": 212.607,
  "WipMemBlock": "64a205d6-95a2-46ab-91c9-317ea306e1cb||Sequence: R016 ve11c/master r/e634e98; Dec 19 2017 11:00:25 by eja",
  "dcmmeta_affine": [
    [-1.9965574741363525, -0.09310749918222427, 0.07133802771568298, 111.80641174316406],
    [-0.10653188824653625, 1.9484176635742188, -0.4385424554347992, -71.393310546875],
    [0.04908234253525734, 0.44158750772476196, 1.9500234127044678, -50.073387145996094],
    [0.0, 0.0, 0.0, 1.0]
],
  "dcmmeta_reorient_transform": [
    [0.0, -1.0, 0.0, 103.0],
    [1.0, 0.0, 0.0, 0.0],
    [0.0, 0.0, 1.0, 0.0],
    [0.0, 0.0, 0.0, 1.0]
],
  "dcmmeta_shape": [104, 104, 60, 190],
  "dcmmeta_slice_dim": 2,
  "dcmmeta_version": 0.6,
  "global": {
    "const": {
      "AcquisitionMatrix": [104, 0, 0, 104],
      "AngioFlag": "N",
      "BitsAllocated": 16,
      "BitsStored": 16,
      "BodyPartExamined": "BRAIN",
      "Columns": 832,
      "EchoNumbers": 1,
      "EchoTime": 37.0,
      "EchoTrainLength": 104,
      "FlipAngle": 52.0,
      "HighBit": 15,
      "ImageOrientationPatient": [0.99827875365552, 0.05326594493933, 0.02454117172648, -0.0465537477371, 0.97420884265263, -0.2207937487092],
      "ImagePositionPatient": [-795.07214483124, -877.29535979385, 138.28200290583],
      "ImageType": [
        "ORIGINAL",
        "PRIMARY",
        "P",
        "MB",
        "ND",
        "MOSAIC"
],
      "ImagedNucleus": "1H",
      "ImagingFrequency": 123.258961,
      "InPlanePhaseEncodingDirection": "COL",
      "LargestImagePixelValue": 4095,
      "MRAcquisitionType": "2D",
      "MagneticFieldStrength": 3.0,
      "Manufacturer": "SIEMENS",
      "ManufacturerModelName": "Prisma_fit",
      "Modality": "MR",
      "NumberOfAverages": 1.0,
      "NumberOfPhaseEncodingSteps": 104,
      "PercentPhaseFieldOfView": 100.0,
      "PercentSampling": 100.0,
      "PerformedProcedureStepStartTime": "125858.760000",
      "PhotometricInterpretation": "MONOCHROME2",
      "PixelBandwidth": 2290.0,
      "PixelRepresentation": 0,
      "PixelSpacing": [2.0, 2.0],
      "ProtocolName": "func_task-things_run-5",
      "RepetitionTime": 1490.0,
      "RescaleIntercept": -4096.0,
      "RescaleSlope": 2.0,
      "RescaleType": "US",
      "Rows": 832,
      "SAR": 0.03630834352498,
      "SamplesPerPixel": 1,
      "ScanOptions": "FS",
      "ScanningSequence": "EP",
      "SequenceName": "epfid2d1_104",
      "SequenceVariant": [
        "SK",
        "SS"
],
      "SeriesDescription": "func_task-things_run-5",
      "SeriesNumber": 23,
      "SeriesTime": "141501.209000",
      "SliceLocation": -29.179615113887,
      "SliceThickness": 2.0,
      "SmallestImagePixelValue": 0,
      "SoftwareVersions": "syngo MR E11",
      "SpacingBetweenSlices": 1.9999999609282,
      "SpecificCharacterSet": "ISO_IR 100",
      "StudyID": "1",
      "StudyTime": "125858.670000",
      "TransmitCoilName": "Body",
      "VariableFlipAngleFlag": "N",
      "WindowCenterWidthExplanation": "Algo1",
      "dBdt": 0.0},
    "slices": {}
  },
  "time": {
    "samples": {
      "AcquisitionNumber": [1, 2, 3, 4, 5, 6, 7, 8, 9, 10, 11, 12, 13, 14, 15, 16, 17, 18, 19, 20, 21, 22, 23, 24, 25, 26, 27, 28, 29, 30, 31, 32, 33, 34, 35, 36, 37, 38, 39, 40, 41, 42, 43, 44, 45, 46, 47, 48, 49, 50, 51, 52, 53, 54, 55, 56, 57, 58, 59, 60, 61, 62, 63, 64, 65, 66, 67, 68, 69, 70, 71, 72, 73, 74, 75, 76, 77, 78, 79, 80, 81, 82, 83, 84, 85, 86, 87, 88, 89, 90, 91, 92, 93, 94, 95, 96, 97, 98, 99, 100, 101, 102, 103, 104, 105, 106, 107, 108, 109, 110, 111, 112, 113, 114, 115, 116, 117, 118, 119, 120, 121, 122, 123, 124, 125, 126, 127, 128, 129, 130, 131, 132, 133, 134, 135, 136, 137, 138, 139, 140, 141, 142, 143, 144, 145, 146, 147, 148, 149, 150, 151, 152, 153, 154, 155, 156, 157, 158, 159, 160, 161, 162, 163, 164, 165, 166, 167, 168, 169, 170, 171, 172, 173, 174, 175, 176, 177, 178, 179, 180, 181, 182, 183, 184, 185, 186, 187, 188, 189, 190],
      "AcquisitionTime": ["141335.455000", "141336.945000", "141338.435000", "141339.925000", "141341.415000", "141342.905000", "141344.395000", "141345.885000", "141347.375000", "141348.865000", "141350.355000", "141351.845000", "141353.335000", "141354.825000", "141356.315000", "141357.805000", "141359.295000", "141400.785000", "141402.275000", "141403.765000", "141405.255000", "141406.745000", "141408.235000", "141409.725000", "141411.215000", "141412.705000", "141414.195000", "141415.685000", "141417.175000", "141418.665000", "141420.155000", "141421.645000", "141423.135000", "141424.625000", "141426.115000", "141427.605000", "141429.095000", "141430.585000", "141432.075000", "141433.565000", "141435.055000", "141436.545000", "141438.035000", "141439.525000", "141441.015000", "141442.505000", "141443.995000", "141445.485000", "141446.975000", "141448.465000", "141449.955000", "141451.445000", "141452.935000", "141454.425000", "141455.915000", "141457.405000", "141458.895000", "141500.385000", "141501.875000", "141503.365000", "141504.855000", "141506.345000", "141507.835000", "141509.325000", "141510.815000", "141512.305000", "141513.795000", "141515.285000", "141516.775000", "141518.265000", "141519.755000", "141521.245000", "141522.735000", "141524.225000", "141525.715000", "141527.205000", "141528.695000", "141530.185000", "141531.675000", "141533.165000", "141534.655000", "141536.145000", "141537.635000", "141539.125000", "141540.615000", "141542.105000", "141543.595000", "141545.085000", "141546.575000", "141548.065000", "141549.555000", "141551.045000", "141552.535000", "141554.025000", "141555.515000", "141557.005000", "141558.495000", "141559.985000", "141601.475000", "141602.965000", "141604.455000", "141605.945000", "141607.435000", "141608.925000", "141610.415000", "141611.905000", "141613.395000", "141614.885000", "141616.375000", "141617.865000", "141619.355000", "141620.845000", "141622.335000", "141623.825000", "141625.315000", "141626.805000", "141628.295000", "141629.785000", "141631.275000", "141632.765000", "141634.255000", "141635.745000", "141637.235000", "141638.725000", "141640.215000", "141641.705000", "141643.195000", "141644.685000", "141646.175000", "141647.665000", "141649.155000", "141650.645000", "141652.135000", "141653.625000", "141655.115000", "141656.605000", "141658.095000", "141659.585000", "141701.075000", "141702.565000", "141704.055000", "141705.545000", "141707.035000", "141708.525000", "141710.015000", "141711.505000", "141712.995000", "141714.485000", "141715.975000", "141717.465000", "141718.955000", "141720.445000", "141721.935000", "141723.425000", "141724.915000", "141726.405000", "141727.895000", "141729.385000", "141730.875000", "141732.365000", "141733.855000", "141735.345000", "141736.835000", "141738.325000", "141739.815000", "141741.305000", "141742.795000", "141744.285000", "141745.775000", "141747.265000", "141748.755000", "141750.245000", "141751.735000", "141753.225000", "141754.715000", "141756.205000", "141757.695000", "141759.185000", "141800.675000", "141802.165000", "141803.655000", "141805.145000", "141806.635000", "141808.125000", "141809.615000", "141811.105000", "141812.595000", "141814.085000", "141815.575000", "141817.065000"],
      "ContentTime": ["141501.211000", "141501.213000", "141501.216000", "141501.223000", "141501.225000", "141501.228000", "141501.230000", "141501.233000", "141501.235000", "141501.238000", "141501.240000", "141501.243000", "141501.245000", "141501.248000", "141501.250000", "141501.253000", "141501.255000", "141501.258000", "141501.261000", "141501.263000", "141501.266000", "141501.268000", "141501.271000", "141501.273000", "141501.276000", "141501.278000", "141501.281000", "141501.284000", "141501.286000", "141501.289000", "141501.291000", "141501.309000", "141501.311000", "141521.080000", "141521.083000", "141521.086000", "141521.088000", "141521.091000", "141521.093000", "141521.096000", "141521.098000", "141521.101000", "141521.104000", "141521.107000", "141521.109000", "141521.112000", "141521.114000", "141521.117000", "141521.120000", "141521.122000", "141521.131000", "141521.133000", "141521.136000", "141541.097000", "141541.099000", "141541.102000", "141541.104000", "141541.107000", "141541.110000", "141541.112000", "141541.115000", "141541.117000", "141541.120000", "141541.123000", "141541.125000", "141541.128000", "141541.130000", "141541.133000", "141541.135000", "141541.138000", "141541.142000", "141541.145000", "141541.148000", "141601.085000", "141601.088000", "141601.090000", "141601.093000", "141601.095000", "141601.098000", "141601.100000", "141601.103000", "141601.106000", "141601.108000", "141601.111000", "141601.113000", "141601.116000", "141601.118000", "141601.121000", "141601.123000", "141601.126000", "141601.128000", "141601.131000", "141601.134000", "141641.162000", "141641.165000", "141641.167000", "141641.170000", "141641.172000", "141641.175000", "141641.177000", "141641.180000", "141641.183000", "141641.185000", "141641.188000", "141641.190000", "141641.193000", "141641.197000", "141641.199000", "141641.202000", "141641.204000", "141641.207000", "141641.209000", "141641.212000", "141641.215000", "141641.217000", "141641.220000", "141641.222000", "141641.225000", "141641.227000", "141641.230000", "141641.232000", "141641.235000", "141641.238000", "141641.240000", "141721.112000", "141721.114000", "141721.117000", "141721.120000", "141721.122000", "141721.125000", "141721.127000", "141721.130000", "141721.132000", "141721.135000", "141721.138000", "141721.140000", "141721.143000", "141721.145000", "141721.148000", "141721.151000", "141721.164000", "141721.167000", "141721.169000", "141721.172000", "141721.174000", "141721.177000", "141721.180000", "141721.182000", "141721.185000", "141721.187000", "141721.190000", "141801.137000", "141801.139000", "141801.142000", "141801.145000", "141801.147000", "141801.150000", "141801.152000", "141801.155000", "141801.158000", "141801.160000", "141801.163000", "141801.165000", "141801.168000", "141801.170000", "141801.173000", "141801.262000", "141801.265000", "141801.267000", "141801.270000", "141801.273000", "141801.275000", "141801.278000", "141801.280000", "141801.283000", "141801.285000", "141801.288000", "141819.110000", "141819.113000", "141819.124000", "141819.127000", "141819.130000", "141819.133000", "141819.135000", "141819.138000", "141819.141000", "141819.143000", "141819.146000", "141819.149000", "141819.152000"],
      "InstanceCreationTime": ["141501.211000", "141501.213000", "141501.216000", "141501.223000", "141501.225000", "141501.228000", "141501.230000", "141501.233000", "141501.235000", "141501.238000", "141501.240000", "141501.243000", "141501.245000", "141501.248000", "141501.250000", "141501.253000", "141501.255000", "141501.258000", "141501.261000", "141501.263000", "141501.266000", "141501.268000", "141501.271000", "141501.273000", "141501.276000", "141501.278000", "141501.281000", "141501.284000", "141501.286000", "141501.289000", "141501.291000", "141501.309000", "141501.311000", "141521.080000", "141521.083000", "141521.086000", "141521.088000", "141521.091000", "141521.093000", "141521.096000", "141521.098000", "141521.101000", "141521.104000", "141521.107000", "141521.109000", "141521.112000", "141521.114000", "141521.117000", "141521.120000", "141521.122000", "141521.131000", "141521.133000", "141521.136000", "141541.097000", "141541.099000", "141541.102000", "141541.104000", "141541.107000", "141541.110000", "141541.112000", "141541.115000", "141541.117000", "141541.120000", "141541.123000", "141541.125000", "141541.128000", "141541.130000", "141541.133000", "141541.135000", "141541.138000", "141541.142000", "141541.145000", "141541.148000", "141601.085000", "141601.088000", "141601.090000", "141601.093000", "141601.095000", "141601.098000", "141601.100000", "141601.103000", "141601.106000", "141601.108000", "141601.111000", "141601.113000", "141601.116000", "141601.118000", "141601.121000", "141601.123000", "141601.126000", "141601.128000", "141601.131000", "141601.134000", "141641.162000", "141641.165000", "141641.167000", "141641.170000", "141641.172000", "141641.175000", "141641.177000", "141641.180000", "141641.183000", "141641.185000", "141641.188000", "141641.190000", "141641.193000", "141641.197000", "141641.199000", "141641.202000", "141641.204000", "141641.207000", "141641.209000", "141641.212000", "141641.215000", "141641.217000", "141641.220000", "141641.222000", "141641.225000", "141641.227000", "141641.230000", "141641.232000", "141641.235000", "141641.238000", "141641.240000", "141721.112000", "141721.114000", "141721.117000", "141721.120000", "141721.122000", "141721.125000", "141721.127000", "141721.130000", "141721.132000", "141721.135000", "141721.138000", "141721.140000", "141721.143000", "141721.145000", "141721.148000", "141721.151000", "141721.164000", "141721.167000", "141721.169000", "141721.172000", "141721.174000", "141721.177000", "141721.180000", "141721.182000", "141721.185000", "141721.187000", "141721.190000", "141801.137000", "141801.139000", "141801.142000", "141801.145000", "141801.147000", "141801.150000", "141801.152000", "141801.155000", "141801.158000", "141801.160000", "141801.163000", "141801.165000", "141801.168000", "141801.170000", "141801.173000", "141801.262000", "141801.265000", "141801.267000", "141801.270000", "141801.273000", "141801.275000", "141801.278000", "141801.280000", "141801.283000", "141801.285000", "141801.288000", "141819.110000", "141819.113000", "141819.124000", "141819.127000", "141819.130000", "141819.133000", "141819.135000", "141819.138000", "141819.141000", "141819.143000", "141819.146000", "141819.149000", "141819.152000"],
      "InstanceNumber": [1, 2, 3, 4, 5, 6, 7, 8, 9, 10, 11, 12, 13, 14, 15, 16, 17, 18, 19, 20, 21, 22, 23, 24, 25, 26, 27, 28, 29, 30, 31, 32, 33, 34, 35, 36, 37, 38, 39, 40, 41, 42, 43, 44, 45, 46, 47, 48, 49, 50, 51, 52, 53, 54, 55, 56, 57, 58, 59, 60, 61, 62, 63, 64, 65, 66, 67, 68, 69, 70, 71, 72, 73, 74, 75, 76, 77, 78, 79, 80, 81, 82, 83, 84, 85, 86, 87, 88, 89, 90, 91, 92, 93, 94, 95, 96, 97, 98, 99, 100, 101, 102, 103, 104, 105, 106, 107, 108, 109, 110, 111, 112, 113, 114, 115, 116, 117, 118, 119, 120, 121, 122, 123, 124, 125, 126, 127, 128, 129, 130, 131, 132, 133, 134, 135, 136, 137, 138, 139, 140, 141, 142, 143, 144, 145, 146, 147, 148, 149, 150, 151, 152, 153, 154, 155, 156, 157, 158, 159, 160, 161, 162, 163, 164, 165, 166, 167, 168, 169, 170, 171, 172, 173, 174, 175, 176, 177, 178, 179, 180, 181, 182, 183, 184, 185, 186, 187, 188, 189, 190],
      "WindowCenter": [4804.0, 4782.0, 4780.0, 4778.0, 4782.0, 4778.0, 4780.0, 4782.0, 4780.0, 4778.0, 4776.0, 4782.0, 4776.0, 4778.0, 4778.0, 4780.0, 4778.0, 4776.0, 4778.0, 4776.0, 4802.0, 4778.0, 4804.0, 4780.0, 4778.0, 4778.0, 4780.0, 4780.0, 4780.0, 4778.0, 4780.0, 4776.0, 4780.0, 4778.0, 4780.0, 4782.0, 4778.0, 4802.0, 4778.0, 4780.0, 4780.0, 4780.0, 4804.0, 4802.0, 4802.0, 4780.0, 4780.0, 4778.0, 4802.0, 4802.0, 4780.0, 4780.0, 4804.0, 4778.0, 4780.0, 4778.0, 4780.0, 4802.0, 4778.0, 4776.0, 4780.0, 4804.0, 4806.0, 4778.0, 4802.0, 4778.0, 4778.0, 4778.0, 4780.0, 4780.0, 4778.0, 4782.0, 4780.0, 4778.0, 4780.0, 4780.0, 4778.0, 4776.0, 4800.0, 4804.0, 4778.0, 4800.0, 4780.0, 4776.0, 4778.0, 4806.0, 4780.0, 4780.0, 4802.0, 4802.0, 4780.0, 4780.0, 4802.0, 4780.0, 4782.0, 4782.0, 4802.0, 4780.0, 4778.0, 4780.0, 4778.0, 4778.0, 4780.0, 4780.0, 4778.0, 4776.0, 4782.0, 4776.0, 4780.0, 4780.0, 4780.0, 4780.0, 4806.0, 4776.0, 4780.0, 4780.0, 4780.0, 4802.0, 4804.0, 4802.0, 4778.0, 4782.0, 4804.0, 4802.0, 4806.0, 4802.0, 4780.0, 4804.0, 4784.0, 4778.0, 4780.0, 4778.0, 4778.0, 4802.0, 4780.0, 4778.0, 4776.0, 4778.0, 4780.0, 4778.0, 4778.0, 4778.0, 4780.0, 4778.0, 4780.0, 4802.0, 4778.0, 4778.0, 4780.0, 4778.0, 4804.0, 4778.0, 4802.0, 4780.0, 4778.0, 4780.0, 4782.0, 4784.0, 4778.0, 4778.0, 4802.0, 4778.0, 4780.0, 4782.0, 4776.0, 4804.0, 4778.0, 4782.0, 4780.0, 4780.0, 4776.0, 4778.0, 4776.0, 4778.0, 4780.0, 4780.0, 4780.0, 4780.0, 4802.0, 4804.0, 4806.0, 4778.0, 4778.0, 4780.0, 4776.0, 4782.0, 4780.0, 4802.0, 4780.0, 4778.0],
      "WindowWidth": [18606.0, 18572.0, 18574.0, 18570.0, 18574.0, 18570.0, 18572.0, 18572.0, 18570.0, 18570.0, 18570.0, 18576.0, 18564.0, 18572.0, 18576.0, 18572.0, 18578.0, 18570.0, 18572.0, 18570.0, 18606.0, 18578.0, 18604.0, 18572.0, 18566.0, 18568.0, 18576.0, 18570.0, 18578.0, 18574.0, 18574.0, 18572.0, 18574.0, 18568.0, 18576.0, 18574.0, 18574.0, 18602.0, 18572.0, 18574.0, 18566.0, 18574.0, 18600.0, 18602.0, 18600.0, 18572.0, 18572.0, 18574.0, 18602.0, 18600.0, 18572.0, 18572.0, 18602.0, 18574.0, 18576.0, 18566.0, 18568.0, 18608.0, 18572.0, 18572.0, 18576.0, 18600.0, 18606.0, 18574.0, 18604.0, 18572.0, 18572.0, 18576.0, 18576.0, 18572.0, 18572.0, 18568.0, 18570.0, 18574.0, 18574.0, 18578.0, 18572.0, 18568.0, 18604.0, 18602.0, 18574.0, 18600.0, 18572.0, 18572.0, 18572.0, 18606.0, 18576.0, 18576.0, 18604.0, 18604.0, 18572.0, 18574.0, 18604.0, 18576.0, 18572.0, 18574.0, 18604.0, 18578.0, 18574.0, 18574.0, 18566.0, 18572.0, 18574.0, 18572.0, 18574.0, 18568.0, 18576.0, 18566.0, 18570.0, 18572.0, 18572.0, 18566.0, 18604.0, 18568.0, 18576.0, 18570.0, 18574.0, 18598.0, 18610.0, 18604.0, 18574.0, 18574.0, 18608.0, 18604.0, 18604.0, 18606.0, 18574.0, 18606.0, 18574.0, 18570.0, 18572.0, 18572.0, 18570.0, 18604.0, 18576.0, 18570.0, 18568.0, 18572.0, 18576.0, 18572.0, 18572.0, 18572.0, 18574.0, 18564.0, 18572.0, 18600.0, 18572.0, 18568.0, 18570.0, 18568.0, 18604.0, 18574.0, 18604.0, 18570.0, 18566.0, 18574.0, 18572.0, 18576.0, 18570.0, 18574.0, 18604.0, 18572.0, 18574.0, 18574.0, 18570.0, 18604.0, 18574.0, 18572.0, 18574.0, 18570.0, 18570.0, 18570.0, 18570.0, 18572.0, 18576.0, 18578.0, 18572.0, 18576.0, 18608.0, 18608.0, 18608.0, 18572.0, 18572.0, 18576.0, 18574.0, 18576.0, 18576.0, 18604.0, 18574.0, 18576.0]
    },
    "slices": {}
  }
}