{
  "AcquisitionMatrixPE": 104,
  "AcquisitionNumber": 1,
  "AcquisitionTime": "14:01:28.940000",
  "BandwidthPerPixelPhaseEncode": 17.17,
  "BaseResolution": 104,
  "BodyPartExamined": "BRAIN",
  "CoilString": "HC1-7;NC1_2",
  "ConsistencyInfo": "N4_VE11C_LATEST_20160120",
  "ConversionSoftware": "dcm2niix",
  "ConversionSoftwareVersion": "v1.0.20190902",
  "DerivedVendorReportedEchoSpacing": 0.000560011,
  "DeviceSerialNumber": "167006",
  "DwellTime": 2.1e-06,
  "EchoTime": 0.037,
  "EchoTrainLength": 104,
  "EffectiveEchoSpacing": 0.000560011,
  "FlipAngle": 52,
  "ImageComments": "Unaliased_MB4_PE3_LB",
  "ImageOrientationPatientDICOM": [0.998279, 0.0532659, 0.0245412, -0.0465537, 0.974209, -0.220794],
  "ImageType": [
    "ORIGINAL",
    "PRIMARY",
    "M",
    "MB",
    "ND",
    "MOSAIC"
],
  "ImagingFrequency": 123.259,
  "InPlanePhaseEncodingDirectionDICOM": "COL",
  "InstitutionAddress": "Chemin_Queen-Mary_4565_Montreal_District_CA_H3W_1W5",
  "InstitutionName": "IUGM",
  "InstitutionalDepartmentName": "Department",
  "MRAcquisitionType": "2D",
  "MagneticFieldStrength": 3,
  "Manufacturer": "Siemens",
  "ManufacturersModelName": "Prisma_fit",
  "Modality": "MR",
  "MultibandAccelerationFactor": 4,
  "PartialFourier": 1,
  "PatientPosition": "HFS",
  "PercentPhaseFOV": 100,
  "PhaseEncodingDirection": "j",
  "PhaseEncodingSteps": 104,
  "PhaseResolution": 1,
  "PixelBandwidth": 2290,
  "ProcedureStepDescription": "memory_things",
  "ProtocolName": "func_task-things_run-3",
  "PulseSequenceDetails": "%CustomerSeq%_cmrr_mbep2d_bold",
  "ReceiveCoilActiveElements": "HC1-7;NC1,2",
  "ReceiveCoilName": "HeadNeck_64",
  "ReconMatrixPE": 104,
  "RepetitionTime": 1.49,
  "SAR": 0.0363083,
  "ScanOptions": "FS",
  "ScanningSequence": "EP",
  "SequenceName": "epfid2d1_104",
  "SequenceVariant": "SK_SS",
  "SeriesDescription": "func_task-things_run-3",
  "SeriesNumber": 16,
  "ShimSetting": [636, -7237, -8765, 666, 39, -73, 141, -1],
  "SliceThickness": 2,
  "SliceTiming": [0, 0.785, 0.1, 0.8825, 0.1975, 0.98, 0.295, 1.08, 0.3925, 1.1775, 0.49, 1.275, 0.59, 1.3725, 0.6875, 0, 0.785, 0.1, 0.8825, 0.1975, 0.98, 0.295, 1.08, 0.3925, 1.1775, 0.49, 1.275, 0.59, 1.3725, 0.6875, 0, 0.785, 0.1, 0.8825, 0.1975, 0.98, 0.295, 1.08, 0.3925, 1.1775, 0.49, 1.275, 0.59, 1.3725, 0.6875, 0, 0.785, 0.1, 0.8825, 0.1975, 0.98, 0.295, 1.08, 0.3925, 1.1775, 0.49, 1.275, 0.59, 1.3725, 0.6875],
  "SoftwareVersions": "syngo_MR_E11",
  "SpacingBetweenSlices": 2,
  "StationName": "MRC35049",
  "TaskName": "things",
  "TotalReadoutTime": 0.0576811,
  "TxRefAmp": 212.607,
  "WipMemBlock": "056afca5-8277-499b-aee1-48cfe7c9c100||Sequence: R016 ve11c/master r/e634e98; Dec 19 2017 11:00:25 by eja",
  "dcmmeta_affine": [
    [-1.9965574741363525, -0.09310749918222427, 0.07133802771568298, 111.80641174316406],
    [-0.10653188824653625, 1.9484176635742188, -0.4385424554347992, -71.393310546875],
    [0.04908234253525734, 0.44158750772476196, 1.9500234127044678, -50.073387145996094],
    [0.0, 0.0, 0.0, 1.0]
],
  "dcmmeta_reorient_transform": [
    [0.0, -1.0, 0.0, 103.0],
    [1.0, 0.0, 0.0, 0.0],
    [0.0, 0.0, 1.0, 0.0],
    [0.0, 0.0, 0.0, 1.0]
],
  "dcmmeta_shape": [104, 104, 60, 190],
  "dcmmeta_slice_dim": 2,
  "dcmmeta_version": 0.6,
  "global": {
    "const": {
      "AcquisitionMatrix": [104, 0, 0, 104],
      "AngioFlag": "N",
      "BitsAllocated": 16,
      "BitsStored": 16,
      "BodyPartExamined": "BRAIN",
      "Columns": 832,
      "EchoNumbers": 1,
      "EchoTime": 37.0,
      "EchoTrainLength": 104,
      "FlipAngle": 52.0,
      "HighBit": 15,
      "ImageOrientationPatient": [0.99827875365552, 0.05326594493933, 0.02454117172648, -0.0465537477371, 0.97420884265263, -0.2207937487092],
      "ImagePositionPatient": [-795.07214483124, -877.29535979385, 138.28200290583],
      "ImageType": [
        "ORIGINAL",
        "PRIMARY",
        "M",
        "MB",
        "ND",
        "MOSAIC"
],
      "ImagedNucleus": "1H",
      "ImagingFrequency": 123.258955,
      "InPlanePhaseEncodingDirection": "COL",
      "MRAcquisitionType": "2D",
      "MagneticFieldStrength": 3.0,
      "Manufacturer": "SIEMENS",
      "ManufacturerModelName": "Prisma_fit",
      "Modality": "MR",
      "NumberOfAverages": 1.0,
      "NumberOfPhaseEncodingSteps": 104,
      "PercentPhaseFieldOfView": 100.0,
      "PercentSampling": 100.0,
      "PerformedProcedureStepStartTime": "125858.760000",
      "PhotometricInterpretation": "MONOCHROME2",
      "PixelBandwidth": 2290.0,
      "PixelRepresentation": 0,
      "PixelSpacing": [2.0, 2.0],
      "ProtocolName": "func_task-things_run-3",
      "RepetitionTime": 1490.0,
      "Rows": 832,
      "SAR": 0.03630834352498,
      "SamplesPerPixel": 1,
      "ScanOptions": "FS",
      "ScanningSequence": "EP",
      "SequenceName": "epfid2d1_104",
      "SequenceVariant": [
        "SK",
        "SS"
],
      "SeriesDescription": "func_task-things_run-3",
      "SeriesNumber": 16,
      "SeriesTime": "140304.738000",
      "SliceLocation": -29.179615113887,
      "SliceThickness": 2.0,
      "SmallestImagePixelValue": 0,
      "SoftwareVersions": "syngo MR E11",
      "SpacingBetweenSlices": 1.9999999609282,
      "SpecificCharacterSet": "ISO_IR 100",
      "StudyID": "1",
      "StudyTime": "125858.670000",
      "TransmitCoilName": "Body",
      "VariableFlipAngleFlag": "N",
      "WindowCenterWidthExplanation": "Algo1",
      "dBdt": 0.0},
    "slices": {}
  },
  "time": {
    "samples": {
      "AcquisitionNumber": [1, 2, 3, 4, 5, 6, 7, 8, 9, 10, 11, 12, 13, 14, 15, 16, 17, 18, 19, 20, 21, 22, 23, 24, 25, 26, 27, 28, 29, 30, 31, 32, 33, 34, 35, 36, 37, 38, 39, 40, 41, 42, 43, 44, 45, 46, 47, 48, 49, 50, 51, 52, 53, 54, 55, 56, 57, 58, 59, 60, 61, 62, 63, 64, 65, 66, 67, 68, 69, 70, 71, 72, 73, 74, 75, 76, 77, 78, 79, 80, 81, 82, 83, 84, 85, 86, 87, 88, 89, 90, 91, 92, 93, 94, 95, 96, 97, 98, 99, 100, 101, 102, 103, 104, 105, 106, 107, 108, 109, 110, 111, 112, 113, 114, 115, 116, 117, 118, 119, 120, 121, 122, 123, 124, 125, 126, 127, 128, 129, 130, 131, 132, 133, 134, 135, 136, 137, 138, 139, 140, 141, 142, 143, 144, 145, 146, 147, 148, 149, 150, 151, 152, 153, 154, 155, 156, 157, 158, 159, 160, 161, 162, 163, 164, 165, 166, 167, 168, 169, 170, 171, 172, 173, 174, 175, 176, 177, 178, 179, 180, 181, 182, 183, 184, 185, 186, 187, 188, 189, 190],
      "AcquisitionTime": ["140128.940000", "140130.430000", "140131.920000", "140133.410000", "140134.900000", "140136.390000", "140137.880000", "140139.370000", "140140.860000", "140142.350000", "140143.840000", "140145.330000", "140146.820000", "140148.310000", "140149.800000", "140151.290000", "140152.780000", "140154.270000", "140155.760000", "140157.250000", "140158.740000", "140200.230000", "140201.720000", "140203.210000", "140204.700000", "140206.190000", "140207.680000", "140209.170000", "140210.660000", "140212.150000", "140213.640000", "140215.130000", "140216.620000", "140218.110000", "140219.600000", "140221.090000", "140222.580000", "140224.070000", "140225.560000", "140227.050000", "140228.540000", "140230.030000", "140231.520000", "140233.010000", "140234.500000", "140235.990000", "140237.480000", "140238.970000", "140240.460000", "140241.950000", "140243.440000", "140244.930000", "140246.420000", "140247.910000", "140249.400000", "140250.890000", "140252.380000", "140253.870000", "140255.360000", "140256.850000", "140258.340000", "140259.830000", "140301.320000", "140302.810000", "140304.300000", "140305.790000", "140307.280000", "140308.770000", "140310.260000", "140311.750000", "140313.240000", "140314.730000", "140316.220000", "140317.710000", "140319.200000", "140320.690000", "140322.180000", "140323.670000", "140325.160000", "140326.650000", "140328.140000", "140329.630000", "140331.120000", "140332.610000", "140334.100000", "140335.590000", "140337.080000", "140338.570000", "140340.060000", "140341.550000", "140343.040000", "140344.530000", "140346.020000", "140347.510000", "140349.000000", "140350.490000", "140351.980000", "140353.470000", "140354.960000", "140356.450000", "140357.940000", "140359.430000", "140400.920000", "140402.410000", "140403.900000", "140405.390000", "140406.880000", "140408.370000", "140409.860000", "140411.350000", "140412.840000", "140414.330000", "140415.820000", "140417.310000", "140418.800000", "140420.290000", "140421.780000", "140423.270000", "140424.760000", "140426.250000", "140427.740000", "140429.230000", "140430.720000", "140432.210000", "140433.700000", "140435.190000", "140436.680000", "140438.170000", "140439.660000", "140441.150000", "140442.640000", "140444.130000", "140445.620000", "140447.110000", "140448.600000", "140450.090000", "140451.580000", "140453.070000", "140454.560000", "140456.050000", "140457.540000", "140459.030000", "140500.520000", "140502.010000", "140503.500000", "140504.990000", "140506.480000", "140507.970000", "140509.460000", "140510.950000", "140512.440000", "140513.930000", "140515.420000", "140516.910000", "140518.400000", "140519.890000", "140521.380000", "140522.870000", "140524.360000", "140525.850000", "140527.340000", "140528.830000", "140530.320000", "140531.810000", "140533.300000", "140534.790000", "140536.280000", "140537.770000", "140539.260000", "140540.750000", "140542.240000", "140543.730000", "140545.220000", "140546.710000", "140548.200000", "140549.690000", "140551.180000", "140552.670000", "140554.160000", "140555.650000", "140557.140000", "140558.630000", "140600.120000", "140601.610000", "140603.100000", "140604.590000", "140606.080000", "140607.570000", "140609.060000", "140610.550000"],
      "ContentTime": ["140304.741000", "140304.745000", "140304.748000", "140304.752000", "140304.755000", "140304.758000", "140304.762000", "140304.766000", "140304.769000", "140304.773000", "140304.776000", "140304.780000", "140304.783000", "140304.786000", "140304.790000", "140304.793000", "140304.796000", "140304.800000", "140304.803000", "140304.807000", "140304.810000", "140304.813000", "140304.817000", "140304.820000", "140304.824000", "140304.827000", "140304.831000", "140304.834000", "140304.837000", "140304.841000", "140304.844000", "140304.848000", "140304.851000", "140304.854000", "140304.858000", "140304.861000", "140304.865000", "140324.706000", "140324.710000", "140324.713000", "140324.717000", "140324.720000", "140324.723000", "140324.727000", "140324.730000", "140324.733000", "140324.737000", "140324.740000", "140324.744000", "140324.747000", "140324.750000", "140324.754000", "140324.757000", "140324.761000", "140324.764000", "140324.767000", "140324.771000", "140344.706000", "140344.710000", "140344.724000", "140344.727000", "140344.731000", "140344.734000", "140344.737000", "140344.741000", "140344.744000", "140344.748000", "140344.751000", "140344.755000", "140344.758000", "140344.762000", "140344.765000", "140344.768000", "140344.772000", "140344.775000", "140344.779000", "140344.782000", "140404.707000", "140404.711000", "140404.715000", "140404.718000", "140404.721000", "140404.725000", "140404.728000", "140404.732000", "140404.735000", "140404.739000", "140404.742000", "140404.745000", "140404.749000", "140404.752000", "140404.756000", "140404.759000", "140404.762000", "140404.766000", "140404.769000", "140404.772000", "140424.707000", "140424.711000", "140424.714000", "140424.718000", "140424.721000", "140424.725000", "140424.728000", "140424.731000", "140424.735000", "140424.738000", "140424.742000", "140424.745000", "140424.748000", "140424.752000", "140424.755000", "140424.759000", "140424.762000", "140424.765000", "140424.769000", "140424.772000", "140504.706000", "140504.710000", "140504.713000", "140504.717000", "140504.720000", "140504.724000", "140504.727000", "140504.730000", "140504.734000", "140504.737000", "140504.741000", "140504.744000", "140504.747000", "140504.751000", "140504.754000", "140504.758000", "140504.761000", "140504.765000", "140504.768000", "140504.771000", "140504.775000", "140504.778000", "140504.782000", "140504.785000", "140504.788000", "140504.792000", "140504.795000", "140544.706000", "140544.710000", "140544.713000", "140544.717000", "140544.720000", "140544.737000", "140544.741000", "140544.744000", "140544.747000", "140544.751000", "140544.754000", "140544.757000", "140544.761000", "140544.764000", "140544.768000", "140544.771000", "140544.774000", "140544.778000", "140544.781000", "140544.784000", "140544.788000", "140544.791000", "140544.795000", "140544.798000", "140544.802000", "140544.805000", "140544.808000", "140612.709000", "140612.712000", "140612.716000", "140612.720000", "140612.723000", "140612.727000", "140612.730000", "140612.734000", "140612.738000", "140612.741000", "140612.745000", "140612.748000", "140612.752000", "140612.755000", "140612.769000", "140612.773000", "140612.776000", "140612.780000", "140612.783000"],
      "InstanceCreationTime": ["140304.741000", "140304.745000", "140304.748000", "140304.752000", "140304.755000", "140304.758000", "140304.762000", "140304.766000", "140304.769000", "140304.773000", "140304.776000", "140304.780000", "140304.783000", "140304.786000", "140304.790000", "140304.793000", "140304.796000", "140304.800000", "140304.803000", "140304.807000", "140304.810000", "140304.813000", "140304.817000", "140304.820000", "140304.824000", "140304.827000", "140304.831000", "140304.834000", "140304.837000", "140304.841000", "140304.844000", "140304.848000", "140304.851000", "140304.854000", "140304.858000", "140304.861000", "140304.865000", "140324.706000", "140324.710000", "140324.713000", "140324.717000", "140324.720000", "140324.723000", "140324.727000", "140324.730000", "140324.733000", "140324.737000", "140324.740000", "140324.744000", "140324.747000", "140324.750000", "140324.754000", "140324.757000", "140324.761000", "140324.764000", "140324.767000", "140324.771000", "140344.706000", "140344.710000", "140344.724000", "140344.727000", "140344.731000", "140344.734000", "140344.737000", "140344.741000", "140344.744000", "140344.748000", "140344.751000", "140344.755000", "140344.758000", "140344.762000", "140344.765000", "140344.768000", "140344.772000", "140344.775000", "140344.779000", "140344.782000", "140404.707000", "140404.711000", "140404.715000", "140404.718000", "140404.721000", "140404.725000", "140404.728000", "140404.732000", "140404.735000", "140404.739000", "140404.742000", "140404.745000", "140404.749000", "140404.752000", "140404.756000", "140404.759000", "140404.762000", "140404.766000", "140404.769000", "140404.772000", "140424.707000", "140424.711000", "140424.714000", "140424.718000", "140424.721000", "140424.725000", "140424.728000", "140424.731000", "140424.735000", "140424.738000", "140424.742000", "140424.745000", "140424.748000", "140424.752000", "140424.755000", "140424.759000", "140424.762000", "140424.765000", "140424.769000", "140424.772000", "140504.706000", "140504.710000", "140504.713000", "140504.717000", "140504.720000", "140504.724000", "140504.727000", "140504.730000", "140504.734000", "140504.737000", "140504.741000", "140504.744000", "140504.747000", "140504.751000", "140504.754000", "140504.758000", "140504.761000", "140504.765000", "140504.768000", "140504.771000", "140504.775000", "140504.778000", "140504.782000", "140504.785000", "140504.788000", "140504.792000", "140504.795000", "140544.706000", "140544.710000", "140544.713000", "140544.717000", "140544.720000", "140544.737000", "140544.741000", "140544.744000", "140544.747000", "140544.751000", "140544.754000", "140544.757000", "140544.761000", "140544.764000", "140544.768000", "140544.771000", "140544.774000", "140544.778000", "140544.781000", "140544.784000", "140544.788000", "140544.791000", "140544.795000", "140544.798000", "140544.802000", "140544.805000", "140544.808000", "140612.709000", "140612.712000", "140612.716000", "140612.720000", "140612.723000", "140612.727000", "140612.730000", "140612.734000", "140612.738000", "140612.741000", "140612.745000", "140612.748000", "140612.752000", "140612.755000", "140612.769000", "140612.773000", "140612.776000", "140612.780000", "140612.783000"],
      "InstanceNumber": [1, 2, 3, 4, 5, 6, 7, 8, 9, 10, 11, 12, 13, 14, 15, 16, 17, 18, 19, 20, 21, 22, 23, 24, 25, 26, 27, 28, 29, 30, 31, 32, 33, 34, 35, 36, 37, 38, 39, 40, 41, 42, 43, 44, 45, 46, 47, 48, 49, 50, 51, 52, 53, 54, 55, 56, 57, 58, 59, 60, 61, 62, 63, 64, 65, 66, 67, 68, 69, 70, 71, 72, 73, 74, 75, 76, 77, 78, 79, 80, 81, 82, 83, 84, 85, 86, 87, 88, 89, 90, 91, 92, 93, 94, 95, 96, 97, 98, 99, 100, 101, 102, 103, 104, 105, 106, 107, 108, 109, 110, 111, 112, 113, 114, 115, 116, 117, 118, 119, 120, 121, 122, 123, 124, 125, 126, 127, 128, 129, 130, 131, 132, 133, 134, 135, 136, 137, 138, 139, 140, 141, 142, 143, 144, 145, 146, 147, 148, 149, 150, 151, 152, 153, 154, 155, 156, 157, 158, 159, 160, 161, 162, 163, 164, 165, 166, 167, 168, 169, 170, 171, 172, 173, 174, 175, 176, 177, 178, 179, 180, 181, 182, 183, 184, 185, 186, 187, 188, 189, 190],
      "LargestImagePixelValue": [38913, 38024, 37502, 36836, 36826, 36731, 36705, 36645, 36630, 36770, 36404, 36457, 36559, 36401, 36922, 36890, 36907, 36561, 36636, 36648, 36547, 36352, 36189, 36105, 36435, 36082, 36366, 36527, 36631, 36716, 36291, 36795, 36419, 36354, 36610, 36571, 36916, 36890, 36512, 36604, 36155, 36494, 36052, 36226, 36425, 36256, 36401, 36311, 36693, 36537, 36880, 36605, 36779, 36270, 36565, 36482, 36614, 36490, 36965, 36833, 36984, 36555, 36625, 36889, 36448, 36432, 36215, 36525, 36459, 36920, 36397, 35892, 36327, 36245, 36133, 36001, 35859, 36024, 36197, 35967, 36258, 36106, 35816, 36323, 36021, 36426, 36097, 36357, 35787, 36256, 35885, 36429, 35820, 36234, 35925, 36451, 35694, 35994, 36213, 36508, 36605, 36133, 36231, 36606, 35952, 35873, 36388, 36525, 36396, 36367, 36009, 36121, 35615, 36322, 35879, 36218, 36254, 36208, 35849, 35840, 35989, 35987, 36334, 36690, 36877, 36691, 36442, 36792, 36933, 36277, 36473, 36416, 36313, 36203, 36304, 36817, 36587, 36695, 36358, 36438, 36150, 35956, 35984, 36157, 36365, 35901, 36215, 36182, 36122, 35963, 36107, 35846, 36151, 35698, 35972, 36079, 36029, 36112, 36037, 35847, 35550, 36175, 35883, 35860, 36175, 35707, 35683, 35916, 35832, 35651, 35989, 35906, 36117, 36239, 36047, 36137, 35925, 36117, 36178, 36041, 35922, 36107, 36020, 36094, 36218, 36147, 36273, 36582, 35870, 35925],
      "WindowCenter": [10001.0, 9955.0, 9944.0, 9944.0, 9945.0, 9946.0, 9952.0, 9953.0, 9950.0, 9970.0, 9966.0, 9959.0, 9956.0, 9957.0, 9970.0, 9970.0, 9961.0, 9947.0, 9945.0, 9951.0, 9952.0, 9946.0, 9946.0, 9954.0, 9963.0, 9964.0, 9963.0, 9956.0, 9955.0, 9963.0, 9972.0, 9980.0, 9976.0, 9980.0, 9962.0, 9945.0, 9942.0, 9949.0, 9955.0, 9961.0, 9956.0, 9956.0, 9950.0, 9955.0, 9962.0, 9957.0, 9956.0, 9941.0, 9937.0, 9936.0, 9945.0, 9963.0, 9978.0, 9965.0, 9955.0, 9946.0, 9953.0, 9963.0, 9978.0, 9971.0, 9963.0, 9948.0, 9946.0, 9953.0, 9954.0, 9955.0, 9947.0, 9948.0, 9956.0, 9962.0, 9957.0, 9951.0, 9955.0, 9956.0, 9963.0, 9950.0, 9934.0, 9931.0, 9930.0, 9925.0, 9931.0, 9931.0, 9923.0, 9919.0, 9921.0, 9929.0, 9938.0, 9945.0, 9940.0, 9938.0, 9933.0, 9938.0, 9941.0, 9948.0, 9948.0, 9947.0, 9932.0, 9922.0, 9922.0, 9936.0, 9944.0, 9939.0, 9938.0, 9938.0, 9942.0, 9948.0, 9954.0, 9955.0, 9954.0, 9939.0, 9938.0, 9937.0, 9924.0, 9920.0, 9913.0, 9920.0, 9923.0, 9924.0, 9932.0, 9926.0, 9937.0, 9949.0, 9955.0, 9944.0, 9937.0, 9928.0, 9909.0, 9907.0, 9923.0, 9920.0, 9909.0, 9884.0, 9865.0, 9864.0, 9873.0, 9895.0, 9900.0, 9915.0, 9919.0, 9934.0, 9938.0, 9941.0, 9948.0, 9956.0, 9971.0, 9974.0, 9960.0, 9950.0, 9950.0, 9959.0, 9965.0, 9959.0, 9958.0, 9950.0, 9934.0, 9937.0, 9938.0, 9945.0, 9954.0, 9965.0, 9960.0, 9957.0, 9942.0, 9932.0, 9933.0, 9955.0, 9958.0, 9934.0, 9900.0, 9888.0, 9893.0, 9910.0, 9920.0, 9928.0, 9915.0, 9919.0, 9906.0, 9911.0, 9918.0, 9928.0, 9931.0, 9939.0, 9938.0, 9945.0, 9948.0, 9954.0, 9965.0, 9972.0, 9958.0, 9948.0],
      "WindowWidth": [21246.0, 21125.0, 21089.0, 21084.0, 21086.0, 21085.0, 21096.0, 21098.0, 21096.0, 21137.0, 21130.0, 21115.0, 21106.0, 21113.0, 21137.0, 21137.0, 21116.0, 21085.0, 21078.0, 21092.0, 21093.0, 21084.0, 21083.0, 21101.0, 21119.0, 21124.0, 21121.0, 21107.0, 21104.0, 21124.0, 21144.0, 21160.0, 21153.0, 21157.0, 21115.0, 21076.0, 21067.0, 21086.0, 21102.0, 21115.0, 21107.0, 21103.0, 21093.0, 21103.0, 21115.0, 21107.0, 21103.0, 21071.0, 21060.0, 21057.0, 21079.0, 21120.0, 21150.0, 21125.0, 21099.0, 21081.0, 21098.0, 21124.0, 21153.0, 21139.0, 21116.0, 21086.0, 21079.0, 21093.0, 21098.0, 21100.0, 21082.0, 21085.0, 21103.0, 21116.0, 21108.0, 21094.0, 21103.0, 21105.0, 21120.0, 21092.0, 21056.0, 21047.0, 21045.0, 21036.0, 21049.0, 21048.0, 21032.0, 21018.0, 21025.0, 21044.0, 21065.0, 21079.0, 21069.0, 21063.0, 21054.0, 21065.0, 21074.0, 21087.0, 21088.0, 21083.0, 21050.0, 21027.0, 21029.0, 21058.0, 21076.0, 21067.0, 21063.0, 21063.0, 21074.0, 21087.0, 21099.0, 21099.0, 21092.0, 21061.0, 21060.0, 21058.0, 21031.0, 21021.0, 21007.0, 21022.0, 21030.0, 21037.0, 21051.0, 21041.0, 21059.0, 21087.0, 21100.0, 21073.0, 21056.0, 21037.0, 20993.0, 20988.0, 21024.0, 21022.0, 20992.0, 20935.0, 20894.0, 20894.0, 20914.0, 20959.0, 20977.0, 21008.0, 21018.0, 21053.0, 21064.0, 21074.0, 21089.0, 21105.0, 21137.0, 21145.0, 21117.0, 21092.0, 21091.0, 21115.0, 21125.0, 21114.0, 21110.0, 21093.0, 21059.0, 21060.0, 21064.0, 21080.0, 21101.0, 21126.0, 21116.0, 21107.0, 21072.0, 21052.0, 21053.0, 21102.0, 21107.0, 21054.0, 20976.0, 20949.0, 20963.0, 21000.0, 21023.0, 21040.0, 21013.0, 21016.0, 20992.0, 21000.0, 21017.0, 21042.0, 21050.0, 21066.0, 21063.0, 21077.0, 21084.0, 21097.0, 21121.0, 21135.0, 21105.0, 21080.0]
    },
    "slices": {}
  }
}