{
  "AcquisitionMatrixPE": 104,
  "AcquisitionNumber": 1,
  "AcquisitionTime": "13:55:14.550000",
  "BandwidthPerPixelPhaseEncode": 17.17,
  "BaseResolution": 104,
  "BodyPartExamined": "BRAIN",
  "CoilString": "HC1-7;NC1_2",
  "ConsistencyInfo": "N4_VE11C_LATEST_20160120",
  "ConversionSoftware": "dcm2niix",
  "ConversionSoftwareVersion": "v1.0.20190902",
  "DerivedVendorReportedEchoSpacing": 0.000560011,
  "DeviceSerialNumber": "167006",
  "DwellTime": 2.1e-06,
  "EchoTime": 0.037,
  "EchoTrainLength": 104,
  "EffectiveEchoSpacing": 0.000560011,
  "FlipAngle": 52,
  "ImageComments": "Unaliased_MB4_PE3_LB",
  "ImageOrientationPatientDICOM": [0.998279, 0.0532659, 0.0245412, -0.0465537, 0.974209, -0.220794],
  "ImageType": [
    "ORIGINAL",
    "PRIMARY",
    "P",
    "MB",
    "ND",
    "MOSAIC"
],
  "ImagingFrequency": 123.259,
  "InPlanePhaseEncodingDirectionDICOM": "COL",
  "InstitutionAddress": "Chemin_Queen-Mary_4565_Montreal_District_CA_H3W_1W5",
  "InstitutionName": "IUGM",
  "InstitutionalDepartmentName": "Department",
  "MRAcquisitionType": "2D",
  "MagneticFieldStrength": 3,
  "Manufacturer": "Siemens",
  "ManufacturersModelName": "Prisma_fit",
  "Modality": "MR",
  "MultibandAccelerationFactor": 4,
  "PartialFourier": 1,
  "PatientPosition": "HFS",
  "PercentPhaseFOV": 100,
  "PhaseEncodingDirection": "j",
  "PhaseEncodingSteps": 104,
  "PhaseResolution": 1,
  "PixelBandwidth": 2290,
  "ProcedureStepDescription": "memory_things",
  "ProtocolName": "func_task-things_run-2",
  "PulseSequenceDetails": "%CustomerSeq%_cmrr_mbep2d_bold",
  "ReceiveCoilActiveElements": "HC1-7;NC1,2",
  "ReceiveCoilName": "HeadNeck_64",
  "ReconMatrixPE": 104,
  "RepetitionTime": 1.49,
  "SAR": 0.0363083,
  "ScanOptions": "FS",
  "ScanningSequence": "EP",
  "SequenceName": "epfid2d1_104",
  "SequenceVariant": "SK_SS",
  "SeriesDescription": "func_task-things_run-2",
  "SeriesNumber": 14,
  "ShimSetting": [636, -7237, -8765, 666, 39, -73, 141, -1],
  "SliceThickness": 2,
  "SliceTiming": [0, 0.7825, 0.0975, 0.8825, 0.195, 0.98, 0.2925, 1.0775, 0.3925, 1.175, 0.49, 1.2725, 0.5875, 1.3725, 0.685, 0, 0.7825, 0.0975, 0.8825, 0.195, 0.98, 0.2925, 1.0775, 0.3925, 1.175, 0.49, 1.2725, 0.5875, 1.3725, 0.685, 0, 0.7825, 0.0975, 0.8825, 0.195, 0.98, 0.2925, 1.0775, 0.3925, 1.175, 0.49, 1.2725, 0.5875, 1.3725, 0.685, 0, 0.7825, 0.0975, 0.8825, 0.195, 0.98, 0.2925, 1.0775, 0.3925, 1.175, 0.49, 1.2725, 0.5875, 1.3725, 0.685],
  "SoftwareVersions": "syngo_MR_E11",
  "SpacingBetweenSlices": 2,
  "StationName": "MRC35049",
  "TaskName": "things",
  "TotalReadoutTime": 0.0576811,
  "TxRefAmp": 212.607,
  "WipMemBlock": "bc0e2e0b-7142-4208-9246-43eb4cf5af71||Sequence: R016 ve11c/master r/e634e98; Dec 19 2017 11:00:25 by eja",
  "dcmmeta_affine": [
    [-1.9965574741363525, -0.09310749918222427, 0.07133802771568298, 111.80641174316406],
    [-0.10653188824653625, 1.9484176635742188, -0.4385424554347992, -71.393310546875],
    [0.04908234253525734, 0.44158750772476196, 1.9500234127044678, -50.073387145996094],
    [0.0, 0.0, 0.0, 1.0]
],
  "dcmmeta_reorient_transform": [
    [0.0, -1.0, 0.0, 103.0],
    [1.0, 0.0, 0.0, 0.0],
    [0.0, 0.0, 1.0, 0.0],
    [0.0, 0.0, 0.0, 1.0]
],
  "dcmmeta_shape": [104, 104, 60, 190],
  "dcmmeta_slice_dim": 2,
  "dcmmeta_version": 0.6,
  "global": {
    "const": {
      "AcquisitionMatrix": [104, 0, 0, 104],
      "AngioFlag": "N",
      "BitsAllocated": 16,
      "BitsStored": 16,
      "BodyPartExamined": "BRAIN",
      "Columns": 832,
      "EchoNumbers": 1,
      "EchoTime": 37.0,
      "EchoTrainLength": 104,
      "FlipAngle": 52.0,
      "HighBit": 15,
      "ImageOrientationPatient": [0.99827875365552, 0.05326594493933, 0.02454117172648, -0.0465537477371, 0.97420884265263, -0.2207937487092],
      "ImagePositionPatient": [-795.07214483124, -877.29535979385, 138.28200290583],
      "ImageType": [
        "ORIGINAL",
        "PRIMARY",
        "P",
        "MB",
        "ND",
        "MOSAIC"
],
      "ImagedNucleus": "1H",
      "ImagingFrequency": 123.258951,
      "InPlanePhaseEncodingDirection": "COL",
      "LargestImagePixelValue": 4095,
      "MRAcquisitionType": "2D",
      "MagneticFieldStrength": 3.0,
      "Manufacturer": "SIEMENS",
      "ManufacturerModelName": "Prisma_fit",
      "Modality": "MR",
      "NumberOfAverages": 1.0,
      "NumberOfPhaseEncodingSteps": 104,
      "PercentPhaseFieldOfView": 100.0,
      "PercentSampling": 100.0,
      "PerformedProcedureStepStartTime": "125858.760000",
      "PhotometricInterpretation": "MONOCHROME2",
      "PixelBandwidth": 2290.0,
      "PixelRepresentation": 0,
      "PixelSpacing": [2.0, 2.0],
      "ProtocolName": "func_task-things_run-2",
      "RepetitionTime": 1490.0,
      "RescaleIntercept": -4096.0,
      "RescaleSlope": 2.0,
      "RescaleType": "US",
      "Rows": 832,
      "SAR": 0.03630834352498,
      "SamplesPerPixel": 1,
      "ScanOptions": "FS",
      "ScanningSequence": "EP",
      "SequenceName": "epfid2d1_104",
      "SequenceVariant": [
        "SK",
        "SS"
],
      "SeriesDescription": "func_task-things_run-2",
      "SeriesNumber": 14,
      "SeriesTime": "135641.195000",
      "SliceLocation": -29.179615113887,
      "SliceThickness": 2.0,
      "SmallestImagePixelValue": 0,
      "SoftwareVersions": "syngo MR E11",
      "SpacingBetweenSlices": 1.9999999609282,
      "SpecificCharacterSet": "ISO_IR 100",
      "StudyID": "1",
      "StudyTime": "125858.670000",
      "TransmitCoilName": "Body",
      "VariableFlipAngleFlag": "N",
      "WindowCenterWidthExplanation": "Algo1",
      "dBdt": 0.0},
    "slices": {}
  },
  "time": {
    "samples": {
      "AcquisitionNumber": [1, 2, 3, 4, 5, 6, 7, 8, 9, 10, 11, 12, 13, 14, 15, 16, 17, 18, 19, 20, 21, 22, 23, 24, 25, 26, 27, 28, 29, 30, 31, 32, 33, 34, 35, 36, 37, 38, 39, 40, 41, 42, 43, 44, 45, 46, 47, 48, 49, 50, 51, 52, 53, 54, 55, 56, 57, 58, 59, 60, 61, 62, 63, 64, 65, 66, 67, 68, 69, 70, 71, 72, 73, 74, 75, 76, 77, 78, 79, 80, 81, 82, 83, 84, 85, 86, 87, 88, 89, 90, 91, 92, 93, 94, 95, 96, 97, 98, 99, 100, 101, 102, 103, 104, 105, 106, 107, 108, 109, 110, 111, 112, 113, 114, 115, 116, 117, 118, 119, 120, 121, 122, 123, 124, 125, 126, 127, 128, 129, 130, 131, 132, 133, 134, 135, 136, 137, 138, 139, 140, 141, 142, 143, 144, 145, 146, 147, 148, 149, 150, 151, 152, 153, 154, 155, 156, 157, 158, 159, 160, 161, 162, 163, 164, 165, 166, 167, 168, 169, 170, 171, 172, 173, 174, 175, 176, 177, 178, 179, 180, 181, 182, 183, 184, 185, 186, 187, 188, 189, 190],
      "AcquisitionTime": ["135514.550000", "135516.040000", "135517.530000", "135519.020000", "135520.510000", "135522.000000", "135523.490000", "135524.980000", "135526.470000", "135527.960000", "135529.450000", "135530.940000", "135532.430000", "135533.920000", "135535.410000", "135536.900000", "135538.390000", "135539.880000", "135541.370000", "135542.860000", "135544.350000", "135545.840000", "135547.330000", "135548.820000", "135550.310000", "135551.800000", "135553.290000", "135554.780000", "135556.270000", "135557.760000", "135559.250000", "135600.740000", "135602.230000", "135603.720000", "135605.210000", "135606.700000", "135608.190000", "135609.680000", "135611.170000", "135612.660000", "135614.150000", "135615.640000", "135617.130000", "135618.620000", "135620.110000", "135621.600000", "135623.090000", "135624.580000", "135626.070000", "135627.560000", "135629.050000", "135630.540000", "135632.030000", "135633.520000", "135635.010000", "135636.500000", "135637.990000", "135639.480000", "135640.970000", "135642.460000", "135643.950000", "135645.440000", "135646.930000", "135648.420000", "135649.910000", "135651.400000", "135652.890000", "135654.380000", "135655.870000", "135657.360000", "135658.850000", "135700.340000", "135701.830000", "135703.320000", "135704.810000", "135706.300000", "135707.790000", "135709.280000", "135710.770000", "135712.260000", "135713.750000", "135715.240000", "135716.730000", "135718.220000", "135719.710000", "135721.200000", "135722.690000", "135724.180000", "135725.670000", "135727.160000", "135728.650000", "135730.140000", "135731.630000", "135733.120000", "135734.610000", "135736.100000", "135737.590000", "135739.080000", "135740.570000", "135742.060000", "135743.550000", "135745.040000", "135746.530000", "135748.020000", "135749.510000", "135751.000000", "135752.490000", "135753.980000", "135755.470000", "135756.960000", "135758.450000", "135759.940000", "135801.430000", "135802.920000", "135804.410000", "135805.900000", "135807.390000", "135808.880000", "135810.370000", "135811.860000", "135813.350000", "135814.840000", "135816.330000", "135817.820000", "135819.310000", "135820.800000", "135822.290000", "135823.780000", "135825.270000", "135826.760000", "135828.250000", "135829.740000", "135831.230000", "135832.720000", "135834.210000", "135835.700000", "135837.190000", "135838.680000", "135840.170000", "135841.660000", "135843.150000", "135844.640000", "135846.130000", "135847.620000", "135849.110000", "135850.600000", "135852.090000", "135853.580000", "135855.070000", "135856.560000", "135858.050000", "135859.540000", "135901.030000", "135902.520000", "135904.010000", "135905.500000", "135906.990000", "135908.480000", "135909.970000", "135911.460000", "135912.950000", "135914.440000", "135915.930000", "135917.420000", "135918.910000", "135920.400000", "135921.890000", "135923.380000", "135924.870000", "135926.360000", "135927.850000", "135929.340000", "135930.830000", "135932.320000", "135933.810000", "135935.300000", "135936.790000", "135938.280000", "135939.770000", "135941.260000", "135942.750000", "135944.240000", "135945.730000", "135947.220000", "135948.710000", "135950.200000", "135951.690000", "135953.180000", "135954.670000", "135956.160000"],
      "ContentTime": ["135641.198000", "135641.200000", "135641.203000", "135641.206000", "135641.208000", "135641.211000", "135641.213000", "135641.216000", "135641.219000", "135641.221000", "135641.224000", "135641.233000", "135641.236000", "135641.238000", "135641.241000", "135641.243000", "135641.246000", "135641.249000", "135641.251000", "135641.254000", "135641.257000", "135641.259000", "135641.262000", "135641.264000", "135641.267000", "135641.269000", "135641.272000", "135641.274000", "135641.277000", "135641.279000", "135641.282000", "135641.285000", "135701.092000", "135701.095000", "135701.098000", "135701.100000", "135701.103000", "135701.105000", "135701.108000", "135701.110000", "135701.113000", "135701.115000", "135701.118000", "135701.129000", "135701.132000", "135701.134000", "135701.137000", "135701.140000", "135701.142000", "135701.145000", "135701.147000", "135701.150000", "135721.080000", "135721.083000", "135721.086000", "135721.088000", "135721.091000", "135721.093000", "135721.096000", "135721.099000", "135721.101000", "135721.104000", "135721.106000", "135721.109000", "135721.111000", "135721.114000", "135721.116000", "135721.119000", "135721.121000", "135721.124000", "135721.127000", "135721.129000", "135741.086000", "135741.089000", "135741.092000", "135741.095000", "135741.097000", "135741.100000", "135741.102000", "135741.105000", "135741.108000", "135741.110000", "135741.113000", "135741.115000", "135741.118000", "135741.121000", "135741.123000", "135741.126000", "135741.128000", "135741.131000", "135741.133000", "135741.136000", "135801.072000", "135801.075000", "135801.078000", "135801.080000", "135801.083000", "135801.085000", "135801.088000", "135801.091000", "135801.093000", "135801.096000", "135801.098000", "135801.101000", "135801.110000", "135801.112000", "135801.115000", "135801.117000", "135801.120000", "135801.122000", "135801.125000", "135841.143000", "135841.146000", "135841.148000", "135841.151000", "135841.153000", "135841.156000", "135841.158000", "135841.161000", "135841.163000", "135841.166000", "135841.169000", "135841.171000", "135841.174000", "135841.176000", "135841.179000", "135841.181000", "135841.184000", "135841.187000", "135841.189000", "135841.192000", "135841.194000", "135841.197000", "135841.199000", "135841.202000", "135841.204000", "135841.207000", "135921.122000", "135921.124000", "135921.127000", "135921.129000", "135921.132000", "135921.135000", "135921.137000", "135921.140000", "135921.143000", "135921.145000", "135921.148000", "135921.150000", "135921.153000", "135921.155000", "135921.158000", "135921.161000", "135921.163000", "135921.166000", "135921.168000", "135921.171000", "135921.173000", "135921.176000", "135921.179000", "135921.181000", "135921.184000", "135921.186000", "135921.189000", "135958.667000", "135958.670000", "135958.672000", "135958.675000", "135958.677000", "135958.680000", "135958.683000", "135958.686000", "135958.688000", "135958.691000", "135958.694000", "135958.696000", "135958.699000", "135958.702000", "135958.705000", "135958.708000", "135958.710000", "135958.713000", "135958.716000", "135958.719000", "135958.722000", "135958.724000", "135958.727000", "135958.729000", "135958.732000", "135958.735000"],
      "InstanceCreationTime": ["135641.198000", "135641.200000", "135641.203000", "135641.206000", "135641.208000", "135641.211000", "135641.213000", "135641.216000", "135641.219000", "135641.221000", "135641.224000", "135641.233000", "135641.236000", "135641.238000", "135641.241000", "135641.243000", "135641.246000", "135641.249000", "135641.251000", "135641.254000", "135641.257000", "135641.259000", "135641.262000", "135641.264000", "135641.267000", "135641.269000", "135641.272000", "135641.274000", "135641.277000", "135641.279000", "135641.282000", "135641.285000", "135701.092000", "135701.095000", "135701.098000", "135701.100000", "135701.103000", "135701.105000", "135701.108000", "135701.110000", "135701.113000", "135701.115000", "135701.118000", "135701.129000", "135701.132000", "135701.134000", "135701.137000", "135701.140000", "135701.142000", "135701.145000", "135701.147000", "135701.150000", "135721.080000", "135721.083000", "135721.086000", "135721.088000", "135721.091000", "135721.093000", "135721.096000", "135721.099000", "135721.101000", "135721.104000", "135721.106000", "135721.109000", "135721.111000", "135721.114000", "135721.116000", "135721.119000", "135721.121000", "135721.124000", "135721.127000", "135721.129000", "135741.086000", "135741.089000", "135741.092000", "135741.095000", "135741.097000", "135741.100000", "135741.102000", "135741.105000", "135741.108000", "135741.110000", "135741.113000", "135741.115000", "135741.118000", "135741.121000", "135741.123000", "135741.126000", "135741.128000", "135741.131000", "135741.133000", "135741.136000", "135801.072000", "135801.075000", "135801.078000", "135801.080000", "135801.083000", "135801.085000", "135801.088000", "135801.091000", "135801.093000", "135801.096000", "135801.098000", "135801.101000", "135801.110000", "135801.112000", "135801.115000", "135801.117000", "135801.120000", "135801.122000", "135801.125000", "135841.143000", "135841.146000", "135841.148000", "135841.151000", "135841.153000", "135841.156000", "135841.158000", "135841.161000", "135841.163000", "135841.166000", "135841.169000", "135841.171000", "135841.174000", "135841.176000", "135841.179000", "135841.181000", "135841.184000", "135841.187000", "135841.189000", "135841.192000", "135841.194000", "135841.197000", "135841.199000", "135841.202000", "135841.204000", "135841.207000", "135921.122000", "135921.124000", "135921.127000", "135921.129000", "135921.132000", "135921.135000", "135921.137000", "135921.140000", "135921.143000", "135921.145000", "135921.148000", "135921.150000", "135921.153000", "135921.155000", "135921.158000", "135921.161000", "135921.163000", "135921.166000", "135921.168000", "135921.171000", "135921.173000", "135921.176000", "135921.179000", "135921.181000", "135921.184000", "135921.186000", "135921.189000", "135958.667000", "135958.670000", "135958.672000", "135958.675000", "135958.677000", "135958.680000", "135958.683000", "135958.686000", "135958.688000", "135958.691000", "135958.694000", "135958.696000", "135958.699000", "135958.702000", "135958.705000", "135958.708000", "135958.710000", "135958.713000", "135958.716000", "135958.719000", "135958.722000", "135958.724000", "135958.727000", "135958.729000", "135958.732000", "135958.735000"],
      "InstanceNumber": [1, 2, 3, 4, 5, 6, 7, 8, 9, 10, 11, 12, 13, 14, 15, 16, 17, 18, 19, 20, 21, 22, 23, 24, 25, 26, 27, 28, 29, 30, 31, 32, 33, 34, 35, 36, 37, 38, 39, 40, 41, 42, 43, 44, 45, 46, 47, 48, 49, 50, 51, 52, 53, 54, 55, 56, 57, 58, 59, 60, 61, 62, 63, 64, 65, 66, 67, 68, 69, 70, 71, 72, 73, 74, 75, 76, 77, 78, 79, 80, 81, 82, 83, 84, 85, 86, 87, 88, 89, 90, 91, 92, 93, 94, 95, 96, 97, 98, 99, 100, 101, 102, 103, 104, 105, 106, 107, 108, 109, 110, 111, 112, 113, 114, 115, 116, 117, 118, 119, 120, 121, 122, 123, 124, 125, 126, 127, 128, 129, 130, 131, 132, 133, 134, 135, 136, 137, 138, 139, 140, 141, 142, 143, 144, 145, 146, 147, 148, 149, 150, 151, 152, 153, 154, 155, 156, 157, 158, 159, 160, 161, 162, 163, 164, 165, 166, 167, 168, 169, 170, 171, 172, 173, 174, 175, 176, 177, 178, 179, 180, 181, 182, 183, 184, 185, 186, 187, 188, 189, 190],
      "WindowCenter": [4808.0, 4784.0, 4784.0, 4810.0, 4808.0, 4788.0, 4786.0, 4784.0, 4786.0, 4786.0, 4786.0, 4782.0, 4786.0, 4786.0, 4784.0, 4784.0, 4784.0, 4782.0, 4788.0, 4786.0, 4788.0, 4784.0, 4784.0, 4786.0, 4788.0, 4786.0, 4786.0, 4786.0, 4786.0, 4786.0, 4784.0, 4786.0, 4786.0, 4806.0, 4786.0, 4788.0, 4786.0, 4782.0, 4810.0, 4782.0, 4786.0, 4782.0, 4782.0, 4784.0, 4786.0, 4784.0, 4784.0, 4786.0, 4782.0, 4784.0, 4786.0, 4788.0, 4786.0, 4784.0, 4782.0, 4788.0, 4786.0, 4784.0, 4784.0, 4810.0, 4784.0, 4788.0, 4782.0, 4786.0, 4786.0, 4784.0, 4784.0, 4788.0, 4786.0, 4786.0, 4812.0, 4786.0, 4788.0, 4786.0, 4784.0, 4786.0, 4788.0, 4784.0, 4782.0, 4786.0, 4786.0, 4786.0, 4786.0, 4784.0, 4788.0, 4786.0, 4784.0, 4786.0, 4786.0, 4782.0, 4788.0, 4808.0, 4786.0, 4784.0, 4786.0, 4786.0, 4782.0, 4784.0, 4786.0, 4784.0, 4786.0, 4786.0, 4786.0, 4786.0, 4786.0, 4786.0, 4782.0, 4786.0, 4784.0, 4790.0, 4784.0, 4786.0, 4786.0, 4786.0, 4784.0, 4784.0, 4784.0, 4786.0, 4784.0, 4786.0, 4782.0, 4788.0, 4784.0, 4788.0, 4786.0, 4810.0, 4784.0, 4812.0, 4786.0, 4788.0, 4786.0, 4786.0, 4782.0, 4784.0, 4782.0, 4788.0, 4786.0, 4788.0, 4810.0, 4786.0, 4784.0, 4786.0, 4810.0, 4784.0, 4788.0, 4784.0, 4786.0, 4790.0, 4790.0, 4786.0, 4786.0, 4786.0, 4786.0, 4782.0, 4786.0, 4784.0, 4782.0, 4786.0, 4784.0, 4808.0, 4784.0, 4788.0, 4784.0, 4784.0, 4788.0, 4788.0, 4786.0, 4788.0, 4782.0, 4786.0, 4788.0, 4784.0, 4782.0, 4788.0, 4784.0, 4788.0, 4788.0, 4784.0, 4788.0, 4788.0, 4782.0, 4786.0, 4784.0, 4784.0, 4786.0, 4788.0, 4788.0, 4786.0, 4786.0, 4788.0],
      "WindowWidth": [18600.0, 18568.0, 18572.0, 18600.0, 18604.0, 18574.0, 18574.0, 18570.0, 18574.0, 18572.0, 18578.0, 18568.0, 18574.0, 18568.0, 18568.0, 18566.0, 18570.0, 18568.0, 18576.0, 18576.0, 18574.0, 18572.0, 18576.0, 18572.0, 18572.0, 18576.0, 18572.0, 18570.0, 18572.0, 18572.0, 18570.0, 18572.0, 18570.0, 18602.0, 18576.0, 18576.0, 18576.0, 18572.0, 18608.0, 18570.0, 18570.0, 18570.0, 18576.0, 18572.0, 18576.0, 18572.0, 18572.0, 18572.0, 18572.0, 18574.0, 18576.0, 18578.0, 18574.0, 18568.0, 18566.0, 18572.0, 18570.0, 18570.0, 18570.0, 18606.0, 18572.0, 18576.0, 18570.0, 18572.0, 18574.0, 18574.0, 18568.0, 18572.0, 18574.0, 18572.0, 18608.0, 18566.0, 18572.0, 18576.0, 18574.0, 18570.0, 18580.0, 18570.0, 18572.0, 18572.0, 18572.0, 18578.0, 18578.0, 18578.0, 18578.0, 18574.0, 18570.0, 18572.0, 18580.0, 18574.0, 18578.0, 18604.0, 18578.0, 18576.0, 18572.0, 18576.0, 18574.0, 18570.0, 18576.0, 18578.0, 18576.0, 18568.0, 18572.0, 18574.0, 18572.0, 18570.0, 18570.0, 18574.0, 18572.0, 18574.0, 18570.0, 18572.0, 18572.0, 18574.0, 18570.0, 18572.0, 18572.0, 18576.0, 18576.0, 18576.0, 18570.0, 18574.0, 18572.0, 18578.0, 18578.0, 18608.0, 18570.0, 18610.0, 18576.0, 18574.0, 18572.0, 18572.0, 18572.0, 18572.0, 18570.0, 18578.0, 18578.0, 18578.0, 18604.0, 18570.0, 18572.0, 18570.0, 18604.0, 18570.0, 18576.0, 18576.0, 18574.0, 18574.0, 18578.0, 18574.0, 18582.0, 18574.0, 18576.0, 18574.0, 18576.0, 18570.0, 18576.0, 18576.0, 18574.0, 18604.0, 18570.0, 18578.0, 18570.0, 18570.0, 18578.0, 18576.0, 18580.0, 18576.0, 18570.0, 18576.0, 18576.0, 18574.0, 18570.0, 18580.0, 18572.0, 18578.0, 18576.0, 18574.0, 18578.0, 18580.0, 18570.0, 18574.0, 18570.0, 18578.0, 18578.0, 18576.0, 18574.0, 18578.0, 18578.0, 18576.0]
    },
    "slices": {}
  }
}