{
  "AcquisitionMatrixPE": 104,
  "AcquisitionNumber": 1,
  "AcquisitionTime": "13:48:54.715000",
  "BandwidthPerPixelPhaseEncode": 17.17,
  "BaseResolution": 104,
  "BodyPartExamined": "BRAIN",
  "CoilString": "HC1-7;NC1_2",
  "ConsistencyInfo": "N4_VE11C_LATEST_20160120",
  "ConversionSoftware": "dcm2niix",
  "ConversionSoftwareVersion": "v1.0.20190902",
  "DerivedVendorReportedEchoSpacing": 0.000560011,
  "DeviceSerialNumber": "167006",
  "DwellTime": 2.1e-06,
  "EchoTime": 0.037,
  "EchoTrainLength": 104,
  "EffectiveEchoSpacing": 0.000560011,
  "FlipAngle": 52,
  "ImageComments": "Unaliased_MB4_PE3_LB",
  "ImageOrientationPatientDICOM": [0.998279, 0.0532659, 0.0245412, -0.0465537, 0.974209, -0.220794],
  "ImageType": [
    "ORIGINAL",
    "PRIMARY",
    "M",
    "MB",
    "ND",
    "MOSAIC"
],
  "ImagingFrequency": 123.259,
  "InPlanePhaseEncodingDirectionDICOM": "COL",
  "InstitutionAddress": "Chemin_Queen-Mary_4565_Montreal_District_CA_H3W_1W5",
  "InstitutionName": "IUGM",
  "InstitutionalDepartmentName": "Department",
  "MRAcquisitionType": "2D",
  "MagneticFieldStrength": 3,
  "Manufacturer": "Siemens",
  "ManufacturersModelName": "Prisma_fit",
  "Modality": "MR",
  "MultibandAccelerationFactor": 4,
  "PartialFourier": 1,
  "PatientPosition": "HFS",
  "PercentPhaseFOV": 100,
  "PhaseEncodingDirection": "j",
  "PhaseEncodingSteps": 104,
  "PhaseResolution": 1,
  "PixelBandwidth": 2290,
  "ProcedureStepDescription": "memory_things",
  "ProtocolName": "func_task-things_run-1",
  "PulseSequenceDetails": "%CustomerSeq%_cmrr_mbep2d_bold",
  "ReceiveCoilActiveElements": "HC1-7;NC1,2",
  "ReceiveCoilName": "HeadNeck_64",
  "ReconMatrixPE": 104,
  "RepetitionTime": 1.49,
  "SAR": 0.0363083,
  "ScanOptions": "FS",
  "ScanningSequence": "EP",
  "SequenceName": "epfid2d1_104",
  "SequenceVariant": "SK_SS",
  "SeriesDescription": "func_task-things_run-1",
  "SeriesNumber": 10,
  "ShimSetting": [636, -7237, -8765, 666, 39, -73, 141, -1],
  "SliceThickness": 2,
  "SliceTiming": [0, 0.7825, 0.0975, 0.88, 0.195, 0.98, 0.2925, 1.0775, 0.39, 1.175, 0.49, 1.2725, 0.5875, 1.37, 0.685, 0, 0.7825, 0.0975, 0.88, 0.195, 0.98, 0.2925, 1.0775, 0.39, 1.175, 0.49, 1.2725, 0.5875, 1.37, 0.685, 0, 0.7825, 0.0975, 0.88, 0.195, 0.98, 0.2925, 1.0775, 0.39, 1.175, 0.49, 1.2725, 0.5875, 1.37, 0.685, 0, 0.7825, 0.0975, 0.88, 0.195, 0.98, 0.2925, 1.0775, 0.39, 1.175, 0.49, 1.2725, 0.5875, 1.37, 0.685],
  "SoftwareVersions": "syngo_MR_E11",
  "SpacingBetweenSlices": 2,
  "StationName": "MRC35049",
  "TaskName": "things",
  "TotalReadoutTime": 0.0576811,
  "TxRefAmp": 212.607,
  "WipMemBlock": "53650cdb-2d6b-4609-ac40-706aad29ff4a||Sequence: R016 ve11c/master r/e634e98; Dec 19 2017 11:00:25 by eja",
  "dcmmeta_affine": [
    [-1.9965574741363525, -0.09310749918222427, 0.07133802771568298, 111.80641174316406],
    [-0.10653188824653625, 1.9484176635742188, -0.4385424554347992, -71.393310546875],
    [0.04908234253525734, 0.44158750772476196, 1.9500234127044678, -50.073387145996094],
    [0.0, 0.0, 0.0, 1.0]
],
  "dcmmeta_reorient_transform": [
    [0.0, -1.0, 0.0, 103.0],
    [1.0, 0.0, 0.0, 0.0],
    [0.0, 0.0, 1.0, 0.0],
    [0.0, 0.0, 0.0, 1.0]
],
  "dcmmeta_shape": [104, 104, 60, 190],
  "dcmmeta_slice_dim": 2,
  "dcmmeta_version": 0.6,
  "global": {
    "const": {
      "AcquisitionMatrix": [104, 0, 0, 104],
      "AngioFlag": "N",
      "BitsAllocated": 16,
      "BitsStored": 16,
      "BodyPartExamined": "BRAIN",
      "Columns": 832,
      "EchoNumbers": 1,
      "EchoTime": 37.0,
      "EchoTrainLength": 104,
      "FlipAngle": 52.0,
      "HighBit": 15,
      "ImageOrientationPatient": [0.99827875365552, 0.05326594493933, 0.02454117172648, -0.0465537477371, 0.97420884265263, -0.2207937487092],
      "ImagePositionPatient": [-795.07214483124, -877.29535979385, 138.28200290583],
      "ImageType": [
        "ORIGINAL",
        "PRIMARY",
        "M",
        "MB",
        "ND",
        "MOSAIC"
],
      "ImagedNucleus": "1H",
      "ImagingFrequency": 123.258945,
      "InPlanePhaseEncodingDirection": "COL",
      "MRAcquisitionType": "2D",
      "MagneticFieldStrength": 3.0,
      "Manufacturer": "SIEMENS",
      "ManufacturerModelName": "Prisma_fit",
      "Modality": "MR",
      "NumberOfAverages": 1.0,
      "NumberOfPhaseEncodingSteps": 104,
      "PercentPhaseFieldOfView": 100.0,
      "PercentSampling": 100.0,
      "PerformedProcedureStepStartTime": "125858.760000",
      "PhotometricInterpretation": "MONOCHROME2",
      "PixelBandwidth": 2290.0,
      "PixelRepresentation": 0,
      "PixelSpacing": [2.0, 2.0],
      "ProtocolName": "func_task-things_run-1",
      "RepetitionTime": 1490.0,
      "Rows": 832,
      "SAR": 0.03630834352498,
      "SamplesPerPixel": 1,
      "ScanOptions": "FS",
      "ScanningSequence": "EP",
      "SequenceName": "epfid2d1_104",
      "SequenceVariant": [
        "SK",
        "SS"
],
      "SeriesDescription": "func_task-things_run-1",
      "SeriesNumber": 10,
      "SeriesTime": "135006.951000",
      "SliceLocation": -29.179615113887,
      "SliceThickness": 2.0,
      "SmallestImagePixelValue": 0,
      "SoftwareVersions": "syngo MR E11",
      "SpacingBetweenSlices": 1.9999999609282,
      "SpecificCharacterSet": "ISO_IR 100",
      "StudyID": "1",
      "StudyTime": "125858.670000",
      "TransmitCoilName": "Body",
      "VariableFlipAngleFlag": "N",
      "WindowCenterWidthExplanation": "Algo1",
      "dBdt": 0.0},
    "slices": {}
  },
  "time": {
    "samples": {
      "AcquisitionNumber": [1, 2, 3, 4, 5, 6, 7, 8, 9, 10, 11, 12, 13, 14, 15, 16, 17, 18, 19, 20, 21, 22, 23, 24, 25, 26, 27, 28, 29, 30, 31, 32, 33, 34, 35, 36, 37, 38, 39, 40, 41, 42, 43, 44, 45, 46, 47, 48, 49, 50, 51, 52, 53, 54, 55, 56, 57, 58, 59, 60, 61, 62, 63, 64, 65, 66, 67, 68, 69, 70, 71, 72, 73, 74, 75, 76, 77, 78, 79, 80, 81, 82, 83, 84, 85, 86, 87, 88, 89, 90, 91, 92, 93, 94, 95, 96, 97, 98, 99, 100, 101, 102, 103, 104, 105, 106, 107, 108, 109, 110, 111, 112, 113, 114, 115, 116, 117, 118, 119, 120, 121, 122, 123, 124, 125, 126, 127, 128, 129, 130, 131, 132, 133, 134, 135, 136, 137, 138, 139, 140, 141, 142, 143, 144, 145, 146, 147, 148, 149, 150, 151, 152, 153, 154, 155, 156, 157, 158, 159, 160, 161, 162, 163, 164, 165, 166, 167, 168, 169, 170, 171, 172, 173, 174, 175, 176, 177, 178, 179, 180, 181, 182, 183, 184, 185, 186, 187, 188, 189, 190],
      "AcquisitionTime": ["134854.715000", "134856.205000", "134857.695000", "134859.185000", "134900.675000", "134902.165000", "134903.655000", "134905.145000", "134906.635000", "134908.125000", "134909.615000", "134911.105000", "134912.595000", "134914.085000", "134915.575000", "134917.065000", "134918.555000", "134920.045000", "134921.535000", "134923.025000", "134924.515000", "134926.005000", "134927.495000", "134928.985000", "134930.475000", "134931.965000", "134933.455000", "134934.945000", "134936.435000", "134937.925000", "134939.415000", "134940.905000", "134942.395000", "134943.885000", "134945.375000", "134946.865000", "134948.355000", "134949.845000", "134951.335000", "134952.825000", "134954.315000", "134955.805000", "134957.295000", "134958.785000", "135000.275000", "135001.765000", "135003.255000", "135004.745000", "135006.235000", "135007.725000", "135009.215000", "135010.705000", "135012.195000", "135013.685000", "135015.175000", "135016.665000", "135018.155000", "135019.645000", "135021.135000", "135022.625000", "135024.115000", "135025.605000", "135027.095000", "135028.585000", "135030.075000", "135031.565000", "135033.055000", "135034.545000", "135036.035000", "135037.525000", "135039.015000", "135040.505000", "135041.995000", "135043.485000", "135044.975000", "135046.465000", "135047.955000", "135049.445000", "135050.935000", "135052.425000", "135053.915000", "135055.405000", "135056.895000", "135058.385000", "135059.875000", "135101.365000", "135102.855000", "135104.345000", "135105.835000", "135107.325000", "135108.815000", "135110.305000", "135111.795000", "135113.285000", "135114.775000", "135116.265000", "135117.755000", "135119.245000", "135120.735000", "135122.225000", "135123.715000", "135125.205000", "135126.695000", "135128.185000", "135129.675000", "135131.165000", "135132.655000", "135134.145000", "135135.635000", "135137.125000", "135138.615000", "135140.105000", "135141.595000", "135143.085000", "135144.575000", "135146.065000", "135147.555000", "135149.045000", "135150.535000", "135152.025000", "135153.515000", "135155.005000", "135156.495000", "135157.985000", "135159.475000", "135200.965000", "135202.455000", "135203.945000", "135205.435000", "135206.925000", "135208.415000", "135209.905000", "135211.395000", "135212.885000", "135214.375000", "135215.865000", "135217.355000", "135218.845000", "135220.335000", "135221.825000", "135223.315000", "135224.805000", "135226.295000", "135227.785000", "135229.275000", "135230.765000", "135232.255000", "135233.745000", "135235.235000", "135236.725000", "135238.215000", "135239.705000", "135241.195000", "135242.685000", "135244.175000", "135245.665000", "135247.155000", "135248.645000", "135250.135000", "135251.625000", "135253.115000", "135254.605000", "135256.095000", "135257.585000", "135259.075000", "135300.565000", "135302.055000", "135303.545000", "135305.035000", "135306.525000", "135308.015000", "135309.505000", "135310.995000", "135312.485000", "135313.975000", "135315.465000", "135316.955000", "135318.445000", "135319.935000", "135321.425000", "135322.915000", "135324.405000", "135325.895000", "135327.385000", "135328.875000", "135330.365000", "135331.855000", "135333.345000", "135334.835000", "135336.325000"],
      "ContentTime": ["135006.954000", "135006.958000", "135006.962000", "135006.965000", "135006.969000", "135006.972000", "135006.975000", "135006.979000", "135006.982000", "135006.985000", "135006.989000", "135007.002000", "135007.006000", "135007.009000", "135007.012000", "135007.016000", "135007.019000", "135026.917000", "135026.922000", "135026.926000", "135026.929000", "135026.933000", "135026.937000", "135026.940000", "135026.944000", "135026.947000", "135026.951000", "135026.954000", "135026.957000", "135026.961000", "135026.964000", "135026.967000", "135026.971000", "135026.974000", "135026.978000", "135026.981000", "135026.984000", "135046.917000", "135046.920000", "135046.924000", "135046.927000", "135046.931000", "135046.934000", "135046.937000", "135046.941000", "135046.958000", "135046.961000", "135046.964000", "135046.968000", "135046.971000", "135046.974000", "135046.978000", "135046.981000", "135046.984000", "135046.988000", "135046.991000", "135046.994000", "135046.998000", "135106.916000", "135106.920000", "135106.923000", "135106.927000", "135106.930000", "135106.933000", "135106.937000", "135106.940000", "135106.944000", "135106.947000", "135106.950000", "135106.954000", "135106.957000", "135106.960000", "135106.964000", "135106.967000", "135106.970000", "135106.974000", "135106.977000", "135106.980000", "135126.916000", "135126.920000", "135126.923000", "135126.927000", "135126.930000", "135126.934000", "135126.937000", "135126.941000", "135126.944000", "135126.947000", "135126.951000", "135126.954000", "135126.957000", "135126.961000", "135126.964000", "135126.967000", "135126.971000", "135126.974000", "135126.977000", "135126.981000", "135206.917000", "135206.921000", "135206.925000", "135206.928000", "135206.931000", "135206.935000", "135206.938000", "135206.942000", "135206.955000", "135206.958000", "135206.962000", "135206.965000", "135206.968000", "135206.972000", "135206.975000", "135206.978000", "135206.982000", "135206.985000", "135206.988000", "135206.992000", "135206.995000", "135206.999000", "135207.002000", "135207.006000", "135207.009000", "135207.012000", "135207.016000", "135207.019000", "135207.023000", "135207.026000", "135246.917000", "135246.921000", "135246.924000", "135246.928000", "135246.931000", "135246.935000", "135246.938000", "135246.941000", "135246.945000", "135246.948000", "135246.951000", "135246.955000", "135246.958000", "135246.961000", "135246.965000", "135246.968000", "135246.972000", "135246.975000", "135246.978000", "135246.982000", "135246.985000", "135246.989000", "135246.992000", "135247.016000", "135247.020000", "135247.023000", "135247.026000", "135326.917000", "135326.921000", "135326.924000", "135326.928000", "135326.932000", "135326.935000", "135326.948000", "135326.951000", "135326.955000", "135326.958000", "135326.961000", "135326.965000", "135326.968000", "135326.971000", "135326.975000", "135326.978000", "135326.982000", "135326.985000", "135326.988000", "135326.992000", "135326.995000", "135326.998000", "135327.003000", "135327.006000", "135327.010000", "135327.013000", "135338.900000", "135338.904000", "135338.907000", "135338.911000", "135338.914000", "135338.918000", "135338.921000", "135338.925000", "135338.929000"],
      "InstanceCreationTime": ["135006.954000", "135006.958000", "135006.962000", "135006.965000", "135006.969000", "135006.972000", "135006.975000", "135006.979000", "135006.982000", "135006.985000", "135006.989000", "135007.002000", "135007.006000", "135007.009000", "135007.012000", "135007.016000", "135007.019000", "135026.917000", "135026.922000", "135026.926000", "135026.929000", "135026.933000", "135026.937000", "135026.940000", "135026.944000", "135026.947000", "135026.951000", "135026.954000", "135026.957000", "135026.961000", "135026.964000", "135026.967000", "135026.971000", "135026.974000", "135026.978000", "135026.981000", "135026.984000", "135046.917000", "135046.920000", "135046.924000", "135046.927000", "135046.931000", "135046.934000", "135046.937000", "135046.941000", "135046.958000", "135046.961000", "135046.964000", "135046.968000", "135046.971000", "135046.974000", "135046.978000", "135046.981000", "135046.984000", "135046.988000", "135046.991000", "135046.994000", "135046.998000", "135106.916000", "135106.920000", "135106.923000", "135106.927000", "135106.930000", "135106.933000", "135106.937000", "135106.940000", "135106.944000", "135106.947000", "135106.950000", "135106.954000", "135106.957000", "135106.960000", "135106.964000", "135106.967000", "135106.970000", "135106.974000", "135106.977000", "135106.980000", "135126.916000", "135126.920000", "135126.923000", "135126.927000", "135126.930000", "135126.934000", "135126.937000", "135126.941000", "135126.944000", "135126.947000", "135126.951000", "135126.954000", "135126.957000", "135126.961000", "135126.964000", "135126.967000", "135126.971000", "135126.974000", "135126.977000", "135126.981000", "135206.917000", "135206.921000", "135206.925000", "135206.928000", "135206.931000", "135206.935000", "135206.938000", "135206.942000", "135206.955000", "135206.958000", "135206.962000", "135206.965000", "135206.968000", "135206.972000", "135206.975000", "135206.978000", "135206.982000", "135206.985000", "135206.988000", "135206.992000", "135206.995000", "135206.999000", "135207.002000", "135207.006000", "135207.009000", "135207.012000", "135207.016000", "135207.019000", "135207.023000", "135207.026000", "135246.917000", "135246.921000", "135246.924000", "135246.928000", "135246.931000", "135246.935000", "135246.938000", "135246.941000", "135246.945000", "135246.948000", "135246.951000", "135246.955000", "135246.958000", "135246.961000", "135246.965000", "135246.968000", "135246.972000", "135246.975000", "135246.978000", "135246.982000", "135246.985000", "135246.989000", "135246.992000", "135247.016000", "135247.020000", "135247.023000", "135247.026000", "135326.917000", "135326.921000", "135326.924000", "135326.928000", "135326.932000", "135326.935000", "135326.948000", "135326.951000", "135326.955000", "135326.958000", "135326.961000", "135326.965000", "135326.968000", "135326.971000", "135326.975000", "135326.978000", "135326.982000", "135326.985000", "135326.988000", "135326.992000", "135326.995000", "135326.998000", "135327.003000", "135327.006000", "135327.010000", "135327.013000", "135338.900000", "135338.904000", "135338.907000", "135338.911000", "135338.914000", "135338.918000", "135338.921000", "135338.925000", "135338.929000"],
      "InstanceNumber": [1, 2, 3, 4, 5, 6, 7, 8, 9, 10, 11, 12, 13, 14, 15, 16, 17, 18, 19, 20, 21, 22, 23, 24, 25, 26, 27, 28, 29, 30, 31, 32, 33, 34, 35, 36, 37, 38, 39, 40, 41, 42, 43, 44, 45, 46, 47, 48, 49, 50, 51, 52, 53, 54, 55, 56, 57, 58, 59, 60, 61, 62, 63, 64, 65, 66, 67, 68, 69, 70, 71, 72, 73, 74, 75, 76, 77, 78, 79, 80, 81, 82, 83, 84, 85, 86, 87, 88, 89, 90, 91, 92, 93, 94, 95, 96, 97, 98, 99, 100, 101, 102, 103, 104, 105, 106, 107, 108, 109, 110, 111, 112, 113, 114, 115, 116, 117, 118, 119, 120, 121, 122, 123, 124, 125, 126, 127, 128, 129, 130, 131, 132, 133, 134, 135, 136, 137, 138, 139, 140, 141, 142, 143, 144, 145, 146, 147, 148, 149, 150, 151, 152, 153, 154, 155, 156, 157, 158, 159, 160, 161, 162, 163, 164, 165, 166, 167, 168, 169, 170, 171, 172, 173, 174, 175, 176, 177, 178, 179, 180, 181, 182, 183, 184, 185, 186, 187, 188, 189, 190],
      "LargestImagePixelValue": [39036, 37792, 36963, 37067, 36735, 36616, 36364, 36468, 36439, 36323, 36406, 36260, 36198, 36378, 36640, 36693, 36523, 36395, 36313, 36338, 36173, 36295, 36179, 36429, 36274, 36470, 36239, 36359, 36143, 36204, 36207, 36349, 36326, 36377, 36476, 36249, 36438, 36119, 36168, 36166, 36210, 36307, 36097, 36216, 36399, 36138, 36250, 36180, 36266, 36016, 35985, 36160, 36201, 36249, 36095, 36321, 36134, 36185, 36164, 36269, 36054, 36490, 36176, 35962, 36154, 36027, 36185, 36031, 35977, 36035, 36346, 36102, 35995, 36098, 36209, 36152, 36627, 36264, 36543, 36086, 36281, 36161, 36247, 36023, 36503, 35970, 36179, 36242, 36222, 36187, 36232, 36221, 36147, 35830, 36474, 35584, 36024, 36462, 36242, 35996, 36256, 35914, 36302, 36068, 36123, 36034, 36232, 36302, 36528, 36760, 36496, 35993, 35985, 35905, 36686, 36452, 36617, 36579, 36455, 36363, 36423, 36410, 36186, 36208, 35836, 36454, 36037, 36213, 36391, 36535, 36296, 36526, 36385, 36325, 36047, 36323, 36079, 35773, 36201, 35816, 36058, 35986, 36050, 36100, 36199, 35883, 35771, 36078, 36248, 36028, 35858, 36137, 35890, 35905, 36194, 36286, 35874, 35907, 36037, 36031, 36454, 36157, 36189, 35796, 36254, 35629, 36150, 35802, 35881, 35778, 35921, 36092, 36393, 36298, 36580, 36357, 36368, 36105, 36104, 36081, 36578, 35938, 36328, 35820, 36219, 36002, 35831, 36320, 36075, 35697],
      "WindowCenter": [10072.0, 10043.0, 10018.0, 10015.0, 10007.0, 10002.0, 10002.0, 10008.0, 10015.0, 10018.0, 10016.0, 10011.0, 10002.0, 10000.0, 9988.0, 9995.0, 9997.0, 9999.0, 9998.0, 9981.0, 9965.0, 9964.0, 9971.0, 9979.0, 9980.0, 9978.0, 9971.0, 9970.0, 9972.0, 9987.0, 9997.0, 9987.0, 9963.0, 9953.0, 9967.0, 9978.0, 9997.0, 9999.0, 9990.0, 9981.0, 9973.0, 9973.0, 9986.0, 9980.0, 9980.0, 9974.0, 9981.0, 9975.0, 9973.0, 9964.0, 9965.0, 9971.0, 9972.0, 9973.0, 9966.0, 9962.0, 9955.0, 9969.0, 9972.0, 9981.0, 9988.0, 9987.0, 9983.0, 9985.0, 9982.0, 9973.0, 9970.0, 9964.0, 9965.0, 9972.0, 9972.0, 9971.0, 9965.0, 9970.0, 9965.0, 9965.0, 9962.0, 9962.0, 9970.0, 9973.0, 9980.0, 9982.0, 9975.0, 9973.0, 9988.0, 9984.0, 9991.0, 9991.0, 9990.0, 9980.0, 9964.0, 9956.0, 9956.0, 9957.0, 9954.0, 9950.0, 9963.0, 9971.0, 9973.0, 9964.0, 9955.0, 9948.0, 9962.0, 9980.0, 9983.0, 9975.0, 9964.0, 9949.0, 9946.0, 9960.0, 9963.0, 9958.0, 9948.0, 9939.0, 9952.0, 9968.0, 9965.0, 9970.0, 9978.0, 9980.0, 9979.0, 9964.0, 9956.0, 9955.0, 9948.0, 9938.0, 9930.0, 9936.0, 9945.0, 9939.0, 9937.0, 9935.0, 9936.0, 9937.0, 9937.0, 9945.0, 9953.0, 9957.0, 9965.0, 9959.0, 9954.0, 9956.0, 9965.0, 9974.0, 9981.0, 9975.0, 9959.0, 9953.0, 9947.0, 9954.0, 9949.0, 9946.0, 9938.0, 9938.0, 9936.0, 9937.0, 9939.0, 9940.0, 9946.0, 9955.0, 9962.0, 9958.0, 9964.0, 9965.0, 9966.0, 9958.0, 9956.0, 9949.0, 9948.0, 9946.0, 9940.0, 9945.0, 9937.0, 9930.0, 9937.0, 9945.0, 9953.0, 9966.0, 9958.0, 9965.0, 9972.0, 9968.0, 9963.0, 9949.0, 9946.0, 9953.0, 9956.0, 9962.0, 9954.0, 9940.0],
      "WindowWidth": [21422.0, 21335.0, 21271.0, 21257.0, 21235.0, 21222.0, 21224.0, 21234.0, 21252.0, 21259.0, 21254.0, 21244.0, 21224.0, 21217.0, 21188.0, 21202.0, 21207.0, 21211.0, 21208.0, 21170.0, 21135.0, 21131.0, 21147.0, 21165.0, 21168.0, 21161.0, 21146.0, 21146.0, 21150.0, 21184.0, 21208.0, 21182.0, 21128.0, 21103.0, 21135.0, 21162.0, 21206.0, 21212.0, 21191.0, 21170.0, 21152.0, 21153.0, 21181.0, 21168.0, 21166.0, 21154.0, 21170.0, 21160.0, 21153.0, 21133.0, 21134.0, 21146.0, 21148.0, 21152.0, 21135.0, 21123.0, 21110.0, 21139.0, 21148.0, 21170.0, 21185.0, 21182.0, 21176.0, 21182.0, 21171.0, 21152.0, 21142.0, 21130.0, 21136.0, 21149.0, 21150.0, 21145.0, 21134.0, 21142.0, 21135.0, 21132.0, 21124.0, 21125.0, 21143.0, 21150.0, 21165.0, 21171.0, 21156.0, 21151.0, 21185.0, 21179.0, 21193.0, 21194.0, 21188.0, 21163.0, 21127.0, 21109.0, 21113.0, 21114.0, 21108.0, 21099.0, 21126.0, 21145.0, 21148.0, 21127.0, 21106.0, 21093.0, 21126.0, 21163.0, 21176.0, 21156.0, 21129.0, 21096.0, 21086.0, 21116.0, 21126.0, 21112.0, 21090.0, 21072.0, 21098.0, 21134.0, 21130.0, 21143.0, 21158.0, 21166.0, 21159.0, 21128.0, 21110.0, 21109.0, 21093.0, 21070.0, 21052.0, 21065.0, 21083.0, 21071.0, 21064.0, 21059.0, 21064.0, 21065.0, 21066.0, 21082.0, 21102.0, 21114.0, 21131.0, 21119.0, 21105.0, 21110.0, 21130.0, 21153.0, 21168.0, 21154.0, 21120.0, 21103.0, 21089.0, 21106.0, 21095.0, 21086.0, 21067.0, 21066.0, 21063.0, 21067.0, 21072.0, 21075.0, 21088.0, 21107.0, 21123.0, 21116.0, 21128.0, 21130.0, 21131.0, 21114.0, 21108.0, 21093.0, 21090.0, 21084.0, 21073.0, 21082.0, 21063.0, 21050.0, 21065.0, 21084.0, 21103.0, 21134.0, 21116.0, 21130.0, 21144.0, 21139.0, 21124.0, 21093.0, 21084.0, 21100.0, 21108.0, 21119.0, 21103.0, 21074.0]
    },
    "slices": {}
  }
}