{
  "AcquisitionMatrixPE": 104,
  "AcquisitionNumber": 1,
  "AcquisitionTime": "14:19:40.747500",
  "BandwidthPerPixelPhaseEncode": 17.17,
  "BaseResolution": 104,
  "BodyPartExamined": "BRAIN",
  "CoilString": "HC1-7;NC1_2",
  "ConsistencyInfo": "N4_VE11C_LATEST_20160120",
  "ConversionSoftware": "dcm2niix",
  "ConversionSoftwareVersion": "v1.0.20190902",
  "DerivedVendorReportedEchoSpacing": 0.000560011,
  "DeviceSerialNumber": "167006",
  "DwellTime": 2.1e-06,
  "EchoTime": 0.037,
  "EchoTrainLength": 104,
  "EffectiveEchoSpacing": 0.000560011,
  "FlipAngle": 52,
  "ImageComments": "Unaliased_MB4_PE3_LB",
  "ImageOrientationPatientDICOM": [0.998279, 0.0532659, 0.0245412, -0.0465537, 0.974209, -0.220794],
  "ImageType": [
    "ORIGINAL",
    "PRIMARY",
    "M",
    "MB",
    "ND",
    "MOSAIC"
],
  "ImagingFrequency": 123.259,
  "InPlanePhaseEncodingDirectionDICOM": "COL",
  "InstitutionAddress": "Chemin_Queen-Mary_4565_Montreal_District_CA_H3W_1W5",
  "InstitutionName": "IUGM",
  "InstitutionalDepartmentName": "Department",
  "MRAcquisitionType": "2D",
  "MagneticFieldStrength": 3,
  "Manufacturer": "Siemens",
  "ManufacturersModelName": "Prisma_fit",
  "Modality": "MR",
  "MultibandAccelerationFactor": 4,
  "PartialFourier": 1,
  "PatientPosition": "HFS",
  "PercentPhaseFOV": 100,
  "PhaseEncodingDirection": "j",
  "PhaseEncodingSteps": 104,
  "PhaseResolution": 1,
  "PixelBandwidth": 2290,
  "ProcedureStepDescription": "memory_things",
  "ProtocolName": "func_task-things_run-6",
  "PulseSequenceDetails": "%CustomerSeq%_cmrr_mbep2d_bold",
  "ReceiveCoilActiveElements": "HC1-7;NC1,2",
  "ReceiveCoilName": "HeadNeck_64",
  "ReconMatrixPE": 104,
  "RepetitionTime": 1.49,
  "SAR": 0.0363083,
  "ScanOptions": "FS",
  "ScanningSequence": "EP",
  "SequenceName": "epfid2d1_104",
  "SequenceVariant": "SK_SS",
  "SeriesDescription": "func_task-things_run-6",
  "SeriesNumber": 25,
  "ShimSetting": [636, -7237, -8765, 666, 39, -73, 141, -1],
  "SliceThickness": 2,
  "SliceTiming": [0, 0.785, 0.1, 0.8825, 0.1975, 0.98, 0.295, 1.08, 0.3925, 1.1775, 0.49, 1.275, 0.59, 1.3725, 0.6875, 0, 0.785, 0.1, 0.8825, 0.1975, 0.98, 0.295, 1.08, 0.3925, 1.1775, 0.49, 1.275, 0.59, 1.3725, 0.6875, 0, 0.785, 0.1, 0.8825, 0.1975, 0.98, 0.295, 1.08, 0.3925, 1.1775, 0.49, 1.275, 0.59, 1.3725, 0.6875, 0, 0.785, 0.1, 0.8825, 0.1975, 0.98, 0.295, 1.08, 0.3925, 1.1775, 0.49, 1.275, 0.59, 1.3725, 0.6875],
  "SoftwareVersions": "syngo_MR_E11",
  "SpacingBetweenSlices": 2,
  "StationName": "MRC35049",
  "TaskName": "things",
  "TotalReadoutTime": 0.0576811,
  "TxRefAmp": 212.607,
  "WipMemBlock": "c1b8ebc7-4ac8-492b-bd6b-2f5e8022ddf5||Sequence: R016 ve11c/master r/e634e98; Dec 19 2017 11:00:25 by eja",
  "dcmmeta_affine": [
    [-1.9965574741363525, -0.09310749918222427, 0.07133802771568298, 111.80641174316406],
    [-0.10653188824653625, 1.9484176635742188, -0.4385424554347992, -71.393310546875],
    [0.04908234253525734, 0.44158750772476196, 1.9500234127044678, -50.073387145996094],
    [0.0, 0.0, 0.0, 1.0]
],
  "dcmmeta_reorient_transform": [
    [0.0, -1.0, 0.0, 103.0],
    [1.0, 0.0, 0.0, 0.0],
    [0.0, 0.0, 1.0, 0.0],
    [0.0, 0.0, 0.0, 1.0]
],
  "dcmmeta_shape": [104, 104, 60, 190],
  "dcmmeta_slice_dim": 2,
  "dcmmeta_version": 0.6,
  "global": {
    "const": {
      "AcquisitionMatrix": [104, 0, 0, 104],
      "AngioFlag": "N",
      "BitsAllocated": 16,
      "BitsStored": 16,
      "BodyPartExamined": "BRAIN",
      "Columns": 832,
      "EchoNumbers": 1,
      "EchoTime": 37.0,
      "EchoTrainLength": 104,
      "FlipAngle": 52.0,
      "HighBit": 15,
      "ImageOrientationPatient": [0.99827875365552, 0.05326594493933, 0.02454117172648, -0.0465537477371, 0.97420884265263, -0.2207937487092],
      "ImagePositionPatient": [-795.07214483124, -877.29535979385, 138.28200290583],
      "ImageType": [
        "ORIGINAL",
        "PRIMARY",
        "M",
        "MB",
        "ND",
        "MOSAIC"
],
      "ImagedNucleus": "1H",
      "ImagingFrequency": 123.25896,
      "InPlanePhaseEncodingDirection": "COL",
      "MRAcquisitionType": "2D",
      "MagneticFieldStrength": 3.0,
      "Manufacturer": "SIEMENS",
      "ManufacturerModelName": "Prisma_fit",
      "Modality": "MR",
      "NumberOfAverages": 1.0,
      "NumberOfPhaseEncodingSteps": 104,
      "PercentPhaseFieldOfView": 100.0,
      "PercentSampling": 100.0,
      "PerformedProcedureStepStartTime": "125858.760000",
      "PhotometricInterpretation": "MONOCHROME2",
      "PixelBandwidth": 2290.0,
      "PixelRepresentation": 0,
      "PixelSpacing": [2.0, 2.0],
      "ProtocolName": "func_task-things_run-6",
      "RepetitionTime": 1490.0,
      "Rows": 832,
      "SAR": 0.03630834352498,
      "SamplesPerPixel": 1,
      "ScanOptions": "FS",
      "ScanningSequence": "EP",
      "SequenceName": "epfid2d1_104",
      "SequenceVariant": [
        "SK",
        "SS"
],
      "SeriesDescription": "func_task-things_run-6",
      "SeriesNumber": 25,
      "SeriesTime": "142104.748000",
      "SliceLocation": -29.179615113887,
      "SliceThickness": 2.0,
      "SmallestImagePixelValue": 0,
      "SoftwareVersions": "syngo MR E11",
      "SpacingBetweenSlices": 1.9999999609282,
      "SpecificCharacterSet": "ISO_IR 100",
      "StudyID": "1",
      "StudyTime": "125858.670000",
      "TransmitCoilName": "Body",
      "VariableFlipAngleFlag": "N",
      "WindowCenterWidthExplanation": "Algo1",
      "dBdt": 0.0},
    "slices": {}
  },
  "time": {
    "samples": {
      "AcquisitionNumber": [1, 2, 3, 4, 5, 6, 7, 8, 9, 10, 11, 12, 13, 14, 15, 16, 17, 18, 19, 20, 21, 22, 23, 24, 25, 26, 27, 28, 29, 30, 31, 32, 33, 34, 35, 36, 37, 38, 39, 40, 41, 42, 43, 44, 45, 46, 47, 48, 49, 50, 51, 52, 53, 54, 55, 56, 57, 58, 59, 60, 61, 62, 63, 64, 65, 66, 67, 68, 69, 70, 71, 72, 73, 74, 75, 76, 77, 78, 79, 80, 81, 82, 83, 84, 85, 86, 87, 88, 89, 90, 91, 92, 93, 94, 95, 96, 97, 98, 99, 100, 101, 102, 103, 104, 105, 106, 107, 108, 109, 110, 111, 112, 113, 114, 115, 116, 117, 118, 119, 120, 121, 122, 123, 124, 125, 126, 127, 128, 129, 130, 131, 132, 133, 134, 135, 136, 137, 138, 139, 140, 141, 142, 143, 144, 145, 146, 147, 148, 149, 150, 151, 152, 153, 154, 155, 156, 157, 158, 159, 160, 161, 162, 163, 164, 165, 166, 167, 168, 169, 170, 171, 172, 173, 174, 175, 176, 177, 178, 179, 180, 181, 182, 183, 184, 185, 186, 187, 188, 189, 190],
      "AcquisitionTime": ["141940.747500", "141942.237500", "141943.727500", "141945.217500", "141946.707500", "141948.197500", "141949.687500", "141951.177500", "141952.667500", "141954.157500", "141955.647500", "141957.137500", "141958.627500", "142000.117500", "142001.607500", "142003.097500", "142004.587500", "142006.077500", "142007.567500", "142009.057500", "142010.547500", "142012.037500", "142013.527500", "142015.017500", "142016.507500", "142017.997500", "142019.487500", "142020.977500", "142022.467500", "142023.957500", "142025.447500", "142026.937500", "142028.427500", "142029.917500", "142031.407500", "142032.897500", "142034.387500", "142035.877500", "142037.367500", "142038.857500", "142040.347500", "142041.837500", "142043.327500", "142044.817500", "142046.307500", "142047.797500", "142049.287500", "142050.777500", "142052.267500", "142053.757500", "142055.247500", "142056.737500", "142058.227500", "142059.717500", "142101.207500", "142102.697500", "142104.187500", "142105.677500", "142107.167500", "142108.657500", "142110.147500", "142111.637500", "142113.127500", "142114.617500", "142116.107500", "142117.597500", "142119.087500", "142120.577500", "142122.067500", "142123.557500", "142125.047500", "142126.537500", "142128.027500", "142129.517500", "142131.007500", "142132.497500", "142133.987500", "142135.477500", "142136.967500", "142138.457500", "142139.947500", "142141.437500", "142142.927500", "142144.417500", "142145.907500", "142147.397500", "142148.887500", "142150.377500", "142151.867500", "142153.357500", "142154.847500", "142156.337500", "142157.827500", "142159.317500", "142200.807500", "142202.297500", "142203.787500", "142205.277500", "142206.767500", "142208.257500", "142209.747500", "142211.237500", "142212.727500", "142214.217500", "142215.707500", "142217.197500", "142218.687500", "142220.177500", "142221.667500", "142223.157500", "142224.647500", "142226.137500", "142227.627500", "142229.117500", "142230.607500", "142232.097500", "142233.587500", "142235.077500", "142236.567500", "142238.057500", "142239.547500", "142241.037500", "142242.527500", "142244.017500", "142245.507500", "142246.997500", "142248.487500", "142249.977500", "142251.467500", "142252.957500", "142254.447500", "142255.937500", "142257.427500", "142258.917500", "142300.407500", "142301.897500", "142303.387500", "142304.877500", "142306.367500", "142307.857500", "142309.347500", "142310.837500", "142312.327500", "142313.817500", "142315.307500", "142316.797500", "142318.287500", "142319.777500", "142321.267500", "142322.757500", "142324.247500", "142325.737500", "142327.227500", "142328.717500", "142330.207500", "142331.697500", "142333.187500", "142334.677500", "142336.167500", "142337.657500", "142339.147500", "142340.637500", "142342.127500", "142343.617500", "142345.107500", "142346.597500", "142348.087500", "142349.577500", "142351.067500", "142352.557500", "142354.047500", "142355.537500", "142357.027500", "142358.517500", "142400.007500", "142401.497500", "142402.987500", "142404.477500", "142405.967500", "142407.457500", "142408.947500", "142410.437500", "142411.927500", "142413.417500", "142414.907500", "142416.397500", "142417.887500", "142419.377500", "142420.867500", "142422.357500"],
      "ContentTime": ["142104.751000", "142104.755000", "142104.758000", "142104.762000", "142104.766000", "142104.770000", "142104.773000", "142104.777000", "142104.780000", "142104.784000", "142104.787000", "142104.805000", "142104.809000", "142104.830000", "142104.834000", "142104.837000", "142104.841000", "142104.844000", "142104.847000", "142104.851000", "142104.854000", "142104.858000", "142104.861000", "142104.865000", "142104.868000", "142104.872000", "142104.875000", "142104.879000", "142124.706000", "142124.710000", "142124.713000", "142124.717000", "142124.720000", "142124.728000", "142124.732000", "142124.735000", "142124.738000", "142124.742000", "142124.745000", "142124.749000", "142124.752000", "142124.756000", "142124.759000", "142124.762000", "142124.766000", "142124.769000", "142124.773000", "142124.776000", "142144.706000", "142144.710000", "142144.713000", "142144.717000", "142144.720000", "142144.724000", "142144.727000", "142144.730000", "142144.734000", "142144.737000", "142144.740000", "142144.744000", "142144.747000", "142144.750000", "142144.754000", "142144.757000", "142144.760000", "142144.764000", "142144.767000", "142144.770000", "142204.706000", "142204.710000", "142204.713000", "142204.717000", "142204.720000", "142204.723000", "142204.727000", "142204.730000", "142204.734000", "142204.737000", "142204.740000", "142204.744000", "142204.748000", "142204.752000", "142204.755000", "142204.759000", "142204.762000", "142204.766000", "142204.773000", "142204.776000", "142224.707000", "142224.711000", "142224.714000", "142224.719000", "142224.723000", "142224.727000", "142224.731000", "142224.735000", "142224.741000", "142224.754000", "142224.758000", "142224.761000", "142224.765000", "142224.768000", "142224.771000", "142224.775000", "142224.778000", "142224.782000", "142224.785000", "142224.789000", "142304.707000", "142304.711000", "142304.715000", "142304.718000", "142304.722000", "142304.725000", "142304.728000", "142304.732000", "142304.735000", "142304.739000", "142304.742000", "142304.745000", "142304.749000", "142304.752000", "142304.755000", "142304.759000", "142304.762000", "142304.766000", "142304.769000", "142304.772000", "142304.776000", "142304.779000", "142304.783000", "142304.786000", "142304.789000", "142304.793000", "142304.796000", "142304.799000", "142344.706000", "142344.710000", "142344.713000", "142344.717000", "142344.720000", "142344.724000", "142344.727000", "142344.731000", "142344.734000", "142344.737000", "142344.741000", "142344.744000", "142344.747000", "142344.751000", "142344.754000", "142344.758000", "142344.761000", "142344.764000", "142344.768000", "142344.771000", "142344.774000", "142344.778000", "142344.781000", "142344.785000", "142344.788000", "142344.791000", "142344.795000", "142424.598000", "142424.601000", "142424.605000", "142424.608000", "142424.612000", "142424.615000", "142424.618000", "142424.622000", "142424.625000", "142424.629000", "142424.632000", "142424.635000", "142424.639000", "142424.642000", "142424.646000", "142424.656000", "142424.659000", "142424.662000", "142424.666000", "142424.669000", "142424.672000", "142424.676000", "142424.679000", "142424.682000", "142424.686000", "142424.689000", "142424.693000"],
      "InstanceCreationTime": ["142104.751000", "142104.755000", "142104.758000", "142104.762000", "142104.766000", "142104.770000", "142104.773000", "142104.777000", "142104.780000", "142104.784000", "142104.787000", "142104.805000", "142104.809000", "142104.830000", "142104.834000", "142104.837000", "142104.841000", "142104.844000", "142104.847000", "142104.851000", "142104.854000", "142104.858000", "142104.861000", "142104.865000", "142104.868000", "142104.872000", "142104.875000", "142104.879000", "142124.706000", "142124.710000", "142124.713000", "142124.717000", "142124.720000", "142124.728000", "142124.732000", "142124.735000", "142124.738000", "142124.742000", "142124.745000", "142124.749000", "142124.752000", "142124.756000", "142124.759000", "142124.762000", "142124.766000", "142124.769000", "142124.773000", "142124.776000", "142144.706000", "142144.710000", "142144.713000", "142144.717000", "142144.720000", "142144.724000", "142144.727000", "142144.730000", "142144.734000", "142144.737000", "142144.740000", "142144.744000", "142144.747000", "142144.750000", "142144.754000", "142144.757000", "142144.760000", "142144.764000", "142144.767000", "142144.770000", "142204.706000", "142204.710000", "142204.713000", "142204.717000", "142204.720000", "142204.723000", "142204.727000", "142204.730000", "142204.734000", "142204.737000", "142204.740000", "142204.744000", "142204.748000", "142204.752000", "142204.755000", "142204.759000", "142204.762000", "142204.766000", "142204.773000", "142204.776000", "142224.707000", "142224.711000", "142224.714000", "142224.719000", "142224.723000", "142224.727000", "142224.731000", "142224.735000", "142224.741000", "142224.754000", "142224.758000", "142224.761000", "142224.765000", "142224.768000", "142224.771000", "142224.775000", "142224.778000", "142224.782000", "142224.785000", "142224.789000", "142304.707000", "142304.711000", "142304.715000", "142304.718000", "142304.722000", "142304.725000", "142304.728000", "142304.732000", "142304.735000", "142304.739000", "142304.742000", "142304.745000", "142304.749000", "142304.752000", "142304.755000", "142304.759000", "142304.762000", "142304.766000", "142304.769000", "142304.772000", "142304.776000", "142304.779000", "142304.783000", "142304.786000", "142304.789000", "142304.793000", "142304.796000", "142304.799000", "142344.706000", "142344.710000", "142344.713000", "142344.717000", "142344.720000", "142344.724000", "142344.727000", "142344.731000", "142344.734000", "142344.737000", "142344.741000", "142344.744000", "142344.747000", "142344.751000", "142344.754000", "142344.758000", "142344.761000", "142344.764000", "142344.768000", "142344.771000", "142344.774000", "142344.778000", "142344.781000", "142344.785000", "142344.788000", "142344.791000", "142344.795000", "142424.598000", "142424.601000", "142424.605000", "142424.608000", "142424.612000", "142424.615000", "142424.618000", "142424.622000", "142424.625000", "142424.629000", "142424.632000", "142424.635000", "142424.639000", "142424.642000", "142424.646000", "142424.656000", "142424.659000", "142424.662000", "142424.666000", "142424.669000", "142424.672000", "142424.676000", "142424.679000", "142424.682000", "142424.686000", "142424.689000", "142424.693000"],
      "InstanceNumber": [1, 2, 3, 4, 5, 6, 7, 8, 9, 10, 11, 12, 13, 14, 15, 16, 17, 18, 19, 20, 21, 22, 23, 24, 25, 26, 27, 28, 29, 30, 31, 32, 33, 34, 35, 36, 37, 38, 39, 40, 41, 42, 43, 44, 45, 46, 47, 48, 49, 50, 51, 52, 53, 54, 55, 56, 57, 58, 59, 60, 61, 62, 63, 64, 65, 66, 67, 68, 69, 70, 71, 72, 73, 74, 75, 76, 77, 78, 79, 80, 81, 82, 83, 84, 85, 86, 87, 88, 89, 90, 91, 92, 93, 94, 95, 96, 97, 98, 99, 100, 101, 102, 103, 104, 105, 106, 107, 108, 109, 110, 111, 112, 113, 114, 115, 116, 117, 118, 119, 120, 121, 122, 123, 124, 125, 126, 127, 128, 129, 130, 131, 132, 133, 134, 135, 136, 137, 138, 139, 140, 141, 142, 143, 144, 145, 146, 147, 148, 149, 150, 151, 152, 153, 154, 155, 156, 157, 158, 159, 160, 161, 162, 163, 164, 165, 166, 167, 168, 169, 170, 171, 172, 173, 174, 175, 176, 177, 178, 179, 180, 181, 182, 183, 184, 185, 186, 187, 188, 189, 190],
      "LargestImagePixelValue": [38930, 38108, 36993, 36808, 36724, 36542, 36294, 36462, 36503, 36211, 36624, 36535, 36525, 37038, 36644, 36423, 36843, 37114, 36723, 37040, 36533, 36602, 36087, 36488, 36412, 36446, 36480, 36453, 36432, 37062, 36875, 36991, 36561, 36632, 36779, 36507, 36565, 36473, 36502, 37267, 36326, 36356, 36466, 36735, 36543, 36132, 36298, 36371, 36294, 36716, 36462, 36383, 35809, 36214, 36460, 36603, 36166, 36470, 36534, 36593, 36570, 36389, 36012, 36166, 36099, 36291, 36447, 35986, 36579, 36110, 36547, 36125, 36329, 36363, 36668, 36443, 36539, 36465, 36141, 36256, 36071, 36669, 36805, 36858, 36335, 36768, 36129, 35891, 36065, 36176, 36417, 36479, 36177, 36138, 36092, 36326, 36639, 36346, 36031, 36461, 35877, 36275, 36327, 36275, 36178, 36311, 36295, 36599, 36904, 36868, 35941, 36241, 35818, 36205, 36324, 36633, 36593, 36082, 35966, 36316, 36282, 36186, 36383, 36542, 36607, 36497, 36162, 36232, 36691, 36498, 36621, 36540, 36421, 36609, 36322, 36569, 36406, 36408, 36245, 36325, 36178, 36435, 36331, 36486, 36087, 36387, 36161, 35821, 36399, 36307, 35987, 36079, 36155, 36320, 36726, 36618, 35841, 36023, 36151, 36698, 36352, 36569, 36416, 36357, 35860, 35859, 36207, 36075, 36250, 35936, 36234, 35954, 36122, 36760, 35986, 35809, 35960, 35904, 35968, 36101, 36092, 36101, 36044, 36129, 36519, 36040, 36239, 36097, 36332, 36113],
      "WindowCenter": [10023.0, 10004.0, 9989.0, 9978.0, 9969.0, 9962.0, 9963.0, 9970.0, 9971.0, 9954.0, 9951.0, 9945.0, 9953.0, 9959.0, 9959.0, 9960.0, 9968.0, 9975.0, 9977.0, 9982.0, 9977.0, 9977.0, 9963.0, 9952.0, 9950.0, 9957.0, 9959.0, 9960.0, 9940.0, 9945.0, 9955.0, 9957.0, 9953.0, 9951.0, 9958.0, 9953.0, 9959.0, 9952.0, 9949.0, 9954.0, 9957.0, 9966.0, 9969.0, 9975.0, 9978.0, 9980.0, 9966.0, 9953.0, 9936.0, 9954.0, 9966.0, 9975.0, 9970.0, 9970.0, 9975.0, 9977.0, 9972.0, 9968.0, 9968.0, 9975.0, 9976.0, 9977.0, 9971.0, 9979.0, 9980.0, 9979.0, 9969.0, 9962.0, 9977.0, 9989.0, 9981.0, 9956.0, 9927.0, 9923.0, 9938.0, 9957.0, 9966.0, 9975.0, 9978.0, 9972.0, 9953.0, 9940.0, 9939.0, 9947.0, 9958.0, 9975.0, 9979.0, 9966.0, 9963.0, 9948.0, 9952.0, 9959.0, 9954.0, 9953.0, 9951.0, 9944.0, 9941.0, 9949.0, 9951.0, 9952.0, 9945.0, 9945.0, 9952.0, 9962.0, 9963.0, 9954.0, 9937.0, 9925.0, 9929.0, 9945.0, 9952.0, 9961.0, 9955.0, 9954.0, 9949.0, 9947.0, 9958.0, 9968.0, 9952.0, 9951.0, 9935.0, 9909.0, 9910.0, 9911.0, 9921.0, 9929.0, 9916.0, 9906.0, 9901.0, 9893.0, 9906.0, 9908.0, 9919.0, 9927.0, 9930.0, 9931.0, 9939.0, 9961.0, 9975.0, 9976.0, 9959.0, 9940.0, 9940.0, 9947.0, 9949.0, 9949.0, 9957.0, 9953.0, 9965.0, 9969.0, 9970.0, 9959.0, 9947.0, 9939.0, 9945.0, 9954.0, 9965.0, 9964.0, 9943.0, 9936.0, 9930.0, 9954.0, 9979.0, 9985.0, 9969.0, 9959.0, 9964.0, 9976.0, 9975.0, 9944.0, 9932.0, 9929.0, 9928.0, 9936.0, 9949.0, 9951.0, 9949.0, 9924.0, 9909.0, 9914.0, 9922.0, 9928.0, 9915.0, 9912.0, 9927.0, 9948.0, 9957.0, 9942.0, 9932.0, 9904.0],
      "WindowWidth": [21296.0, 21235.0, 21196.0, 21162.0, 21141.0, 21123.0, 21126.0, 21141.0, 21142.0, 21106.0, 21095.0, 21085.0, 21101.0, 21115.0, 21114.0, 21115.0, 21132.0, 21148.0, 21153.0, 21161.0, 21152.0, 21153.0, 21123.0, 21098.0, 21090.0, 21108.0, 21113.0, 21111.0, 21064.0, 21071.0, 21098.0, 21105.0, 21099.0, 21094.0, 21107.0, 21102.0, 21113.0, 21097.0, 21089.0, 21095.0, 21108.0, 21128.0, 21135.0, 21147.0, 21155.0, 21160.0, 21132.0, 21100.0, 21060.0, 21098.0, 21128.0, 21147.0, 21138.0, 21137.0, 21146.0, 21151.0, 21143.0, 21131.0, 21132.0, 21146.0, 21151.0, 21152.0, 21142.0, 21159.0, 21163.0, 21160.0, 21135.0, 21121.0, 21154.0, 21181.0, 21162.0, 21104.0, 21037.0, 21026.0, 21062.0, 21106.0, 21127.0, 21146.0, 21156.0, 21142.0, 21097.0, 21064.0, 21061.0, 21082.0, 21109.0, 21147.0, 21159.0, 21131.0, 21121.0, 21090.0, 21095.0, 21110.0, 21105.0, 21099.0, 21095.0, 21077.0, 21071.0, 21088.0, 21096.0, 21096.0, 21084.0, 21082.0, 21097.0, 21122.0, 21125.0, 21102.0, 21063.0, 21033.0, 21039.0, 21078.0, 21098.0, 21117.0, 21107.0, 21103.0, 21088.0, 21082.0, 21109.0, 21135.0, 21100.0, 21094.0, 21055.0, 20995.0, 20992.0, 20997.0, 21023.0, 21041.0, 21016.0, 20990.0, 20975.0, 20959.0, 20986.0, 20992.0, 21018.0, 21035.0, 21044.0, 21046.0, 21065.0, 21112.0, 21149.0, 21149.0, 21108.0, 21065.0, 21067.0, 21084.0, 21089.0, 21090.0, 21106.0, 21101.0, 21124.0, 21134.0, 21135.0, 21110.0, 21080.0, 21062.0, 21077.0, 21096.0, 21122.0, 21117.0, 21075.0, 21053.0, 21046.0, 21098.0, 21156.0, 21171.0, 21137.0, 21113.0, 21123.0, 21152.0, 21147.0, 21081.0, 21050.0, 21041.0, 21039.0, 21058.0, 21088.0, 21094.0, 21085.0, 21031.0, 20999.0, 21007.0, 21027.0, 21038.0, 21013.0, 21004.0, 21036.0, 21082.0, 21101.0, 21068.0, 21046.0, 20983.0]
    },
    "slices": {}
  }
}