{
  "AcquisitionMatrixPE": 104,
  "AcquisitionNumber": 1,
  "AcquisitionTime": "14:13:35.455000",
  "BandwidthPerPixelPhaseEncode": 17.17,
  "BaseResolution": 104,
  "BodyPartExamined": "BRAIN",
  "CoilString": "HC1-7;NC1_2",
  "ConsistencyInfo": "N4_VE11C_LATEST_20160120",
  "ConversionSoftware": "dcm2niix",
  "ConversionSoftwareVersion": "v1.0.20190902",
  "DerivedVendorReportedEchoSpacing": 0.000560011,
  "DeviceSerialNumber": "167006",
  "DwellTime": 2.1e-06,
  "EchoTime": 0.037,
  "EchoTrainLength": 104,
  "EffectiveEchoSpacing": 0.000560011,
  "FlipAngle": 52,
  "ImageComments": "Unaliased_MB4_PE3_LB",
  "ImageOrientationPatientDICOM": [0.998279, 0.0532659, 0.0245412, -0.0465537, 0.974209, -0.220794],
  "ImageType": [
    "ORIGINAL",
    "PRIMARY",
    "M",
    "MB",
    "ND",
    "MOSAIC"
],
  "ImagingFrequency": 123.259,
  "InPlanePhaseEncodingDirectionDICOM": "COL",
  "InstitutionAddress": "Chemin_Queen-Mary_4565_Montreal_District_CA_H3W_1W5",
  "InstitutionName": "IUGM",
  "InstitutionalDepartmentName": "Department",
  "MRAcquisitionType": "2D",
  "MagneticFieldStrength": 3,
  "Manufacturer": "Siemens",
  "ManufacturersModelName": "Prisma_fit",
  "Modality": "MR",
  "MultibandAccelerationFactor": 4,
  "PartialFourier": 1,
  "PatientPosition": "HFS",
  "PercentPhaseFOV": 100,
  "PhaseEncodingDirection": "j",
  "PhaseEncodingSteps": 104,
  "PhaseResolution": 1,
  "PixelBandwidth": 2290,
  "ProcedureStepDescription": "memory_things",
  "ProtocolName": "func_task-things_run-5",
  "PulseSequenceDetails": "%CustomerSeq%_cmrr_mbep2d_bold",
  "ReceiveCoilActiveElements": "HC1-7;NC1,2",
  "ReceiveCoilName": "HeadNeck_64",
  "ReconMatrixPE": 104,
  "RepetitionTime": 1.49,
  "SAR": 0.0363083,
  "ScanOptions": "FS",
  "ScanningSequence": "EP",
  "SequenceName": "epfid2d1_104",
  "SequenceVariant": "SK_SS",
  "SeriesDescription": "func_task-things_run-5",
  "SeriesNumber": 22,
  "ShimSetting": [636, -7237, -8765, 666, 39, -73, 141, -1],
  "SliceThickness": 2,
  "SliceTiming": [0, 0.785, 0.1, 0.8825, 0.1975, 0.98, 0.295, 1.08, 0.3925, 1.1775, 0.49, 1.275, 0.59, 1.3725, 0.6875, 0, 0.785, 0.1, 0.8825, 0.1975, 0.98, 0.295, 1.08, 0.3925, 1.1775, 0.49, 1.275, 0.59, 1.3725, 0.6875, 0, 0.785, 0.1, 0.8825, 0.1975, 0.98, 0.295, 1.08, 0.3925, 1.1775, 0.49, 1.275, 0.59, 1.3725, 0.6875, 0, 0.785, 0.1, 0.8825, 0.1975, 0.98, 0.295, 1.08, 0.3925, 1.1775, 0.49, 1.275, 0.59, 1.3725, 0.6875],
  "SoftwareVersions": "syngo_MR_E11",
  "SpacingBetweenSlices": 2,
  "StationName": "MRC35049",
  "TaskName": "things",
  "TotalReadoutTime": 0.0576811,
  "TxRefAmp": 212.607,
  "WipMemBlock": "64a205d6-95a2-46ab-91c9-317ea306e1cb||Sequence: R016 ve11c/master r/e634e98; Dec 19 2017 11:00:25 by eja",
  "dcmmeta_affine": [
    [-1.9965574741363525, -0.09310749918222427, 0.07133802771568298, 111.80641174316406],
    [-0.10653188824653625, 1.9484176635742188, -0.4385424554347992, -71.393310546875],
    [0.04908234253525734, 0.44158750772476196, 1.9500234127044678, -50.073387145996094],
    [0.0, 0.0, 0.0, 1.0]
],
  "dcmmeta_reorient_transform": [
    [0.0, -1.0, 0.0, 103.0],
    [1.0, 0.0, 0.0, 0.0],
    [0.0, 0.0, 1.0, 0.0],
    [0.0, 0.0, 0.0, 1.0]
],
  "dcmmeta_shape": [104, 104, 60, 190],
  "dcmmeta_slice_dim": 2,
  "dcmmeta_version": 0.6,
  "global": {
    "const": {
      "AcquisitionMatrix": [104, 0, 0, 104],
      "AngioFlag": "N",
      "BitsAllocated": 16,
      "BitsStored": 16,
      "BodyPartExamined": "BRAIN",
      "Columns": 832,
      "EchoNumbers": 1,
      "EchoTime": 37.0,
      "EchoTrainLength": 104,
      "FlipAngle": 52.0,
      "HighBit": 15,
      "ImageOrientationPatient": [0.99827875365552, 0.05326594493933, 0.02454117172648, -0.0465537477371, 0.97420884265263, -0.2207937487092],
      "ImagePositionPatient": [-795.07214483124, -877.29535979385, 138.28200290583],
      "ImageType": [
        "ORIGINAL",
        "PRIMARY",
        "M",
        "MB",
        "ND",
        "MOSAIC"
],
      "ImagedNucleus": "1H",
      "ImagingFrequency": 123.258961,
      "InPlanePhaseEncodingDirection": "COL",
      "MRAcquisitionType": "2D",
      "MagneticFieldStrength": 3.0,
      "Manufacturer": "SIEMENS",
      "ManufacturerModelName": "Prisma_fit",
      "Modality": "MR",
      "NumberOfAverages": 1.0,
      "NumberOfPhaseEncodingSteps": 104,
      "PercentPhaseFieldOfView": 100.0,
      "PercentSampling": 100.0,
      "PerformedProcedureStepStartTime": "125858.760000",
      "PhotometricInterpretation": "MONOCHROME2",
      "PixelBandwidth": 2290.0,
      "PixelRepresentation": 0,
      "PixelSpacing": [2.0, 2.0],
      "ProtocolName": "func_task-things_run-5",
      "RepetitionTime": 1490.0,
      "Rows": 832,
      "SAR": 0.03630834352498,
      "SamplesPerPixel": 1,
      "ScanOptions": "FS",
      "ScanningSequence": "EP",
      "SequenceName": "epfid2d1_104",
      "SequenceVariant": [
        "SK",
        "SS"
],
      "SeriesDescription": "func_task-things_run-5",
      "SeriesNumber": 22,
      "SeriesTime": "141501.004000",
      "SliceLocation": -29.179615113887,
      "SliceThickness": 2.0,
      "SmallestImagePixelValue": 0,
      "SoftwareVersions": "syngo MR E11",
      "SpacingBetweenSlices": 1.9999999609282,
      "SpecificCharacterSet": "ISO_IR 100",
      "StudyID": "1",
      "StudyTime": "125858.670000",
      "TransmitCoilName": "Body",
      "VariableFlipAngleFlag": "N",
      "WindowCenterWidthExplanation": "Algo1",
      "dBdt": 0.0},
    "slices": {}
  },
  "time": {
    "samples": {
      "AcquisitionNumber": [1, 2, 3, 4, 5, 6, 7, 8, 9, 10, 11, 12, 13, 14, 15, 16, 17, 18, 19, 20, 21, 22, 23, 24, 25, 26, 27, 28, 29, 30, 31, 32, 33, 34, 35, 36, 37, 38, 39, 40, 41, 42, 43, 44, 45, 46, 47, 48, 49, 50, 51, 52, 53, 54, 55, 56, 57, 58, 59, 60, 61, 62, 63, 64, 65, 66, 67, 68, 69, 70, 71, 72, 73, 74, 75, 76, 77, 78, 79, 80, 81, 82, 83, 84, 85, 86, 87, 88, 89, 90, 91, 92, 93, 94, 95, 96, 97, 98, 99, 100, 101, 102, 103, 104, 105, 106, 107, 108, 109, 110, 111, 112, 113, 114, 115, 116, 117, 118, 119, 120, 121, 122, 123, 124, 125, 126, 127, 128, 129, 130, 131, 132, 133, 134, 135, 136, 137, 138, 139, 140, 141, 142, 143, 144, 145, 146, 147, 148, 149, 150, 151, 152, 153, 154, 155, 156, 157, 158, 159, 160, 161, 162, 163, 164, 165, 166, 167, 168, 169, 170, 171, 172, 173, 174, 175, 176, 177, 178, 179, 180, 181, 182, 183, 184, 185, 186, 187, 188, 189, 190],
      "AcquisitionTime": ["141335.455000", "141336.945000", "141338.435000", "141339.925000", "141341.415000", "141342.905000", "141344.395000", "141345.885000", "141347.375000", "141348.865000", "141350.355000", "141351.845000", "141353.335000", "141354.825000", "141356.315000", "141357.805000", "141359.295000", "141400.785000", "141402.275000", "141403.765000", "141405.255000", "141406.745000", "141408.235000", "141409.725000", "141411.215000", "141412.705000", "141414.195000", "141415.685000", "141417.175000", "141418.665000", "141420.155000", "141421.645000", "141423.135000", "141424.625000", "141426.115000", "141427.605000", "141429.095000", "141430.585000", "141432.075000", "141433.565000", "141435.055000", "141436.545000", "141438.035000", "141439.525000", "141441.015000", "141442.505000", "141443.995000", "141445.485000", "141446.975000", "141448.465000", "141449.955000", "141451.445000", "141452.935000", "141454.425000", "141455.915000", "141457.405000", "141458.895000", "141500.385000", "141501.875000", "141503.365000", "141504.855000", "141506.345000", "141507.835000", "141509.325000", "141510.815000", "141512.305000", "141513.795000", "141515.285000", "141516.775000", "141518.265000", "141519.755000", "141521.245000", "141522.735000", "141524.225000", "141525.715000", "141527.205000", "141528.695000", "141530.185000", "141531.675000", "141533.165000", "141534.655000", "141536.145000", "141537.635000", "141539.125000", "141540.615000", "141542.105000", "141543.595000", "141545.085000", "141546.575000", "141548.065000", "141549.555000", "141551.045000", "141552.535000", "141554.025000", "141555.515000", "141557.005000", "141558.495000", "141559.985000", "141601.475000", "141602.965000", "141604.455000", "141605.945000", "141607.435000", "141608.925000", "141610.415000", "141611.905000", "141613.395000", "141614.885000", "141616.375000", "141617.865000", "141619.355000", "141620.845000", "141622.335000", "141623.825000", "141625.315000", "141626.805000", "141628.295000", "141629.785000", "141631.275000", "141632.765000", "141634.255000", "141635.745000", "141637.235000", "141638.725000", "141640.215000", "141641.705000", "141643.195000", "141644.685000", "141646.175000", "141647.665000", "141649.155000", "141650.645000", "141652.135000", "141653.625000", "141655.115000", "141656.605000", "141658.095000", "141659.585000", "141701.075000", "141702.565000", "141704.055000", "141705.545000", "141707.035000", "141708.525000", "141710.015000", "141711.505000", "141712.995000", "141714.485000", "141715.975000", "141717.465000", "141718.955000", "141720.445000", "141721.935000", "141723.425000", "141724.915000", "141726.405000", "141727.895000", "141729.385000", "141730.875000", "141732.365000", "141733.855000", "141735.345000", "141736.835000", "141738.325000", "141739.815000", "141741.305000", "141742.795000", "141744.285000", "141745.775000", "141747.265000", "141748.755000", "141750.245000", "141751.735000", "141753.225000", "141754.715000", "141756.205000", "141757.695000", "141759.185000", "141800.675000", "141802.165000", "141803.655000", "141805.145000", "141806.635000", "141808.125000", "141809.615000", "141811.105000", "141812.595000", "141814.085000", "141815.575000", "141817.065000"],
      "ContentTime": ["141501.007000", "141501.011000", "141501.015000", "141501.018000", "141501.021000", "141501.041000", "141501.045000", "141501.048000", "141501.051000", "141501.055000", "141501.058000", "141501.062000", "141501.065000", "141501.069000", "141501.072000", "141501.075000", "141501.079000", "141501.082000", "141501.086000", "141501.089000", "141501.092000", "141501.103000", "141501.107000", "141501.110000", "141501.113000", "141501.117000", "141501.120000", "141501.123000", "141501.127000", "141501.130000", "141501.133000", "141501.148000", "141501.151000", "141520.971000", "141520.975000", "141520.978000", "141520.982000", "141520.985000", "141520.988000", "141520.992000", "141520.995000", "141520.998000", "141521.003000", "141521.006000", "141521.010000", "141521.014000", "141521.017000", "141521.020000", "141521.024000", "141521.027000", "141521.030000", "141521.034000", "141521.037000", "141540.971000", "141540.975000", "141540.978000", "141540.982000", "141540.985000", "141540.989000", "141540.992000", "141540.995000", "141540.999000", "141541.006000", "141541.009000", "141541.013000", "141541.016000", "141541.019000", "141541.023000", "141541.026000", "141541.030000", "141541.033000", "141541.036000", "141541.040000", "141600.972000", "141600.976000", "141600.979000", "141600.983000", "141600.987000", "141600.990000", "141600.993000", "141600.997000", "141601.002000", "141601.005000", "141601.008000", "141601.012000", "141601.022000", "141601.025000", "141601.028000", "141601.032000", "141601.035000", "141601.038000", "141601.042000", "141601.045000", "141640.971000", "141640.975000", "141640.979000", "141640.991000", "141640.994000", "141640.998000", "141641.002000", "141641.006000", "141641.009000", "141641.012000", "141641.016000", "141641.019000", "141641.022000", "141641.026000", "141641.029000", "141641.033000", "141641.036000", "141641.039000", "141641.043000", "141641.046000", "141641.050000", "141641.053000", "141641.056000", "141641.060000", "141641.063000", "141641.066000", "141641.085000", "141641.089000", "141641.092000", "141641.096000", "141641.099000", "141720.971000", "141720.975000", "141720.978000", "141720.982000", "141720.985000", "141720.989000", "141720.992000", "141720.996000", "141721.000000", "141721.004000", "141721.007000", "141721.010000", "141721.014000", "141721.017000", "141721.020000", "141721.024000", "141721.027000", "141721.031000", "141721.034000", "141721.038000", "141721.041000", "141721.045000", "141721.048000", "141721.051000", "141721.055000", "141721.058000", "141721.061000", "141800.971000", "141800.975000", "141800.979000", "141800.982000", "141800.986000", "141800.989000", "141800.992000", "141800.996000", "141801.000000", "141801.004000", "141801.007000", "141801.011000", "141801.014000", "141801.017000", "141801.021000", "141801.025000", "141801.028000", "141801.031000", "141801.035000", "141801.038000", "141801.042000", "141801.045000", "141801.049000", "141801.052000", "141801.055000", "141801.059000", "141819.033000", "141819.037000", "141819.041000", "141819.044000", "141819.047000", "141819.051000", "141819.054000", "141819.058000", "141819.061000", "141819.064000", "141819.068000", "141819.071000", "141819.075000"],
      "InstanceCreationTime": ["141501.007000", "141501.011000", "141501.015000", "141501.018000", "141501.021000", "141501.041000", "141501.045000", "141501.048000", "141501.051000", "141501.055000", "141501.058000", "141501.062000", "141501.065000", "141501.069000", "141501.072000", "141501.075000", "141501.079000", "141501.082000", "141501.086000", "141501.089000", "141501.092000", "141501.103000", "141501.107000", "141501.110000", "141501.113000", "141501.117000", "141501.120000", "141501.123000", "141501.127000", "141501.130000", "141501.133000", "141501.148000", "141501.151000", "141520.971000", "141520.975000", "141520.978000", "141520.982000", "141520.985000", "141520.988000", "141520.992000", "141520.995000", "141520.998000", "141521.003000", "141521.006000", "141521.010000", "141521.014000", "141521.017000", "141521.020000", "141521.024000", "141521.027000", "141521.030000", "141521.034000", "141521.037000", "141540.971000", "141540.975000", "141540.978000", "141540.982000", "141540.985000", "141540.989000", "141540.992000", "141540.995000", "141540.999000", "141541.006000", "141541.009000", "141541.013000", "141541.016000", "141541.019000", "141541.023000", "141541.026000", "141541.030000", "141541.033000", "141541.036000", "141541.040000", "141600.972000", "141600.976000", "141600.979000", "141600.983000", "141600.987000", "141600.990000", "141600.993000", "141600.997000", "141601.002000", "141601.005000", "141601.008000", "141601.012000", "141601.022000", "141601.025000", "141601.028000", "141601.032000", "141601.035000", "141601.038000", "141601.042000", "141601.045000", "141640.971000", "141640.975000", "141640.979000", "141640.991000", "141640.994000", "141640.998000", "141641.002000", "141641.006000", "141641.009000", "141641.012000", "141641.016000", "141641.019000", "141641.022000", "141641.026000", "141641.029000", "141641.033000", "141641.036000", "141641.039000", "141641.043000", "141641.046000", "141641.050000", "141641.053000", "141641.056000", "141641.060000", "141641.063000", "141641.066000", "141641.085000", "141641.089000", "141641.092000", "141641.096000", "141641.099000", "141720.971000", "141720.975000", "141720.978000", "141720.982000", "141720.985000", "141720.989000", "141720.992000", "141720.996000", "141721.000000", "141721.004000", "141721.007000", "141721.010000", "141721.014000", "141721.017000", "141721.020000", "141721.024000", "141721.027000", "141721.031000", "141721.034000", "141721.038000", "141721.041000", "141721.045000", "141721.048000", "141721.051000", "141721.055000", "141721.058000", "141721.061000", "141800.971000", "141800.975000", "141800.979000", "141800.982000", "141800.986000", "141800.989000", "141800.992000", "141800.996000", "141801.000000", "141801.004000", "141801.007000", "141801.011000", "141801.014000", "141801.017000", "141801.021000", "141801.025000", "141801.028000", "141801.031000", "141801.035000", "141801.038000", "141801.042000", "141801.045000", "141801.049000", "141801.052000", "141801.055000", "141801.059000", "141819.033000", "141819.037000", "141819.041000", "141819.044000", "141819.047000", "141819.051000", "141819.054000", "141819.058000", "141819.061000", "141819.064000", "141819.068000", "141819.071000", "141819.075000"],
      "InstanceNumber": [1, 2, 3, 4, 5, 6, 7, 8, 9, 10, 11, 12, 13, 14, 15, 16, 17, 18, 19, 20, 21, 22, 23, 24, 25, 26, 27, 28, 29, 30, 31, 32, 33, 34, 35, 36, 37, 38, 39, 40, 41, 42, 43, 44, 45, 46, 47, 48, 49, 50, 51, 52, 53, 54, 55, 56, 57, 58, 59, 60, 61, 62, 63, 64, 65, 66, 67, 68, 69, 70, 71, 72, 73, 74, 75, 76, 77, 78, 79, 80, 81, 82, 83, 84, 85, 86, 87, 88, 89, 90, 91, 92, 93, 94, 95, 96, 97, 98, 99, 100, 101, 102, 103, 104, 105, 106, 107, 108, 109, 110, 111, 112, 113, 114, 115, 116, 117, 118, 119, 120, 121, 122, 123, 124, 125, 126, 127, 128, 129, 130, 131, 132, 133, 134, 135, 136, 137, 138, 139, 140, 141, 142, 143, 144, 145, 146, 147, 148, 149, 150, 151, 152, 153, 154, 155, 156, 157, 158, 159, 160, 161, 162, 163, 164, 165, 166, 167, 168, 169, 170, 171, 172, 173, 174, 175, 176, 177, 178, 179, 180, 181, 182, 183, 184, 185, 186, 187, 188, 189, 190],
      "LargestImagePixelValue": [39277, 38672, 38171, 38135, 37605, 37210, 37429, 38303, 37230, 37197, 37367, 37196, 37156, 36935, 37134, 37217, 37020, 37154, 37062, 37375, 37393, 37053, 37210, 36631, 37320, 37079, 37437, 37431, 37133, 36804, 37077, 37573, 37092, 37103, 37164, 37218, 37673, 37633, 37050, 37306, 37257, 36756, 37087, 36891, 36668, 36749, 36820, 36991, 36716, 37037, 37110, 37651, 36935, 37193, 37405, 37415, 37363, 37651, 37323, 37319, 37447, 37672, 37133, 37381, 37554, 37060, 37610, 37457, 37397, 37682, 37372, 37026, 37352, 36990, 36833, 36815, 36748, 36867, 37013, 36924, 36614, 37017, 37127, 36869, 36971, 37361, 36802, 36916, 36718, 37024, 36747, 37013, 36688, 36891, 37066, 36378, 36559, 37020, 36596, 36753, 36858, 36759, 36838, 36784, 37241, 36763, 36945, 36964, 36970, 36881, 36831, 36213, 36716, 36907, 36802, 36343, 36525, 36036, 36062, 35650, 36310, 35882, 35919, 35793, 36090, 36456, 36433, 36642, 36207, 36488, 36104, 36380, 36137, 36143, 36639, 36802, 36635, 36573, 36539, 36690, 36755, 36825, 36702, 36732, 36562, 36253, 37063, 36821, 36749, 36635, 36349, 36110, 36768, 36553, 36707, 36173, 36472, 36175, 36243, 36120, 36534, 36991, 36564, 36377, 36290, 36358, 36387, 36332, 36205, 35934, 35876, 36120, 35855, 36601, 36200, 36415, 35908, 35748, 35888, 36064, 35812, 36258, 36216, 35961, 36059, 35987, 36370, 36245, 36446, 35893],
      "WindowCenter": [10029.0, 9997.0, 9979.0, 9977.0, 9978.0, 9965.0, 9988.0, 10004.0, 9974.0, 9983.0, 9989.0, 9983.0, 9982.0, 9974.0, 9973.0, 9973.0, 9974.0, 9964.0, 9961.0, 9961.0, 9969.0, 9965.0, 9966.0, 9959.0, 9969.0, 9969.0, 9970.0, 9971.0, 9970.0, 9956.0, 9953.0, 9959.0, 9970.0, 9981.0, 9974.0, 9963.0, 9957.0, 9951.0, 9952.0, 9952.0, 9944.0, 9929.0, 9934.0, 9937.0, 9947.0, 9961.0, 9963.0, 9963.0, 9957.0, 9962.0, 9955.0, 9966.0, 9964.0, 9970.0, 9970.0, 9968.0, 9969.0, 9976.0, 9975.0, 9961.0, 9952.0, 9960.0, 9970.0, 9986.0, 9981.0, 9964.0, 9959.0, 9966.0, 9978.0, 9979.0, 9976.0, 9962.0, 9960.0, 9955.0, 9938.0, 9929.0, 9925.0, 9926.0, 9941.0, 9952.0, 9948.0, 9961.0, 9961.0, 9954.0, 9945.0, 9959.0, 9961.0, 9955.0, 9946.0, 9951.0, 9953.0, 9961.0, 9954.0, 9943.0, 9942.0, 9953.0, 9972.0, 9978.0, 9957.0, 9937.0, 9934.0, 9941.0, 9944.0, 9960.0, 9961.0, 9968.0, 9971.0, 9971.0, 9961.0, 9945.0, 9934.0, 9936.0, 9944.0, 9935.0, 9934.0, 9928.0, 9919.0, 9904.0, 9903.0, 9906.0, 9913.0, 9906.0, 9906.0, 9914.0, 9914.0, 9927.0, 9943.0, 9952.0, 9931.0, 9921.0, 9920.0, 9936.0, 9954.0, 9966.0, 9965.0, 9960.0, 9954.0, 9956.0, 9955.0, 9961.0, 9953.0, 9938.0, 9936.0, 9945.0, 9961.0, 9965.0, 9955.0, 9937.0, 9934.0, 9938.0, 9948.0, 9951.0, 9948.0, 9931.0, 9935.0, 9939.0, 9962.0, 9965.0, 9958.0, 9950.0, 9955.0, 9961.0, 9955.0, 9946.0, 9945.0, 9947.0, 9962.0, 9949.0, 9930.0, 9905.0, 9906.0, 9937.0, 9964.0, 9972.0, 9957.0, 9930.0, 9911.0, 9913.0, 9936.0, 9955.0, 9959.0, 9959.0, 9941.0, 9923.0, 9925.0, 9953.0, 9987.0, 9983.0, 9963.0, 9930.0],
      "WindowWidth": [21314.0, 21220.0, 21170.0, 21157.0, 21155.0, 21129.0, 21177.0, 21212.0, 21149.0, 21167.0, 21180.0, 21166.0, 21163.0, 21146.0, 21145.0, 21147.0, 21148.0, 21126.0, 21114.0, 21113.0, 21131.0, 21126.0, 21128.0, 21116.0, 21131.0, 21132.0, 21133.0, 21134.0, 21131.0, 21101.0, 21092.0, 21104.0, 21134.0, 21159.0, 21143.0, 21115.0, 21098.0, 21086.0, 21092.0, 21092.0, 21074.0, 21043.0, 21050.0, 21059.0, 21085.0, 21114.0, 21120.0, 21119.0, 21109.0, 21116.0, 21103.0, 21124.0, 21122.0, 21135.0, 21134.0, 21125.0, 21129.0, 21144.0, 21141.0, 21110.0, 21092.0, 21107.0, 21136.0, 21168.0, 21159.0, 21122.0, 21106.0, 21121.0, 21150.0, 21154.0, 21144.0, 21112.0, 21108.0, 21099.0, 21062.0, 21042.0, 21031.0, 21036.0, 21067.0, 21093.0, 21088.0, 21113.0, 21114.0, 21099.0, 21079.0, 21108.0, 21116.0, 21102.0, 21083.0, 21092.0, 21098.0, 21113.0, 21099.0, 21073.0, 21070.0, 21098.0, 21140.0, 21151.0, 21105.0, 21058.0, 21051.0, 21068.0, 21076.0, 21110.0, 21116.0, 21129.0, 21136.0, 21135.0, 21111.0, 21080.0, 21054.0, 21059.0, 21074.0, 21054.0, 21047.0, 21040.0, 21019.0, 20986.0, 20985.0, 20997.0, 21009.0, 20997.0, 20996.0, 21011.0, 21013.0, 21038.0, 21073.0, 21090.0, 21049.0, 21023.0, 21022.0, 21059.0, 21101.0, 21132.0, 21126.0, 21110.0, 21098.0, 21104.0, 21103.0, 21113.0, 21094.0, 21063.0, 21058.0, 21079.0, 21115.0, 21124.0, 21098.0, 21058.0, 21052.0, 21066.0, 21088.0, 21096.0, 21086.0, 21048.0, 21053.0, 21072.0, 21120.0, 21127.0, 21111.0, 21095.0, 21102.0, 21114.0, 21102.0, 21083.0, 21081.0, 21087.0, 21119.0, 21091.0, 21046.0, 20992.0, 20998.0, 21064.0, 21127.0, 21141.0, 21105.0, 21042.0, 21002.0, 21010.0, 21064.0, 21104.0, 21118.0, 21113.0, 21074.0, 21031.0, 21033.0, 21098.0, 21171.0, 21163.0, 21116.0, 21041.0]
    },
    "slices": {}
  }
}