{
  "AcquisitionMatrixPE": 104,
  "AcquisitionNumber": 1,
  "AcquisitionTime": "13:55:18.270000",
  "BandwidthPerPixelPhaseEncode": 17.17,
  "BaseResolution": 104,
  "BodyPartExamined": "BRAIN",
  "CoilString": "HC1-7;NC1_2",
  "ConsistencyInfo": "N4_VE11C_LATEST_20160120",
  "ConversionSoftware": "dcm2niix",
  "ConversionSoftwareVersion": "v1.0.20190902",
  "DerivedVendorReportedEchoSpacing": 0.000560011,
  "DeviceSerialNumber": "167006",
  "DwellTime": 2.1e-06,
  "EchoTime": 0.037,
  "EchoTrainLength": 104,
  "EffectiveEchoSpacing": 0.000560011,
  "FlipAngle": 52,
  "ImageComments": "Unaliased_MB4_PE3_LB",
  "ImageOrientationPatientDICOM": [0.998846, 0.0069901, 0.0475267, 0.00732209, 0.955643, -0.294438],
  "ImageType": [
    "ORIGINAL",
    "PRIMARY",
    "P",
    "MB",
    "ND",
    "MOSAIC"
],
  "ImagingFrequency": 123.259,
  "InPlanePhaseEncodingDirectionDICOM": "COL",
  "InstitutionAddress": "Chemin_Queen-Mary_4565_Montreal_District_CA_H3W_1W5",
  "InstitutionName": "IUGM",
  "InstitutionalDepartmentName": "Department",
  "MRAcquisitionType": "2D",
  "MagneticFieldStrength": 3,
  "Manufacturer": "Siemens",
  "ManufacturersModelName": "Prisma_fit",
  "Modality": "MR",
  "MultibandAccelerationFactor": 4,
  "PartialFourier": 1,
  "PatientPosition": "HFS",
  "PercentPhaseFOV": 100,
  "PhaseEncodingDirection": "j",
  "PhaseEncodingSteps": 104,
  "PhaseResolution": 1,
  "PixelBandwidth": 2290,
  "ProcedureStepDescription": "memory_things",
  "ProtocolName": "func_task-things_run-1",
  "PulseSequenceDetails": "%CustomerSeq%_cmrr_mbep2d_bold",
  "ReceiveCoilActiveElements": "HC1-7;NC1,2",
  "ReceiveCoilName": "HeadNeck_64",
  "ReconMatrixPE": 104,
  "RepetitionTime": 1.49,
  "SAR": 0.0546261,
  "ScanOptions": "FS",
  "ScanningSequence": "EP",
  "SequenceName": "epfid2d1_104",
  "SequenceVariant": "SK_SS",
  "SeriesDescription": "func_task-things_run-1",
  "SeriesNumber": 11,
  "ShimSetting": [643, -7205, -8823, 701, 50, 15, -5, 22],
  "SliceThickness": 2,
  "SliceTiming": [0, 0.785, 0.0975, 0.8825, 0.1975, 0.98, 0.295, 1.0775, 0.3925, 1.175, 0.49, 1.275, 0.5875, 1.3725, 0.6875, 0, 0.785, 0.0975, 0.8825, 0.1975, 0.98, 0.295, 1.0775, 0.3925, 1.175, 0.49, 1.275, 0.5875, 1.3725, 0.6875, 0, 0.785, 0.0975, 0.8825, 0.1975, 0.98, 0.295, 1.0775, 0.3925, 1.175, 0.49, 1.275, 0.5875, 1.3725, 0.6875, 0, 0.785, 0.0975, 0.8825, 0.1975, 0.98, 0.295, 1.0775, 0.3925, 1.175, 0.49, 1.275, 0.5875, 1.3725, 0.6875],
  "SoftwareVersions": "syngo_MR_E11",
  "SpacingBetweenSlices": 2,
  "StationName": "MRC35049",
  "TaskName": "things",
  "TotalReadoutTime": 0.0576811,
  "TxRefAmp": 239.782,
  "WipMemBlock": "6f1114ca-bc62-4325-8361-8ab62b87410a||Sequence: R016 ve11c/master r/e634e98; Dec 19 2017 11:00:25 by eja",
  "dcmmeta_affine": [
    [-1.997691035270691, 0.014644172042608261, 0.09495343267917633, 105.92494201660156],
    [-0.013980205170810223, 1.911285161972046, -0.5888919830322266, -71.2254409790039],
    [0.09505346417427063, 0.5888758301734924, 1.9089761972427368, -78.9480972290039],
    [0.0, 0.0, 0.0, 1.0]
],
  "dcmmeta_reorient_transform": [
    [0.0, -1.0, 0.0, 103.0],
    [1.0, 0.0, 0.0, 0.0],
    [0.0, 0.0, 1.0, 0.0],
    [0.0, 0.0, 0.0, 1.0]
],
  "dcmmeta_shape": [104, 104, 60, 190],
  "dcmmeta_slice_dim": 2,
  "dcmmeta_version": 0.6,
  "global": {
    "const": {
      "AcquisitionMatrix": [104, 0, 0, 104],
      "AngioFlag": "N",
      "BitsAllocated": 16,
      "BitsStored": 16,
      "BodyPartExamined": "BRAIN",
      "Columns": 832,
      "EchoNumbers": 1,
      "EchoTime": 37.0,
      "EchoTrainLength": 104,
      "FlipAngle": 52.0,
      "HighBit": 15,
      "ImageOrientationPatient": [0.99884550768072, 0.00699010272526, 0.04752673195093, 0.00732208580965, 0.95564255741766, -0.2944379213207],
      "ImagePositionPatient": [-839.92329621866, -826.43349984108, 161.457460935],
      "ImageType": [
        "ORIGINAL",
        "PRIMARY",
        "P",
        "MB",
        "ND",
        "MOSAIC"
],
      "ImagedNucleus": "1H",
      "ImagingFrequency": 123.258983,
      "InPlanePhaseEncodingDirection": "COL",
      "LargestImagePixelValue": 4095,
      "MRAcquisitionType": "2D",
      "MagneticFieldStrength": 3.0,
      "Manufacturer": "SIEMENS",
      "ManufacturerModelName": "Prisma_fit",
      "Modality": "MR",
      "NumberOfAverages": 1.0,
      "NumberOfPhaseEncodingSteps": 104,
      "PercentPhaseFieldOfView": 100.0,
      "PercentSampling": 100.0,
      "PerformedProcedureStepStartTime": "130540.998000",
      "PhotometricInterpretation": "MONOCHROME2",
      "PixelBandwidth": 2290.0,
      "PixelRepresentation": 0,
      "PixelSpacing": [2.0, 2.0],
      "ProtocolName": "func_task-things_run-1",
      "RepetitionTime": 1490.0,
      "RescaleIntercept": -4096.0,
      "RescaleSlope": 2.0,
      "RescaleType": "US",
      "Rows": 832,
      "SAR": 0.05462609069343,
      "SamplesPerPixel": 1,
      "ScanOptions": "FS",
      "ScanningSequence": "EP",
      "SequenceName": "epfid2d1_104",
      "SequenceVariant": [
        "SK",
        "SS"
],
      "SeriesDescription": "func_task-things_run-1",
      "SeriesNumber": 11,
      "SeriesTime": "135636.337000",
      "SliceLocation": -49.354003536051,
      "SliceThickness": 2.0,
      "SmallestImagePixelValue": 0,
      "SoftwareVersions": "syngo MR E11",
      "SpacingBetweenSlices": 1.9999999663399,
      "SpecificCharacterSet": "ISO_IR 100",
      "StudyID": "1",
      "StudyTime": "130540.892000",
      "TransmitCoilName": "Body",
      "VariableFlipAngleFlag": "N",
      "WindowCenterWidthExplanation": "Algo1",
      "dBdt": 0.0},
    "slices": {}
  },
  "time": {
    "samples": {
      "AcquisitionNumber": [1, 2, 3, 4, 5, 6, 7, 8, 9, 10, 11, 12, 13, 14, 15, 16, 17, 18, 19, 20, 21, 22, 23, 24, 25, 26, 27, 28, 29, 30, 31, 32, 33, 34, 35, 36, 37, 38, 39, 40, 41, 42, 43, 44, 45, 46, 47, 48, 49, 50, 51, 52, 53, 54, 55, 56, 57, 58, 59, 60, 61, 62, 63, 64, 65, 66, 67, 68, 69, 70, 71, 72, 73, 74, 75, 76, 77, 78, 79, 80, 81, 82, 83, 84, 85, 86, 87, 88, 89, 90, 91, 92, 93, 94, 95, 96, 97, 98, 99, 100, 101, 102, 103, 104, 105, 106, 107, 108, 109, 110, 111, 112, 113, 114, 115, 116, 117, 118, 119, 120, 121, 122, 123, 124, 125, 126, 127, 128, 129, 130, 131, 132, 133, 134, 135, 136, 137, 138, 139, 140, 141, 142, 143, 144, 145, 146, 147, 148, 149, 150, 151, 152, 153, 154, 155, 156, 157, 158, 159, 160, 161, 162, 163, 164, 165, 166, 167, 168, 169, 170, 171, 172, 173, 174, 175, 176, 177, 178, 179, 180, 181, 182, 183, 184, 185, 186, 187, 188, 189, 190],
      "AcquisitionTime": ["135518.270000", "135519.760000", "135521.250000", "135522.740000", "135524.230000", "135525.720000", "135527.210000", "135528.700000", "135530.190000", "135531.680000", "135533.170000", "135534.660000", "135536.150000", "135537.640000", "135539.130000", "135540.620000", "135542.110000", "135543.600000", "135545.090000", "135546.580000", "135548.070000", "135549.560000", "135551.050000", "135552.540000", "135554.030000", "135555.520000", "135557.010000", "135558.500000", "135559.990000", "135601.480000", "135602.970000", "135604.460000", "135605.950000", "135607.440000", "135608.930000", "135610.420000", "135611.910000", "135613.400000", "135614.890000", "135616.380000", "135617.870000", "135619.360000", "135620.850000", "135622.340000", "135623.830000", "135625.320000", "135626.810000", "135628.300000", "135629.790000", "135631.280000", "135632.770000", "135634.260000", "135635.750000", "135637.240000", "135638.730000", "135640.220000", "135641.710000", "135643.200000", "135644.690000", "135646.180000", "135647.670000", "135649.160000", "135650.650000", "135652.140000", "135653.630000", "135655.120000", "135656.610000", "135658.100000", "135659.590000", "135701.080000", "135702.570000", "135704.060000", "135705.550000", "135707.040000", "135708.530000", "135710.020000", "135711.510000", "135713.000000", "135714.490000", "135715.980000", "135717.470000", "135718.960000", "135720.450000", "135721.940000", "135723.430000", "135724.920000", "135726.410000", "135727.900000", "135729.390000", "135730.880000", "135732.370000", "135733.860000", "135735.350000", "135736.840000", "135738.330000", "135739.820000", "135741.310000", "135742.800000", "135744.290000", "135745.780000", "135747.270000", "135748.760000", "135750.250000", "135751.740000", "135753.230000", "135754.720000", "135756.210000", "135757.700000", "135759.190000", "135800.680000", "135802.170000", "135803.660000", "135805.150000", "135806.640000", "135808.130000", "135809.620000", "135811.110000", "135812.600000", "135814.090000", "135815.580000", "135817.070000", "135818.560000", "135820.050000", "135821.540000", "135823.030000", "135824.520000", "135826.010000", "135827.500000", "135828.990000", "135830.480000", "135831.970000", "135833.460000", "135834.950000", "135836.440000", "135837.930000", "135839.420000", "135840.910000", "135842.400000", "135843.890000", "135845.380000", "135846.870000", "135848.360000", "135849.850000", "135851.340000", "135852.830000", "135854.320000", "135855.810000", "135857.300000", "135858.790000", "135900.280000", "135901.770000", "135903.260000", "135904.750000", "135906.240000", "135907.730000", "135909.220000", "135910.710000", "135912.200000", "135913.690000", "135915.180000", "135916.670000", "135918.160000", "135919.650000", "135921.140000", "135922.630000", "135924.120000", "135925.610000", "135927.100000", "135928.590000", "135930.080000", "135931.570000", "135933.060000", "135934.550000", "135936.040000", "135937.530000", "135939.020000", "135940.510000", "135942.000000", "135943.490000", "135944.980000", "135946.470000", "135947.960000", "135949.450000", "135950.940000", "135952.430000", "135953.920000", "135955.410000", "135956.900000", "135958.390000", "135959.880000"],
      "ContentTime": ["135636.339000", "135636.342000", "135636.345000", "135636.348000", "135636.351000", "135636.353000", "135636.356000", "135636.359000", "135636.361000", "135636.364000", "135636.366000", "135636.369000", "135636.372000", "135636.379000", "135636.382000", "135636.384000", "135636.387000", "135636.390000", "135636.392000", "135636.395000", "135636.397000", "135636.400000", "135636.403000", "135656.285000", "135656.288000", "135656.290000", "135656.293000", "135656.295000", "135656.301000", "135656.304000", "135656.306000", "135656.309000", "135656.311000", "135656.314000", "135656.316000", "135656.319000", "135656.322000", "135656.324000", "135656.327000", "135656.329000", "135656.332000", "135656.335000", "135656.337000", "135716.295000", "135716.298000", "135716.301000", "135716.303000", "135716.306000", "135716.308000", "135716.311000", "135716.314000", "135716.316000", "135716.319000", "135716.321000", "135716.324000", "135716.326000", "135716.329000", "135716.332000", "135716.334000", "135716.337000", "135716.339000", "135716.342000", "135716.344000", "135736.295000", "135736.298000", "135736.300000", "135736.303000", "135736.306000", "135736.308000", "135736.311000", "135736.313000", "135736.316000", "135736.319000", "135736.321000", "135736.324000", "135736.326000", "135736.329000", "135736.337000", "135736.340000", "135736.342000", "135736.345000", "135736.348000", "135736.350000", "135756.288000", "135756.291000", "135756.294000", "135756.296000", "135756.299000", "135756.302000", "135756.304000", "135756.307000", "135756.309000", "135756.312000", "135756.315000", "135756.317000", "135756.320000", "135756.322000", "135756.325000", "135756.327000", "135756.330000", "135756.333000", "135756.335000", "135756.338000", "135836.758000", "135836.761000", "135836.764000", "135836.766000", "135836.769000", "135836.772000", "135836.774000", "135836.777000", "135836.779000", "135836.782000", "135836.784000", "135836.787000", "135836.790000", "135836.792000", "135836.795000", "135836.797000", "135836.800000", "135836.802000", "135836.805000", "135836.808000", "135836.810000", "135836.813000", "135836.815000", "135836.818000", "135836.821000", "135836.823000", "135836.826000", "135836.828000", "135836.831000", "135916.326000", "135916.329000", "135916.332000", "135916.334000", "135916.337000", "135916.340000", "135916.342000", "135916.345000", "135916.347000", "135916.350000", "135916.352000", "135916.355000", "135916.358000", "135916.360000", "135916.363000", "135916.365000", "135916.368000", "135916.371000", "135916.373000", "135916.376000", "135916.378000", "135916.381000", "135916.384000", "135916.386000", "135916.389000", "135916.392000", "135916.394000", "135956.346000", "135956.349000", "135956.357000", "135956.359000", "135956.362000", "135956.364000", "135956.367000", "135956.370000", "135956.372000", "135956.375000", "135956.377000", "135956.380000", "135956.383000", "135956.385000", "135956.388000", "135956.390000", "135956.393000", "135956.395000", "135956.398000", "135956.401000", "135956.403000", "135956.406000", "135956.409000", "135956.411000", "135956.414000", "135956.416000", "135956.419000", "140002.204000", "140002.206000", "140002.209000", "140002.212000"],
      "InstanceCreationTime": ["135636.339000", "135636.342000", "135636.345000", "135636.348000", "135636.351000", "135636.353000", "135636.356000", "135636.359000", "135636.361000", "135636.364000", "135636.366000", "135636.369000", "135636.372000", "135636.379000", "135636.382000", "135636.384000", "135636.387000", "135636.390000", "135636.392000", "135636.395000", "135636.397000", "135636.400000", "135636.403000", "135656.285000", "135656.288000", "135656.290000", "135656.293000", "135656.295000", "135656.301000", "135656.304000", "135656.306000", "135656.309000", "135656.311000", "135656.314000", "135656.316000", "135656.319000", "135656.322000", "135656.324000", "135656.327000", "135656.329000", "135656.332000", "135656.335000", "135656.337000", "135716.295000", "135716.298000", "135716.301000", "135716.303000", "135716.306000", "135716.308000", "135716.311000", "135716.314000", "135716.316000", "135716.319000", "135716.321000", "135716.324000", "135716.326000", "135716.329000", "135716.332000", "135716.334000", "135716.337000", "135716.339000", "135716.342000", "135716.344000", "135736.295000", "135736.298000", "135736.300000", "135736.303000", "135736.306000", "135736.308000", "135736.311000", "135736.313000", "135736.316000", "135736.319000", "135736.321000", "135736.324000", "135736.326000", "135736.329000", "135736.337000", "135736.340000", "135736.342000", "135736.345000", "135736.348000", "135736.350000", "135756.288000", "135756.291000", "135756.294000", "135756.296000", "135756.299000", "135756.302000", "135756.304000", "135756.307000", "135756.309000", "135756.312000", "135756.315000", "135756.317000", "135756.320000", "135756.322000", "135756.325000", "135756.327000", "135756.330000", "135756.333000", "135756.335000", "135756.338000", "135836.758000", "135836.761000", "135836.764000", "135836.766000", "135836.769000", "135836.772000", "135836.774000", "135836.777000", "135836.779000", "135836.782000", "135836.784000", "135836.787000", "135836.790000", "135836.792000", "135836.795000", "135836.797000", "135836.800000", "135836.802000", "135836.805000", "135836.808000", "135836.810000", "135836.813000", "135836.815000", "135836.818000", "135836.821000", "135836.823000", "135836.826000", "135836.828000", "135836.831000", "135916.326000", "135916.329000", "135916.332000", "135916.334000", "135916.337000", "135916.340000", "135916.342000", "135916.345000", "135916.347000", "135916.350000", "135916.352000", "135916.355000", "135916.358000", "135916.360000", "135916.363000", "135916.365000", "135916.368000", "135916.371000", "135916.373000", "135916.376000", "135916.378000", "135916.381000", "135916.384000", "135916.386000", "135916.389000", "135916.392000", "135916.394000", "135956.346000", "135956.349000", "135956.357000", "135956.359000", "135956.362000", "135956.364000", "135956.367000", "135956.370000", "135956.372000", "135956.375000", "135956.377000", "135956.380000", "135956.383000", "135956.385000", "135956.388000", "135956.390000", "135956.393000", "135956.395000", "135956.398000", "135956.401000", "135956.403000", "135956.406000", "135956.409000", "135956.411000", "135956.414000", "135956.416000", "135956.419000", "140002.204000", "140002.206000", "140002.209000", "140002.212000"],
      "InstanceNumber": [1, 2, 3, 4, 5, 6, 7, 8, 9, 10, 11, 12, 13, 14, 15, 16, 17, 18, 19, 20, 21, 22, 23, 24, 25, 26, 27, 28, 29, 30, 31, 32, 33, 34, 35, 36, 37, 38, 39, 40, 41, 42, 43, 44, 45, 46, 47, 48, 49, 50, 51, 52, 53, 54, 55, 56, 57, 58, 59, 60, 61, 62, 63, 64, 65, 66, 67, 68, 69, 70, 71, 72, 73, 74, 75, 76, 77, 78, 79, 80, 81, 82, 83, 84, 85, 86, 87, 88, 89, 90, 91, 92, 93, 94, 95, 96, 97, 98, 99, 100, 101, 102, 103, 104, 105, 106, 107, 108, 109, 110, 111, 112, 113, 114, 115, 116, 117, 118, 119, 120, 121, 122, 123, 124, 125, 126, 127, 128, 129, 130, 131, 132, 133, 134, 135, 136, 137, 138, 139, 140, 141, 142, 143, 144, 145, 146, 147, 148, 149, 150, 151, 152, 153, 154, 155, 156, 157, 158, 159, 160, 161, 162, 163, 164, 165, 166, 167, 168, 169, 170, 171, 172, 173, 174, 175, 176, 177, 178, 179, 180, 181, 182, 183, 184, 185, 186, 187, 188, 189, 190],
      "WindowCenter": [4752.0, 4758.0, 4758.0, 4754.0, 4758.0, 4754.0, 4756.0, 4756.0, 4758.0, 4754.0, 4756.0, 4754.0, 4756.0, 4756.0, 4756.0, 4760.0, 4756.0, 4754.0, 4758.0, 4756.0, 4758.0, 4756.0, 4756.0, 4756.0, 4754.0, 4754.0, 4758.0, 4756.0, 4758.0, 4756.0, 4756.0, 4754.0, 4756.0, 4754.0, 4752.0, 4756.0, 4756.0, 4756.0, 4758.0, 4754.0, 4758.0, 4758.0, 4756.0, 4754.0, 4756.0, 4754.0, 4756.0, 4756.0, 4760.0, 4756.0, 4754.0, 4756.0, 4760.0, 4756.0, 4758.0, 4756.0, 4756.0, 4758.0, 4756.0, 4760.0, 4758.0, 4760.0, 4756.0, 4758.0, 4760.0, 4756.0, 4756.0, 4758.0, 4756.0, 4756.0, 4758.0, 4756.0, 4758.0, 4758.0, 4756.0, 4758.0, 4758.0, 4758.0, 4756.0, 4756.0, 4758.0, 4756.0, 4758.0, 4760.0, 4758.0, 4758.0, 4756.0, 4760.0, 4752.0, 4756.0, 4756.0, 4758.0, 4758.0, 4758.0, 4760.0, 4756.0, 4758.0, 4756.0, 4758.0, 4758.0, 4758.0, 4758.0, 4756.0, 4756.0, 4754.0, 4754.0, 4758.0, 4758.0, 4758.0, 4756.0, 4760.0, 4754.0, 4756.0, 4756.0, 4754.0, 4756.0, 4758.0, 4756.0, 4758.0, 4760.0, 4754.0, 4758.0, 4756.0, 4754.0, 4758.0, 4756.0, 4758.0, 4758.0, 4758.0, 4760.0, 4758.0, 4758.0, 4756.0, 4756.0, 4756.0, 4762.0, 4754.0, 4760.0, 4756.0, 4756.0, 4758.0, 4756.0, 4758.0, 4758.0, 4758.0, 4754.0, 4758.0, 4756.0, 4762.0, 4758.0, 4760.0, 4760.0, 4760.0, 4760.0, 4760.0, 4756.0, 4758.0, 4754.0, 4754.0, 4760.0, 4758.0, 4762.0, 4756.0, 4760.0, 4758.0, 4760.0, 4760.0, 4758.0, 4758.0, 4762.0, 4760.0, 4756.0, 4758.0, 4760.0, 4758.0, 4758.0, 4760.0, 4758.0, 4756.0, 4760.0, 4756.0, 4758.0, 4760.0, 4756.0, 4762.0, 4756.0, 4760.0, 4756.0, 4760.0, 4758.0],
      "WindowWidth": [18540.0, 18542.0, 18544.0, 18536.0, 18540.0, 18540.0, 18540.0, 18544.0, 18544.0, 18538.0, 18540.0, 18538.0, 18540.0, 18538.0, 18534.0, 18544.0, 18540.0, 18538.0, 18542.0, 18542.0, 18542.0, 18540.0, 18542.0, 18544.0, 18540.0, 18536.0, 18544.0, 18538.0, 18542.0, 18538.0, 18534.0, 18542.0, 18540.0, 18534.0, 18536.0, 18540.0, 18538.0, 18536.0, 18532.0, 18540.0, 18542.0, 18540.0, 18538.0, 18538.0, 18536.0, 18538.0, 18534.0, 18540.0, 18538.0, 18536.0, 18534.0, 18540.0, 18540.0, 18540.0, 18538.0, 18538.0, 18542.0, 18538.0, 18536.0, 18540.0, 18536.0, 18538.0, 18536.0, 18536.0, 18544.0, 18536.0, 18536.0, 18538.0, 18534.0, 18538.0, 18536.0, 18536.0, 18532.0, 18534.0, 18538.0, 18542.0, 18542.0, 18534.0, 18538.0, 18540.0, 18534.0, 18540.0, 18536.0, 18538.0, 18532.0, 18532.0, 18536.0, 18536.0, 18534.0, 18538.0, 18532.0, 18536.0, 18532.0, 18538.0, 18538.0, 18538.0, 18538.0, 18534.0, 18534.0, 18536.0, 18538.0, 18532.0, 18534.0, 18540.0, 18540.0, 18536.0, 18534.0, 18538.0, 18532.0, 18536.0, 18536.0, 18538.0, 18536.0, 18538.0, 18540.0, 18538.0, 18540.0, 18536.0, 18538.0, 18534.0, 18534.0, 18534.0, 18534.0, 18534.0, 18534.0, 18540.0, 18538.0, 18538.0, 18536.0, 18536.0, 18534.0, 18534.0, 18536.0, 18540.0, 18534.0, 18540.0, 18538.0, 18540.0, 18536.0, 18536.0, 18540.0, 18530.0, 18540.0, 18536.0, 18536.0, 18538.0, 18532.0, 18536.0, 18536.0, 18540.0, 18540.0, 18540.0, 18536.0, 18536.0, 18538.0, 18534.0, 18540.0, 18534.0, 18534.0, 18536.0, 18536.0, 18540.0, 18538.0, 18538.0, 18534.0, 18540.0, 18534.0, 18534.0, 18536.0, 18542.0, 18540.0, 18536.0, 18536.0, 18536.0, 18540.0, 18538.0, 18540.0, 18544.0, 18528.0, 18540.0, 18530.0, 18540.0, 18538.0, 18540.0, 18536.0, 18534.0, 18536.0, 18536.0, 18534.0, 18538.0]
    },
    "slices": {}
  }
}