{
  "AcquisitionMatrixPE": 104,
  "AcquisitionNumber": 1,
  "AcquisitionTime": "14:19:35.142500",
  "BandwidthPerPixelPhaseEncode": 17.17,
  "BaseResolution": 104,
  "BodyPartExamined": "BRAIN",
  "CoilString": "HC1-7;NC1_2",
  "ConsistencyInfo": "N4_VE11C_LATEST_20160120",
  "ConversionSoftware": "dcm2niix",
  "ConversionSoftwareVersion": "v1.0.20190902",
  "DerivedVendorReportedEchoSpacing": 0.000560011,
  "DeviceSerialNumber": "167006",
  "DwellTime": 2.1e-06,
  "EchoTime": 0.037,
  "EchoTrainLength": 104,
  "EffectiveEchoSpacing": 0.000560011,
  "FlipAngle": 52,
  "ImageComments": "Unaliased_MB4_PE3_LB",
  "ImageOrientationPatientDICOM": [0.998846, 0.0069901, 0.0475267, 0.00732209, 0.955643, -0.294438],
  "ImageType": [
    "ORIGINAL",
    "PRIMARY",
    "M",
    "MB",
    "ND",
    "MOSAIC"
],
  "ImagingFrequency": 123.259,
  "InPlanePhaseEncodingDirectionDICOM": "COL",
  "InstitutionAddress": "Chemin_Queen-Mary_4565_Montreal_District_CA_H3W_1W5",
  "InstitutionName": "IUGM",
  "InstitutionalDepartmentName": "Department",
  "MRAcquisitionType": "2D",
  "MagneticFieldStrength": 3,
  "Manufacturer": "Siemens",
  "ManufacturersModelName": "Prisma_fit",
  "Modality": "MR",
  "MultibandAccelerationFactor": 4,
  "PartialFourier": 1,
  "PatientPosition": "HFS",
  "PercentPhaseFOV": 100,
  "PhaseEncodingDirection": "j",
  "PhaseEncodingSteps": 104,
  "PhaseResolution": 1,
  "PixelBandwidth": 2290,
  "ProcedureStepDescription": "memory_things",
  "ProtocolName": "func_task-things_run-5",
  "PulseSequenceDetails": "%CustomerSeq%_cmrr_mbep2d_bold",
  "ReceiveCoilActiveElements": "HC1-7;NC1,2",
  "ReceiveCoilName": "HeadNeck_64",
  "ReconMatrixPE": 104,
  "RepetitionTime": 1.49,
  "SAR": 0.0546261,
  "ScanOptions": "FS",
  "ScanningSequence": "EP",
  "SequenceName": "epfid2d1_104",
  "SequenceVariant": "SK_SS",
  "SeriesDescription": "func_task-things_run-5",
  "SeriesNumber": 22,
  "ShimSetting": [643, -7205, -8823, 701, 50, 15, -5, 22],
  "SliceThickness": 2,
  "SliceTiming": [0, 0.785, 0.0975, 0.8825, 0.1975, 0.98, 0.295, 1.0775, 0.3925, 1.1775, 0.49, 1.275, 0.5875, 1.3725, 0.6875, 0, 0.785, 0.0975, 0.8825, 0.1975, 0.98, 0.295, 1.0775, 0.3925, 1.1775, 0.49, 1.275, 0.5875, 1.3725, 0.6875, 0, 0.785, 0.0975, 0.8825, 0.1975, 0.98, 0.295, 1.0775, 0.3925, 1.1775, 0.49, 1.275, 0.5875, 1.3725, 0.6875, 0, 0.785, 0.0975, 0.8825, 0.1975, 0.98, 0.295, 1.0775, 0.3925, 1.1775, 0.49, 1.275, 0.5875, 1.3725, 0.6875],
  "SoftwareVersions": "syngo_MR_E11",
  "SpacingBetweenSlices": 2,
  "StationName": "MRC35049",
  "TaskName": "things",
  "TotalReadoutTime": 0.0576811,
  "TxRefAmp": 239.782,
  "WipMemBlock": "609a85cb-c215-47d1-ac65-1652d482a2dd||Sequence: R016 ve11c/master r/e634e98; Dec 19 2017 11:00:25 by eja",
  "dcmmeta_affine": [
    [-1.997691035270691, 0.014644172042608261, 0.09495343267917633, 105.92494201660156],
    [-0.013980205170810223, 1.911285161972046, -0.5888919830322266, -71.2254409790039],
    [0.09505346417427063, 0.5888758301734924, 1.9089761972427368, -78.9480972290039],
    [0.0, 0.0, 0.0, 1.0]
],
  "dcmmeta_reorient_transform": [
    [0.0, -1.0, 0.0, 103.0],
    [1.0, 0.0, 0.0, 0.0],
    [0.0, 0.0, 1.0, 0.0],
    [0.0, 0.0, 0.0, 1.0]
],
  "dcmmeta_shape": [104, 104, 60, 190],
  "dcmmeta_slice_dim": 2,
  "dcmmeta_version": 0.6,
  "global": {
    "const": {
      "AcquisitionMatrix": [104, 0, 0, 104],
      "AngioFlag": "N",
      "BitsAllocated": 16,
      "BitsStored": 16,
      "BodyPartExamined": "BRAIN",
      "Columns": 832,
      "EchoNumbers": 1,
      "EchoTime": 37.0,
      "EchoTrainLength": 104,
      "FlipAngle": 52.0,
      "HighBit": 15,
      "ImageOrientationPatient": [0.99884550768072, 0.00699010272526, 0.04752673195093, 0.00732208580965, 0.95564255741766, -0.2944379213207],
      "ImagePositionPatient": [-839.92329621866, -826.43349984108, 161.457460935],
      "ImageType": [
        "ORIGINAL",
        "PRIMARY",
        "M",
        "MB",
        "ND",
        "MOSAIC"
],
      "ImagedNucleus": "1H",
      "ImagingFrequency": 123.259,
      "InPlanePhaseEncodingDirection": "COL",
      "MRAcquisitionType": "2D",
      "MagneticFieldStrength": 3.0,
      "Manufacturer": "SIEMENS",
      "ManufacturerModelName": "Prisma_fit",
      "Modality": "MR",
      "NumberOfAverages": 1.0,
      "NumberOfPhaseEncodingSteps": 104,
      "PercentPhaseFieldOfView": 100.0,
      "PercentSampling": 100.0,
      "PerformedProcedureStepStartTime": "130540.998000",
      "PhotometricInterpretation": "MONOCHROME2",
      "PixelBandwidth": 2290.0,
      "PixelRepresentation": 0,
      "PixelSpacing": [2.0, 2.0],
      "ProtocolName": "func_task-things_run-5",
      "RepetitionTime": 1490.0,
      "Rows": 832,
      "SAR": 0.05462609069343,
      "SamplesPerPixel": 1,
      "ScanOptions": "FS",
      "ScanningSequence": "EP",
      "SequenceName": "epfid2d1_104",
      "SequenceVariant": [
        "SK",
        "SS"
],
      "SeriesDescription": "func_task-things_run-5",
      "SeriesNumber": 22,
      "SeriesTime": "142033.141000",
      "SliceLocation": -49.354003536051,
      "SliceThickness": 2.0,
      "SmallestImagePixelValue": 0,
      "SoftwareVersions": "syngo MR E11",
      "SpacingBetweenSlices": 1.9999999663399,
      "SpecificCharacterSet": "ISO_IR 100",
      "StudyID": "1",
      "StudyTime": "130540.892000",
      "TransmitCoilName": "Body",
      "VariableFlipAngleFlag": "N",
      "WindowCenterWidthExplanation": "Algo1",
      "dBdt": 0.0},
    "slices": {}
  },
  "time": {
    "samples": {
      "AcquisitionNumber": [1, 2, 3, 4, 5, 6, 7, 8, 9, 10, 11, 12, 13, 14, 15, 16, 17, 18, 19, 20, 21, 22, 23, 24, 25, 26, 27, 28, 29, 30, 31, 32, 33, 34, 35, 36, 37, 38, 39, 40, 41, 42, 43, 44, 45, 46, 47, 48, 49, 50, 51, 52, 53, 54, 55, 56, 57, 58, 59, 60, 61, 62, 63, 64, 65, 66, 67, 68, 69, 70, 71, 72, 73, 74, 75, 76, 77, 78, 79, 80, 81, 82, 83, 84, 85, 86, 87, 88, 89, 90, 91, 92, 93, 94, 95, 96, 97, 98, 99, 100, 101, 102, 103, 104, 105, 106, 107, 108, 109, 110, 111, 112, 113, 114, 115, 116, 117, 118, 119, 120, 121, 122, 123, 124, 125, 126, 127, 128, 129, 130, 131, 132, 133, 134, 135, 136, 137, 138, 139, 140, 141, 142, 143, 144, 145, 146, 147, 148, 149, 150, 151, 152, 153, 154, 155, 156, 157, 158, 159, 160, 161, 162, 163, 164, 165, 166, 167, 168, 169, 170, 171, 172, 173, 174, 175, 176, 177, 178, 179, 180, 181, 182, 183, 184, 185, 186, 187, 188, 189, 190],
      "AcquisitionTime": ["141935.142500", "141936.632500", "141938.122500", "141939.612500", "141941.102500", "141942.592500", "141944.082500", "141945.572500", "141947.062500", "141948.552500", "141950.042500", "141951.532500", "141953.022500", "141954.512500", "141956.002500", "141957.492500", "141958.982500", "142000.472500", "142001.962500", "142003.452500", "142004.942500", "142006.432500", "142007.922500", "142009.412500", "142010.902500", "142012.392500", "142013.882500", "142015.372500", "142016.862500", "142018.352500", "142019.842500", "142021.332500", "142022.822500", "142024.312500", "142025.802500", "142027.292500", "142028.782500", "142030.272500", "142031.762500", "142033.252500", "142034.742500", "142036.232500", "142037.722500", "142039.212500", "142040.702500", "142042.192500", "142043.682500", "142045.172500", "142046.662500", "142048.152500", "142049.642500", "142051.132500", "142052.622500", "142054.112500", "142055.602500", "142057.092500", "142058.582500", "142100.072500", "142101.562500", "142103.052500", "142104.542500", "142106.032500", "142107.522500", "142109.012500", "142110.502500", "142111.992500", "142113.482500", "142114.972500", "142116.462500", "142117.952500", "142119.442500", "142120.932500", "142122.422500", "142123.912500", "142125.402500", "142126.892500", "142128.382500", "142129.872500", "142131.362500", "142132.852500", "142134.342500", "142135.832500", "142137.322500", "142138.812500", "142140.302500", "142141.792500", "142143.282500", "142144.772500", "142146.262500", "142147.752500", "142149.242500", "142150.732500", "142152.222500", "142153.712500", "142155.202500", "142156.692500", "142158.182500", "142159.672500", "142201.162500", "142202.652500", "142204.142500", "142205.632500", "142207.122500", "142208.612500", "142210.102500", "142211.592500", "142213.082500", "142214.572500", "142216.062500", "142217.552500", "142219.042500", "142220.532500", "142222.022500", "142223.512500", "142225.002500", "142226.492500", "142227.982500", "142229.472500", "142230.962500", "142232.452500", "142233.942500", "142235.432500", "142236.922500", "142238.412500", "142239.902500", "142241.392500", "142242.882500", "142244.372500", "142245.862500", "142247.352500", "142248.842500", "142250.332500", "142251.822500", "142253.312500", "142254.802500", "142256.292500", "142257.782500", "142259.272500", "142300.762500", "142302.252500", "142303.742500", "142305.232500", "142306.722500", "142308.212500", "142309.702500", "142311.192500", "142312.682500", "142314.172500", "142315.662500", "142317.152500", "142318.642500", "142320.132500", "142321.622500", "142323.112500", "142324.602500", "142326.092500", "142327.582500", "142329.072500", "142330.562500", "142332.052500", "142333.542500", "142335.032500", "142336.522500", "142338.012500", "142339.502500", "142340.992500", "142342.482500", "142343.972500", "142345.462500", "142346.952500", "142348.442500", "142349.932500", "142351.422500", "142352.912500", "142354.402500", "142355.892500", "142357.382500", "142358.872500", "142400.362500", "142401.852500", "142403.342500", "142404.832500", "142406.322500", "142407.812500", "142409.302500", "142410.792500", "142412.282500", "142413.772500", "142415.262500", "142416.752500"],
      "ContentTime": ["142033.144000", "142033.148000", "142033.151000", "142053.102000", "142053.106000", "142053.110000", "142053.113000", "142053.116000", "142053.120000", "142053.123000", "142053.126000", "142053.130000", "142053.133000", "142053.137000", "142053.140000", "142053.148000", "142053.151000", "142053.155000", "142053.158000", "142053.162000", "142053.165000", "142053.169000", "142053.172000", "142113.103000", "142113.107000", "142113.111000", "142113.114000", "142113.117000", "142113.121000", "142113.124000", "142113.127000", "142113.131000", "142113.134000", "142113.138000", "142113.141000", "142113.145000", "142113.148000", "142113.151000", "142113.155000", "142113.158000", "142113.162000", "142113.165000", "142113.169000", "142133.102000", "142133.106000", "142133.109000", "142133.113000", "142133.116000", "142133.120000", "142133.123000", "142133.127000", "142133.130000", "142133.134000", "142133.137000", "142133.140000", "142133.144000", "142133.147000", "142133.151000", "142133.154000", "142133.158000", "142133.161000", "142133.165000", "142133.168000", "142153.102000", "142153.106000", "142153.110000", "142153.113000", "142153.116000", "142153.120000", "142153.123000", "142153.126000", "142153.130000", "142153.145000", "142153.149000", "142153.152000", "142153.155000", "142153.159000", "142153.162000", "142153.166000", "142153.169000", "142153.173000", "142153.176000", "142153.179000", "142213.102000", "142213.106000", "142213.110000", "142213.113000", "142213.116000", "142213.120000", "142213.123000", "142213.127000", "142213.130000", "142213.134000", "142213.137000", "142213.140000", "142213.144000", "142213.147000", "142213.151000", "142213.154000", "142213.158000", "142213.162000", "142213.165000", "142213.169000", "142253.102000", "142253.106000", "142253.129000", "142253.133000", "142253.136000", "142253.140000", "142253.143000", "142253.147000", "142253.150000", "142253.154000", "142253.157000", "142253.160000", "142253.164000", "142253.167000", "142253.171000", "142253.174000", "142253.177000", "142253.181000", "142253.184000", "142253.188000", "142253.191000", "142253.195000", "142253.198000", "142253.202000", "142253.205000", "142253.209000", "142253.212000", "142253.215000", "142253.219000", "142333.103000", "142333.107000", "142333.110000", "142333.114000", "142333.117000", "142333.121000", "142333.124000", "142333.128000", "142333.131000", "142333.135000", "142333.138000", "142333.142000", "142333.145000", "142333.149000", "142333.152000", "142333.155000", "142333.159000", "142333.162000", "142333.166000", "142333.169000", "142333.173000", "142333.176000", "142333.179000", "142333.183000", "142333.187000", "142333.190000", "142333.193000", "142413.102000", "142413.106000", "142413.110000", "142413.113000", "142413.117000", "142413.120000", "142413.124000", "142413.127000", "142413.131000", "142413.134000", "142413.138000", "142413.141000", "142413.145000", "142413.148000", "142413.151000", "142413.155000", "142413.159000", "142413.162000", "142413.166000", "142413.169000", "142413.172000", "142413.176000", "142413.179000", "142413.183000", "142413.186000", "142413.190000", "142413.193000", "142418.822000", "142418.826000", "142418.829000", "142418.832000"],
      "InstanceCreationTime": ["142033.144000", "142033.148000", "142033.151000", "142053.102000", "142053.106000", "142053.110000", "142053.113000", "142053.116000", "142053.120000", "142053.123000", "142053.126000", "142053.130000", "142053.133000", "142053.137000", "142053.140000", "142053.148000", "142053.151000", "142053.155000", "142053.158000", "142053.162000", "142053.165000", "142053.169000", "142053.172000", "142113.103000", "142113.107000", "142113.111000", "142113.114000", "142113.117000", "142113.121000", "142113.124000", "142113.127000", "142113.131000", "142113.134000", "142113.138000", "142113.141000", "142113.145000", "142113.148000", "142113.151000", "142113.155000", "142113.158000", "142113.162000", "142113.165000", "142113.169000", "142133.102000", "142133.106000", "142133.109000", "142133.113000", "142133.116000", "142133.120000", "142133.123000", "142133.127000", "142133.130000", "142133.134000", "142133.137000", "142133.140000", "142133.144000", "142133.147000", "142133.151000", "142133.154000", "142133.158000", "142133.161000", "142133.165000", "142133.168000", "142153.102000", "142153.106000", "142153.110000", "142153.113000", "142153.116000", "142153.120000", "142153.123000", "142153.126000", "142153.130000", "142153.145000", "142153.149000", "142153.152000", "142153.155000", "142153.159000", "142153.162000", "142153.166000", "142153.169000", "142153.173000", "142153.176000", "142153.179000", "142213.102000", "142213.106000", "142213.110000", "142213.113000", "142213.116000", "142213.120000", "142213.123000", "142213.127000", "142213.130000", "142213.134000", "142213.137000", "142213.140000", "142213.144000", "142213.147000", "142213.151000", "142213.154000", "142213.158000", "142213.162000", "142213.165000", "142213.169000", "142253.102000", "142253.106000", "142253.129000", "142253.133000", "142253.136000", "142253.140000", "142253.143000", "142253.147000", "142253.150000", "142253.154000", "142253.157000", "142253.160000", "142253.164000", "142253.167000", "142253.171000", "142253.174000", "142253.177000", "142253.181000", "142253.184000", "142253.188000", "142253.191000", "142253.195000", "142253.198000", "142253.202000", "142253.205000", "142253.209000", "142253.212000", "142253.215000", "142253.219000", "142333.103000", "142333.107000", "142333.110000", "142333.114000", "142333.117000", "142333.121000", "142333.124000", "142333.128000", "142333.131000", "142333.135000", "142333.138000", "142333.142000", "142333.145000", "142333.149000", "142333.152000", "142333.155000", "142333.159000", "142333.162000", "142333.166000", "142333.169000", "142333.173000", "142333.176000", "142333.179000", "142333.183000", "142333.187000", "142333.190000", "142333.193000", "142413.102000", "142413.106000", "142413.110000", "142413.113000", "142413.117000", "142413.120000", "142413.124000", "142413.127000", "142413.131000", "142413.134000", "142413.138000", "142413.141000", "142413.145000", "142413.148000", "142413.151000", "142413.155000", "142413.159000", "142413.162000", "142413.166000", "142413.169000", "142413.172000", "142413.176000", "142413.179000", "142413.183000", "142413.186000", "142413.190000", "142413.193000", "142418.822000", "142418.826000", "142418.829000", "142418.832000"],
      "InstanceNumber": [1, 2, 3, 4, 5, 6, 7, 8, 9, 10, 11, 12, 13, 14, 15, 16, 17, 18, 19, 20, 21, 22, 23, 24, 25, 26, 27, 28, 29, 30, 31, 32, 33, 34, 35, 36, 37, 38, 39, 40, 41, 42, 43, 44, 45, 46, 47, 48, 49, 50, 51, 52, 53, 54, 55, 56, 57, 58, 59, 60, 61, 62, 63, 64, 65, 66, 67, 68, 69, 70, 71, 72, 73, 74, 75, 76, 77, 78, 79, 80, 81, 82, 83, 84, 85, 86, 87, 88, 89, 90, 91, 92, 93, 94, 95, 96, 97, 98, 99, 100, 101, 102, 103, 104, 105, 106, 107, 108, 109, 110, 111, 112, 113, 114, 115, 116, 117, 118, 119, 120, 121, 122, 123, 124, 125, 126, 127, 128, 129, 130, 131, 132, 133, 134, 135, 136, 137, 138, 139, 140, 141, 142, 143, 144, 145, 146, 147, 148, 149, 150, 151, 152, 153, 154, 155, 156, 157, 158, 159, 160, 161, 162, 163, 164, 165, 166, 167, 168, 169, 170, 171, 172, 173, 174, 175, 176, 177, 178, 179, 180, 181, 182, 183, 184, 185, 186, 187, 188, 189, 190],
      "LargestImagePixelValue": [40440, 39579, 38419, 38155, 38056, 37944, 37772, 37594, 37807, 37587, 37829, 37789, 37781, 37598, 37764, 37668, 38116, 37744, 37671, 38133, 37498, 37595, 37900, 38086, 37460, 37783, 37659, 37819, 37812, 38093, 37703, 37195, 37574, 37893, 38034, 37829, 37704, 37536, 37812, 37470, 37902, 37418, 37870, 38040, 37864, 37721, 37849, 37654, 37995, 37875, 37525, 37775, 38166, 37927, 38130, 38143, 37771, 37786, 37586, 37836, 37949, 37759, 37938, 38095, 38234, 37752, 37837, 37654, 38149, 37625, 37787, 37863, 37422, 37724, 37499, 37214, 37413, 37874, 37933, 38177, 37792, 38051, 37907, 37623, 37421, 37599, 37562, 37944, 37940, 37824, 37564, 37301, 38065, 37594, 37520, 37752, 37521, 37777, 37540, 37669, 37695, 37528, 37741, 37965, 37922, 38002, 37461, 37676, 37848, 38381, 37856, 37698, 37608, 37842, 37258, 38058, 38031, 37931, 37824, 37657, 37973, 37735, 37913, 38441, 37892, 38191, 38043, 37784, 37977, 37909, 38104, 38015, 38010, 38224, 37715, 37594, 37936, 37942, 37839, 38214, 37329, 38001, 37938, 37973, 37857, 37214, 37294, 37375, 37672, 37887, 37987, 38426, 38004, 38415, 38136, 38266, 38066, 38346, 38511, 38544, 38230, 38020, 37637, 38192, 37730, 38156, 37912, 38089, 37908, 37828, 37733, 37770, 37444, 37976, 37916, 37740, 38137, 37811, 37838, 38082, 37507, 37689, 38213, 37861, 37877, 38050, 37914, 37767, 37719, 37440],
      "WindowCenter": [10251.0, 10226.0, 10205.0, 10180.0, 10163.0, 10167.0, 10167.0, 10170.0, 10176.0, 10172.0, 10170.0, 10169.0, 10157.0, 10158.0, 10158.0, 10153.0, 10155.0, 10157.0, 10152.0, 10164.0, 10162.0, 10167.0, 10175.0, 10181.0, 10162.0, 10164.0, 10159.0, 10156.0, 10155.0, 10171.0, 10174.0, 10163.0, 10162.0, 10152.0, 10142.0, 10140.0, 10148.0, 10134.0, 10116.0, 10092.0, 10101.0, 10113.0, 10127.0, 10136.0, 10133.0, 10138.0, 10146.0, 10149.0, 10164.0, 10182.0, 10177.0, 10159.0, 10139.0, 10128.0, 10134.0, 10170.0, 10201.0, 10194.0, 10157.0, 10142.0, 10128.0, 10123.0, 10130.0, 10147.0, 10155.0, 10166.0, 10164.0, 10159.0, 10180.0, 10185.0, 10184.0, 10168.0, 10167.0, 10183.0, 10204.0, 10215.0, 10198.0, 10164.0, 10140.0, 10144.0, 10149.0, 10181.0, 10188.0, 10188.0, 10167.0, 10153.0, 10142.0, 10140.0, 10147.0, 10167.0, 10167.0, 10168.0, 10179.0, 10177.0, 10170.0, 10175.0, 10187.0, 10196.0, 10181.0, 10167.0, 10166.0, 10185.0, 10210.0, 10204.0, 10186.0, 10167.0, 10143.0, 10134.0, 10132.0, 10137.0, 10125.0, 10131.0, 10156.0, 10166.0, 10146.0, 10134.0, 10122.0, 10150.0, 10183.0, 10203.0, 10186.0, 10151.0, 10133.0, 10154.0, 10166.0, 10176.0, 10167.0, 10153.0, 10134.0, 10126.0, 10145.0, 10165.0, 10167.0, 10160.0, 10165.0, 10168.0, 10170.0, 10167.0, 10167.0, 10168.0, 10169.0, 10177.0, 10178.0, 10181.0, 10221.0, 10264.0, 10254.0, 10206.0, 10165.0, 10129.0, 10107.0, 10086.0, 10078.0, 10076.0, 10084.0, 10102.0, 10129.0, 10136.0, 10120.0, 10130.0, 10138.0, 10148.0, 10135.0, 10141.0, 10134.0, 10156.0, 10168.0, 10175.0, 10176.0, 10176.0, 10178.0, 10185.0, 10188.0, 10201.0, 10196.0, 10196.0, 10193.0, 10186.0, 10188.0, 10203.0, 10190.0, 10180.0, 10173.0, 10166.0, 10167.0, 10175.0, 10177.0, 10192.0, 10193.0, 10176.0],
      "WindowWidth": [21881.0, 21797.0, 21740.0, 21677.0, 21633.0, 21636.0, 21638.0, 21647.0, 21657.0, 21651.0, 21644.0, 21642.0, 21612.0, 21617.0, 21617.0, 21606.0, 21606.0, 21613.0, 21602.0, 21629.0, 21627.0, 21637.0, 21654.0, 21664.0, 21625.0, 21628.0, 21617.0, 21608.0, 21606.0, 21644.0, 21650.0, 21629.0, 21624.0, 21603.0, 21578.0, 21573.0, 21590.0, 21562.0, 21517.0, 21463.0, 21481.0, 21511.0, 21541.0, 21564.0, 21561.0, 21567.0, 21586.0, 21595.0, 21630.0, 21671.0, 21660.0, 21615.0, 21568.0, 21544.0, 21559.0, 21644.0, 21716.0, 21700.0, 21616.0, 21576.0, 21545.0, 21538.0, 21551.0, 21591.0, 21610.0, 21635.0, 21629.0, 21622.0, 21665.0, 21683.0, 21674.0, 21638.0, 21635.0, 21673.0, 21725.0, 21751.0, 21707.0, 21628.0, 21570.0, 21579.0, 21595.0, 21669.0, 21689.0, 21686.0, 21638.0, 21602.0, 21575.0, 21573.0, 21589.0, 21637.0, 21637.0, 21637.0, 21659.0, 21657.0, 21642.0, 21652.0, 21681.0, 21701.0, 21668.0, 21632.0, 21629.0, 21678.0, 21735.0, 21722.0, 21677.0, 21630.0, 21578.0, 21557.0, 21553.0, 21562.0, 21539.0, 21552.0, 21609.0, 21632.0, 21588.0, 21556.0, 21529.0, 21591.0, 21672.0, 21719.0, 21679.0, 21597.0, 21556.0, 21604.0, 21634.0, 21656.0, 21635.0, 21601.0, 21557.0, 21542.0, 21583.0, 21632.0, 21636.0, 21621.0, 21631.0, 21637.0, 21642.0, 21633.0, 21635.0, 21636.0, 21640.0, 21658.0, 21663.0, 21666.0, 21764.0, 21865.0, 21838.0, 21725.0, 21625.0, 21543.0, 21490.0, 21442.0, 21427.0, 21420.0, 21438.0, 21480.0, 21545.0, 21561.0, 21525.0, 21546.0, 21566.0, 21589.0, 21563.0, 21573.0, 21560.0, 21605.0, 21637.0, 21653.0, 21654.0, 21657.0, 21663.0, 21677.0, 21684.0, 21712.0, 21705.0, 21703.0, 21693.0, 21677.0, 21683.0, 21716.0, 21691.0, 21664.0, 21645.0, 21633.0, 21635.0, 21653.0, 21657.0, 21690.0, 21692.0, 21653.0]
    },
    "slices": {}
  }
}