{
  "AcquisitionMatrixPE": 104,
  "AcquisitionNumber": 1,
  "AcquisitionTime": "14:13:41.292500",
  "BandwidthPerPixelPhaseEncode": 17.17,
  "BaseResolution": 104,
  "BodyPartExamined": "BRAIN",
  "CoilString": "HC1-7;NC1_2",
  "ConsistencyInfo": "N4_VE11C_LATEST_20160120",
  "ConversionSoftware": "dcm2niix",
  "ConversionSoftwareVersion": "v1.0.20190902",
  "DerivedVendorReportedEchoSpacing": 0.000560011,
  "DeviceSerialNumber": "167006",
  "DwellTime": 2.1e-06,
  "EchoTime": 0.037,
  "EchoTrainLength": 104,
  "EffectiveEchoSpacing": 0.000560011,
  "FlipAngle": 52,
  "ImageComments": "Unaliased_MB4_PE3_LB",
  "ImageOrientationPatientDICOM": [0.998846, 0.0069901, 0.0475267, 0.00732209, 0.955643, -0.294438],
  "ImageType": [
    "ORIGINAL",
    "PRIMARY",
    "P",
    "MB",
    "ND",
    "MOSAIC"
],
  "ImagingFrequency": 123.259,
  "InPlanePhaseEncodingDirectionDICOM": "COL",
  "InstitutionAddress": "Chemin_Queen-Mary_4565_Montreal_District_CA_H3W_1W5",
  "InstitutionName": "IUGM",
  "InstitutionalDepartmentName": "Department",
  "MRAcquisitionType": "2D",
  "MagneticFieldStrength": 3,
  "Manufacturer": "Siemens",
  "ManufacturersModelName": "Prisma_fit",
  "Modality": "MR",
  "MultibandAccelerationFactor": 4,
  "PartialFourier": 1,
  "PatientPosition": "HFS",
  "PercentPhaseFOV": 100,
  "PhaseEncodingDirection": "j",
  "PhaseEncodingSteps": 104,
  "PhaseResolution": 1,
  "PixelBandwidth": 2290,
  "ProcedureStepDescription": "memory_things",
  "ProtocolName": "func_task-things_run-4",
  "PulseSequenceDetails": "%CustomerSeq%_cmrr_mbep2d_bold",
  "ReceiveCoilActiveElements": "HC1-7;NC1,2",
  "ReceiveCoilName": "HeadNeck_64",
  "ReconMatrixPE": 104,
  "RepetitionTime": 1.49,
  "SAR": 0.0546261,
  "ScanOptions": "FS",
  "ScanningSequence": "EP",
  "SequenceName": "epfid2d1_104",
  "SequenceVariant": "SK_SS",
  "SeriesDescription": "func_task-things_run-4",
  "SeriesNumber": 20,
  "ShimSetting": [643, -7205, -8823, 701, 50, 15, -5, 22],
  "SliceThickness": 2,
  "SliceTiming": [0, 0.7825, 0.0975, 0.88, 0.195, 0.98, 0.2925, 1.0775, 0.39, 1.175, 0.49, 1.2725, 0.5875, 1.37, 0.685, 0, 0.7825, 0.0975, 0.88, 0.195, 0.98, 0.2925, 1.0775, 0.39, 1.175, 0.49, 1.2725, 0.5875, 1.37, 0.685, 0, 0.7825, 0.0975, 0.88, 0.195, 0.98, 0.2925, 1.0775, 0.39, 1.175, 0.49, 1.2725, 0.5875, 1.37, 0.685, 0, 0.7825, 0.0975, 0.88, 0.195, 0.98, 0.2925, 1.0775, 0.39, 1.175, 0.49, 1.2725, 0.5875, 1.37, 0.685],
  "SoftwareVersions": "syngo_MR_E11",
  "SpacingBetweenSlices": 2,
  "StationName": "MRC35049",
  "TaskName": "things",
  "TotalReadoutTime": 0.0576811,
  "TxRefAmp": 239.782,
  "WipMemBlock": "a885832d-2a8e-4d9f-8d54-8c3e28566324||Sequence: R016 ve11c/master r/e634e98; Dec 19 2017 11:00:25 by eja",
  "dcmmeta_affine": [
    [-1.997691035270691, 0.014644172042608261, 0.09495343267917633, 105.92494201660156],
    [-0.013980205170810223, 1.911285161972046, -0.5888919830322266, -71.2254409790039],
    [0.09505346417427063, 0.5888758301734924, 1.9089761972427368, -78.9480972290039],
    [0.0, 0.0, 0.0, 1.0]
],
  "dcmmeta_reorient_transform": [
    [0.0, -1.0, 0.0, 103.0],
    [1.0, 0.0, 0.0, 0.0],
    [0.0, 0.0, 1.0, 0.0],
    [0.0, 0.0, 0.0, 1.0]
],
  "dcmmeta_shape": [104, 104, 60, 190],
  "dcmmeta_slice_dim": 2,
  "dcmmeta_version": 0.6,
  "global": {
    "const": {
      "AcquisitionMatrix": [104, 0, 0, 104],
      "AngioFlag": "N",
      "BitsAllocated": 16,
      "BitsStored": 16,
      "BodyPartExamined": "BRAIN",
      "Columns": 832,
      "EchoNumbers": 1,
      "EchoTime": 37.0,
      "EchoTrainLength": 104,
      "FlipAngle": 52.0,
      "HighBit": 15,
      "ImageOrientationPatient": [0.99884550768072, 0.00699010272526, 0.04752673195093, 0.00732208580965, 0.95564255741766, -0.2944379213207],
      "ImagePositionPatient": [-839.92329621866, -826.43349984108, 161.457460935],
      "ImageType": [
        "ORIGINAL",
        "PRIMARY",
        "P",
        "MB",
        "ND",
        "MOSAIC"
],
      "ImagedNucleus": "1H",
      "ImagingFrequency": 123.258997,
      "InPlanePhaseEncodingDirection": "COL",
      "LargestImagePixelValue": 4095,
      "MRAcquisitionType": "2D",
      "MagneticFieldStrength": 3.0,
      "Manufacturer": "SIEMENS",
      "ManufacturerModelName": "Prisma_fit",
      "Modality": "MR",
      "NumberOfAverages": 1.0,
      "NumberOfPhaseEncodingSteps": 104,
      "PercentPhaseFieldOfView": 100.0,
      "PercentSampling": 100.0,
      "PerformedProcedureStepStartTime": "130540.998000",
      "PhotometricInterpretation": "MONOCHROME2",
      "PixelBandwidth": 2290.0,
      "PixelRepresentation": 0,
      "PixelSpacing": [2.0, 2.0],
      "ProtocolName": "func_task-things_run-4",
      "RepetitionTime": 1490.0,
      "RescaleIntercept": -4096.0,
      "RescaleSlope": 2.0,
      "RescaleType": "US",
      "Rows": 832,
      "SAR": 0.05462609069343,
      "SamplesPerPixel": 1,
      "ScanOptions": "FS",
      "ScanningSequence": "EP",
      "SequenceName": "epfid2d1_104",
      "SequenceVariant": [
        "SK",
        "SS"
],
      "SeriesDescription": "func_task-things_run-4",
      "SeriesNumber": 20,
      "SeriesTime": "141456.729000",
      "SliceLocation": -49.354003536051,
      "SliceThickness": 2.0,
      "SmallestImagePixelValue": 0,
      "SoftwareVersions": "syngo MR E11",
      "SpacingBetweenSlices": 1.9999999663399,
      "SpecificCharacterSet": "ISO_IR 100",
      "StudyID": "1",
      "StudyTime": "130540.892000",
      "TransmitCoilName": "Body",
      "VariableFlipAngleFlag": "N",
      "WindowCenterWidthExplanation": "Algo1",
      "dBdt": 0.0},
    "slices": {}
  },
  "time": {
    "samples": {
      "AcquisitionNumber": [1, 2, 3, 4, 5, 6, 7, 8, 9, 10, 11, 12, 13, 14, 15, 16, 17, 18, 19, 20, 21, 22, 23, 24, 25, 26, 27, 28, 29, 30, 31, 32, 33, 34, 35, 36, 37, 38, 39, 40, 41, 42, 43, 44, 45, 46, 47, 48, 49, 50, 51, 52, 53, 54, 55, 56, 57, 58, 59, 60, 61, 62, 63, 64, 65, 66, 67, 68, 69, 70, 71, 72, 73, 74, 75, 76, 77, 78, 79, 80, 81, 82, 83, 84, 85, 86, 87, 88, 89, 90, 91, 92, 93, 94, 95, 96, 97, 98, 99, 100, 101, 102, 103, 104, 105, 106, 107, 108, 109, 110, 111, 112, 113, 114, 115, 116, 117, 118, 119, 120, 121, 122, 123, 124, 125, 126, 127, 128, 129, 130, 131, 132, 133, 134, 135, 136, 137, 138, 139, 140, 141, 142, 143, 144, 145, 146, 147, 148, 149, 150, 151, 152, 153, 154, 155, 156, 157, 158, 159, 160, 161, 162, 163, 164, 165, 166, 167, 168, 169, 170, 171, 172, 173, 174, 175, 176, 177, 178, 179, 180, 181, 182, 183, 184, 185, 186, 187, 188, 189, 190],
      "AcquisitionTime": ["141341.292500", "141342.782500", "141344.272500", "141345.762500", "141347.252500", "141348.742500", "141350.232500", "141351.722500", "141353.212500", "141354.702500", "141356.192500", "141357.682500", "141359.172500", "141400.662500", "141402.152500", "141403.642500", "141405.132500", "141406.622500", "141408.112500", "141409.602500", "141411.092500", "141412.582500", "141414.072500", "141415.562500", "141417.052500", "141418.542500", "141420.032500", "141421.522500", "141423.012500", "141424.502500", "141425.992500", "141427.482500", "141428.972500", "141430.462500", "141431.952500", "141433.442500", "141434.932500", "141436.422500", "141437.912500", "141439.402500", "141440.892500", "141442.382500", "141443.872500", "141445.362500", "141446.852500", "141448.342500", "141449.832500", "141451.322500", "141452.812500", "141454.302500", "141455.792500", "141457.282500", "141458.772500", "141500.262500", "141501.752500", "141503.242500", "141504.732500", "141506.222500", "141507.712500", "141509.202500", "141510.692500", "141512.182500", "141513.672500", "141515.162500", "141516.652500", "141518.142500", "141519.632500", "141521.122500", "141522.612500", "141524.102500", "141525.592500", "141527.082500", "141528.572500", "141530.062500", "141531.552500", "141533.042500", "141534.532500", "141536.022500", "141537.512500", "141539.002500", "141540.492500", "141541.982500", "141543.472500", "141544.962500", "141546.452500", "141547.942500", "141549.432500", "141550.922500", "141552.412500", "141553.902500", "141555.392500", "141556.882500", "141558.372500", "141559.862500", "141601.352500", "141602.842500", "141604.332500", "141605.822500", "141607.312500", "141608.802500", "141610.292500", "141611.782500", "141613.272500", "141614.762500", "141616.252500", "141617.742500", "141619.232500", "141620.722500", "141622.212500", "141623.702500", "141625.192500", "141626.682500", "141628.172500", "141629.662500", "141631.152500", "141632.642500", "141634.132500", "141635.622500", "141637.112500", "141638.602500", "141640.092500", "141641.582500", "141643.072500", "141644.562500", "141646.052500", "141647.542500", "141649.032500", "141650.522500", "141652.012500", "141653.502500", "141654.992500", "141656.482500", "141657.972500", "141659.462500", "141700.952500", "141702.442500", "141703.932500", "141705.422500", "141706.912500", "141708.402500", "141709.892500", "141711.382500", "141712.872500", "141714.362500", "141715.852500", "141717.342500", "141718.832500", "141720.322500", "141721.812500", "141723.302500", "141724.792500", "141726.282500", "141727.772500", "141729.262500", "141730.752500", "141732.242500", "141733.732500", "141735.222500", "141736.712500", "141738.202500", "141739.692500", "141741.182500", "141742.672500", "141744.162500", "141745.652500", "141747.142500", "141748.632500", "141750.122500", "141751.612500", "141753.102500", "141754.592500", "141756.082500", "141757.572500", "141759.062500", "141800.552500", "141802.042500", "141803.532500", "141805.022500", "141806.512500", "141808.002500", "141809.492500", "141810.982500", "141812.472500", "141813.962500", "141815.452500", "141816.942500", "141818.432500", "141819.922500", "141821.412500", "141822.902500"],
      "ContentTime": ["141456.731000", "141456.734000", "141456.737000", "141456.747000", "141456.749000", "141456.752000", "141456.754000", "141456.757000", "141456.760000", "141456.762000", "141456.765000", "141456.767000", "141456.770000", "141456.772000", "141456.775000", "141456.777000", "141456.780000", "141456.783000", "141456.785000", "141456.788000", "141456.790000", "141456.793000", "141516.289000", "141516.292000", "141516.295000", "141516.299000", "141516.301000", "141516.304000", "141516.314000", "141516.316000", "141516.319000", "141516.322000", "141516.324000", "141516.327000", "141516.329000", "141516.332000", "141516.335000", "141516.337000", "141516.340000", "141516.342000", "141516.345000", "141516.347000", "141536.288000", "141536.291000", "141536.294000", "141536.296000", "141536.299000", "141536.302000", "141536.304000", "141536.307000", "141536.309000", "141536.312000", "141536.315000", "141536.317000", "141536.320000", "141536.322000", "141536.325000", "141536.327000", "141536.330000", "141536.333000", "141536.335000", "141536.342000", "141536.345000", "141556.299000", "141556.302000", "141556.304000", "141556.307000", "141556.310000", "141556.312000", "141556.315000", "141556.317000", "141556.320000", "141556.322000", "141556.325000", "141556.328000", "141556.330000", "141556.333000", "141556.335000", "141556.338000", "141556.341000", "141556.343000", "141556.346000", "141556.348000", "141616.304000", "141616.307000", "141616.310000", "141616.312000", "141616.315000", "141616.318000", "141616.320000", "141616.323000", "141616.325000", "141616.328000", "141616.330000", "141616.333000", "141616.336000", "141616.338000", "141616.341000", "141616.343000", "141616.346000", "141616.349000", "141616.351000", "141616.354000", "141656.329000", "141656.332000", "141656.334000", "141656.337000", "141656.340000", "141656.342000", "141656.345000", "141656.347000", "141656.350000", "141656.352000", "141656.355000", "141656.358000", "141656.360000", "141656.363000", "141656.365000", "141656.368000", "141656.374000", "141656.376000", "141656.379000", "141656.382000", "141656.384000", "141656.387000", "141656.389000", "141656.392000", "141656.395000", "141656.397000", "141656.400000", "141736.325000", "141736.328000", "141736.330000", "141736.333000", "141736.336000", "141736.338000", "141736.341000", "141736.343000", "141736.346000", "141736.348000", "141736.351000", "141736.354000", "141736.356000", "141736.359000", "141736.362000", "141736.364000", "141736.367000", "141736.369000", "141736.372000", "141736.374000", "141736.377000", "141736.380000", "141736.382000", "141736.385000", "141736.387000", "141736.390000", "141736.393000", "141816.327000", "141816.329000", "141816.332000", "141816.335000", "141816.337000", "141816.340000", "141816.342000", "141816.345000", "141816.348000", "141816.350000", "141816.353000", "141816.355000", "141816.358000", "141816.361000", "141816.363000", "141816.366000", "141816.368000", "141816.371000", "141816.374000", "141816.376000", "141816.379000", "141816.381000", "141816.384000", "141816.387000", "141816.389000", "141816.392000", "141816.394000", "141825.163000", "141825.165000", "141825.168000", "141825.171000", "141825.174000", "141825.176000"],
      "InstanceCreationTime": ["141456.731000", "141456.734000", "141456.737000", "141456.747000", "141456.749000", "141456.752000", "141456.754000", "141456.757000", "141456.760000", "141456.762000", "141456.765000", "141456.767000", "141456.770000", "141456.772000", "141456.775000", "141456.777000", "141456.780000", "141456.783000", "141456.785000", "141456.788000", "141456.790000", "141456.793000", "141516.289000", "141516.292000", "141516.295000", "141516.299000", "141516.301000", "141516.304000", "141516.314000", "141516.316000", "141516.319000", "141516.322000", "141516.324000", "141516.327000", "141516.329000", "141516.332000", "141516.335000", "141516.337000", "141516.340000", "141516.342000", "141516.345000", "141516.347000", "141536.288000", "141536.291000", "141536.294000", "141536.296000", "141536.299000", "141536.302000", "141536.304000", "141536.307000", "141536.309000", "141536.312000", "141536.315000", "141536.317000", "141536.320000", "141536.322000", "141536.325000", "141536.327000", "141536.330000", "141536.333000", "141536.335000", "141536.342000", "141536.345000", "141556.299000", "141556.302000", "141556.304000", "141556.307000", "141556.310000", "141556.312000", "141556.315000", "141556.317000", "141556.320000", "141556.322000", "141556.325000", "141556.328000", "141556.330000", "141556.333000", "141556.335000", "141556.338000", "141556.341000", "141556.343000", "141556.346000", "141556.348000", "141616.304000", "141616.307000", "141616.310000", "141616.312000", "141616.315000", "141616.318000", "141616.320000", "141616.323000", "141616.325000", "141616.328000", "141616.330000", "141616.333000", "141616.336000", "141616.338000", "141616.341000", "141616.343000", "141616.346000", "141616.349000", "141616.351000", "141616.354000", "141656.329000", "141656.332000", "141656.334000", "141656.337000", "141656.340000", "141656.342000", "141656.345000", "141656.347000", "141656.350000", "141656.352000", "141656.355000", "141656.358000", "141656.360000", "141656.363000", "141656.365000", "141656.368000", "141656.374000", "141656.376000", "141656.379000", "141656.382000", "141656.384000", "141656.387000", "141656.389000", "141656.392000", "141656.395000", "141656.397000", "141656.400000", "141736.325000", "141736.328000", "141736.330000", "141736.333000", "141736.336000", "141736.338000", "141736.341000", "141736.343000", "141736.346000", "141736.348000", "141736.351000", "141736.354000", "141736.356000", "141736.359000", "141736.362000", "141736.364000", "141736.367000", "141736.369000", "141736.372000", "141736.374000", "141736.377000", "141736.380000", "141736.382000", "141736.385000", "141736.387000", "141736.390000", "141736.393000", "141816.327000", "141816.329000", "141816.332000", "141816.335000", "141816.337000", "141816.340000", "141816.342000", "141816.345000", "141816.348000", "141816.350000", "141816.353000", "141816.355000", "141816.358000", "141816.361000", "141816.363000", "141816.366000", "141816.368000", "141816.371000", "141816.374000", "141816.376000", "141816.379000", "141816.381000", "141816.384000", "141816.387000", "141816.389000", "141816.392000", "141816.394000", "141825.163000", "141825.165000", "141825.168000", "141825.171000", "141825.174000", "141825.176000"],
      "InstanceNumber": [1, 2, 3, 4, 5, 6, 7, 8, 9, 10, 11, 12, 13, 14, 15, 16, 17, 18, 19, 20, 21, 22, 23, 24, 25, 26, 27, 28, 29, 30, 31, 32, 33, 34, 35, 36, 37, 38, 39, 40, 41, 42, 43, 44, 45, 46, 47, 48, 49, 50, 51, 52, 53, 54, 55, 56, 57, 58, 59, 60, 61, 62, 63, 64, 65, 66, 67, 68, 69, 70, 71, 72, 73, 74, 75, 76, 77, 78, 79, 80, 81, 82, 83, 84, 85, 86, 87, 88, 89, 90, 91, 92, 93, 94, 95, 96, 97, 98, 99, 100, 101, 102, 103, 104, 105, 106, 107, 108, 109, 110, 111, 112, 113, 114, 115, 116, 117, 118, 119, 120, 121, 122, 123, 124, 125, 126, 127, 128, 129, 130, 131, 132, 133, 134, 135, 136, 137, 138, 139, 140, 141, 142, 143, 144, 145, 146, 147, 148, 149, 150, 151, 152, 153, 154, 155, 156, 157, 158, 159, 160, 161, 162, 163, 164, 165, 166, 167, 168, 169, 170, 171, 172, 173, 174, 175, 176, 177, 178, 179, 180, 181, 182, 183, 184, 185, 186, 187, 188, 189, 190],
      "WindowCenter": [4770.0, 4768.0, 4772.0, 4768.0, 4772.0, 4770.0, 4774.0, 4768.0, 4774.0, 4770.0, 4770.0, 4770.0, 4772.0, 4770.0, 4774.0, 4772.0, 4768.0, 4770.0, 4776.0, 4770.0, 4746.0, 4770.0, 4772.0, 4768.0, 4772.0, 4768.0, 4770.0, 4770.0, 4774.0, 4772.0, 4770.0, 4770.0, 4770.0, 4772.0, 4772.0, 4768.0, 4770.0, 4770.0, 4746.0, 4770.0, 4774.0, 4768.0, 4774.0, 4774.0, 4748.0, 4774.0, 4774.0, 4774.0, 4772.0, 4770.0, 4772.0, 4770.0, 4774.0, 4772.0, 4772.0, 4772.0, 4772.0, 4776.0, 4770.0, 4774.0, 4772.0, 4774.0, 4772.0, 4774.0, 4770.0, 4772.0, 4774.0, 4770.0, 4770.0, 4774.0, 4776.0, 4772.0, 4772.0, 4748.0, 4774.0, 4776.0, 4770.0, 4770.0, 4774.0, 4774.0, 4774.0, 4774.0, 4772.0, 4774.0, 4772.0, 4772.0, 4772.0, 4770.0, 4768.0, 4772.0, 4772.0, 4776.0, 4770.0, 4776.0, 4776.0, 4774.0, 4776.0, 4772.0, 4774.0, 4774.0, 4774.0, 4770.0, 4772.0, 4770.0, 4770.0, 4772.0, 4774.0, 4770.0, 4774.0, 4774.0, 4772.0, 4774.0, 4772.0, 4774.0, 4772.0, 4774.0, 4770.0, 4770.0, 4772.0, 4776.0, 4774.0, 4774.0, 4774.0, 4772.0, 4774.0, 4772.0, 4772.0, 4772.0, 4774.0, 4772.0, 4774.0, 4770.0, 4750.0, 4774.0, 4772.0, 4776.0, 4746.0, 4772.0, 4774.0, 4772.0, 4776.0, 4776.0, 4770.0, 4772.0, 4776.0, 4774.0, 4772.0, 4774.0, 4772.0, 4772.0, 4772.0, 4770.0, 4774.0, 4772.0, 4772.0, 4772.0, 4774.0, 4770.0, 4772.0, 4770.0, 4772.0, 4770.0, 4776.0, 4770.0, 4774.0, 4772.0, 4770.0, 4774.0, 4774.0, 4772.0, 4772.0, 4772.0, 4748.0, 4772.0, 4772.0, 4772.0, 4772.0, 4776.0, 4772.0, 4772.0, 4770.0, 4770.0, 4770.0, 4770.0, 4778.0, 4750.0, 4772.0, 4770.0, 4776.0, 4768.0],
      "WindowWidth": [18574.0, 18576.0, 18576.0, 18578.0, 18580.0, 18578.0, 18584.0, 18576.0, 18580.0, 18578.0, 18578.0, 18582.0, 18578.0, 18576.0, 18586.0, 18580.0, 18578.0, 18576.0, 18582.0, 18578.0, 18538.0, 18578.0, 18576.0, 18572.0, 18574.0, 18574.0, 18576.0, 18578.0, 18578.0, 18584.0, 18576.0, 18576.0, 18580.0, 18576.0, 18578.0, 18578.0, 18574.0, 18576.0, 18544.0, 18572.0, 18584.0, 18578.0, 18576.0, 18582.0, 18546.0, 18576.0, 18578.0, 18580.0, 18578.0, 18572.0, 18576.0, 18578.0, 18580.0, 18582.0, 18582.0, 18578.0, 18578.0, 18582.0, 18578.0, 18580.0, 18578.0, 18578.0, 18576.0, 18582.0, 18576.0, 18578.0, 18578.0, 18574.0, 18576.0, 18578.0, 18582.0, 18576.0, 18578.0, 18546.0, 18580.0, 18584.0, 18576.0, 18580.0, 18578.0, 18578.0, 18582.0, 18578.0, 18578.0, 18578.0, 18578.0, 18580.0, 18582.0, 18576.0, 18578.0, 18572.0, 18578.0, 18582.0, 18576.0, 18578.0, 18582.0, 18576.0, 18580.0, 18574.0, 18580.0, 18580.0, 18580.0, 18576.0, 18578.0, 18572.0, 18574.0, 18576.0, 18580.0, 18574.0, 18578.0, 18580.0, 18578.0, 18578.0, 18578.0, 18576.0, 18578.0, 18578.0, 18580.0, 18572.0, 18580.0, 18578.0, 18576.0, 18580.0, 18580.0, 18580.0, 18576.0, 18578.0, 18580.0, 18580.0, 18578.0, 18578.0, 18578.0, 18572.0, 18544.0, 18578.0, 18578.0, 18576.0, 18546.0, 18580.0, 18582.0, 18580.0, 18580.0, 18582.0, 18572.0, 18574.0, 18582.0, 18578.0, 18576.0, 18580.0, 18580.0, 18574.0, 18576.0, 18576.0, 18578.0, 18576.0, 18572.0, 18578.0, 18580.0, 18576.0, 18574.0, 18578.0, 18582.0, 18576.0, 18576.0, 18576.0, 18572.0, 18572.0, 18576.0, 18578.0, 18578.0, 18576.0, 18574.0, 18580.0, 18544.0, 18578.0, 18574.0, 18576.0, 18574.0, 18582.0, 18574.0, 18578.0, 18576.0, 18574.0, 18572.0, 18574.0, 18580.0, 18544.0, 18574.0, 18576.0, 18576.0, 18572.0]
    },
    "slices": {}
  }
}