{
  "AcquisitionMatrixPE": 104,
  "AcquisitionNumber": 1,
  "AcquisitionTime": "14:01:39.370000",
  "BandwidthPerPixelPhaseEncode": 17.17,
  "BaseResolution": 104,
  "BodyPartExamined": "BRAIN",
  "CoilString": "HC1-7;NC1_2",
  "ConsistencyInfo": "N4_VE11C_LATEST_20160120",
  "ConversionSoftware": "dcm2niix",
  "ConversionSoftwareVersion": "v1.0.20190902",
  "DerivedVendorReportedEchoSpacing": 0.000560011,
  "DeviceSerialNumber": "167006",
  "DwellTime": 2.1e-06,
  "EchoTime": 0.037,
  "EchoTrainLength": 104,
  "EffectiveEchoSpacing": 0.000560011,
  "FlipAngle": 52,
  "ImageComments": "Unaliased_MB4_PE3_LB",
  "ImageOrientationPatientDICOM": [0.998846, 0.0069901, 0.0475267, 0.00732209, 0.955643, -0.294438],
  "ImageType": [
    "ORIGINAL",
    "PRIMARY",
    "M",
    "MB",
    "ND",
    "MOSAIC"
],
  "ImagingFrequency": 123.259,
  "InPlanePhaseEncodingDirectionDICOM": "COL",
  "InstitutionAddress": "Chemin_Queen-Mary_4565_Montreal_District_CA_H3W_1W5",
  "InstitutionName": "IUGM",
  "InstitutionalDepartmentName": "Department",
  "MRAcquisitionType": "2D",
  "MagneticFieldStrength": 3,
  "Manufacturer": "Siemens",
  "ManufacturersModelName": "Prisma_fit",
  "Modality": "MR",
  "MultibandAccelerationFactor": 4,
  "PartialFourier": 1,
  "PatientPosition": "HFS",
  "PercentPhaseFOV": 100,
  "PhaseEncodingDirection": "j",
  "PhaseEncodingSteps": 104,
  "PhaseResolution": 1,
  "PixelBandwidth": 2290,
  "ProcedureStepDescription": "memory_things",
  "ProtocolName": "func_task-things_run-2",
  "PulseSequenceDetails": "%CustomerSeq%_cmrr_mbep2d_bold",
  "ReceiveCoilActiveElements": "HC1-7;NC1,2",
  "ReceiveCoilName": "HeadNeck_64",
  "ReconMatrixPE": 104,
  "RepetitionTime": 1.49,
  "SAR": 0.0546261,
  "ScanOptions": "FS",
  "ScanningSequence": "EP",
  "SequenceName": "epfid2d1_104",
  "SequenceVariant": "SK_SS",
  "SeriesDescription": "func_task-things_run-2",
  "SeriesNumber": 13,
  "ShimSetting": [643, -7205, -8823, 701, 50, 15, -5, 22],
  "SliceThickness": 2,
  "SliceTiming": [0, 0.785, 0.0975, 0.8825, 0.1975, 0.98, 0.295, 1.0775, 0.3925, 1.1775, 0.49, 1.275, 0.5875, 1.3725, 0.6875, 0, 0.785, 0.0975, 0.8825, 0.1975, 0.98, 0.295, 1.0775, 0.3925, 1.1775, 0.49, 1.275, 0.5875, 1.3725, 0.6875, 0, 0.785, 0.0975, 0.8825, 0.1975, 0.98, 0.295, 1.0775, 0.3925, 1.1775, 0.49, 1.275, 0.5875, 1.3725, 0.6875, 0, 0.785, 0.0975, 0.8825, 0.1975, 0.98, 0.295, 1.0775, 0.3925, 1.1775, 0.49, 1.275, 0.5875, 1.3725, 0.6875],
  "SoftwareVersions": "syngo_MR_E11",
  "SpacingBetweenSlices": 2,
  "StationName": "MRC35049",
  "TaskName": "things",
  "TotalReadoutTime": 0.0576811,
  "TxRefAmp": 239.782,
  "WipMemBlock": "dcf66403-9226-4bac-98c8-c19230d95c3a||Sequence: R016 ve11c/master r/e634e98; Dec 19 2017 11:00:25 by eja",
  "dcmmeta_affine": [
    [-1.997691035270691, 0.014644172042608261, 0.09495343267917633, 105.92494201660156],
    [-0.013980205170810223, 1.911285161972046, -0.5888919830322266, -71.2254409790039],
    [0.09505346417427063, 0.5888758301734924, 1.9089761972427368, -78.9480972290039],
    [0.0, 0.0, 0.0, 1.0]
],
  "dcmmeta_reorient_transform": [
    [0.0, -1.0, 0.0, 103.0],
    [1.0, 0.0, 0.0, 0.0],
    [0.0, 0.0, 1.0, 0.0],
    [0.0, 0.0, 0.0, 1.0]
],
  "dcmmeta_shape": [104, 104, 60, 190],
  "dcmmeta_slice_dim": 2,
  "dcmmeta_version": 0.6,
  "global": {
    "const": {
      "AcquisitionMatrix": [104, 0, 0, 104],
      "AngioFlag": "N",
      "BitsAllocated": 16,
      "BitsStored": 16,
      "BodyPartExamined": "BRAIN",
      "Columns": 832,
      "EchoNumbers": 1,
      "EchoTime": 37.0,
      "EchoTrainLength": 104,
      "FlipAngle": 52.0,
      "HighBit": 15,
      "ImageOrientationPatient": [0.99884550768072, 0.00699010272526, 0.04752673195093, 0.00732208580965, 0.95564255741766, -0.2944379213207],
      "ImagePositionPatient": [-839.92329621866, -826.43349984108, 161.457460935],
      "ImageType": [
        "ORIGINAL",
        "PRIMARY",
        "M",
        "MB",
        "ND",
        "MOSAIC"
],
      "ImagedNucleus": "1H",
      "ImagingFrequency": 123.25899,
      "InPlanePhaseEncodingDirection": "COL",
      "MRAcquisitionType": "2D",
      "MagneticFieldStrength": 3.0,
      "Manufacturer": "SIEMENS",
      "ManufacturerModelName": "Prisma_fit",
      "Modality": "MR",
      "NumberOfAverages": 1.0,
      "NumberOfPhaseEncodingSteps": 104,
      "PercentPhaseFieldOfView": 100.0,
      "PercentSampling": 100.0,
      "PerformedProcedureStepStartTime": "130540.998000",
      "PhotometricInterpretation": "MONOCHROME2",
      "PixelBandwidth": 2290.0,
      "PixelRepresentation": 0,
      "PixelSpacing": [2.0, 2.0],
      "ProtocolName": "func_task-things_run-2",
      "RepetitionTime": 1490.0,
      "Rows": 832,
      "SAR": 0.05462609069343,
      "SamplesPerPixel": 1,
      "ScanOptions": "FS",
      "ScanningSequence": "EP",
      "SequenceName": "epfid2d1_104",
      "SequenceVariant": [
        "SK",
        "SS"
],
      "SeriesDescription": "func_task-things_run-2",
      "SeriesNumber": 13,
      "SeriesTime": "140253.139000",
      "SliceLocation": -49.354003536051,
      "SliceThickness": 2.0,
      "SmallestImagePixelValue": 0,
      "SoftwareVersions": "syngo MR E11",
      "SpacingBetweenSlices": 1.9999999663399,
      "SpecificCharacterSet": "ISO_IR 100",
      "StudyID": "1",
      "StudyTime": "130540.892000",
      "TransmitCoilName": "Body",
      "VariableFlipAngleFlag": "N",
      "WindowCenterWidthExplanation": "Algo1",
      "dBdt": 0.0},
    "slices": {}
  },
  "time": {
    "samples": {
      "AcquisitionNumber": [1, 2, 3, 4, 5, 6, 7, 8, 9, 10, 11, 12, 13, 14, 15, 16, 17, 18, 19, 20, 21, 22, 23, 24, 25, 26, 27, 28, 29, 30, 31, 32, 33, 34, 35, 36, 37, 38, 39, 40, 41, 42, 43, 44, 45, 46, 47, 48, 49, 50, 51, 52, 53, 54, 55, 56, 57, 58, 59, 60, 61, 62, 63, 64, 65, 66, 67, 68, 69, 70, 71, 72, 73, 74, 75, 76, 77, 78, 79, 80, 81, 82, 83, 84, 85, 86, 87, 88, 89, 90, 91, 92, 93, 94, 95, 96, 97, 98, 99, 100, 101, 102, 103, 104, 105, 106, 107, 108, 109, 110, 111, 112, 113, 114, 115, 116, 117, 118, 119, 120, 121, 122, 123, 124, 125, 126, 127, 128, 129, 130, 131, 132, 133, 134, 135, 136, 137, 138, 139, 140, 141, 142, 143, 144, 145, 146, 147, 148, 149, 150, 151, 152, 153, 154, 155, 156, 157, 158, 159, 160, 161, 162, 163, 164, 165, 166, 167, 168, 169, 170, 171, 172, 173, 174, 175, 176, 177, 178, 179, 180, 181, 182, 183, 184, 185, 186, 187, 188, 189, 190],
      "AcquisitionTime": ["140139.370000", "140140.860000", "140142.350000", "140143.840000", "140145.330000", "140146.820000", "140148.310000", "140149.800000", "140151.290000", "140152.780000", "140154.270000", "140155.760000", "140157.250000", "140158.740000", "140200.230000", "140201.720000", "140203.210000", "140204.700000", "140206.190000", "140207.680000", "140209.170000", "140210.660000", "140212.150000", "140213.640000", "140215.130000", "140216.620000", "140218.110000", "140219.600000", "140221.090000", "140222.580000", "140224.070000", "140225.560000", "140227.050000", "140228.540000", "140230.030000", "140231.520000", "140233.010000", "140234.500000", "140235.990000", "140237.480000", "140238.970000", "140240.460000", "140241.950000", "140243.440000", "140244.930000", "140246.420000", "140247.910000", "140249.400000", "140250.890000", "140252.380000", "140253.870000", "140255.360000", "140256.850000", "140258.340000", "140259.830000", "140301.320000", "140302.810000", "140304.300000", "140305.790000", "140307.280000", "140308.770000", "140310.260000", "140311.750000", "140313.240000", "140314.730000", "140316.220000", "140317.710000", "140319.200000", "140320.690000", "140322.180000", "140323.670000", "140325.160000", "140326.650000", "140328.140000", "140329.630000", "140331.120000", "140332.610000", "140334.100000", "140335.590000", "140337.080000", "140338.570000", "140340.060000", "140341.550000", "140343.040000", "140344.530000", "140346.020000", "140347.510000", "140349.000000", "140350.490000", "140351.980000", "140353.470000", "140354.960000", "140356.450000", "140357.940000", "140359.430000", "140400.920000", "140402.410000", "140403.900000", "140405.390000", "140406.880000", "140408.370000", "140409.860000", "140411.350000", "140412.840000", "140414.330000", "140415.820000", "140417.310000", "140418.800000", "140420.290000", "140421.780000", "140423.270000", "140424.760000", "140426.250000", "140427.740000", "140429.230000", "140430.720000", "140432.210000", "140433.700000", "140435.190000", "140436.680000", "140438.170000", "140439.660000", "140441.150000", "140442.640000", "140444.130000", "140445.620000", "140447.110000", "140448.600000", "140450.090000", "140451.580000", "140453.070000", "140454.560000", "140456.050000", "140457.540000", "140459.030000", "140500.520000", "140502.010000", "140503.500000", "140504.990000", "140506.480000", "140507.970000", "140509.460000", "140510.950000", "140512.440000", "140513.930000", "140515.420000", "140516.910000", "140518.400000", "140519.890000", "140521.380000", "140522.870000", "140524.360000", "140525.850000", "140527.340000", "140528.830000", "140530.320000", "140531.810000", "140533.300000", "140534.790000", "140536.280000", "140537.770000", "140539.260000", "140540.750000", "140542.240000", "140543.730000", "140545.220000", "140546.710000", "140548.200000", "140549.690000", "140551.180000", "140552.670000", "140554.160000", "140555.650000", "140557.140000", "140558.630000", "140600.120000", "140601.610000", "140603.100000", "140604.590000", "140606.080000", "140607.570000", "140609.060000", "140610.550000", "140612.040000", "140613.530000", "140615.020000", "140616.510000", "140618.000000", "140619.490000", "140620.980000"],
      "ContentTime": ["140253.143000", "140253.146000", "140253.150000", "140253.153000", "140253.157000", "140253.171000", "140253.175000", "140253.178000", "140253.181000", "140253.185000", "140253.188000", "140253.192000", "140253.195000", "140253.199000", "140253.202000", "140253.205000", "140253.209000", "140253.212000", "140313.102000", "140313.111000", "140313.114000", "140313.118000", "140313.121000", "140313.125000", "140313.128000", "140313.131000", "140313.135000", "140313.139000", "140313.142000", "140313.146000", "140313.149000", "140313.153000", "140313.156000", "140313.160000", "140313.163000", "140313.167000", "140313.170000", "140313.173000", "140313.177000", "140333.102000", "140333.106000", "140333.109000", "140333.117000", "140333.120000", "140333.123000", "140333.127000", "140333.130000", "140333.134000", "140333.137000", "140333.140000", "140333.144000", "140333.147000", "140333.151000", "140333.154000", "140333.158000", "140333.161000", "140333.164000", "140333.168000", "140333.171000", "140353.102000", "140353.106000", "140353.109000", "140353.113000", "140353.116000", "140353.120000", "140353.123000", "140353.127000", "140353.130000", "140353.133000", "140353.137000", "140353.140000", "140353.144000", "140353.147000", "140353.150000", "140353.154000", "140353.157000", "140353.161000", "140353.164000", "140353.168000", "140413.102000", "140413.106000", "140413.109000", "140413.113000", "140413.116000", "140413.120000", "140413.123000", "140413.127000", "140413.130000", "140413.133000", "140413.137000", "140413.140000", "140413.144000", "140413.147000", "140413.150000", "140413.154000", "140413.157000", "140413.161000", "140413.164000", "140413.168000", "140453.103000", "140453.107000", "140453.110000", "140453.114000", "140453.117000", "140453.121000", "140453.124000", "140453.128000", "140453.131000", "140453.135000", "140453.138000", "140453.142000", "140453.145000", "140453.148000", "140453.152000", "140453.155000", "140453.159000", "140453.162000", "140453.166000", "140453.169000", "140453.173000", "140453.176000", "140453.179000", "140453.183000", "140453.186000", "140453.190000", "140453.193000", "140453.197000", "140453.200000", "140453.203000", "140533.103000", "140533.106000", "140533.110000", "140533.113000", "140533.117000", "140533.120000", "140533.124000", "140533.127000", "140533.131000", "140533.134000", "140533.137000", "140533.141000", "140533.144000", "140533.148000", "140533.151000", "140533.155000", "140533.158000", "140533.162000", "140533.165000", "140533.169000", "140533.172000", "140533.175000", "140533.179000", "140533.182000", "140533.186000", "140533.189000", "140533.194000", "140613.102000", "140613.106000", "140613.110000", "140613.113000", "140613.116000", "140613.120000", "140613.123000", "140613.127000", "140613.130000", "140613.134000", "140613.137000", "140613.141000", "140613.144000", "140613.147000", "140613.151000", "140613.154000", "140613.158000", "140613.162000", "140613.165000", "140613.169000", "140613.172000", "140613.176000", "140613.179000", "140613.183000", "140613.186000", "140613.190000", "140613.193000", "140622.994000", "140622.997000", "140623.002000", "140623.019000", "140623.023000", "140623.026000", "140623.030000"],
      "InstanceCreationTime": ["140253.143000", "140253.146000", "140253.150000", "140253.153000", "140253.157000", "140253.171000", "140253.175000", "140253.178000", "140253.181000", "140253.185000", "140253.188000", "140253.192000", "140253.195000", "140253.199000", "140253.202000", "140253.205000", "140253.209000", "140253.212000", "140313.102000", "140313.111000", "140313.114000", "140313.118000", "140313.121000", "140313.125000", "140313.128000", "140313.131000", "140313.135000", "140313.139000", "140313.142000", "140313.146000", "140313.149000", "140313.153000", "140313.156000", "140313.160000", "140313.163000", "140313.167000", "140313.170000", "140313.173000", "140313.177000", "140333.102000", "140333.106000", "140333.109000", "140333.117000", "140333.120000", "140333.123000", "140333.127000", "140333.130000", "140333.134000", "140333.137000", "140333.140000", "140333.144000", "140333.147000", "140333.151000", "140333.154000", "140333.158000", "140333.161000", "140333.164000", "140333.168000", "140333.171000", "140353.102000", "140353.106000", "140353.109000", "140353.113000", "140353.116000", "140353.120000", "140353.123000", "140353.127000", "140353.130000", "140353.133000", "140353.137000", "140353.140000", "140353.144000", "140353.147000", "140353.150000", "140353.154000", "140353.157000", "140353.161000", "140353.164000", "140353.168000", "140413.102000", "140413.106000", "140413.109000", "140413.113000", "140413.116000", "140413.120000", "140413.123000", "140413.127000", "140413.130000", "140413.133000", "140413.137000", "140413.140000", "140413.144000", "140413.147000", "140413.150000", "140413.154000", "140413.157000", "140413.161000", "140413.164000", "140413.168000", "140453.103000", "140453.107000", "140453.110000", "140453.114000", "140453.117000", "140453.121000", "140453.124000", "140453.128000", "140453.131000", "140453.135000", "140453.138000", "140453.142000", "140453.145000", "140453.148000", "140453.152000", "140453.155000", "140453.159000", "140453.162000", "140453.166000", "140453.169000", "140453.173000", "140453.176000", "140453.179000", "140453.183000", "140453.186000", "140453.190000", "140453.193000", "140453.197000", "140453.200000", "140453.203000", "140533.103000", "140533.106000", "140533.110000", "140533.113000", "140533.117000", "140533.120000", "140533.124000", "140533.127000", "140533.131000", "140533.134000", "140533.137000", "140533.141000", "140533.144000", "140533.148000", "140533.151000", "140533.155000", "140533.158000", "140533.162000", "140533.165000", "140533.169000", "140533.172000", "140533.175000", "140533.179000", "140533.182000", "140533.186000", "140533.189000", "140533.194000", "140613.102000", "140613.106000", "140613.110000", "140613.113000", "140613.116000", "140613.120000", "140613.123000", "140613.127000", "140613.130000", "140613.134000", "140613.137000", "140613.141000", "140613.144000", "140613.147000", "140613.151000", "140613.154000", "140613.158000", "140613.162000", "140613.165000", "140613.169000", "140613.172000", "140613.176000", "140613.179000", "140613.183000", "140613.186000", "140613.190000", "140613.193000", "140622.994000", "140622.997000", "140623.002000", "140623.019000", "140623.023000", "140623.026000", "140623.030000"],
      "InstanceNumber": [1, 2, 3, 4, 5, 6, 7, 8, 9, 10, 11, 12, 13, 14, 15, 16, 17, 18, 19, 20, 21, 22, 23, 24, 25, 26, 27, 28, 29, 30, 31, 32, 33, 34, 35, 36, 37, 38, 39, 40, 41, 42, 43, 44, 45, 46, 47, 48, 49, 50, 51, 52, 53, 54, 55, 56, 57, 58, 59, 60, 61, 62, 63, 64, 65, 66, 67, 68, 69, 70, 71, 72, 73, 74, 75, 76, 77, 78, 79, 80, 81, 82, 83, 84, 85, 86, 87, 88, 89, 90, 91, 92, 93, 94, 95, 96, 97, 98, 99, 100, 101, 102, 103, 104, 105, 106, 107, 108, 109, 110, 111, 112, 113, 114, 115, 116, 117, 118, 119, 120, 121, 122, 123, 124, 125, 126, 127, 128, 129, 130, 131, 132, 133, 134, 135, 136, 137, 138, 139, 140, 141, 142, 143, 144, 145, 146, 147, 148, 149, 150, 151, 152, 153, 154, 155, 156, 157, 158, 159, 160, 161, 162, 163, 164, 165, 166, 167, 168, 169, 170, 171, 172, 173, 174, 175, 176, 177, 178, 179, 180, 181, 182, 183, 184, 185, 186, 187, 188, 189, 190],
      "LargestImagePixelValue": [40855, 39445, 39017, 38233, 38575, 37585, 38423, 37758, 38433, 37958, 37947, 37942, 37856, 37874, 38338, 37957, 38105, 37805, 37941, 37717, 37621, 38204, 37875, 37867, 37179, 38422, 38420, 37690, 37941, 37880, 38286, 37693, 37683, 37545, 37654, 37589, 38182, 37979, 38257, 37865, 37493, 37694, 38274, 38178, 37896, 37627, 37510, 37920, 37799, 37907, 38134, 37980, 37887, 38013, 37631, 38043, 37161, 37696, 37718, 37563, 37436, 37954, 37783, 38017, 37602, 37647, 37803, 37314, 37900, 38106, 37886, 37974, 37710, 38241, 37910, 37740, 37582, 37841, 37865, 38199, 37924, 37934, 37983, 37888, 37894, 37661, 38067, 37657, 38124, 37736, 38444, 38387, 38353, 37456, 37986, 37815, 37688, 38594, 38011, 38257, 37962, 38378, 38331, 38578, 38169, 38389, 38363, 38479, 37982, 38058, 37940, 38384, 38179, 38223, 38476, 38888, 37794, 38315, 38051, 38696, 38337, 38544, 38298, 38832, 38714, 38089, 38525, 37869, 38672, 38731, 39103, 38424, 38364, 38948, 38087, 38465, 38285, 38760, 38270, 38801, 38198, 38801, 38106, 38566, 37855, 38649, 38259, 38918, 38215, 38815, 38010, 38612, 38737, 38497, 38606, 38394, 38094, 38137, 38643, 38022, 38184, 38423, 37732, 38335, 38521, 38403, 37933, 38426, 38236, 38606, 38432, 38272, 37982, 38146, 37804, 38184, 38386, 37923, 38060, 37770, 38204, 38359, 38533, 39042, 38417, 38685, 38592, 38636, 38918, 38697],
      "WindowCenter": [10312.0, 10277.0, 10260.0, 10244.0, 10241.0, 10222.0, 10217.0, 10216.0, 10240.0, 10249.0, 10250.0, 10235.0, 10232.0, 10238.0, 10246.0, 10241.0, 10240.0, 10234.0, 10225.0, 10230.0, 10233.0, 10247.0, 10251.0, 10251.0, 10217.0, 10208.0, 10211.0, 10222.0, 10216.0, 10192.0, 10179.0, 10173.0, 10157.0, 10150.0, 10148.0, 10134.0, 10144.0, 10159.0, 10169.0, 10171.0, 10172.0, 10172.0, 10183.0, 10201.0, 10222.0, 10210.0, 10194.0, 10179.0, 10179.0, 10188.0, 10212.0, 10212.0, 10206.0, 10195.0, 10181.0, 10202.0, 10226.0, 10239.0, 10227.0, 10209.0, 10193.0, 10202.0, 10199.0, 10211.0, 10219.0, 10222.0, 10208.0, 10207.0, 10220.0, 10221.0, 10208.0, 10222.0, 10232.0, 10232.0, 10217.0, 10206.0, 10190.0, 10197.0, 10204.0, 10213.0, 10215.0, 10214.0, 10199.0, 10190.0, 10188.0, 10195.0, 10213.0, 10216.0, 10214.0, 10222.0, 10237.0, 10231.0, 10221.0, 10208.0, 10232.0, 10243.0, 10236.0, 10236.0, 10222.0, 10205.0, 10204.0, 10221.0, 10229.0, 10235.0, 10232.0, 10247.0, 10233.0, 10207.0, 10190.0, 10187.0, 10189.0, 10194.0, 10203.0, 10213.0, 10206.0, 10201.0, 10182.0, 10185.0, 10198.0, 10218.0, 10215.0, 10214.0, 10213.0, 10212.0, 10204.0, 10207.0, 10212.0, 10215.0, 10229.0, 10222.0, 10219.0, 10220.0, 10229.0, 10220.0, 10215.0, 10237.0, 10233.0, 10215.0, 10190.0, 10177.0, 10171.0, 10185.0, 10189.0, 10178.0, 10155.0, 10158.0, 10169.0, 10195.0, 10196.0, 10196.0, 10188.0, 10192.0, 10208.0, 10219.0, 10227.0, 10237.0, 10258.0, 10245.0, 10223.0, 10191.0, 10169.0, 10168.0, 10172.0, 10202.0, 10221.0, 10213.0, 10211.0, 10206.0, 10214.0, 10229.0, 10222.0, 10205.0, 10197.0, 10214.0, 10225.0, 10208.0, 10197.0, 10186.0, 10203.0, 10207.0, 10207.0, 10214.0, 10214.0, 10211.0, 10220.0, 10243.0, 10245.0, 10221.0, 10203.0, 10185.0],
      "WindowWidth": [22026.0, 21924.0, 21872.0, 21828.0, 21817.0, 21773.0, 21759.0, 21757.0, 21811.0, 21830.0, 21832.0, 21799.0, 21789.0, 21803.0, 21821.0, 21808.0, 21805.0, 21795.0, 21771.0, 21783.0, 21792.0, 21823.0, 21835.0, 21832.0, 21756.0, 21731.0, 21737.0, 21762.0, 21749.0, 21696.0, 21664.0, 21652.0, 21618.0, 21601.0, 21596.0, 21570.0, 21587.0, 21619.0, 21644.0, 21650.0, 21651.0, 21651.0, 21675.0, 21716.0, 21768.0, 21741.0, 21703.0, 21666.0, 21665.0, 21688.0, 21742.0, 21741.0, 21729.0, 21702.0, 21672.0, 21718.0, 21776.0, 21803.0, 21780.0, 21737.0, 21702.0, 21717.0, 21718.0, 21742.0, 21756.0, 21763.0, 21734.0, 21733.0, 21760.0, 21762.0, 21736.0, 21766.0, 21788.0, 21788.0, 21755.0, 21727.0, 21693.0, 21705.0, 21723.0, 21744.0, 21751.0, 21745.0, 21710.0, 21690.0, 21685.0, 21704.0, 21743.0, 21751.0, 21745.0, 21763.0, 21798.0, 21785.0, 21759.0, 21734.0, 21789.0, 21814.0, 21801.0, 21791.0, 21762.0, 21720.0, 21721.0, 21763.0, 21779.0, 21790.0, 21788.0, 21822.0, 21790.0, 21728.0, 21689.0, 21683.0, 21689.0, 21699.0, 21719.0, 21743.0, 21725.0, 21709.0, 21670.0, 21673.0, 21708.0, 21750.0, 21749.0, 21745.0, 21741.0, 21738.0, 21720.0, 21729.0, 21740.0, 21750.0, 21778.0, 21763.0, 21754.0, 21757.0, 21778.0, 21758.0, 21749.0, 21796.0, 21789.0, 21746.0, 21690.0, 21657.0, 21647.0, 21678.0, 21689.0, 21662.0, 21610.0, 21614.0, 21640.0, 21695.0, 21703.0, 21704.0, 21685.0, 21689.0, 21729.0, 21757.0, 21773.0, 21798.0, 21850.0, 21822.0, 21763.0, 21691.0, 21640.0, 21638.0, 21650.0, 21718.0, 21761.0, 21741.0, 21736.0, 21729.0, 21748.0, 21780.0, 21763.0, 21720.0, 21701.0, 21743.0, 21768.0, 21729.0, 21702.0, 21679.0, 21718.0, 21730.0, 21730.0, 21743.0, 21744.0, 21734.0, 21758.0, 21807.0, 21811.0, 21755.0, 21713.0, 21673.0]
    },
    "slices": {}
  }
}