{
  "AcquisitionMatrixPE": 104,
  "AcquisitionNumber": 1,
  "AcquisitionTime": "14:01:39.370000",
  "BandwidthPerPixelPhaseEncode": 17.17,
  "BaseResolution": 104,
  "BodyPartExamined": "BRAIN",
  "CoilString": "HC1-7;NC1_2",
  "ConsistencyInfo": "N4_VE11C_LATEST_20160120",
  "ConversionSoftware": "dcm2niix",
  "ConversionSoftwareVersion": "v1.0.20190902",
  "DerivedVendorReportedEchoSpacing": 0.000560011,
  "DeviceSerialNumber": "167006",
  "DwellTime": 2.1e-06,
  "EchoTime": 0.037,
  "EchoTrainLength": 104,
  "EffectiveEchoSpacing": 0.000560011,
  "FlipAngle": 52,
  "ImageComments": "Unaliased_MB4_PE3_LB",
  "ImageOrientationPatientDICOM": [0.998846, 0.0069901, 0.0475267, 0.00732209, 0.955643, -0.294438],
  "ImageType": [
    "ORIGINAL",
    "PRIMARY",
    "P",
    "MB",
    "ND",
    "MOSAIC"
],
  "ImagingFrequency": 123.259,
  "InPlanePhaseEncodingDirectionDICOM": "COL",
  "InstitutionAddress": "Chemin_Queen-Mary_4565_Montreal_District_CA_H3W_1W5",
  "InstitutionName": "IUGM",
  "InstitutionalDepartmentName": "Department",
  "MRAcquisitionType": "2D",
  "MagneticFieldStrength": 3,
  "Manufacturer": "Siemens",
  "ManufacturersModelName": "Prisma_fit",
  "Modality": "MR",
  "MultibandAccelerationFactor": 4,
  "PartialFourier": 1,
  "PatientPosition": "HFS",
  "PercentPhaseFOV": 100,
  "PhaseEncodingDirection": "j",
  "PhaseEncodingSteps": 104,
  "PhaseResolution": 1,
  "PixelBandwidth": 2290,
  "ProcedureStepDescription": "memory_things",
  "ProtocolName": "func_task-things_run-2",
  "PulseSequenceDetails": "%CustomerSeq%_cmrr_mbep2d_bold",
  "ReceiveCoilActiveElements": "HC1-7;NC1,2",
  "ReceiveCoilName": "HeadNeck_64",
  "ReconMatrixPE": 104,
  "RepetitionTime": 1.49,
  "SAR": 0.0546261,
  "ScanOptions": "FS",
  "ScanningSequence": "EP",
  "SequenceName": "epfid2d1_104",
  "SequenceVariant": "SK_SS",
  "SeriesDescription": "func_task-things_run-2",
  "SeriesNumber": 14,
  "ShimSetting": [643, -7205, -8823, 701, 50, 15, -5, 22],
  "SliceThickness": 2,
  "SliceTiming": [0, 0.785, 0.0975, 0.8825, 0.1975, 0.98, 0.295, 1.0775, 0.3925, 1.1775, 0.49, 1.275, 0.5875, 1.3725, 0.6875, 0, 0.785, 0.0975, 0.8825, 0.1975, 0.98, 0.295, 1.0775, 0.3925, 1.1775, 0.49, 1.275, 0.5875, 1.3725, 0.6875, 0, 0.785, 0.0975, 0.8825, 0.1975, 0.98, 0.295, 1.0775, 0.3925, 1.1775, 0.49, 1.275, 0.5875, 1.3725, 0.6875, 0, 0.785, 0.0975, 0.8825, 0.1975, 0.98, 0.295, 1.0775, 0.3925, 1.1775, 0.49, 1.275, 0.5875, 1.3725, 0.6875],
  "SoftwareVersions": "syngo_MR_E11",
  "SpacingBetweenSlices": 2,
  "StationName": "MRC35049",
  "TaskName": "things",
  "TotalReadoutTime": 0.0576811,
  "TxRefAmp": 239.782,
  "WipMemBlock": "dcf66403-9226-4bac-98c8-c19230d95c3a||Sequence: R016 ve11c/master r/e634e98; Dec 19 2017 11:00:25 by eja",
  "dcmmeta_affine": [
    [-1.997691035270691, 0.014644172042608261, 0.09495343267917633, 105.92494201660156],
    [-0.013980205170810223, 1.911285161972046, -0.5888919830322266, -71.2254409790039],
    [0.09505346417427063, 0.5888758301734924, 1.9089761972427368, -78.9480972290039],
    [0.0, 0.0, 0.0, 1.0]
],
  "dcmmeta_reorient_transform": [
    [0.0, -1.0, 0.0, 103.0],
    [1.0, 0.0, 0.0, 0.0],
    [0.0, 0.0, 1.0, 0.0],
    [0.0, 0.0, 0.0, 1.0]
],
  "dcmmeta_shape": [104, 104, 60, 190],
  "dcmmeta_slice_dim": 2,
  "dcmmeta_version": 0.6,
  "global": {
    "const": {
      "AcquisitionMatrix": [104, 0, 0, 104],
      "AngioFlag": "N",
      "BitsAllocated": 16,
      "BitsStored": 16,
      "BodyPartExamined": "BRAIN",
      "Columns": 832,
      "EchoNumbers": 1,
      "EchoTime": 37.0,
      "EchoTrainLength": 104,
      "FlipAngle": 52.0,
      "HighBit": 15,
      "ImageOrientationPatient": [0.99884550768072, 0.00699010272526, 0.04752673195093, 0.00732208580965, 0.95564255741766, -0.2944379213207],
      "ImagePositionPatient": [-839.92329621866, -826.43349984108, 161.457460935],
      "ImageType": [
        "ORIGINAL",
        "PRIMARY",
        "P",
        "MB",
        "ND",
        "MOSAIC"
],
      "ImagedNucleus": "1H",
      "ImagingFrequency": 123.25899,
      "InPlanePhaseEncodingDirection": "COL",
      "LargestImagePixelValue": 4095,
      "MRAcquisitionType": "2D",
      "MagneticFieldStrength": 3.0,
      "Manufacturer": "SIEMENS",
      "ManufacturerModelName": "Prisma_fit",
      "Modality": "MR",
      "NumberOfAverages": 1.0,
      "NumberOfPhaseEncodingSteps": 104,
      "PercentPhaseFieldOfView": 100.0,
      "PercentSampling": 100.0,
      "PerformedProcedureStepStartTime": "130540.998000",
      "PhotometricInterpretation": "MONOCHROME2",
      "PixelBandwidth": 2290.0,
      "PixelRepresentation": 0,
      "PixelSpacing": [2.0, 2.0],
      "ProtocolName": "func_task-things_run-2",
      "RepetitionTime": 1490.0,
      "RescaleIntercept": -4096.0,
      "RescaleSlope": 2.0,
      "RescaleType": "US",
      "Rows": 832,
      "SAR": 0.05462609069343,
      "SamplesPerPixel": 1,
      "ScanOptions": "FS",
      "ScanningSequence": "EP",
      "SequenceName": "epfid2d1_104",
      "SequenceVariant": [
        "SK",
        "SS"
],
      "SeriesDescription": "func_task-things_run-2",
      "SeriesNumber": 14,
      "SeriesTime": "140253.245000",
      "SliceLocation": -49.354003536051,
      "SliceThickness": 2.0,
      "SmallestImagePixelValue": 0,
      "SoftwareVersions": "syngo MR E11",
      "SpacingBetweenSlices": 1.9999999663399,
      "SpecificCharacterSet": "ISO_IR 100",
      "StudyID": "1",
      "StudyTime": "130540.892000",
      "TransmitCoilName": "Body",
      "VariableFlipAngleFlag": "N",
      "WindowCenterWidthExplanation": "Algo1",
      "dBdt": 0.0},
    "slices": {}
  },
  "time": {
    "samples": {
      "AcquisitionNumber": [1, 2, 3, 4, 5, 6, 7, 8, 9, 10, 11, 12, 13, 14, 15, 16, 17, 18, 19, 20, 21, 22, 23, 24, 25, 26, 27, 28, 29, 30, 31, 32, 33, 34, 35, 36, 37, 38, 39, 40, 41, 42, 43, 44, 45, 46, 47, 48, 49, 50, 51, 52, 53, 54, 55, 56, 57, 58, 59, 60, 61, 62, 63, 64, 65, 66, 67, 68, 69, 70, 71, 72, 73, 74, 75, 76, 77, 78, 79, 80, 81, 82, 83, 84, 85, 86, 87, 88, 89, 90, 91, 92, 93, 94, 95, 96, 97, 98, 99, 100, 101, 102, 103, 104, 105, 106, 107, 108, 109, 110, 111, 112, 113, 114, 115, 116, 117, 118, 119, 120, 121, 122, 123, 124, 125, 126, 127, 128, 129, 130, 131, 132, 133, 134, 135, 136, 137, 138, 139, 140, 141, 142, 143, 144, 145, 146, 147, 148, 149, 150, 151, 152, 153, 154, 155, 156, 157, 158, 159, 160, 161, 162, 163, 164, 165, 166, 167, 168, 169, 170, 171, 172, 173, 174, 175, 176, 177, 178, 179, 180, 181, 182, 183, 184, 185, 186, 187, 188, 189, 190],
      "AcquisitionTime": ["140139.370000", "140140.860000", "140142.350000", "140143.840000", "140145.330000", "140146.820000", "140148.310000", "140149.800000", "140151.290000", "140152.780000", "140154.270000", "140155.760000", "140157.250000", "140158.740000", "140200.230000", "140201.720000", "140203.210000", "140204.700000", "140206.190000", "140207.680000", "140209.170000", "140210.660000", "140212.150000", "140213.640000", "140215.130000", "140216.620000", "140218.110000", "140219.600000", "140221.090000", "140222.580000", "140224.070000", "140225.560000", "140227.050000", "140228.540000", "140230.030000", "140231.520000", "140233.010000", "140234.500000", "140235.990000", "140237.480000", "140238.970000", "140240.460000", "140241.950000", "140243.440000", "140244.930000", "140246.420000", "140247.910000", "140249.400000", "140250.890000", "140252.380000", "140253.870000", "140255.360000", "140256.850000", "140258.340000", "140259.830000", "140301.320000", "140302.810000", "140304.300000", "140305.790000", "140307.280000", "140308.770000", "140310.260000", "140311.750000", "140313.240000", "140314.730000", "140316.220000", "140317.710000", "140319.200000", "140320.690000", "140322.180000", "140323.670000", "140325.160000", "140326.650000", "140328.140000", "140329.630000", "140331.120000", "140332.610000", "140334.100000", "140335.590000", "140337.080000", "140338.570000", "140340.060000", "140341.550000", "140343.040000", "140344.530000", "140346.020000", "140347.510000", "140349.000000", "140350.490000", "140351.980000", "140353.470000", "140354.960000", "140356.450000", "140357.940000", "140359.430000", "140400.920000", "140402.410000", "140403.900000", "140405.390000", "140406.880000", "140408.370000", "140409.860000", "140411.350000", "140412.840000", "140414.330000", "140415.820000", "140417.310000", "140418.800000", "140420.290000", "140421.780000", "140423.270000", "140424.760000", "140426.250000", "140427.740000", "140429.230000", "140430.720000", "140432.210000", "140433.700000", "140435.190000", "140436.680000", "140438.170000", "140439.660000", "140441.150000", "140442.640000", "140444.130000", "140445.620000", "140447.110000", "140448.600000", "140450.090000", "140451.580000", "140453.070000", "140454.560000", "140456.050000", "140457.540000", "140459.030000", "140500.520000", "140502.010000", "140503.500000", "140504.990000", "140506.480000", "140507.970000", "140509.460000", "140510.950000", "140512.440000", "140513.930000", "140515.420000", "140516.910000", "140518.400000", "140519.890000", "140521.380000", "140522.870000", "140524.360000", "140525.850000", "140527.340000", "140528.830000", "140530.320000", "140531.810000", "140533.300000", "140534.790000", "140536.280000", "140537.770000", "140539.260000", "140540.750000", "140542.240000", "140543.730000", "140545.220000", "140546.710000", "140548.200000", "140549.690000", "140551.180000", "140552.670000", "140554.160000", "140555.650000", "140557.140000", "140558.630000", "140600.120000", "140601.610000", "140603.100000", "140604.590000", "140606.080000", "140607.570000", "140609.060000", "140610.550000", "140612.040000", "140613.530000", "140615.020000", "140616.510000", "140618.000000", "140619.490000", "140620.980000"],
      "ContentTime": ["140253.247000", "140253.258000", "140253.261000", "140253.263000", "140253.266000", "140253.269000", "140253.271000", "140253.274000", "140253.276000", "140253.279000", "140253.281000", "140253.284000", "140253.286000", "140253.289000", "140253.292000", "140253.294000", "140253.297000", "140253.299000", "140313.239000", "140313.241000", "140313.244000", "140313.246000", "140313.249000", "140313.252000", "140313.254000", "140313.257000", "140313.260000", "140313.262000", "140313.265000", "140313.267000", "140313.270000", "140313.272000", "140313.275000", "140313.277000", "140313.280000", "140313.283000", "140313.285000", "140313.288000", "140313.290000", "140333.214000", "140333.217000", "140333.220000", "140333.222000", "140333.225000", "140333.228000", "140333.230000", "140333.233000", "140333.235000", "140333.238000", "140333.240000", "140333.243000", "140333.246000", "140333.248000", "140333.251000", "140333.253000", "140333.256000", "140333.258000", "140333.261000", "140333.264000", "140353.208000", "140353.211000", "140353.213000", "140353.216000", "140353.219000", "140353.221000", "140353.224000", "140353.226000", "140353.229000", "140353.231000", "140353.234000", "140353.237000", "140353.239000", "140353.242000", "140353.244000", "140353.247000", "140353.249000", "140353.252000", "140353.255000", "140353.257000", "140413.224000", "140413.227000", "140413.230000", "140413.232000", "140413.235000", "140413.238000", "140413.240000", "140413.243000", "140413.245000", "140413.248000", "140413.250000", "140413.253000", "140413.256000", "140413.258000", "140413.261000", "140413.263000", "140413.266000", "140413.268000", "140413.271000", "140413.274000", "140453.244000", "140453.247000", "140453.250000", "140453.252000", "140453.255000", "140453.258000", "140453.260000", "140453.263000", "140453.265000", "140453.275000", "140453.278000", "140453.280000", "140453.283000", "140453.286000", "140453.288000", "140453.291000", "140453.293000", "140453.296000", "140453.299000", "140453.301000", "140453.310000", "140453.312000", "140453.315000", "140453.318000", "140453.320000", "140453.323000", "140453.325000", "140453.328000", "140453.330000", "140453.333000", "140533.245000", "140533.247000", "140533.250000", "140533.253000", "140533.255000", "140533.258000", "140533.260000", "140533.263000", "140533.266000", "140533.268000", "140533.271000", "140533.273000", "140533.276000", "140533.279000", "140533.281000", "140533.284000", "140533.286000", "140533.289000", "140533.291000", "140533.294000", "140533.297000", "140533.299000", "140533.302000", "140533.304000", "140533.307000", "140533.309000", "140533.312000", "140613.241000", "140613.243000", "140613.246000", "140613.249000", "140613.251000", "140613.254000", "140613.256000", "140613.259000", "140613.261000", "140613.264000", "140613.267000", "140613.269000", "140613.272000", "140613.274000", "140613.277000", "140613.280000", "140613.282000", "140613.285000", "140613.287000", "140613.290000", "140613.292000", "140613.295000", "140613.298000", "140613.300000", "140613.303000", "140613.305000", "140613.308000", "140623.058000", "140623.061000", "140623.063000", "140623.066000", "140623.074000", "140623.076000", "140623.079000"],
      "InstanceCreationTime": ["140253.247000", "140253.258000", "140253.261000", "140253.263000", "140253.266000", "140253.269000", "140253.271000", "140253.274000", "140253.276000", "140253.279000", "140253.281000", "140253.284000", "140253.286000", "140253.289000", "140253.292000", "140253.294000", "140253.297000", "140253.299000", "140313.239000", "140313.241000", "140313.244000", "140313.246000", "140313.249000", "140313.252000", "140313.254000", "140313.257000", "140313.260000", "140313.262000", "140313.265000", "140313.267000", "140313.270000", "140313.272000", "140313.275000", "140313.277000", "140313.280000", "140313.283000", "140313.285000", "140313.288000", "140313.290000", "140333.214000", "140333.217000", "140333.220000", "140333.222000", "140333.225000", "140333.228000", "140333.230000", "140333.233000", "140333.235000", "140333.238000", "140333.240000", "140333.243000", "140333.246000", "140333.248000", "140333.251000", "140333.253000", "140333.256000", "140333.258000", "140333.261000", "140333.264000", "140353.208000", "140353.211000", "140353.213000", "140353.216000", "140353.219000", "140353.221000", "140353.224000", "140353.226000", "140353.229000", "140353.231000", "140353.234000", "140353.237000", "140353.239000", "140353.242000", "140353.244000", "140353.247000", "140353.249000", "140353.252000", "140353.255000", "140353.257000", "140413.224000", "140413.227000", "140413.230000", "140413.232000", "140413.235000", "140413.238000", "140413.240000", "140413.243000", "140413.245000", "140413.248000", "140413.250000", "140413.253000", "140413.256000", "140413.258000", "140413.261000", "140413.263000", "140413.266000", "140413.268000", "140413.271000", "140413.274000", "140453.244000", "140453.247000", "140453.250000", "140453.252000", "140453.255000", "140453.258000", "140453.260000", "140453.263000", "140453.265000", "140453.275000", "140453.278000", "140453.280000", "140453.283000", "140453.286000", "140453.288000", "140453.291000", "140453.293000", "140453.296000", "140453.299000", "140453.301000", "140453.310000", "140453.312000", "140453.315000", "140453.318000", "140453.320000", "140453.323000", "140453.325000", "140453.328000", "140453.330000", "140453.333000", "140533.245000", "140533.247000", "140533.250000", "140533.253000", "140533.255000", "140533.258000", "140533.260000", "140533.263000", "140533.266000", "140533.268000", "140533.271000", "140533.273000", "140533.276000", "140533.279000", "140533.281000", "140533.284000", "140533.286000", "140533.289000", "140533.291000", "140533.294000", "140533.297000", "140533.299000", "140533.302000", "140533.304000", "140533.307000", "140533.309000", "140533.312000", "140613.241000", "140613.243000", "140613.246000", "140613.249000", "140613.251000", "140613.254000", "140613.256000", "140613.259000", "140613.261000", "140613.264000", "140613.267000", "140613.269000", "140613.272000", "140613.274000", "140613.277000", "140613.280000", "140613.282000", "140613.285000", "140613.287000", "140613.290000", "140613.292000", "140613.295000", "140613.298000", "140613.300000", "140613.303000", "140613.305000", "140613.308000", "140623.058000", "140623.061000", "140623.063000", "140623.066000", "140623.074000", "140623.076000", "140623.079000"],
      "InstanceNumber": [1, 2, 3, 4, 5, 6, 7, 8, 9, 10, 11, 12, 13, 14, 15, 16, 17, 18, 19, 20, 21, 22, 23, 24, 25, 26, 27, 28, 29, 30, 31, 32, 33, 34, 35, 36, 37, 38, 39, 40, 41, 42, 43, 44, 45, 46, 47, 48, 49, 50, 51, 52, 53, 54, 55, 56, 57, 58, 59, 60, 61, 62, 63, 64, 65, 66, 67, 68, 69, 70, 71, 72, 73, 74, 75, 76, 77, 78, 79, 80, 81, 82, 83, 84, 85, 86, 87, 88, 89, 90, 91, 92, 93, 94, 95, 96, 97, 98, 99, 100, 101, 102, 103, 104, 105, 106, 107, 108, 109, 110, 111, 112, 113, 114, 115, 116, 117, 118, 119, 120, 121, 122, 123, 124, 125, 126, 127, 128, 129, 130, 131, 132, 133, 134, 135, 136, 137, 138, 139, 140, 141, 142, 143, 144, 145, 146, 147, 148, 149, 150, 151, 152, 153, 154, 155, 156, 157, 158, 159, 160, 161, 162, 163, 164, 165, 166, 167, 168, 169, 170, 171, 172, 173, 174, 175, 176, 177, 178, 179, 180, 181, 182, 183, 184, 185, 186, 187, 188, 189, 190],
      "WindowCenter": [4770.0, 4770.0, 4750.0, 4752.0, 4774.0, 4748.0, 4774.0, 4774.0, 4772.0, 4772.0, 4772.0, 4772.0, 4746.0, 4752.0, 4750.0, 4776.0, 4774.0, 4774.0, 4772.0, 4772.0, 4748.0, 4772.0, 4748.0, 4748.0, 4772.0, 4774.0, 4752.0, 4772.0, 4768.0, 4774.0, 4772.0, 4772.0, 4750.0, 4752.0, 4750.0, 4750.0, 4748.0, 4778.0, 4772.0, 4774.0, 4772.0, 4772.0, 4774.0, 4774.0, 4776.0, 4772.0, 4776.0, 4774.0, 4774.0, 4774.0, 4748.0, 4772.0, 4772.0, 4774.0, 4750.0, 4778.0, 4752.0, 4772.0, 4774.0, 4772.0, 4774.0, 4772.0, 4772.0, 4774.0, 4776.0, 4750.0, 4776.0, 4778.0, 4770.0, 4774.0, 4750.0, 4776.0, 4776.0, 4754.0, 4770.0, 4774.0, 4774.0, 4750.0, 4776.0, 4754.0, 4774.0, 4750.0, 4772.0, 4774.0, 4750.0, 4752.0, 4772.0, 4774.0, 4772.0, 4774.0, 4750.0, 4750.0, 4754.0, 4774.0, 4776.0, 4772.0, 4774.0, 4772.0, 4774.0, 4772.0, 4748.0, 4750.0, 4772.0, 4750.0, 4758.0, 4774.0, 4772.0, 4774.0, 4770.0, 4774.0, 4772.0, 4772.0, 4776.0, 4774.0, 4752.0, 4776.0, 4776.0, 4774.0, 4748.0, 4772.0, 4750.0, 4750.0, 4772.0, 4774.0, 4774.0, 4748.0, 4776.0, 4752.0, 4774.0, 4772.0, 4752.0, 4752.0, 4752.0, 4774.0, 4752.0, 4774.0, 4774.0, 4776.0, 4752.0, 4754.0, 4774.0, 4776.0, 4752.0, 4776.0, 4754.0, 4750.0, 4752.0, 4752.0, 4750.0, 4774.0, 4772.0, 4752.0, 4774.0, 4748.0, 4776.0, 4772.0, 4750.0, 4776.0, 4772.0, 4776.0, 4772.0, 4752.0, 4754.0, 4778.0, 4774.0, 4750.0, 4750.0, 4774.0, 4754.0, 4774.0, 4774.0, 4774.0, 4752.0, 4776.0, 4778.0, 4782.0, 4776.0, 4752.0, 4774.0, 4750.0, 4774.0, 4752.0, 4778.0, 4776.0, 4776.0, 4776.0, 4750.0, 4776.0, 4776.0, 4774.0],
      "WindowWidth": [18578.0, 18578.0, 18546.0, 18548.0, 18582.0, 18548.0, 18578.0, 18578.0, 18576.0, 18580.0, 18578.0, 18580.0, 18548.0, 18544.0, 18550.0, 18580.0, 18580.0, 18578.0, 18580.0, 18580.0, 18544.0, 18574.0, 18544.0, 18546.0, 18582.0, 18578.0, 18538.0, 18578.0, 18578.0, 18584.0, 18582.0, 18578.0, 18548.0, 18548.0, 18544.0, 18548.0, 18544.0, 18580.0, 18578.0, 18580.0, 18578.0, 18580.0, 18578.0, 18576.0, 18582.0, 18574.0, 18578.0, 18576.0, 18572.0, 18580.0, 18540.0, 18576.0, 18578.0, 18580.0, 18542.0, 18588.0, 18544.0, 18578.0, 18576.0, 18578.0, 18576.0, 18576.0, 18576.0, 18578.0, 18578.0, 18550.0, 18578.0, 18582.0, 18578.0, 18578.0, 18544.0, 18578.0, 18582.0, 18548.0, 18576.0, 18574.0, 18576.0, 18546.0, 18580.0, 18546.0, 18578.0, 18546.0, 18580.0, 18574.0, 18546.0, 18544.0, 18578.0, 18580.0, 18576.0, 18576.0, 18546.0, 18550.0, 18542.0, 18576.0, 18578.0, 18576.0, 18576.0, 18578.0, 18576.0, 18576.0, 18538.0, 18546.0, 18574.0, 18544.0, 18546.0, 18576.0, 18576.0, 18576.0, 18576.0, 18578.0, 18572.0, 18576.0, 18576.0, 18578.0, 18544.0, 18580.0, 18582.0, 18578.0, 18544.0, 18578.0, 18546.0, 18544.0, 18576.0, 18574.0, 18576.0, 18542.0, 18584.0, 18548.0, 18578.0, 18574.0, 18548.0, 18546.0, 18542.0, 18578.0, 18546.0, 18578.0, 18578.0, 18576.0, 18542.0, 18548.0, 18578.0, 18580.0, 18544.0, 18578.0, 18546.0, 18542.0, 18546.0, 18550.0, 18544.0, 18578.0, 18576.0, 18544.0, 18574.0, 18548.0, 18574.0, 18576.0, 18546.0, 18576.0, 18574.0, 18580.0, 18576.0, 18544.0, 18548.0, 18578.0, 18578.0, 18546.0, 18540.0, 18576.0, 18546.0, 18576.0, 18574.0, 18578.0, 18540.0, 18576.0, 18578.0, 18584.0, 18576.0, 18548.0, 18572.0, 18544.0, 18572.0, 18546.0, 18580.0, 18576.0, 18576.0, 18576.0, 18544.0, 18578.0, 18578.0, 18576.0]
    },
    "slices": {}
  }
}