{
  "AcquisitionMatrixPE": 104,
  "AcquisitionNumber": 1,
  "AcquisitionTime": "11:31:6.675000",
  "BandwidthPerPixelPhaseEncode": 17.17,
  "BaseResolution": 104,
  "BodyPartExamined": "BRAIN",
  "CoilString": "HC1-7;NC1_2",
  "ConsistencyInfo": "N4_VE11C_LATEST_20160120",
  "ConversionSoftware": "dcm2niix",
  "ConversionSoftwareVersion": "v1.0.20190902",
  "DerivedVendorReportedEchoSpacing": 0.000560011,
  "DeviceSerialNumber": "167006",
  "DwellTime": 2.1e-06,
  "EchoTime": 0.037,
  "EchoTrainLength": 104,
  "EffectiveEchoSpacing": 0.000560011,
  "FlipAngle": 52,
  "ImageComments": "Unaliased_MB4_PE3_LB",
  "ImageOrientationPatientDICOM": [0.99963, 0.000760162, 0.027202, 0.0127369, 0.870286, -0.492382],
  "ImageType": [
    "ORIGINAL",
    "PRIMARY",
    "P",
    "MB",
    "ND",
    "MOSAIC"
],
  "ImagingFrequency": 123.259,
  "InPlanePhaseEncodingDirectionDICOM": "COL",
  "InstitutionAddress": "Chemin_Queen-Mary_4565_Montreal_District_CA_H3W_1W5",
  "InstitutionName": "IUGM",
  "InstitutionalDepartmentName": "Department",
  "MRAcquisitionType": "2D",
  "MagneticFieldStrength": 3,
  "Manufacturer": "Siemens",
  "ManufacturersModelName": "Prisma_fit",
  "Modality": "MR",
  "MultibandAccelerationFactor": 4,
  "PartialFourier": 1,
  "PatientPosition": "HFS",
  "PercentPhaseFOV": 100,
  "PhaseEncodingDirection": "j",
  "PhaseEncodingSteps": 104,
  "PhaseResolution": 1,
  "PixelBandwidth": 2290,
  "ProcedureStepDescription": "memory_things",
  "ProtocolName": "func_task-things_run-5",
  "PulseSequenceDetails": "%CustomerSeq%_cmrr_mbep2d_bold",
  "ReceiveCoilActiveElements": "HC1-7;NC1,2",
  "ReceiveCoilName": "HeadNeck_64",
  "ReconMatrixPE": 104,
  "RepetitionTime": 1.49,
  "SAR": 0.0542962,
  "ScanOptions": "FS",
  "ScanningSequence": "EP",
  "SequenceName": "epfid2d1_104",
  "SequenceVariant": "SK_SS",
  "SeriesDescription": "func_task-things_run-5",
  "SeriesNumber": 23,
  "ShimSetting": [611, -7157, -8858, 231, -20, -183, -1, -34],
  "SliceThickness": 2,
  "SliceTiming": [0, 0.7825, 0.0975, 0.88, 0.195, 0.98, 0.2925, 1.0775, 0.39, 1.175, 0.49, 1.2725, 0.5875, 1.37, 0.685, 0, 0.7825, 0.0975, 0.88, 0.195, 0.98, 0.2925, 1.0775, 0.39, 1.175, 0.49, 1.2725, 0.5875, 1.37, 0.685, 0, 0.7825, 0.0975, 0.88, 0.195, 0.98, 0.2925, 1.0775, 0.39, 1.175, 0.49, 1.2725, 0.5875, 1.37, 0.685, 0, 0.7825, 0.0975, 0.88, 0.195, 0.98, 0.2925, 1.0775, 0.39, 1.175, 0.49, 1.2725, 0.5875, 1.37, 0.685],
  "SoftwareVersions": "syngo_MR_E11",
  "SpacingBetweenSlices": 2,
  "StationName": "MRC35049",
  "TaskName": "things",
  "TotalReadoutTime": 0.0576811,
  "TxRefAmp": 284.595,
  "WipMemBlock": "40accf29-a2c5-491f-a2bb-0ca0a72d8fce||Sequence: R016 ve11c/master r/e634e98; Dec 19 2017 11:00:25 by eja",
  "dcmmeta_affine": [
    [-1.999259352684021, 0.025473840534687042, 0.04809560254216194, 104.71864318847656],
    [-0.0015203235670924187, 1.7405723333358765, -0.9850917458534241, -52.705528259277344],
    [0.05440397188067436, 0.984763503074646, 1.7399083375930786, -96.17300415039062],
    [0.0, 0.0, 0.0, 1.0]
],
  "dcmmeta_reorient_transform": [
    [0.0, -1.0, 0.0, 103.0],
    [1.0, 0.0, 0.0, 0.0],
    [0.0, 0.0, 1.0, 0.0],
    [0.0, 0.0, 0.0, 1.0]
],
  "dcmmeta_shape": [104, 104, 60, 190],
  "dcmmeta_slice_dim": 2,
  "dcmmeta_version": 0.6,
  "global": {
    "const": {
      "AcquisitionMatrix": [104, 0, 0, 104],
      "AngioFlag": "N",
      "BitsAllocated": 16,
      "BitsStored": 16,
      "BodyPartExamined": "BRAIN",
      "Columns": 832,
      "EchoNumbers": 1,
      "EchoTime": 37.0,
      "EchoTrainLength": 104,
      "FlipAngle": 52.0,
      "HighBit": 15,
      "ImageOrientationPatient": [0.99962966846487, 0.00076016180132, 0.02720198667108, 0.01273692065884, 0.87028614476318, -0.492381759497],
      "ImagePositionPatient": [-844.34532210293, -760.6951271288, 343.90851538815],
      "ImageType": [
        "ORIGINAL",
        "PRIMARY",
        "P",
        "MB",
        "ND",
        "MOSAIC"
],
      "ImagedNucleus": "1H",
      "ImagingFrequency": 123.258968,
      "InPlanePhaseEncodingDirection": "COL",
      "LargestImagePixelValue": 4095,
      "MRAcquisitionType": "2D",
      "MagneticFieldStrength": 3.0,
      "Manufacturer": "SIEMENS",
      "ManufacturerModelName": "Prisma_fit",
      "Modality": "MR",
      "NumberOfAverages": 1.0,
      "NumberOfPhaseEncodingSteps": 104,
      "PercentPhaseFieldOfView": 100.0,
      "PercentSampling": 100.0,
      "PerformedProcedureStepStartTime": "104629.394000",
      "PhotometricInterpretation": "MONOCHROME2",
      "PixelBandwidth": 2290.0,
      "PixelRepresentation": 0,
      "PixelSpacing": [2.0, 2.0],
      "ProtocolName": "func_task-things_run-5",
      "RepetitionTime": 1490.0,
      "RescaleIntercept": -4096.0,
      "RescaleSlope": 2.0,
      "RescaleType": "US",
      "Rows": 832,
      "SAR": 0.05429620387115,
      "SamplesPerPixel": 1,
      "ScanOptions": "FS",
      "ScanningSequence": "EP",
      "SequenceName": "epfid2d1_104",
      "SequenceVariant": [
        "SK",
        "SS"
],
      "SeriesDescription": "func_task-things_run-5",
      "SeriesNumber": 23,
      "SeriesTime": "113233.030000",
      "SliceLocation": -55.187958756075,
      "SliceThickness": 2.0,
      "SmallestImagePixelValue": 0,
      "SoftwareVersions": "syngo MR E11",
      "SpacingBetweenSlices": 2.0000000014688,
      "SpecificCharacterSet": "ISO_IR 100",
      "StudyID": "2",
      "StudyTime": "104629.320000",
      "TransmitCoilName": "Body",
      "VariableFlipAngleFlag": "N",
      "WindowCenterWidthExplanation": "Algo1",
      "dBdt": 0.0},
    "slices": {}
  },
  "time": {
    "samples": {
      "AcquisitionNumber": [1, 2, 3, 4, 5, 6, 7, 8, 9, 10, 11, 12, 13, 14, 15, 16, 17, 18, 19, 20, 21, 22, 23, 24, 25, 26, 27, 28, 29, 30, 31, 32, 33, 34, 35, 36, 37, 38, 39, 40, 41, 42, 43, 44, 45, 46, 47, 48, 49, 50, 51, 52, 53, 54, 55, 56, 57, 58, 59, 60, 61, 62, 63, 64, 65, 66, 67, 68, 69, 70, 71, 72, 73, 74, 75, 76, 77, 78, 79, 80, 81, 82, 83, 84, 85, 86, 87, 88, 89, 90, 91, 92, 93, 94, 95, 96, 97, 98, 99, 100, 101, 102, 103, 104, 105, 106, 107, 108, 109, 110, 111, 112, 113, 114, 115, 116, 117, 118, 119, 120, 121, 122, 123, 124, 125, 126, 127, 128, 129, 130, 131, 132, 133, 134, 135, 136, 137, 138, 139, 140, 141, 142, 143, 144, 145, 146, 147, 148, 149, 150, 151, 152, 153, 154, 155, 156, 157, 158, 159, 160, 161, 162, 163, 164, 165, 166, 167, 168, 169, 170, 171, 172, 173, 174, 175, 176, 177, 178, 179, 180, 181, 182, 183, 184, 185, 186, 187, 188, 189, 190],
      "AcquisitionTime": ["113106.675000", "113108.165000", "113109.655000", "113111.145000", "113112.635000", "113114.125000", "113115.615000", "113117.105000", "113118.595000", "113120.085000", "113121.575000", "113123.065000", "113124.555000", "113126.045000", "113127.535000", "113129.025000", "113130.515000", "113132.005000", "113133.495000", "113134.985000", "113136.475000", "113137.965000", "113139.455000", "113140.945000", "113142.435000", "113143.925000", "113145.415000", "113146.905000", "113148.395000", "113149.885000", "113151.375000", "113152.865000", "113154.355000", "113155.845000", "113157.335000", "113158.825000", "113200.315000", "113201.805000", "113203.295000", "113204.785000", "113206.275000", "113207.765000", "113209.255000", "113210.745000", "113212.235000", "113213.725000", "113215.215000", "113216.705000", "113218.195000", "113219.685000", "113221.175000", "113222.665000", "113224.155000", "113225.645000", "113227.135000", "113228.625000", "113230.115000", "113231.605000", "113233.095000", "113234.585000", "113236.075000", "113237.565000", "113239.055000", "113240.545000", "113242.035000", "113243.525000", "113245.015000", "113246.505000", "113247.995000", "113249.485000", "113250.975000", "113252.465000", "113253.955000", "113255.445000", "113256.935000", "113258.425000", "113259.915000", "113301.405000", "113302.895000", "113304.385000", "113305.875000", "113307.365000", "113308.855000", "113310.345000", "113311.835000", "113313.325000", "113314.815000", "113316.305000", "113317.795000", "113319.285000", "113320.775000", "113322.265000", "113323.755000", "113325.245000", "113326.735000", "113328.225000", "113329.715000", "113331.205000", "113332.695000", "113334.185000", "113335.675000", "113337.165000", "113338.655000", "113340.145000", "113341.635000", "113343.125000", "113344.615000", "113346.105000", "113347.595000", "113349.085000", "113350.575000", "113352.065000", "113353.555000", "113355.045000", "113356.535000", "113358.025000", "113359.515000", "113401.005000", "113402.495000", "113403.985000", "113405.475000", "113406.965000", "113408.455000", "113409.945000", "113411.435000", "113412.925000", "113414.415000", "113415.905000", "113417.395000", "113418.885000", "113420.375000", "113421.865000", "113423.355000", "113424.845000", "113426.335000", "113427.825000", "113429.315000", "113430.805000", "113432.295000", "113433.785000", "113435.275000", "113436.765000", "113438.255000", "113439.745000", "113441.235000", "113442.725000", "113444.215000", "113445.705000", "113447.195000", "113448.685000", "113450.175000", "113451.665000", "113453.155000", "113454.645000", "113456.135000", "113457.625000", "113459.115000", "113500.605000", "113502.095000", "113503.585000", "113505.075000", "113506.565000", "113508.055000", "113509.545000", "113511.035000", "113512.525000", "113514.015000", "113515.505000", "113516.995000", "113518.485000", "113519.975000", "113521.465000", "113522.955000", "113524.445000", "113525.935000", "113527.425000", "113528.915000", "113530.405000", "113531.895000", "113533.385000", "113534.875000", "113536.365000", "113537.855000", "113539.345000", "113540.835000", "113542.325000", "113543.815000", "113545.305000", "113546.795000", "113548.285000"],
      "ContentTime": ["113233.033000", "113233.037000", "113233.040000", "113233.043000", "113233.046000", "113233.050000", "113233.053000", "113233.056000", "113233.058000", "113233.062000", "113233.064000", "113233.067000", "113233.070000", "113233.072000", "113233.075000", "113233.077000", "113233.080000", "113233.082000", "113233.085000", "113233.088000", "113233.090000", "113233.093000", "113233.095000", "113233.098000", "113233.100000", "113233.103000", "113233.105000", "113233.108000", "113233.117000", "113233.119000", "113252.516000", "113252.518000", "113252.521000", "113252.524000", "113252.526000", "113252.529000", "113252.531000", "113252.534000", "113252.536000", "113252.539000", "113252.541000", "113252.544000", "113252.546000", "113252.549000", "113252.552000", "113252.554000", "113252.557000", "113252.559000", "113252.562000", "113252.564000", "113312.510000", "113312.512000", "113312.515000", "113312.517000", "113312.520000", "113312.531000", "113312.533000", "113312.536000", "113312.538000", "113312.541000", "113312.544000", "113312.546000", "113312.549000", "113312.551000", "113312.554000", "113312.556000", "113312.559000", "113312.561000", "113312.564000", "113312.566000", "113332.509000", "113332.511000", "113332.514000", "113332.516000", "113332.519000", "113332.521000", "113332.524000", "113332.527000", "113332.529000", "113332.532000", "113332.534000", "113332.537000", "113332.539000", "113332.542000", "113332.545000", "113332.547000", "113332.550000", "113332.553000", "113332.555000", "113332.558000", "113352.508000", "113352.518000", "113352.520000", "113352.523000", "113352.525000", "113352.528000", "113352.530000", "113352.533000", "113352.535000", "113352.538000", "113352.541000", "113352.543000", "113352.546000", "113352.548000", "113352.551000", "113352.553000", "113352.556000", "113352.558000", "113352.561000", "113352.564000", "113432.544000", "113432.547000", "113432.549000", "113432.552000", "113432.554000", "113432.557000", "113432.560000", "113432.562000", "113432.565000", "113432.567000", "113432.570000", "113432.572000", "113432.575000", "113432.578000", "113432.580000", "113432.583000", "113432.585000", "113432.588000", "113432.590000", "113432.593000", "113432.595000", "113432.598000", "113432.601000", "113432.603000", "113432.606000", "113432.608000", "113432.611000", "113452.473000", "113452.476000", "113452.479000", "113452.481000", "113452.484000", "113452.487000", "113452.489000", "113452.492000", "113452.494000", "113452.497000", "113452.499000", "113452.502000", "113452.504000", "113532.533000", "113532.536000", "113532.539000", "113532.541000", "113532.544000", "113532.546000", "113532.549000", "113532.551000", "113532.562000", "113532.564000", "113532.567000", "113532.569000", "113532.572000", "113532.574000", "113532.582000", "113532.584000", "113532.587000", "113532.589000", "113532.592000", "113532.594000", "113532.597000", "113532.600000", "113532.602000", "113532.605000", "113532.607000", "113532.610000", "113532.612000", "113551.032000", "113551.035000", "113551.038000", "113551.041000", "113551.044000", "113551.047000", "113551.050000", "113551.052000", "113551.055000", "113551.058000", "113551.060000", "113551.063000", "113551.066000"],
      "InstanceCreationTime": ["113233.033000", "113233.037000", "113233.040000", "113233.043000", "113233.046000", "113233.050000", "113233.053000", "113233.056000", "113233.058000", "113233.062000", "113233.064000", "113233.067000", "113233.070000", "113233.072000", "113233.075000", "113233.077000", "113233.080000", "113233.082000", "113233.085000", "113233.088000", "113233.090000", "113233.093000", "113233.095000", "113233.098000", "113233.100000", "113233.103000", "113233.105000", "113233.108000", "113233.117000", "113233.119000", "113252.516000", "113252.518000", "113252.521000", "113252.524000", "113252.526000", "113252.529000", "113252.531000", "113252.534000", "113252.536000", "113252.539000", "113252.541000", "113252.544000", "113252.546000", "113252.549000", "113252.552000", "113252.554000", "113252.557000", "113252.559000", "113252.562000", "113252.564000", "113312.510000", "113312.512000", "113312.515000", "113312.517000", "113312.520000", "113312.531000", "113312.533000", "113312.536000", "113312.538000", "113312.541000", "113312.544000", "113312.546000", "113312.549000", "113312.551000", "113312.554000", "113312.556000", "113312.559000", "113312.561000", "113312.564000", "113312.566000", "113332.509000", "113332.511000", "113332.514000", "113332.516000", "113332.519000", "113332.521000", "113332.524000", "113332.527000", "113332.529000", "113332.532000", "113332.534000", "113332.537000", "113332.539000", "113332.542000", "113332.545000", "113332.547000", "113332.550000", "113332.553000", "113332.555000", "113332.558000", "113352.508000", "113352.518000", "113352.520000", "113352.523000", "113352.525000", "113352.528000", "113352.530000", "113352.533000", "113352.535000", "113352.538000", "113352.541000", "113352.543000", "113352.546000", "113352.548000", "113352.551000", "113352.553000", "113352.556000", "113352.558000", "113352.561000", "113352.564000", "113432.544000", "113432.547000", "113432.549000", "113432.552000", "113432.554000", "113432.557000", "113432.560000", "113432.562000", "113432.565000", "113432.567000", "113432.570000", "113432.572000", "113432.575000", "113432.578000", "113432.580000", "113432.583000", "113432.585000", "113432.588000", "113432.590000", "113432.593000", "113432.595000", "113432.598000", "113432.601000", "113432.603000", "113432.606000", "113432.608000", "113432.611000", "113452.473000", "113452.476000", "113452.479000", "113452.481000", "113452.484000", "113452.487000", "113452.489000", "113452.492000", "113452.494000", "113452.497000", "113452.499000", "113452.502000", "113452.504000", "113532.533000", "113532.536000", "113532.539000", "113532.541000", "113532.544000", "113532.546000", "113532.549000", "113532.551000", "113532.562000", "113532.564000", "113532.567000", "113532.569000", "113532.572000", "113532.574000", "113532.582000", "113532.584000", "113532.587000", "113532.589000", "113532.592000", "113532.594000", "113532.597000", "113532.600000", "113532.602000", "113532.605000", "113532.607000", "113532.610000", "113532.612000", "113551.032000", "113551.035000", "113551.038000", "113551.041000", "113551.044000", "113551.047000", "113551.050000", "113551.052000", "113551.055000", "113551.058000", "113551.060000", "113551.063000", "113551.066000"],
      "InstanceNumber": [1, 2, 3, 4, 5, 6, 7, 8, 9, 10, 11, 12, 13, 14, 15, 16, 17, 18, 19, 20, 21, 22, 23, 24, 25, 26, 27, 28, 29, 30, 31, 32, 33, 34, 35, 36, 37, 38, 39, 40, 41, 42, 43, 44, 45, 46, 47, 48, 49, 50, 51, 52, 53, 54, 55, 56, 57, 58, 59, 60, 61, 62, 63, 64, 65, 66, 67, 68, 69, 70, 71, 72, 73, 74, 75, 76, 77, 78, 79, 80, 81, 82, 83, 84, 85, 86, 87, 88, 89, 90, 91, 92, 93, 94, 95, 96, 97, 98, 99, 100, 101, 102, 103, 104, 105, 106, 107, 108, 109, 110, 111, 112, 113, 114, 115, 116, 117, 118, 119, 120, 121, 122, 123, 124, 125, 126, 127, 128, 129, 130, 131, 132, 133, 134, 135, 136, 137, 138, 139, 140, 141, 142, 143, 144, 145, 146, 147, 148, 149, 150, 151, 152, 153, 154, 155, 156, 157, 158, 159, 160, 161, 162, 163, 164, 165, 166, 167, 168, 169, 170, 171, 172, 173, 174, 175, 176, 177, 178, 179, 180, 181, 182, 183, 184, 185, 186, 187, 188, 189, 190],
      "WindowCenter": [4830.0, 4808.0, 4830.0, 4830.0, 4856.0, 4854.0, 4828.0, 4858.0, 4830.0, 4830.0, 4834.0, 4808.0, 4830.0, 4828.0, 4836.0, 4828.0, 4832.0, 4834.0, 4832.0, 4834.0, 4830.0, 4834.0, 4906.0, 4880.0, 4830.0, 4800.0, 4804.0, 4800.0, 4828.0, 4828.0, 4832.0, 4862.0, 4860.0, 4858.0, 4862.0, 4830.0, 4828.0, 4826.0, 4804.0, 4830.0, 4828.0, 4832.0, 4832.0, 4834.0, 4858.0, 4832.0, 4832.0, 4834.0, 4804.0, 4858.0, 4884.0, 4832.0, 4834.0, 4832.0, 4828.0, 4830.0, 4830.0, 4830.0, 4832.0, 4832.0, 4860.0, 4854.0, 4832.0, 4834.0, 4830.0, 4832.0, 4830.0, 4832.0, 4828.0, 4858.0, 4858.0, 4834.0, 4828.0, 4804.0, 4830.0, 4856.0, 4836.0, 4836.0, 4856.0, 4832.0, 4856.0, 4806.0, 4856.0, 4858.0, 4802.0, 4832.0, 4830.0, 4806.0, 4856.0, 4832.0, 4806.0, 4834.0, 4832.0, 4832.0, 4860.0, 4832.0, 4808.0, 4830.0, 4806.0, 4830.0, 4828.0, 4836.0, 4834.0, 4836.0, 4858.0, 4830.0, 4858.0, 4858.0, 4828.0, 4858.0, 4832.0, 4804.0, 4828.0, 4804.0, 4830.0, 4830.0, 4860.0, 4834.0, 4862.0, 4860.0, 4834.0, 4834.0, 4830.0, 4828.0, 4830.0, 4830.0, 4830.0, 4858.0, 4836.0, 4858.0, 4860.0, 4834.0, 4828.0, 4804.0, 4834.0, 4828.0, 4832.0, 4860.0, 4828.0, 4858.0, 4858.0, 4832.0, 4834.0, 4804.0, 4832.0, 4830.0, 4828.0, 4858.0, 4858.0, 4834.0, 4834.0, 4828.0, 4830.0, 4828.0, 4856.0, 4854.0, 4830.0, 4836.0, 4832.0, 4802.0, 4830.0, 4828.0, 4828.0, 4834.0, 4830.0, 4832.0, 4858.0, 4830.0, 4832.0, 4828.0, 4828.0, 4828.0, 4830.0, 4832.0, 4834.0, 4834.0, 4862.0, 4834.0, 4856.0, 4856.0, 4826.0, 4834.0, 4830.0, 4826.0, 4856.0, 4900.0, 4896.0, 4880.0, 4826.0, 4798.0],
      "WindowWidth": [18566.0, 18536.0, 18564.0, 18564.0, 18602.0, 18602.0, 18564.0, 18610.0, 18568.0, 18564.0, 18566.0, 18538.0, 18566.0, 18560.0, 18566.0, 18562.0, 18566.0, 18566.0, 18564.0, 18574.0, 18564.0, 18568.0, 18704.0, 18662.0, 18568.0, 18542.0, 18540.0, 18544.0, 18568.0, 18566.0, 18564.0, 18614.0, 18608.0, 18604.0, 18610.0, 18558.0, 18560.0, 18566.0, 18540.0, 18564.0, 18560.0, 18560.0, 18562.0, 18566.0, 18602.0, 18554.0, 18564.0, 18568.0, 18530.0, 18612.0, 18658.0, 18566.0, 18568.0, 18566.0, 18570.0, 18570.0, 18568.0, 18564.0, 18564.0, 18562.0, 18602.0, 18600.0, 18564.0, 18566.0, 18566.0, 18566.0, 18562.0, 18566.0, 18564.0, 18602.0, 18610.0, 18566.0, 18560.0, 18532.0, 18564.0, 18602.0, 18570.0, 18566.0, 18600.0, 18560.0, 18604.0, 18534.0, 18606.0, 18614.0, 18532.0, 18570.0, 18568.0, 18536.0, 18608.0, 18574.0, 18532.0, 18568.0, 18564.0, 18566.0, 18608.0, 18564.0, 18530.0, 18562.0, 18532.0, 18558.0, 18558.0, 18564.0, 18566.0, 18564.0, 18596.0, 18558.0, 18618.0, 18612.0, 18558.0, 18616.0, 18570.0, 18534.0, 18570.0, 18534.0, 18562.0, 18564.0, 18600.0, 18560.0, 18618.0, 18604.0, 18564.0, 18570.0, 18566.0, 18566.0, 18570.0, 18564.0, 18566.0, 18608.0, 18570.0, 18608.0, 18616.0, 18562.0, 18562.0, 18534.0, 18574.0, 18566.0, 18572.0, 18610.0, 18558.0, 18610.0, 18614.0, 18574.0, 18576.0, 18536.0, 18570.0, 18570.0, 18564.0, 18612.0, 18600.0, 18574.0, 18570.0, 18566.0, 18568.0, 18562.0, 18610.0, 18604.0, 18560.0, 18572.0, 18572.0, 18530.0, 18564.0, 18562.0, 18558.0, 18572.0, 18568.0, 18568.0, 18610.0, 18564.0, 18566.0, 18564.0, 18568.0, 18560.0, 18562.0, 18564.0, 18570.0, 18568.0, 18614.0, 18564.0, 18608.0, 18600.0, 18564.0, 18570.0, 18566.0, 18562.0, 18610.0, 18716.0, 18718.0, 18670.0, 18570.0, 18552.0]
    },
    "slices": {}
  }
}