{
  "AcquisitionMatrixPE": 104,
  "AcquisitionNumber": 1,
  "AcquisitionTime": "11:12:4.622500",
  "BandwidthPerPixelPhaseEncode": 17.17,
  "BaseResolution": 104,
  "BodyPartExamined": "BRAIN",
  "CoilString": "HC1-7;NC1_2",
  "ConsistencyInfo": "N4_VE11C_LATEST_20160120",
  "ConversionSoftware": "dcm2niix",
  "ConversionSoftwareVersion": "v1.0.20190902",
  "DerivedVendorReportedEchoSpacing": 0.000560011,
  "DeviceSerialNumber": "167006",
  "DwellTime": 2.1e-06,
  "EchoTime": 0.037,
  "EchoTrainLength": 104,
  "EffectiveEchoSpacing": 0.000560011,
  "FlipAngle": 52,
  "ImageComments": "Unaliased_MB4_PE3_LB",
  "ImageOrientationPatientDICOM": [0.99963, 0.000760162, 0.027202, 0.0127369, 0.870286, -0.492382],
  "ImageType": [
    "ORIGINAL",
    "PRIMARY",
    "P",
    "MB",
    "ND",
    "MOSAIC"
],
  "ImagingFrequency": 123.259,
  "InPlanePhaseEncodingDirectionDICOM": "COL",
  "InstitutionAddress": "Chemin_Queen-Mary_4565_Montreal_District_CA_H3W_1W5",
  "InstitutionName": "IUGM",
  "InstitutionalDepartmentName": "Department",
  "MRAcquisitionType": "2D",
  "MagneticFieldStrength": 3,
  "Manufacturer": "Siemens",
  "ManufacturersModelName": "Prisma_fit",
  "Modality": "MR",
  "MultibandAccelerationFactor": 4,
  "PartialFourier": 1,
  "PatientPosition": "HFS",
  "PercentPhaseFOV": 100,
  "PhaseEncodingDirection": "j",
  "PhaseEncodingSteps": 104,
  "PhaseResolution": 1,
  "PixelBandwidth": 2290,
  "ProcedureStepDescription": "memory_things",
  "ProtocolName": "func_task-things_run-2",
  "PulseSequenceDetails": "%CustomerSeq%_cmrr_mbep2d_bold",
  "ReceiveCoilActiveElements": "HC1-7;NC1,2",
  "ReceiveCoilName": "HeadNeck_64",
  "ReconMatrixPE": 104,
  "RepetitionTime": 1.49,
  "SAR": 0.0542962,
  "ScanOptions": "FS",
  "ScanningSequence": "EP",
  "SequenceName": "epfid2d1_104",
  "SequenceVariant": "SK_SS",
  "SeriesDescription": "func_task-things_run-2",
  "SeriesNumber": 14,
  "ShimSetting": [611, -7157, -8858, 231, -20, -183, -1, -34],
  "SliceThickness": 2,
  "SliceTiming": [0, 0.785, 0.0975, 0.8825, 0.1975, 0.98, 0.295, 1.0775, 0.3925, 1.1775, 0.49, 1.275, 0.5875, 1.3725, 0.6875, 0, 0.785, 0.0975, 0.8825, 0.1975, 0.98, 0.295, 1.0775, 0.3925, 1.1775, 0.49, 1.275, 0.5875, 1.3725, 0.6875, 0, 0.785, 0.0975, 0.8825, 0.1975, 0.98, 0.295, 1.0775, 0.3925, 1.1775, 0.49, 1.275, 0.5875, 1.3725, 0.6875, 0, 0.785, 0.0975, 0.8825, 0.1975, 0.98, 0.295, 1.0775, 0.3925, 1.1775, 0.49, 1.275, 0.5875, 1.3725, 0.6875],
  "SoftwareVersions": "syngo_MR_E11",
  "SpacingBetweenSlices": 2,
  "StationName": "MRC35049",
  "TaskName": "things",
  "TotalReadoutTime": 0.0576811,
  "TxRefAmp": 284.595,
  "WipMemBlock": "8656d92a-2994-4f96-a4e2-0ee1103518d6||Sequence: R016 ve11c/master r/e634e98; Dec 19 2017 11:00:25 by eja",
  "dcmmeta_affine": [
    [-1.999259352684021, 0.025473840534687042, 0.04809560254216194, 104.71864318847656],
    [-0.0015203235670924187, 1.7405723333358765, -0.9850917458534241, -52.705528259277344],
    [0.05440397188067436, 0.984763503074646, 1.7399083375930786, -96.17300415039062],
    [0.0, 0.0, 0.0, 1.0]
],
  "dcmmeta_reorient_transform": [
    [0.0, -1.0, 0.0, 103.0],
    [1.0, 0.0, 0.0, 0.0],
    [0.0, 0.0, 1.0, 0.0],
    [0.0, 0.0, 0.0, 1.0]
],
  "dcmmeta_shape": [104, 104, 60, 190],
  "dcmmeta_slice_dim": 2,
  "dcmmeta_version": 0.6,
  "global": {
    "const": {
      "AcquisitionMatrix": [104, 0, 0, 104],
      "AngioFlag": "N",
      "BitsAllocated": 16,
      "BitsStored": 16,
      "BodyPartExamined": "BRAIN",
      "Columns": 832,
      "EchoNumbers": 1,
      "EchoTime": 37.0,
      "EchoTrainLength": 104,
      "FlipAngle": 52.0,
      "HighBit": 15,
      "ImageOrientationPatient": [0.99962966846487, 0.00076016180132, 0.02720198667108, 0.01273692065884, 0.87028614476318, -0.492381759497],
      "ImagePositionPatient": [-844.34532210293, -760.6951271288, 343.90851538815],
      "ImageType": [
        "ORIGINAL",
        "PRIMARY",
        "P",
        "MB",
        "ND",
        "MOSAIC"
],
      "ImagedNucleus": "1H",
      "ImagingFrequency": 123.258959,
      "InPlanePhaseEncodingDirection": "COL",
      "LargestImagePixelValue": 4095,
      "MRAcquisitionType": "2D",
      "MagneticFieldStrength": 3.0,
      "Manufacturer": "SIEMENS",
      "ManufacturerModelName": "Prisma_fit",
      "Modality": "MR",
      "NumberOfAverages": 1.0,
      "NumberOfPhaseEncodingSteps": 104,
      "PercentPhaseFieldOfView": 100.0,
      "PercentSampling": 100.0,
      "PerformedProcedureStepStartTime": "104629.394000",
      "PhotometricInterpretation": "MONOCHROME2",
      "PixelBandwidth": 2290.0,
      "PixelRepresentation": 0,
      "PixelSpacing": [2.0, 2.0],
      "ProtocolName": "func_task-things_run-2",
      "RepetitionTime": 1490.0,
      "RescaleIntercept": -4096.0,
      "RescaleSlope": 2.0,
      "RescaleType": "US",
      "Rows": 832,
      "SAR": 0.05429620387115,
      "SamplesPerPixel": 1,
      "ScanOptions": "FS",
      "ScanningSequence": "EP",
      "SequenceName": "epfid2d1_104",
      "SequenceVariant": [
        "SK",
        "SS"
],
      "SeriesDescription": "func_task-things_run-2",
      "SeriesNumber": 14,
      "SeriesTime": "111332.578000",
      "SliceLocation": -55.187958756075,
      "SliceThickness": 2.0,
      "SmallestImagePixelValue": 0,
      "SoftwareVersions": "syngo MR E11",
      "SpacingBetweenSlices": 2.0000000014688,
      "SpecificCharacterSet": "ISO_IR 100",
      "StudyID": "2",
      "StudyTime": "104629.320000",
      "TransmitCoilName": "Body",
      "VariableFlipAngleFlag": "N",
      "WindowCenterWidthExplanation": "Algo1",
      "dBdt": 0.0},
    "slices": {}
  },
  "time": {
    "samples": {
      "AcquisitionNumber": [1, 2, 3, 4, 5, 6, 7, 8, 9, 10, 11, 12, 13, 14, 15, 16, 17, 18, 19, 20, 21, 22, 23, 24, 25, 26, 27, 28, 29, 30, 31, 32, 33, 34, 35, 36, 37, 38, 39, 40, 41, 42, 43, 44, 45, 46, 47, 48, 49, 50, 51, 52, 53, 54, 55, 56, 57, 58, 59, 60, 61, 62, 63, 64, 65, 66, 67, 68, 69, 70, 71, 72, 73, 74, 75, 76, 77, 78, 79, 80, 81, 82, 83, 84, 85, 86, 87, 88, 89, 90, 91, 92, 93, 94, 95, 96, 97, 98, 99, 100, 101, 102, 103, 104, 105, 106, 107, 108, 109, 110, 111, 112, 113, 114, 115, 116, 117, 118, 119, 120, 121, 122, 123, 124, 125, 126, 127, 128, 129, 130, 131, 132, 133, 134, 135, 136, 137, 138, 139, 140, 141, 142, 143, 144, 145, 146, 147, 148, 149, 150, 151, 152, 153, 154, 155, 156, 157, 158, 159, 160, 161, 162, 163, 164, 165, 166, 167, 168, 169, 170, 171, 172, 173, 174, 175, 176, 177, 178, 179, 180, 181, 182, 183, 184, 185, 186, 187, 188, 189, 190],
      "AcquisitionTime": ["111204.622500", "111206.112500", "111207.602500", "111209.092500", "111210.582500", "111212.072500", "111213.562500", "111215.052500", "111216.542500", "111218.032500", "111219.522500", "111221.012500", "111222.502500", "111223.992500", "111225.482500", "111226.972500", "111228.462500", "111229.952500", "111231.442500", "111232.932500", "111234.422500", "111235.912500", "111237.402500", "111238.892500", "111240.382500", "111241.872500", "111243.362500", "111244.852500", "111246.342500", "111247.832500", "111249.322500", "111250.812500", "111252.302500", "111253.792500", "111255.282500", "111256.772500", "111258.262500", "111259.752500", "111301.242500", "111302.732500", "111304.222500", "111305.712500", "111307.202500", "111308.692500", "111310.182500", "111311.672500", "111313.162500", "111314.652500", "111316.142500", "111317.632500", "111319.122500", "111320.612500", "111322.102500", "111323.592500", "111325.082500", "111326.572500", "111328.062500", "111329.552500", "111331.042500", "111332.532500", "111334.022500", "111335.512500", "111337.002500", "111338.492500", "111339.982500", "111341.472500", "111342.962500", "111344.452500", "111345.942500", "111347.432500", "111348.922500", "111350.412500", "111351.902500", "111353.392500", "111354.882500", "111356.372500", "111357.862500", "111359.352500", "111400.842500", "111402.332500", "111403.822500", "111405.312500", "111406.802500", "111408.292500", "111409.782500", "111411.272500", "111412.762500", "111414.252500", "111415.742500", "111417.232500", "111418.722500", "111420.212500", "111421.702500", "111423.192500", "111424.682500", "111426.172500", "111427.662500", "111429.152500", "111430.642500", "111432.132500", "111433.622500", "111435.112500", "111436.602500", "111438.092500", "111439.582500", "111441.072500", "111442.562500", "111444.052500", "111445.542500", "111447.032500", "111448.522500", "111450.012500", "111451.502500", "111452.992500", "111454.482500", "111455.972500", "111457.462500", "111458.952500", "111500.442500", "111501.932500", "111503.422500", "111504.912500", "111506.402500", "111507.892500", "111509.382500", "111510.872500", "111512.362500", "111513.852500", "111515.342500", "111516.832500", "111518.322500", "111519.812500", "111521.302500", "111522.792500", "111524.282500", "111525.772500", "111527.262500", "111528.752500", "111530.242500", "111531.732500", "111533.222500", "111534.712500", "111536.202500", "111537.692500", "111539.182500", "111540.672500", "111542.162500", "111543.652500", "111545.142500", "111546.632500", "111548.122500", "111549.612500", "111551.102500", "111552.592500", "111554.082500", "111555.572500", "111557.062500", "111558.552500", "111600.042500", "111601.532500", "111603.022500", "111604.512500", "111606.002500", "111607.492500", "111608.982500", "111610.472500", "111611.962500", "111613.452500", "111614.942500", "111616.432500", "111617.922500", "111619.412500", "111620.902500", "111622.392500", "111623.882500", "111625.372500", "111626.862500", "111628.352500", "111629.842500", "111631.332500", "111632.822500", "111634.312500", "111635.802500", "111637.292500", "111638.782500", "111640.272500", "111641.762500", "111643.252500", "111644.742500", "111646.232500"],
      "ContentTime": ["111332.580000", "111332.583000", "111332.586000", "111332.588000", "111332.591000", "111332.593000", "111332.596000", "111332.598000", "111332.601000", "111332.603000", "111332.606000", "111332.609000", "111332.611000", "111332.614000", "111332.616000", "111332.619000", "111332.621000", "111332.624000", "111332.626000", "111332.629000", "111332.631000", "111332.634000", "111332.636000", "111332.639000", "111332.641000", "111332.644000", "111332.647000", "111332.649000", "111332.652000", "111332.654000", "111332.657000", "111332.659000", "111332.662000", "111352.513000", "111352.516000", "111352.518000", "111352.521000", "111352.524000", "111352.526000", "111352.529000", "111352.531000", "111352.534000", "111352.536000", "111352.539000", "111352.542000", "111352.544000", "111352.547000", "111352.549000", "111352.552000", "111352.554000", "111352.557000", "111352.560000", "111352.562000", "111412.518000", "111412.520000", "111412.523000", "111412.526000", "111412.528000", "111412.531000", "111412.533000", "111412.536000", "111412.538000", "111412.541000", "111412.544000", "111412.546000", "111412.549000", "111412.551000", "111412.554000", "111412.556000", "111412.559000", "111412.562000", "111412.564000", "111412.567000", "111412.569000", "111432.488000", "111432.491000", "111432.493000", "111432.496000", "111432.504000", "111432.506000", "111432.514000", "111432.517000", "111432.520000", "111432.522000", "111432.525000", "111432.527000", "111432.530000", "111432.532000", "111432.535000", "111432.537000", "111432.540000", "111432.543000", "111432.545000", "111432.548000", "111452.493000", "111452.496000", "111452.499000", "111452.501000", "111452.504000", "111452.506000", "111452.509000", "111452.511000", "111452.514000", "111452.516000", "111452.519000", "111452.521000", "111452.524000", "111452.526000", "111452.529000", "111452.531000", "111452.534000", "111452.536000", "111532.552000", "111532.555000", "111532.558000", "111532.560000", "111532.563000", "111532.566000", "111532.568000", "111532.571000", "111532.574000", "111532.576000", "111532.579000", "111532.581000", "111532.584000", "111532.586000", "111532.589000", "111532.591000", "111532.594000", "111532.597000", "111532.599000", "111532.602000", "111532.604000", "111532.607000", "111532.609000", "111532.612000", "111532.614000", "111532.617000", "111532.620000", "111612.520000", "111612.523000", "111612.525000", "111612.528000", "111612.530000", "111612.533000", "111612.535000", "111612.538000", "111612.540000", "111612.543000", "111612.545000", "111612.548000", "111612.552000", "111612.555000", "111612.557000", "111612.560000", "111612.563000", "111612.566000", "111612.569000", "111612.572000", "111612.575000", "111612.578000", "111612.581000", "111612.583000", "111612.586000", "111612.589000", "111648.564000", "111648.567000", "111648.570000", "111648.573000", "111648.576000", "111648.579000", "111648.581000", "111648.584000", "111648.587000", "111648.590000", "111648.592000", "111648.595000", "111648.598000", "111648.601000", "111648.603000", "111648.606000", "111648.609000", "111648.612000", "111648.615000", "111648.618000", "111648.621000", "111648.624000", "111648.627000", "111648.630000", "111648.632000"],
      "InstanceCreationTime": ["111332.580000", "111332.583000", "111332.586000", "111332.588000", "111332.591000", "111332.593000", "111332.596000", "111332.598000", "111332.601000", "111332.603000", "111332.606000", "111332.609000", "111332.611000", "111332.614000", "111332.616000", "111332.619000", "111332.621000", "111332.624000", "111332.626000", "111332.629000", "111332.631000", "111332.634000", "111332.636000", "111332.639000", "111332.641000", "111332.644000", "111332.647000", "111332.649000", "111332.652000", "111332.654000", "111332.657000", "111332.659000", "111332.662000", "111352.513000", "111352.516000", "111352.518000", "111352.521000", "111352.524000", "111352.526000", "111352.529000", "111352.531000", "111352.534000", "111352.536000", "111352.539000", "111352.542000", "111352.544000", "111352.547000", "111352.549000", "111352.552000", "111352.554000", "111352.557000", "111352.560000", "111352.562000", "111412.518000", "111412.520000", "111412.523000", "111412.526000", "111412.528000", "111412.531000", "111412.533000", "111412.536000", "111412.538000", "111412.541000", "111412.544000", "111412.546000", "111412.549000", "111412.551000", "111412.554000", "111412.556000", "111412.559000", "111412.562000", "111412.564000", "111412.567000", "111412.569000", "111432.488000", "111432.491000", "111432.493000", "111432.496000", "111432.504000", "111432.506000", "111432.514000", "111432.517000", "111432.520000", "111432.522000", "111432.525000", "111432.527000", "111432.530000", "111432.532000", "111432.535000", "111432.537000", "111432.540000", "111432.543000", "111432.545000", "111432.548000", "111452.493000", "111452.496000", "111452.499000", "111452.501000", "111452.504000", "111452.506000", "111452.509000", "111452.511000", "111452.514000", "111452.516000", "111452.519000", "111452.521000", "111452.524000", "111452.526000", "111452.529000", "111452.531000", "111452.534000", "111452.536000", "111532.552000", "111532.555000", "111532.558000", "111532.560000", "111532.563000", "111532.566000", "111532.568000", "111532.571000", "111532.574000", "111532.576000", "111532.579000", "111532.581000", "111532.584000", "111532.586000", "111532.589000", "111532.591000", "111532.594000", "111532.597000", "111532.599000", "111532.602000", "111532.604000", "111532.607000", "111532.609000", "111532.612000", "111532.614000", "111532.617000", "111532.620000", "111612.520000", "111612.523000", "111612.525000", "111612.528000", "111612.530000", "111612.533000", "111612.535000", "111612.538000", "111612.540000", "111612.543000", "111612.545000", "111612.548000", "111612.552000", "111612.555000", "111612.557000", "111612.560000", "111612.563000", "111612.566000", "111612.569000", "111612.572000", "111612.575000", "111612.578000", "111612.581000", "111612.583000", "111612.586000", "111612.589000", "111648.564000", "111648.567000", "111648.570000", "111648.573000", "111648.576000", "111648.579000", "111648.581000", "111648.584000", "111648.587000", "111648.590000", "111648.592000", "111648.595000", "111648.598000", "111648.601000", "111648.603000", "111648.606000", "111648.609000", "111648.612000", "111648.615000", "111648.618000", "111648.621000", "111648.624000", "111648.627000", "111648.630000", "111648.632000"],
      "InstanceNumber": [1, 2, 3, 4, 5, 6, 7, 8, 9, 10, 11, 12, 13, 14, 15, 16, 17, 18, 19, 20, 21, 22, 23, 24, 25, 26, 27, 28, 29, 30, 31, 32, 33, 34, 35, 36, 37, 38, 39, 40, 41, 42, 43, 44, 45, 46, 47, 48, 49, 50, 51, 52, 53, 54, 55, 56, 57, 58, 59, 60, 61, 62, 63, 64, 65, 66, 67, 68, 69, 70, 71, 72, 73, 74, 75, 76, 77, 78, 79, 80, 81, 82, 83, 84, 85, 86, 87, 88, 89, 90, 91, 92, 93, 94, 95, 96, 97, 98, 99, 100, 101, 102, 103, 104, 105, 106, 107, 108, 109, 110, 111, 112, 113, 114, 115, 116, 117, 118, 119, 120, 121, 122, 123, 124, 125, 126, 127, 128, 129, 130, 131, 132, 133, 134, 135, 136, 137, 138, 139, 140, 141, 142, 143, 144, 145, 146, 147, 148, 149, 150, 151, 152, 153, 154, 155, 156, 157, 158, 159, 160, 161, 162, 163, 164, 165, 166, 167, 168, 169, 170, 171, 172, 173, 174, 175, 176, 177, 178, 179, 180, 181, 182, 183, 184, 185, 186, 187, 188, 189, 190],
      "WindowCenter": [4902.0, 4884.0, 4834.0, 4882.0, 4910.0, 4934.0, 4934.0, 4932.0, 4934.0, 4914.0, 4934.0, 4912.0, 4888.0, 4908.0, 4888.0, 4892.0, 4928.0, 4934.0, 4916.0, 4934.0, 4912.0, 4910.0, 4912.0, 4890.0, 4910.0, 4912.0, 4912.0, 4934.0, 4934.0, 4912.0, 4936.0, 4910.0, 4914.0, 4910.0, 4910.0, 4934.0, 4916.0, 4930.0, 4914.0, 4934.0, 4912.0, 4908.0, 4910.0, 4908.0, 4912.0, 4912.0, 4932.0, 4912.0, 4932.0, 4912.0, 4914.0, 4910.0, 4912.0, 4914.0, 4910.0, 4912.0, 4914.0, 4912.0, 4914.0, 4912.0, 4912.0, 4932.0, 4912.0, 4910.0, 4910.0, 4912.0, 4912.0, 4936.0, 4912.0, 4910.0, 4910.0, 4912.0, 4910.0, 4912.0, 4914.0, 4910.0, 4932.0, 4938.0, 4936.0, 4938.0, 4930.0, 4912.0, 4910.0, 4888.0, 4912.0, 4912.0, 4912.0, 4912.0, 4914.0, 4938.0, 4910.0, 4934.0, 4914.0, 4912.0, 4914.0, 4914.0, 4914.0, 4912.0, 4914.0, 4914.0, 4914.0, 4936.0, 4914.0, 4934.0, 4914.0, 4910.0, 4934.0, 4888.0, 4910.0, 4890.0, 4912.0, 4914.0, 4934.0, 4938.0, 4936.0, 4936.0, 4910.0, 4914.0, 4910.0, 4914.0, 4914.0, 4914.0, 4910.0, 4914.0, 4938.0, 4936.0, 4912.0, 4914.0, 4914.0, 4912.0, 4912.0, 4936.0, 4912.0, 4934.0, 4914.0, 4936.0, 4914.0, 4910.0, 4914.0, 4912.0, 4912.0, 4914.0, 4934.0, 4920.0, 4912.0, 4930.0, 4916.0, 4908.0, 4910.0, 4886.0, 4908.0, 4912.0, 4934.0, 4936.0, 4934.0, 4936.0, 4914.0, 4932.0, 4912.0, 4910.0, 4890.0, 4912.0, 4914.0, 4936.0, 4914.0, 4914.0, 4912.0, 4936.0, 4914.0, 4914.0, 4914.0, 4914.0, 4912.0, 4914.0, 4910.0, 4914.0, 4914.0, 4914.0, 4934.0, 4918.0, 4934.0, 4914.0, 4912.0, 4912.0, 4912.0, 4938.0, 4914.0, 4908.0, 4800.0, 4830.0],
      "WindowWidth": [18716.0, 18658.0, 18568.0, 18650.0, 18706.0, 18750.0, 18744.0, 18758.0, 18760.0, 18704.0, 18740.0, 18694.0, 18652.0, 18700.0, 18660.0, 18658.0, 18760.0, 18750.0, 18700.0, 18756.0, 18708.0, 18692.0, 18714.0, 18662.0, 18692.0, 18712.0, 18692.0, 18746.0, 18746.0, 18694.0, 18746.0, 18688.0, 18694.0, 18690.0, 18710.0, 18744.0, 18710.0, 18756.0, 18696.0, 18742.0, 18694.0, 18706.0, 18688.0, 18708.0, 18702.0, 18696.0, 18748.0, 18698.0, 18744.0, 18706.0, 18708.0, 18700.0, 18704.0, 18706.0, 18702.0, 18702.0, 18708.0, 18696.0, 18708.0, 18708.0, 18706.0, 18748.0, 18700.0, 18698.0, 18712.0, 18704.0, 18708.0, 18752.0, 18688.0, 18698.0, 18692.0, 18708.0, 18688.0, 18694.0, 18694.0, 18708.0, 18756.0, 18744.0, 18744.0, 18744.0, 18748.0, 18692.0, 18714.0, 18652.0, 18700.0, 18688.0, 18696.0, 18704.0, 18702.0, 18744.0, 18704.0, 18752.0, 18698.0, 18710.0, 18704.0, 18706.0, 18690.0, 18702.0, 18702.0, 18690.0, 18706.0, 18746.0, 18698.0, 18760.0, 18700.0, 18706.0, 18742.0, 18652.0, 18700.0, 18658.0, 18702.0, 18692.0, 18748.0, 18740.0, 18740.0, 18748.0, 18690.0, 18704.0, 18696.0, 18704.0, 18700.0, 18710.0, 18700.0, 18706.0, 18742.0, 18744.0, 18704.0, 18708.0, 18698.0, 18704.0, 18700.0, 18748.0, 18696.0, 18752.0, 18700.0, 18740.0, 18706.0, 18696.0, 18704.0, 18698.0, 18710.0, 18696.0, 18756.0, 18708.0, 18712.0, 18750.0, 18700.0, 18706.0, 18708.0, 18650.0, 18698.0, 18688.0, 18742.0, 18734.0, 18752.0, 18752.0, 18710.0, 18752.0, 18688.0, 18702.0, 18656.0, 18698.0, 18690.0, 18750.0, 18704.0, 18712.0, 18704.0, 18742.0, 18700.0, 18714.0, 18700.0, 18698.0, 18708.0, 18702.0, 18692.0, 18702.0, 18708.0, 18698.0, 18752.0, 18698.0, 18744.0, 18700.0, 18706.0, 18700.0, 18692.0, 18740.0, 18686.0, 18718.0, 18610.0, 18652.0]
    },
    "slices": {}
  }
}