{
  "AcquisitionMatrixPE": 104,
  "AcquisitionNumber": 1,
  "AcquisitionTime": "11:24:25.675000",
  "BandwidthPerPixelPhaseEncode": 17.17,
  "BaseResolution": 104,
  "BodyPartExamined": "BRAIN",
  "CoilString": "HC1-7;NC1_2",
  "ConsistencyInfo": "N4_VE11C_LATEST_20160120",
  "ConversionSoftware": "dcm2niix",
  "ConversionSoftwareVersion": "v1.0.20190902",
  "DerivedVendorReportedEchoSpacing": 0.000560011,
  "DeviceSerialNumber": "167006",
  "DwellTime": 2.1e-06,
  "EchoTime": 0.037,
  "EchoTrainLength": 104,
  "EffectiveEchoSpacing": 0.000560011,
  "FlipAngle": 52,
  "ImageComments": "Unaliased_MB4_PE3_LB",
  "ImageOrientationPatientDICOM": [0.99963, 0.000760162, 0.027202, 0.0127369, 0.870286, -0.492382],
  "ImageType": [
    "ORIGINAL",
    "PRIMARY",
    "P",
    "MB",
    "ND",
    "MOSAIC"
],
  "ImagingFrequency": 123.259,
  "InPlanePhaseEncodingDirectionDICOM": "COL",
  "InstitutionAddress": "Chemin_Queen-Mary_4565_Montreal_District_CA_H3W_1W5",
  "InstitutionName": "IUGM",
  "InstitutionalDepartmentName": "Department",
  "MRAcquisitionType": "2D",
  "MagneticFieldStrength": 3,
  "Manufacturer": "Siemens",
  "ManufacturersModelName": "Prisma_fit",
  "Modality": "MR",
  "MultibandAccelerationFactor": 4,
  "PartialFourier": 1,
  "PatientPosition": "HFS",
  "PercentPhaseFOV": 100,
  "PhaseEncodingDirection": "j",
  "PhaseEncodingSteps": 104,
  "PhaseResolution": 1,
  "PixelBandwidth": 2290,
  "ProcedureStepDescription": "memory_things",
  "ProtocolName": "func_task-things_run-4",
  "PulseSequenceDetails": "%CustomerSeq%_cmrr_mbep2d_bold",
  "ReceiveCoilActiveElements": "HC1-7;NC1,2",
  "ReceiveCoilName": "HeadNeck_64",
  "ReconMatrixPE": 104,
  "RepetitionTime": 1.49,
  "SAR": 0.0542962,
  "ScanOptions": "FS",
  "ScanningSequence": "EP",
  "SequenceName": "epfid2d1_104",
  "SequenceVariant": "SK_SS",
  "SeriesDescription": "func_task-things_run-4",
  "SeriesNumber": 20,
  "ShimSetting": [611, -7157, -8858, 231, -20, -183, -1, -34],
  "SliceThickness": 2,
  "SliceTiming": [0, 0.785, 0.0975, 0.8825, 0.1975, 0.98, 0.295, 1.0775, 0.3925, 1.1775, 0.49, 1.275, 0.5875, 1.3725, 0.6875, 0, 0.785, 0.0975, 0.8825, 0.1975, 0.98, 0.295, 1.0775, 0.3925, 1.1775, 0.49, 1.275, 0.5875, 1.3725, 0.6875, 0, 0.785, 0.0975, 0.8825, 0.1975, 0.98, 0.295, 1.0775, 0.3925, 1.1775, 0.49, 1.275, 0.5875, 1.3725, 0.6875, 0, 0.785, 0.0975, 0.8825, 0.1975, 0.98, 0.295, 1.0775, 0.3925, 1.1775, 0.49, 1.275, 0.5875, 1.3725, 0.6875],
  "SoftwareVersions": "syngo_MR_E11",
  "SpacingBetweenSlices": 2,
  "StationName": "MRC35049",
  "TaskName": "things",
  "TotalReadoutTime": 0.0576811,
  "TxRefAmp": 284.595,
  "WipMemBlock": "1b0821da-0cae-4aaa-847d-9f7c8ef08042||Sequence: R016 ve11c/master r/e634e98; Dec 19 2017 11:00:25 by eja",
  "dcmmeta_affine": [
    [-1.999259352684021, 0.025473840534687042, 0.04809560254216194, 104.71864318847656],
    [-0.0015203235670924187, 1.7405723333358765, -0.9850917458534241, -52.705528259277344],
    [0.05440397188067436, 0.984763503074646, 1.7399083375930786, -96.17300415039062],
    [0.0, 0.0, 0.0, 1.0]
],
  "dcmmeta_reorient_transform": [
    [0.0, -1.0, 0.0, 103.0],
    [1.0, 0.0, 0.0, 0.0],
    [0.0, 0.0, 1.0, 0.0],
    [0.0, 0.0, 0.0, 1.0]
],
  "dcmmeta_shape": [104, 104, 60, 190],
  "dcmmeta_slice_dim": 2,
  "dcmmeta_version": 0.6,
  "global": {
    "const": {
      "AcquisitionMatrix": [104, 0, 0, 104],
      "AngioFlag": "N",
      "BitsAllocated": 16,
      "BitsStored": 16,
      "BodyPartExamined": "BRAIN",
      "Columns": 832,
      "EchoNumbers": 1,
      "EchoTime": 37.0,
      "EchoTrainLength": 104,
      "FlipAngle": 52.0,
      "HighBit": 15,
      "ImageOrientationPatient": [0.99962966846487, 0.00076016180132, 0.02720198667108, 0.01273692065884, 0.87028614476318, -0.492381759497],
      "ImagePositionPatient": [-844.34532210293, -760.6951271288, 343.90851538815],
      "ImageType": [
        "ORIGINAL",
        "PRIMARY",
        "P",
        "MB",
        "ND",
        "MOSAIC"
],
      "ImagedNucleus": "1H",
      "ImagingFrequency": 123.258965,
      "InPlanePhaseEncodingDirection": "COL",
      "LargestImagePixelValue": 4095,
      "MRAcquisitionType": "2D",
      "MagneticFieldStrength": 3.0,
      "Manufacturer": "SIEMENS",
      "ManufacturerModelName": "Prisma_fit",
      "Modality": "MR",
      "NumberOfAverages": 1.0,
      "NumberOfPhaseEncodingSteps": 104,
      "PercentPhaseFieldOfView": 100.0,
      "PercentSampling": 100.0,
      "PerformedProcedureStepStartTime": "104629.394000",
      "PhotometricInterpretation": "MONOCHROME2",
      "PixelBandwidth": 2290.0,
      "PixelRepresentation": 0,
      "PixelSpacing": [2.0, 2.0],
      "ProtocolName": "func_task-things_run-4",
      "RepetitionTime": 1490.0,
      "RescaleIntercept": -4096.0,
      "RescaleSlope": 2.0,
      "RescaleType": "US",
      "Rows": 832,
      "SAR": 0.05429620387115,
      "SamplesPerPixel": 1,
      "ScanOptions": "FS",
      "ScanningSequence": "EP",
      "SequenceName": "epfid2d1_104",
      "SequenceVariant": [
        "SK",
        "SS"
],
      "SeriesDescription": "func_task-things_run-4",
      "SeriesNumber": 20,
      "SeriesTime": "112536.025000",
      "SliceLocation": -55.187958756075,
      "SliceThickness": 2.0,
      "SmallestImagePixelValue": 0,
      "SoftwareVersions": "syngo MR E11",
      "SpacingBetweenSlices": 2.0000000014688,
      "SpecificCharacterSet": "ISO_IR 100",
      "StudyID": "2",
      "StudyTime": "104629.320000",
      "TransmitCoilName": "Body",
      "VariableFlipAngleFlag": "N",
      "WindowCenterWidthExplanation": "Algo1",
      "dBdt": 0.0},
    "slices": {}
  },
  "time": {
    "samples": {
      "AcquisitionNumber": [1, 2, 3, 4, 5, 6, 7, 8, 9, 10, 11, 12, 13, 14, 15, 16, 17, 18, 19, 20, 21, 22, 23, 24, 25, 26, 27, 28, 29, 30, 31, 32, 33, 34, 35, 36, 37, 38, 39, 40, 41, 42, 43, 44, 45, 46, 47, 48, 49, 50, 51, 52, 53, 54, 55, 56, 57, 58, 59, 60, 61, 62, 63, 64, 65, 66, 67, 68, 69, 70, 71, 72, 73, 74, 75, 76, 77, 78, 79, 80, 81, 82, 83, 84, 85, 86, 87, 88, 89, 90, 91, 92, 93, 94, 95, 96, 97, 98, 99, 100, 101, 102, 103, 104, 105, 106, 107, 108, 109, 110, 111, 112, 113, 114, 115, 116, 117, 118, 119, 120, 121, 122, 123, 124, 125, 126, 127, 128, 129, 130, 131, 132, 133, 134, 135, 136, 137, 138, 139, 140, 141, 142, 143, 144, 145, 146, 147, 148, 149, 150, 151, 152, 153, 154, 155, 156, 157, 158, 159, 160, 161, 162, 163, 164, 165, 166, 167, 168, 169, 170, 171, 172, 173, 174, 175, 176, 177, 178, 179, 180, 181, 182, 183, 184, 185, 186, 187, 188, 189, 190],
      "AcquisitionTime": ["112425.675000", "112427.165000", "112428.655000", "112430.145000", "112431.635000", "112433.125000", "112434.615000", "112436.105000", "112437.595000", "112439.085000", "112440.575000", "112442.065000", "112443.555000", "112445.045000", "112446.535000", "112448.025000", "112449.515000", "112451.005000", "112452.495000", "112453.985000", "112455.475000", "112456.965000", "112458.455000", "112459.945000", "112501.435000", "112502.925000", "112504.415000", "112505.905000", "112507.395000", "112508.885000", "112510.375000", "112511.865000", "112513.355000", "112514.845000", "112516.335000", "112517.825000", "112519.315000", "112520.805000", "112522.295000", "112523.785000", "112525.275000", "112526.765000", "112528.255000", "112529.745000", "112531.235000", "112532.725000", "112534.215000", "112535.705000", "112537.195000", "112538.685000", "112540.175000", "112541.665000", "112543.155000", "112544.645000", "112546.135000", "112547.625000", "112549.115000", "112550.605000", "112552.095000", "112553.585000", "112555.075000", "112556.565000", "112558.055000", "112559.545000", "112601.035000", "112602.525000", "112604.015000", "112605.505000", "112606.995000", "112608.485000", "112609.975000", "112611.465000", "112612.955000", "112614.445000", "112615.935000", "112617.425000", "112618.915000", "112620.405000", "112621.895000", "112623.385000", "112624.875000", "112626.365000", "112627.855000", "112629.345000", "112630.835000", "112632.325000", "112633.815000", "112635.305000", "112636.795000", "112638.285000", "112639.775000", "112641.265000", "112642.755000", "112644.245000", "112645.735000", "112647.225000", "112648.715000", "112650.205000", "112651.695000", "112653.185000", "112654.675000", "112656.165000", "112657.655000", "112659.145000", "112700.635000", "112702.125000", "112703.615000", "112705.105000", "112706.595000", "112708.085000", "112709.575000", "112711.065000", "112712.555000", "112714.045000", "112715.535000", "112717.025000", "112718.515000", "112720.005000", "112721.495000", "112722.985000", "112724.475000", "112725.965000", "112727.455000", "112728.945000", "112730.435000", "112731.925000", "112733.415000", "112734.905000", "112736.395000", "112737.885000", "112739.375000", "112740.865000", "112742.355000", "112743.845000", "112745.335000", "112746.825000", "112748.315000", "112749.805000", "112751.295000", "112752.785000", "112754.275000", "112755.765000", "112757.255000", "112758.745000", "112800.235000", "112801.725000", "112803.215000", "112804.705000", "112806.195000", "112807.685000", "112809.175000", "112810.665000", "112812.155000", "112813.645000", "112815.135000", "112816.625000", "112818.115000", "112819.605000", "112821.095000", "112822.585000", "112824.075000", "112825.565000", "112827.055000", "112828.545000", "112830.035000", "112831.525000", "112833.015000", "112834.505000", "112835.995000", "112837.485000", "112838.975000", "112840.465000", "112841.955000", "112843.445000", "112844.935000", "112846.425000", "112847.915000", "112849.405000", "112850.895000", "112852.385000", "112853.875000", "112855.365000", "112856.855000", "112858.345000", "112859.835000", "112901.325000", "112902.815000", "112904.305000", "112905.795000", "112907.285000"],
      "ContentTime": ["112536.027000", "112536.030000", "112536.032000", "112536.035000", "112536.038000", "112536.040000", "112536.043000", "112536.045000", "112536.048000", "112536.050000", "112536.053000", "112536.056000", "112536.059000", "112536.062000", "112536.064000", "112536.067000", "112556.009000", "112556.012000", "112556.014000", "112556.017000", "112556.019000", "112556.022000", "112556.024000", "112556.027000", "112556.029000", "112556.032000", "112556.035000", "112556.038000", "112556.040000", "112556.043000", "112556.046000", "112556.049000", "112556.052000", "112556.054000", "112556.057000", "112556.060000", "112616.032000", "112616.035000", "112616.038000", "112616.040000", "112616.044000", "112616.046000", "112616.049000", "112616.052000", "112616.055000", "112616.059000", "112616.062000", "112616.065000", "112616.068000", "112616.071000", "112616.073000", "112616.076000", "112616.079000", "112616.081000", "112616.084000", "112616.086000", "112635.998000", "112636.002000", "112636.004000", "112636.007000", "112636.010000", "112636.012000", "112636.015000", "112636.017000", "112636.020000", "112636.022000", "112636.025000", "112636.027000", "112636.030000", "112636.032000", "112636.035000", "112636.037000", "112636.040000", "112636.042000", "112636.045000", "112636.047000", "112636.050000", "112655.991000", "112655.994000", "112655.997000", "112656.000000", "112656.003000", "112656.005000", "112656.008000", "112656.010000", "112656.013000", "112656.016000", "112656.018000", "112656.021000", "112656.023000", "112656.026000", "112656.028000", "112656.031000", "112656.033000", "112656.036000", "112656.038000", "112656.041000", "112736.057000", "112736.059000", "112736.062000", "112736.065000", "112736.067000", "112736.070000", "112736.072000", "112736.075000", "112736.077000", "112736.080000", "112736.082000", "112736.085000", "112736.087000", "112736.109000", "112736.111000", "112736.114000", "112736.116000", "112736.119000", "112736.121000", "112736.124000", "112736.127000", "112736.129000", "112736.132000", "112736.134000", "112736.145000", "112736.148000", "112736.150000", "112736.153000", "112736.156000", "112736.158000", "112816.053000", "112816.056000", "112816.059000", "112816.062000", "112816.064000", "112816.067000", "112816.069000", "112816.072000", "112816.074000", "112816.077000", "112816.080000", "112816.082000", "112816.085000", "112816.087000", "112816.090000", "112816.093000", "112816.095000", "112816.098000", "112816.100000", "112816.103000", "112816.106000", "112816.108000", "112816.111000", "112816.113000", "112816.116000", "112816.118000", "112816.121000", "112856.044000", "112856.047000", "112856.049000", "112856.052000", "112856.055000", "112856.057000", "112856.060000", "112856.062000", "112856.065000", "112856.067000", "112856.070000", "112856.072000", "112856.075000", "112856.078000", "112856.080000", "112856.083000", "112856.085000", "112856.088000", "112856.090000", "112856.093000", "112856.095000", "112856.098000", "112856.100000", "112856.103000", "112856.105000", "112856.108000", "112856.111000", "112909.254000", "112909.257000", "112909.260000", "112909.262000", "112909.265000", "112909.268000", "112909.270000", "112909.273000", "112909.275000"],
      "InstanceCreationTime": ["112536.027000", "112536.030000", "112536.032000", "112536.035000", "112536.038000", "112536.040000", "112536.043000", "112536.045000", "112536.048000", "112536.050000", "112536.053000", "112536.056000", "112536.059000", "112536.062000", "112536.064000", "112536.067000", "112556.009000", "112556.012000", "112556.014000", "112556.017000", "112556.019000", "112556.022000", "112556.024000", "112556.027000", "112556.029000", "112556.032000", "112556.035000", "112556.038000", "112556.040000", "112556.043000", "112556.046000", "112556.049000", "112556.052000", "112556.054000", "112556.057000", "112556.060000", "112616.032000", "112616.035000", "112616.038000", "112616.040000", "112616.044000", "112616.046000", "112616.049000", "112616.052000", "112616.055000", "112616.059000", "112616.062000", "112616.065000", "112616.068000", "112616.071000", "112616.073000", "112616.076000", "112616.079000", "112616.081000", "112616.084000", "112616.086000", "112635.998000", "112636.002000", "112636.004000", "112636.007000", "112636.010000", "112636.012000", "112636.015000", "112636.017000", "112636.020000", "112636.022000", "112636.025000", "112636.027000", "112636.030000", "112636.032000", "112636.035000", "112636.037000", "112636.040000", "112636.042000", "112636.045000", "112636.047000", "112636.050000", "112655.991000", "112655.994000", "112655.997000", "112656.000000", "112656.003000", "112656.005000", "112656.008000", "112656.010000", "112656.013000", "112656.016000", "112656.018000", "112656.021000", "112656.023000", "112656.026000", "112656.028000", "112656.031000", "112656.033000", "112656.036000", "112656.038000", "112656.041000", "112736.057000", "112736.059000", "112736.062000", "112736.065000", "112736.067000", "112736.070000", "112736.072000", "112736.075000", "112736.077000", "112736.080000", "112736.082000", "112736.085000", "112736.087000", "112736.109000", "112736.111000", "112736.114000", "112736.116000", "112736.119000", "112736.121000", "112736.124000", "112736.127000", "112736.129000", "112736.132000", "112736.134000", "112736.145000", "112736.148000", "112736.150000", "112736.153000", "112736.156000", "112736.158000", "112816.053000", "112816.056000", "112816.059000", "112816.062000", "112816.064000", "112816.067000", "112816.069000", "112816.072000", "112816.074000", "112816.077000", "112816.080000", "112816.082000", "112816.085000", "112816.087000", "112816.090000", "112816.093000", "112816.095000", "112816.098000", "112816.100000", "112816.103000", "112816.106000", "112816.108000", "112816.111000", "112816.113000", "112816.116000", "112816.118000", "112816.121000", "112856.044000", "112856.047000", "112856.049000", "112856.052000", "112856.055000", "112856.057000", "112856.060000", "112856.062000", "112856.065000", "112856.067000", "112856.070000", "112856.072000", "112856.075000", "112856.078000", "112856.080000", "112856.083000", "112856.085000", "112856.088000", "112856.090000", "112856.093000", "112856.095000", "112856.098000", "112856.100000", "112856.103000", "112856.105000", "112856.108000", "112856.111000", "112909.254000", "112909.257000", "112909.260000", "112909.262000", "112909.265000", "112909.268000", "112909.270000", "112909.273000", "112909.275000"],
      "InstanceNumber": [1, 2, 3, 4, 5, 6, 7, 8, 9, 10, 11, 12, 13, 14, 15, 16, 17, 18, 19, 20, 21, 22, 23, 24, 25, 26, 27, 28, 29, 30, 31, 32, 33, 34, 35, 36, 37, 38, 39, 40, 41, 42, 43, 44, 45, 46, 47, 48, 49, 50, 51, 52, 53, 54, 55, 56, 57, 58, 59, 60, 61, 62, 63, 64, 65, 66, 67, 68, 69, 70, 71, 72, 73, 74, 75, 76, 77, 78, 79, 80, 81, 82, 83, 84, 85, 86, 87, 88, 89, 90, 91, 92, 93, 94, 95, 96, 97, 98, 99, 100, 101, 102, 103, 104, 105, 106, 107, 108, 109, 110, 111, 112, 113, 114, 115, 116, 117, 118, 119, 120, 121, 122, 123, 124, 125, 126, 127, 128, 129, 130, 131, 132, 133, 134, 135, 136, 137, 138, 139, 140, 141, 142, 143, 144, 145, 146, 147, 148, 149, 150, 151, 152, 153, 154, 155, 156, 157, 158, 159, 160, 161, 162, 163, 164, 165, 166, 167, 168, 169, 170, 171, 172, 173, 174, 175, 176, 177, 178, 179, 180, 181, 182, 183, 184, 185, 186, 187, 188, 189, 190],
      "WindowCenter": [4882.0, 4838.0, 4810.0, 4834.0, 4860.0, 4908.0, 4914.0, 4912.0, 4916.0, 4864.0, 4890.0, 4884.0, 4830.0, 4856.0, 4834.0, 4838.0, 4886.0, 4862.0, 4912.0, 4890.0, 4912.0, 4888.0, 4862.0, 4862.0, 4838.0, 4886.0, 4864.0, 4860.0, 4908.0, 4908.0, 4890.0, 4858.0, 4828.0, 4862.0, 4862.0, 4834.0, 4836.0, 4912.0, 4890.0, 4890.0, 4906.0, 4908.0, 4890.0, 4856.0, 4830.0, 4832.0, 4862.0, 4834.0, 4864.0, 4910.0, 4892.0, 4914.0, 4912.0, 4884.0, 4864.0, 4836.0, 4834.0, 4832.0, 4832.0, 4864.0, 4862.0, 4914.0, 4912.0, 4914.0, 4912.0, 4860.0, 4860.0, 4830.0, 4860.0, 4838.0, 4884.0, 4890.0, 4888.0, 4914.0, 4886.0, 4912.0, 4888.0, 4860.0, 4862.0, 4860.0, 4836.0, 4860.0, 4860.0, 4886.0, 4886.0, 4914.0, 4914.0, 4888.0, 4886.0, 4860.0, 4860.0, 4858.0, 4832.0, 4886.0, 4864.0, 4888.0, 4888.0, 4888.0, 4910.0, 4862.0, 4886.0, 4886.0, 4858.0, 4862.0, 4886.0, 4860.0, 4832.0, 4884.0, 4862.0, 4910.0, 4912.0, 4858.0, 4912.0, 4912.0, 4862.0, 4834.0, 4856.0, 4830.0, 4862.0, 4862.0, 4864.0, 4912.0, 4892.0, 4916.0, 4828.0, 4872.0, 4880.0, 4826.0, 4802.0, 4802.0, 4826.0, 4836.0, 4910.0, 4934.0, 4932.0, 4938.0, 4916.0, 4910.0, 4904.0, 4860.0, 4828.0, 4832.0, 4856.0, 4832.0, 4828.0, 4884.0, 4910.0, 4912.0, 4886.0, 4910.0, 4886.0, 4864.0, 4884.0, 4856.0, 4888.0, 4886.0, 4862.0, 4862.0, 4888.0, 4862.0, 4882.0, 4888.0, 4860.0, 4858.0, 4834.0, 4886.0, 4910.0, 4884.0, 4888.0, 4912.0, 4860.0, 4858.0, 4860.0, 4834.0, 4884.0, 4886.0, 4862.0, 4888.0, 4888.0, 4886.0, 4860.0, 4888.0, 4884.0, 4860.0, 4882.0, 4884.0, 4862.0, 4884.0, 4888.0, 4884.0],
      "WindowWidth": [18646.0, 18570.0, 18526.0, 18564.0, 18598.0, 18692.0, 18696.0, 18704.0, 18700.0, 18610.0, 18660.0, 18648.0, 18560.0, 18604.0, 18566.0, 18572.0, 18642.0, 18604.0, 18688.0, 18646.0, 18698.0, 18646.0, 18600.0, 18610.0, 18566.0, 18648.0, 18612.0, 18602.0, 18702.0, 18714.0, 18660.0, 18600.0, 18556.0, 18612.0, 18614.0, 18564.0, 18570.0, 18700.0, 18652.0, 18640.0, 18714.0, 18716.0, 18660.0, 18606.0, 18566.0, 18566.0, 18612.0, 18566.0, 18604.0, 18694.0, 18660.0, 18704.0, 18704.0, 18642.0, 18612.0, 18564.0, 18568.0, 18568.0, 18562.0, 18610.0, 18610.0, 18714.0, 18696.0, 18698.0, 18702.0, 18602.0, 18610.0, 18560.0, 18604.0, 18566.0, 18646.0, 18660.0, 18646.0, 18698.0, 18646.0, 18692.0, 18658.0, 18598.0, 18612.0, 18608.0, 18566.0, 18598.0, 18600.0, 18654.0, 18642.0, 18702.0, 18698.0, 18648.0, 18656.0, 18596.0, 18608.0, 18604.0, 18566.0, 18646.0, 18610.0, 18648.0, 18650.0, 18646.0, 18690.0, 18612.0, 18650.0, 18656.0, 18596.0, 18618.0, 18648.0, 18602.0, 18570.0, 18646.0, 18602.0, 18702.0, 18692.0, 18598.0, 18694.0, 18710.0, 18608.0, 18564.0, 18602.0, 18558.0, 18610.0, 18604.0, 18608.0, 18696.0, 18656.0, 18702.0, 18644.0, 18688.0, 18648.0, 18566.0, 18546.0, 18544.0, 18564.0, 18574.0, 18686.0, 18750.0, 18760.0, 18752.0, 18700.0, 18720.0, 18718.0, 18620.0, 18572.0, 18574.0, 18618.0, 18576.0, 18564.0, 18650.0, 18696.0, 18696.0, 18650.0, 18688.0, 18648.0, 18610.0, 18646.0, 18592.0, 18646.0, 18656.0, 18606.0, 18612.0, 18658.0, 18608.0, 18646.0, 18658.0, 18606.0, 18594.0, 18566.0, 18652.0, 18702.0, 18646.0, 18668.0, 18710.0, 18606.0, 18602.0, 18614.0, 18568.0, 18652.0, 18648.0, 18616.0, 18652.0, 18646.0, 18662.0, 18608.0, 18660.0, 18642.0, 18600.0, 18640.0, 18660.0, 18608.0, 18644.0, 18662.0, 18648.0]
    },
    "slices": {}
  }
}