{
  "AcquisitionMatrixPE": 104,
  "AcquisitionNumber": 1,
  "AcquisitionTime": "11:31:6.675000",
  "BandwidthPerPixelPhaseEncode": 17.17,
  "BaseResolution": 104,
  "BodyPartExamined": "BRAIN",
  "CoilString": "HC1-7;NC1_2",
  "ConsistencyInfo": "N4_VE11C_LATEST_20160120",
  "ConversionSoftware": "dcm2niix",
  "ConversionSoftwareVersion": "v1.0.20190902",
  "DerivedVendorReportedEchoSpacing": 0.000560011,
  "DeviceSerialNumber": "167006",
  "DwellTime": 2.1e-06,
  "EchoTime": 0.037,
  "EchoTrainLength": 104,
  "EffectiveEchoSpacing": 0.000560011,
  "FlipAngle": 52,
  "ImageComments": "Unaliased_MB4_PE3_LB",
  "ImageOrientationPatientDICOM": [0.99963, 0.000760162, 0.027202, 0.0127369, 0.870286, -0.492382],
  "ImageType": [
    "ORIGINAL",
    "PRIMARY",
    "M",
    "MB",
    "ND",
    "MOSAIC"
],
  "ImagingFrequency": 123.259,
  "InPlanePhaseEncodingDirectionDICOM": "COL",
  "InstitutionAddress": "Chemin_Queen-Mary_4565_Montreal_District_CA_H3W_1W5",
  "InstitutionName": "IUGM",
  "InstitutionalDepartmentName": "Department",
  "MRAcquisitionType": "2D",
  "MagneticFieldStrength": 3,
  "Manufacturer": "Siemens",
  "ManufacturersModelName": "Prisma_fit",
  "Modality": "MR",
  "MultibandAccelerationFactor": 4,
  "PartialFourier": 1,
  "PatientPosition": "HFS",
  "PercentPhaseFOV": 100,
  "PhaseEncodingDirection": "j",
  "PhaseEncodingSteps": 104,
  "PhaseResolution": 1,
  "PixelBandwidth": 2290,
  "ProcedureStepDescription": "memory_things",
  "ProtocolName": "func_task-things_run-5",
  "PulseSequenceDetails": "%CustomerSeq%_cmrr_mbep2d_bold",
  "ReceiveCoilActiveElements": "HC1-7;NC1,2",
  "ReceiveCoilName": "HeadNeck_64",
  "ReconMatrixPE": 104,
  "RepetitionTime": 1.49,
  "SAR": 0.0542962,
  "ScanOptions": "FS",
  "ScanningSequence": "EP",
  "SequenceName": "epfid2d1_104",
  "SequenceVariant": "SK_SS",
  "SeriesDescription": "func_task-things_run-5",
  "SeriesNumber": 22,
  "ShimSetting": [611, -7157, -8858, 231, -20, -183, -1, -34],
  "SliceThickness": 2,
  "SliceTiming": [0, 0.7825, 0.0975, 0.88, 0.195, 0.98, 0.2925, 1.0775, 0.39, 1.175, 0.49, 1.2725, 0.5875, 1.37, 0.685, 0, 0.7825, 0.0975, 0.88, 0.195, 0.98, 0.2925, 1.0775, 0.39, 1.175, 0.49, 1.2725, 0.5875, 1.37, 0.685, 0, 0.7825, 0.0975, 0.88, 0.195, 0.98, 0.2925, 1.0775, 0.39, 1.175, 0.49, 1.2725, 0.5875, 1.37, 0.685, 0, 0.7825, 0.0975, 0.88, 0.195, 0.98, 0.2925, 1.0775, 0.39, 1.175, 0.49, 1.2725, 0.5875, 1.37, 0.685],
  "SoftwareVersions": "syngo_MR_E11",
  "SpacingBetweenSlices": 2,
  "StationName": "MRC35049",
  "TaskName": "things",
  "TotalReadoutTime": 0.0576811,
  "TxRefAmp": 284.595,
  "WipMemBlock": "40accf29-a2c5-491f-a2bb-0ca0a72d8fce||Sequence: R016 ve11c/master r/e634e98; Dec 19 2017 11:00:25 by eja",
  "dcmmeta_affine": [
    [-1.999259352684021, 0.025473840534687042, 0.04809560254216194, 104.71864318847656],
    [-0.0015203235670924187, 1.7405723333358765, -0.9850917458534241, -52.705528259277344],
    [0.05440397188067436, 0.984763503074646, 1.7399083375930786, -96.17300415039062],
    [0.0, 0.0, 0.0, 1.0]
],
  "dcmmeta_reorient_transform": [
    [0.0, -1.0, 0.0, 103.0],
    [1.0, 0.0, 0.0, 0.0],
    [0.0, 0.0, 1.0, 0.0],
    [0.0, 0.0, 0.0, 1.0]
],
  "dcmmeta_shape": [104, 104, 60, 190],
  "dcmmeta_slice_dim": 2,
  "dcmmeta_version": 0.6,
  "global": {
    "const": {
      "AcquisitionMatrix": [104, 0, 0, 104],
      "AngioFlag": "N",
      "BitsAllocated": 16,
      "BitsStored": 16,
      "BodyPartExamined": "BRAIN",
      "Columns": 832,
      "EchoNumbers": 1,
      "EchoTime": 37.0,
      "EchoTrainLength": 104,
      "FlipAngle": 52.0,
      "HighBit": 15,
      "ImageOrientationPatient": [0.99962966846487, 0.00076016180132, 0.02720198667108, 0.01273692065884, 0.87028614476318, -0.492381759497],
      "ImagePositionPatient": [-844.34532210293, -760.6951271288, 343.90851538815],
      "ImageType": [
        "ORIGINAL",
        "PRIMARY",
        "M",
        "MB",
        "ND",
        "MOSAIC"
],
      "ImagedNucleus": "1H",
      "ImagingFrequency": 123.258968,
      "InPlanePhaseEncodingDirection": "COL",
      "MRAcquisitionType": "2D",
      "MagneticFieldStrength": 3.0,
      "Manufacturer": "SIEMENS",
      "ManufacturerModelName": "Prisma_fit",
      "Modality": "MR",
      "NumberOfAverages": 1.0,
      "NumberOfPhaseEncodingSteps": 104,
      "PercentPhaseFieldOfView": 100.0,
      "PercentSampling": 100.0,
      "PerformedProcedureStepStartTime": "104629.394000",
      "PhotometricInterpretation": "MONOCHROME2",
      "PixelBandwidth": 2290.0,
      "PixelRepresentation": 0,
      "PixelSpacing": [2.0, 2.0],
      "ProtocolName": "func_task-things_run-5",
      "RepetitionTime": 1490.0,
      "Rows": 832,
      "SAR": 0.05429620387115,
      "SamplesPerPixel": 1,
      "ScanOptions": "FS",
      "ScanningSequence": "EP",
      "SequenceName": "epfid2d1_104",
      "SequenceVariant": [
        "SK",
        "SS"
],
      "SeriesDescription": "func_task-things_run-5",
      "SeriesNumber": 22,
      "SeriesTime": "113232.416000",
      "SliceLocation": -55.187958756075,
      "SliceThickness": 2.0,
      "SmallestImagePixelValue": 0,
      "SoftwareVersions": "syngo MR E11",
      "SpacingBetweenSlices": 2.0000000014688,
      "SpecificCharacterSet": "ISO_IR 100",
      "StudyID": "2",
      "StudyTime": "104629.320000",
      "TransmitCoilName": "Body",
      "VariableFlipAngleFlag": "N",
      "WindowCenterWidthExplanation": "Algo1",
      "dBdt": 0.0},
    "slices": {}
  },
  "time": {
    "samples": {
      "AcquisitionNumber": [1, 2, 3, 4, 5, 6, 7, 8, 9, 10, 11, 12, 13, 14, 15, 16, 17, 18, 19, 20, 21, 22, 23, 24, 25, 26, 27, 28, 29, 30, 31, 32, 33, 34, 35, 36, 37, 38, 39, 40, 41, 42, 43, 44, 45, 46, 47, 48, 49, 50, 51, 52, 53, 54, 55, 56, 57, 58, 59, 60, 61, 62, 63, 64, 65, 66, 67, 68, 69, 70, 71, 72, 73, 74, 75, 76, 77, 78, 79, 80, 81, 82, 83, 84, 85, 86, 87, 88, 89, 90, 91, 92, 93, 94, 95, 96, 97, 98, 99, 100, 101, 102, 103, 104, 105, 106, 107, 108, 109, 110, 111, 112, 113, 114, 115, 116, 117, 118, 119, 120, 121, 122, 123, 124, 125, 126, 127, 128, 129, 130, 131, 132, 133, 134, 135, 136, 137, 138, 139, 140, 141, 142, 143, 144, 145, 146, 147, 148, 149, 150, 151, 152, 153, 154, 155, 156, 157, 158, 159, 160, 161, 162, 163, 164, 165, 166, 167, 168, 169, 170, 171, 172, 173, 174, 175, 176, 177, 178, 179, 180, 181, 182, 183, 184, 185, 186, 187, 188, 189, 190],
      "AcquisitionTime": ["113106.675000", "113108.165000", "113109.655000", "113111.145000", "113112.635000", "113114.125000", "113115.615000", "113117.105000", "113118.595000", "113120.085000", "113121.575000", "113123.065000", "113124.555000", "113126.045000", "113127.535000", "113129.025000", "113130.515000", "113132.005000", "113133.495000", "113134.985000", "113136.475000", "113137.965000", "113139.455000", "113140.945000", "113142.435000", "113143.925000", "113145.415000", "113146.905000", "113148.395000", "113149.885000", "113151.375000", "113152.865000", "113154.355000", "113155.845000", "113157.335000", "113158.825000", "113200.315000", "113201.805000", "113203.295000", "113204.785000", "113206.275000", "113207.765000", "113209.255000", "113210.745000", "113212.235000", "113213.725000", "113215.215000", "113216.705000", "113218.195000", "113219.685000", "113221.175000", "113222.665000", "113224.155000", "113225.645000", "113227.135000", "113228.625000", "113230.115000", "113231.605000", "113233.095000", "113234.585000", "113236.075000", "113237.565000", "113239.055000", "113240.545000", "113242.035000", "113243.525000", "113245.015000", "113246.505000", "113247.995000", "113249.485000", "113250.975000", "113252.465000", "113253.955000", "113255.445000", "113256.935000", "113258.425000", "113259.915000", "113301.405000", "113302.895000", "113304.385000", "113305.875000", "113307.365000", "113308.855000", "113310.345000", "113311.835000", "113313.325000", "113314.815000", "113316.305000", "113317.795000", "113319.285000", "113320.775000", "113322.265000", "113323.755000", "113325.245000", "113326.735000", "113328.225000", "113329.715000", "113331.205000", "113332.695000", "113334.185000", "113335.675000", "113337.165000", "113338.655000", "113340.145000", "113341.635000", "113343.125000", "113344.615000", "113346.105000", "113347.595000", "113349.085000", "113350.575000", "113352.065000", "113353.555000", "113355.045000", "113356.535000", "113358.025000", "113359.515000", "113401.005000", "113402.495000", "113403.985000", "113405.475000", "113406.965000", "113408.455000", "113409.945000", "113411.435000", "113412.925000", "113414.415000", "113415.905000", "113417.395000", "113418.885000", "113420.375000", "113421.865000", "113423.355000", "113424.845000", "113426.335000", "113427.825000", "113429.315000", "113430.805000", "113432.295000", "113433.785000", "113435.275000", "113436.765000", "113438.255000", "113439.745000", "113441.235000", "113442.725000", "113444.215000", "113445.705000", "113447.195000", "113448.685000", "113450.175000", "113451.665000", "113453.155000", "113454.645000", "113456.135000", "113457.625000", "113459.115000", "113500.605000", "113502.095000", "113503.585000", "113505.075000", "113506.565000", "113508.055000", "113509.545000", "113511.035000", "113512.525000", "113514.015000", "113515.505000", "113516.995000", "113518.485000", "113519.975000", "113521.465000", "113522.955000", "113524.445000", "113525.935000", "113527.425000", "113528.915000", "113530.405000", "113531.895000", "113533.385000", "113534.875000", "113536.365000", "113537.855000", "113539.345000", "113540.835000", "113542.325000", "113543.815000", "113545.305000", "113546.795000", "113548.285000"],
      "ContentTime": ["113232.419000", "113232.423000", "113232.427000", "113232.430000", "113232.433000", "113232.437000", "113232.440000", "113232.444000", "113232.447000", "113232.450000", "113232.454000", "113232.457000", "113232.460000", "113232.464000", "113232.467000", "113232.479000", "113232.483000", "113232.486000", "113232.489000", "113232.493000", "113232.496000", "113232.499000", "113232.503000", "113232.506000", "113232.510000", "113232.513000", "113232.516000", "113232.520000", "113232.523000", "113232.526000", "113252.385000", "113252.389000", "113252.392000", "113252.396000", "113252.399000", "113252.402000", "113252.406000", "113252.409000", "113252.412000", "113252.416000", "113252.419000", "113252.428000", "113252.432000", "113252.435000", "113252.438000", "113252.442000", "113252.445000", "113252.449000", "113252.452000", "113252.455000", "113312.386000", "113312.390000", "113312.393000", "113312.397000", "113312.400000", "113312.404000", "113312.407000", "113312.410000", "113312.414000", "113312.417000", "113312.420000", "113312.424000", "113312.435000", "113312.439000", "113312.442000", "113312.446000", "113312.449000", "113312.452000", "113312.456000", "113312.459000", "113332.386000", "113332.390000", "113332.393000", "113332.397000", "113332.400000", "113332.404000", "113332.407000", "113332.410000", "113332.414000", "113332.417000", "113332.421000", "113332.424000", "113332.427000", "113332.431000", "113332.434000", "113332.438000", "113332.441000", "113332.444000", "113332.448000", "113332.451000", "113352.385000", "113352.389000", "113352.392000", "113352.396000", "113352.399000", "113352.402000", "113352.406000", "113352.409000", "113352.413000", "113352.416000", "113352.420000", "113352.423000", "113352.426000", "113352.430000", "113352.433000", "113352.437000", "113352.440000", "113352.443000", "113352.447000", "113352.450000", "113432.385000", "113432.389000", "113432.392000", "113432.396000", "113432.399000", "113432.403000", "113432.406000", "113432.410000", "113432.413000", "113432.416000", "113432.420000", "113432.423000", "113432.427000", "113432.430000", "113432.433000", "113432.437000", "113432.440000", "113432.444000", "113432.447000", "113432.451000", "113432.454000", "113432.479000", "113432.483000", "113432.486000", "113432.490000", "113432.493000", "113432.496000", "113452.385000", "113452.389000", "113452.392000", "113452.396000", "113452.399000", "113452.403000", "113452.406000", "113452.410000", "113452.413000", "113452.416000", "113452.420000", "113452.423000", "113452.427000", "113532.386000", "113532.390000", "113532.393000", "113532.397000", "113532.400000", "113532.418000", "113532.422000", "113532.425000", "113532.429000", "113532.432000", "113532.435000", "113532.439000", "113532.442000", "113532.446000", "113532.449000", "113532.453000", "113532.456000", "113532.459000", "113532.463000", "113532.466000", "113532.470000", "113532.473000", "113532.476000", "113532.480000", "113532.483000", "113532.486000", "113532.490000", "113550.945000", "113550.949000", "113550.953000", "113550.956000", "113550.960000", "113550.964000", "113550.968000", "113550.971000", "113550.975000", "113550.978000", "113550.982000", "113550.985000", "113550.989000"],
      "InstanceCreationTime": ["113232.419000", "113232.423000", "113232.427000", "113232.430000", "113232.433000", "113232.437000", "113232.440000", "113232.444000", "113232.447000", "113232.450000", "113232.454000", "113232.457000", "113232.460000", "113232.464000", "113232.467000", "113232.479000", "113232.483000", "113232.486000", "113232.489000", "113232.493000", "113232.496000", "113232.499000", "113232.503000", "113232.506000", "113232.510000", "113232.513000", "113232.516000", "113232.520000", "113232.523000", "113232.526000", "113252.385000", "113252.389000", "113252.392000", "113252.396000", "113252.399000", "113252.402000", "113252.406000", "113252.409000", "113252.412000", "113252.416000", "113252.419000", "113252.428000", "113252.432000", "113252.435000", "113252.438000", "113252.442000", "113252.445000", "113252.449000", "113252.452000", "113252.455000", "113312.386000", "113312.390000", "113312.393000", "113312.397000", "113312.400000", "113312.404000", "113312.407000", "113312.410000", "113312.414000", "113312.417000", "113312.420000", "113312.424000", "113312.435000", "113312.439000", "113312.442000", "113312.446000", "113312.449000", "113312.452000", "113312.456000", "113312.459000", "113332.386000", "113332.390000", "113332.393000", "113332.397000", "113332.400000", "113332.404000", "113332.407000", "113332.410000", "113332.414000", "113332.417000", "113332.421000", "113332.424000", "113332.427000", "113332.431000", "113332.434000", "113332.438000", "113332.441000", "113332.444000", "113332.448000", "113332.451000", "113352.385000", "113352.389000", "113352.392000", "113352.396000", "113352.399000", "113352.402000", "113352.406000", "113352.409000", "113352.413000", "113352.416000", "113352.420000", "113352.423000", "113352.426000", "113352.430000", "113352.433000", "113352.437000", "113352.440000", "113352.443000", "113352.447000", "113352.450000", "113432.385000", "113432.389000", "113432.392000", "113432.396000", "113432.399000", "113432.403000", "113432.406000", "113432.410000", "113432.413000", "113432.416000", "113432.420000", "113432.423000", "113432.427000", "113432.430000", "113432.433000", "113432.437000", "113432.440000", "113432.444000", "113432.447000", "113432.451000", "113432.454000", "113432.479000", "113432.483000", "113432.486000", "113432.490000", "113432.493000", "113432.496000", "113452.385000", "113452.389000", "113452.392000", "113452.396000", "113452.399000", "113452.403000", "113452.406000", "113452.410000", "113452.413000", "113452.416000", "113452.420000", "113452.423000", "113452.427000", "113532.386000", "113532.390000", "113532.393000", "113532.397000", "113532.400000", "113532.418000", "113532.422000", "113532.425000", "113532.429000", "113532.432000", "113532.435000", "113532.439000", "113532.442000", "113532.446000", "113532.449000", "113532.453000", "113532.456000", "113532.459000", "113532.463000", "113532.466000", "113532.470000", "113532.473000", "113532.476000", "113532.480000", "113532.483000", "113532.486000", "113532.490000", "113550.945000", "113550.949000", "113550.953000", "113550.956000", "113550.960000", "113550.964000", "113550.968000", "113550.971000", "113550.975000", "113550.978000", "113550.982000", "113550.985000", "113550.989000"],
      "InstanceNumber": [1, 2, 3, 4, 5, 6, 7, 8, 9, 10, 11, 12, 13, 14, 15, 16, 17, 18, 19, 20, 21, 22, 23, 24, 25, 26, 27, 28, 29, 30, 31, 32, 33, 34, 35, 36, 37, 38, 39, 40, 41, 42, 43, 44, 45, 46, 47, 48, 49, 50, 51, 52, 53, 54, 55, 56, 57, 58, 59, 60, 61, 62, 63, 64, 65, 66, 67, 68, 69, 70, 71, 72, 73, 74, 75, 76, 77, 78, 79, 80, 81, 82, 83, 84, 85, 86, 87, 88, 89, 90, 91, 92, 93, 94, 95, 96, 97, 98, 99, 100, 101, 102, 103, 104, 105, 106, 107, 108, 109, 110, 111, 112, 113, 114, 115, 116, 117, 118, 119, 120, 121, 122, 123, 124, 125, 126, 127, 128, 129, 130, 131, 132, 133, 134, 135, 136, 137, 138, 139, 140, 141, 142, 143, 144, 145, 146, 147, 148, 149, 150, 151, 152, 153, 154, 155, 156, 157, 158, 159, 160, 161, 162, 163, 164, 165, 166, 167, 168, 169, 170, 171, 172, 173, 174, 175, 176, 177, 178, 179, 180, 181, 182, 183, 184, 185, 186, 187, 188, 189, 190],
      "LargestImagePixelValue": [44380, 43502, 43210, 42640, 44284, 43466, 43077, 43146, 42643, 42474, 42676, 43209, 43582, 42923, 43189, 42979, 43070, 42545, 43704, 42861, 42292, 43129, 44759, 43784, 43226, 42327, 42959, 42330, 42786, 42434, 42852, 43800, 43033, 43098, 43090, 42508, 43058, 43050, 42470, 43383, 42657, 42896, 42819, 42414, 42856, 42928, 42684, 42578, 42228, 44257, 42789, 42534, 43330, 42322, 42333, 42727, 42241, 42416, 42688, 41851, 43867, 42671, 42732, 42326, 42240, 43172, 43111, 43286, 42761, 43239, 43457, 42295, 42245, 41818, 42298, 44054, 42292, 42608, 42911, 42743, 43651, 42302, 43774, 42676, 42630, 42862, 43226, 42403, 43505, 42715, 42272, 42943, 42948, 43327, 42441, 42045, 42594, 42934, 42771, 43061, 43190, 42644, 42560, 42647, 42953, 42834, 44284, 43172, 42743, 43703, 42858, 42269, 42870, 42215, 42132, 41796, 42522, 42781, 43642, 43190, 43036, 42449, 42974, 42424, 43006, 42986, 43067, 43250, 43031, 42832, 43311, 43124, 42847, 43004, 43618, 42731, 42965, 43595, 43251, 43124, 43092, 42981, 42793, 43274, 43063, 42739, 42814, 42846, 43012, 43374, 44099, 43265, 43277, 42703, 42200, 42763, 42760, 42773, 42993, 42806, 42711, 42784, 42420, 42745, 43069, 43246, 43299, 43228, 42426, 42815, 42967, 42635, 43268, 43093, 43179, 42637, 43281, 43135, 43054, 43514, 42601, 42932, 42819, 42781, 43316, 42879, 42528, 42646, 41925, 41916],
      "WindowCenter": [10931.0, 10870.0, 10831.0, 10787.0, 10761.0, 10746.0, 10803.0, 10835.0, 10821.0, 10815.0, 10795.0, 10762.0, 10735.0, 10748.0, 10812.0, 10810.0, 10780.0, 10735.0, 10752.0, 10780.0, 10792.0, 10806.0, 10794.0, 10771.0, 10765.0, 10765.0, 10759.0, 10771.0, 10779.0, 10768.0, 10753.0, 10752.0, 10741.0, 10766.0, 10766.0, 10744.0, 10741.0, 10737.0, 10731.0, 10753.0, 10742.0, 10750.0, 10761.0, 10752.0, 10760.0, 10768.0, 10771.0, 10792.0, 10789.0, 10800.0, 10767.0, 10718.0, 10715.0, 10743.0, 10789.0, 10800.0, 10793.0, 10785.0, 10761.0, 10723.0, 10724.0, 10723.0, 10747.0, 10742.0, 10718.0, 10720.0, 10738.0, 10765.0, 10773.0, 10759.0, 10747.0, 10777.0, 10790.0, 10779.0, 10788.0, 10793.0, 10751.0, 10725.0, 10731.0, 10756.0, 10802.0, 10797.0, 10806.0, 10786.0, 10759.0, 10754.0, 10736.0, 10756.0, 10793.0, 10776.0, 10750.0, 10733.0, 10730.0, 10773.0, 10784.0, 10781.0, 10754.0, 10715.0, 10693.0, 10715.0, 10754.0, 10768.0, 10786.0, 10765.0, 10779.0, 10789.0, 10800.0, 10792.0, 10737.0, 10719.0, 10728.0, 10788.0, 10813.0, 10804.0, 10795.0, 10761.0, 10754.0, 10755.0, 10754.0, 10745.0, 10759.0, 10737.0, 10758.0, 10759.0, 10759.0, 10762.0, 10771.0, 10764.0, 10755.0, 10774.0, 10780.0, 10800.0, 10792.0, 10776.0, 10788.0, 10795.0, 10777.0, 10769.0, 10761.0, 10762.0, 10769.0, 10764.0, 10765.0, 10763.0, 10778.0, 10790.0, 10792.0, 10777.0, 10751.0, 10742.0, 10743.0, 10757.0, 10799.0, 10816.0, 10794.0, 10770.0, 10747.0, 10773.0, 10748.0, 10772.0, 10771.0, 10783.0, 10782.0, 10738.0, 10743.0, 10741.0, 10767.0, 10818.0, 10820.0, 10781.0, 10720.0, 10718.0, 10767.0, 10772.0, 10765.0, 10729.0, 10733.0, 10748.0, 10797.0, 10816.0, 10800.0, 10770.0, 10755.0, 10741.0, 10756.0, 10817.0, 10851.0, 10836.0, 10768.0, 10709.0],
      "WindowWidth": [23512.0, 23340.0, 23232.0, 23126.0, 23047.0, 23010.0, 23136.0, 23212.0, 23181.0, 23167.0, 23123.0, 23047.0, 22983.0, 23014.0, 23155.0, 23156.0, 23087.0, 22990.0, 23019.0, 23090.0, 23117.0, 23146.0, 23113.0, 23065.0, 23057.0, 23061.0, 23044.0, 23073.0, 23095.0, 23061.0, 23028.0, 23016.0, 22995.0, 23052.0, 23053.0, 23007.0, 22996.0, 22988.0, 22976.0, 23020.0, 23000.0, 23018.0, 23043.0, 23024.0, 23040.0, 23057.0, 23067.0, 23117.0, 23117.0, 23132.0, 23067.0, 22956.0, 22940.0, 23010.0, 23112.0, 23137.0, 23119.0, 23099.0, 23046.0, 22963.0, 22955.0, 22958.0, 23011.0, 23005.0, 22950.0, 22951.0, 22988.0, 23051.0, 23071.0, 23037.0, 23005.0, 23083.0, 23116.0, 23089.0, 23110.0, 23113.0, 23025.0, 22964.0, 22978.0, 23033.0, 23136.0, 23132.0, 23147.0, 23105.0, 23045.0, 23032.0, 22988.0, 23036.0, 23117.0, 23085.0, 23024.0, 22982.0, 22972.0, 23072.0, 23098.0, 23094.0, 23032.0, 22939.0, 22888.0, 22933.0, 23026.0, 23057.0, 23102.0, 23053.0, 23082.0, 23104.0, 23127.0, 23115.0, 22994.0, 22949.0, 22968.0, 23108.0, 23160.0, 23143.0, 23119.0, 23043.0, 23026.0, 23027.0, 23020.0, 23000.0, 23036.0, 22992.0, 23038.0, 23038.0, 23038.0, 23043.0, 23061.0, 23048.0, 23027.0, 23067.0, 23080.0, 23129.0, 23114.0, 23080.0, 23099.0, 23118.0, 23081.0, 23056.0, 23038.0, 23044.0, 23057.0, 23050.0, 23054.0, 23045.0, 23076.0, 23101.0, 23109.0, 23076.0, 23018.0, 22994.0, 22993.0, 23027.0, 23122.0, 23163.0, 23120.0, 23062.0, 23011.0, 23068.0, 23015.0, 23067.0, 23068.0, 23090.0, 23094.0, 22989.0, 22998.0, 22993.0, 23049.0, 23165.0, 23174.0, 23092.0, 22948.0, 22943.0, 23045.0, 23061.0, 23048.0, 22967.0, 22974.0, 23005.0, 23119.0, 23164.0, 23134.0, 23067.0, 23029.0, 22994.0, 23027.0, 23170.0, 23249.0, 23212.0, 23062.0, 22926.0]
    },
    "slices": {}
  }
}