{
  "AcquisitionMatrixPE": 104,
  "AcquisitionNumber": 1,
  "AcquisitionTime": "11:37:20.057500",
  "BandwidthPerPixelPhaseEncode": 17.17,
  "BaseResolution": 104,
  "BodyPartExamined": "BRAIN",
  "CoilString": "HC1-7;NC1_2",
  "ConsistencyInfo": "N4_VE11C_LATEST_20160120",
  "ConversionSoftware": "dcm2niix",
  "ConversionSoftwareVersion": "v1.0.20190902",
  "DerivedVendorReportedEchoSpacing": 0.000560011,
  "DeviceSerialNumber": "167006",
  "DwellTime": 2.1e-06,
  "EchoTime": 0.037,
  "EchoTrainLength": 104,
  "EffectiveEchoSpacing": 0.000560011,
  "FlipAngle": 52,
  "ImageComments": "Unaliased_MB4_PE3_LB",
  "ImageOrientationPatientDICOM": [0.99963, 0.000760162, 0.027202, 0.0127369, 0.870286, -0.492382],
  "ImageType": [
    "ORIGINAL",
    "PRIMARY",
    "M",
    "MB",
    "ND",
    "MOSAIC"
],
  "ImagingFrequency": 123.259,
  "InPlanePhaseEncodingDirectionDICOM": "COL",
  "InstitutionAddress": "Chemin_Queen-Mary_4565_Montreal_District_CA_H3W_1W5",
  "InstitutionName": "IUGM",
  "InstitutionalDepartmentName": "Department",
  "MRAcquisitionType": "2D",
  "MagneticFieldStrength": 3,
  "Manufacturer": "Siemens",
  "ManufacturersModelName": "Prisma_fit",
  "Modality": "MR",
  "MultibandAccelerationFactor": 4,
  "PartialFourier": 1,
  "PatientPosition": "HFS",
  "PercentPhaseFOV": 100,
  "PhaseEncodingDirection": "j",
  "PhaseEncodingSteps": 104,
  "PhaseResolution": 1,
  "PixelBandwidth": 2290,
  "ProcedureStepDescription": "memory_things",
  "ProtocolName": "func_task-things_run-6",
  "PulseSequenceDetails": "%CustomerSeq%_cmrr_mbep2d_bold",
  "ReceiveCoilActiveElements": "HC1-7;NC1,2",
  "ReceiveCoilName": "HeadNeck_64",
  "ReconMatrixPE": 104,
  "RepetitionTime": 1.49,
  "SAR": 0.0542962,
  "ScanOptions": "FS",
  "ScanningSequence": "EP",
  "SequenceName": "epfid2d1_104",
  "SequenceVariant": "SK_SS",
  "SeriesDescription": "func_task-things_run-6",
  "SeriesNumber": 25,
  "ShimSetting": [611, -7157, -8858, 231, -20, -183, -1, -34],
  "SliceThickness": 2,
  "SliceTiming": [0, 0.7825, 0.0975, 0.8825, 0.195, 0.98, 0.2925, 1.0775, 0.3925, 1.175, 0.49, 1.2725, 0.5875, 1.3725, 0.685, 0, 0.7825, 0.0975, 0.8825, 0.195, 0.98, 0.2925, 1.0775, 0.3925, 1.175, 0.49, 1.2725, 0.5875, 1.3725, 0.685, 0, 0.7825, 0.0975, 0.8825, 0.195, 0.98, 0.2925, 1.0775, 0.3925, 1.175, 0.49, 1.2725, 0.5875, 1.3725, 0.685, 0, 0.7825, 0.0975, 0.8825, 0.195, 0.98, 0.2925, 1.0775, 0.3925, 1.175, 0.49, 1.2725, 0.5875, 1.3725, 0.685],
  "SoftwareVersions": "syngo_MR_E11",
  "SpacingBetweenSlices": 2,
  "StationName": "MRC35049",
  "TaskName": "things",
  "TotalReadoutTime": 0.0576811,
  "TxRefAmp": 284.595,
  "WipMemBlock": "539be4e1-e40c-4f55-95f7-b1526f3cd866||Sequence: R016 ve11c/master r/e634e98; Dec 19 2017 11:00:25 by eja",
  "dcmmeta_affine": [
    [-1.999259352684021, 0.025473840534687042, 0.04809560254216194, 104.71864318847656],
    [-0.0015203235670924187, 1.7405723333358765, -0.9850917458534241, -52.705528259277344],
    [0.05440397188067436, 0.984763503074646, 1.7399083375930786, -96.17300415039062],
    [0.0, 0.0, 0.0, 1.0]
],
  "dcmmeta_reorient_transform": [
    [0.0, -1.0, 0.0, 103.0],
    [1.0, 0.0, 0.0, 0.0],
    [0.0, 0.0, 1.0, 0.0],
    [0.0, 0.0, 0.0, 1.0]
],
  "dcmmeta_shape": [104, 104, 60, 190],
  "dcmmeta_slice_dim": 2,
  "dcmmeta_version": 0.6,
  "global": {
    "const": {
      "AcquisitionMatrix": [104, 0, 0, 104],
      "AngioFlag": "N",
      "BitsAllocated": 16,
      "BitsStored": 16,
      "BodyPartExamined": "BRAIN",
      "Columns": 832,
      "EchoNumbers": 1,
      "EchoTime": 37.0,
      "EchoTrainLength": 104,
      "FlipAngle": 52.0,
      "HighBit": 15,
      "ImageOrientationPatient": [0.99962966846487, 0.00076016180132, 0.02720198667108, 0.01273692065884, 0.87028614476318, -0.492381759497],
      "ImagePositionPatient": [-844.34532210293, -760.6951271288, 343.90851538815],
      "ImageType": [
        "ORIGINAL",
        "PRIMARY",
        "M",
        "MB",
        "ND",
        "MOSAIC"
],
      "ImagedNucleus": "1H",
      "ImagingFrequency": 123.258969,
      "InPlanePhaseEncodingDirection": "COL",
      "MRAcquisitionType": "2D",
      "MagneticFieldStrength": 3.0,
      "Manufacturer": "SIEMENS",
      "ManufacturerModelName": "Prisma_fit",
      "Modality": "MR",
      "NumberOfAverages": 1.0,
      "NumberOfPhaseEncodingSteps": 104,
      "PercentPhaseFieldOfView": 100.0,
      "PercentSampling": 100.0,
      "PerformedProcedureStepStartTime": "104629.394000",
      "PhotometricInterpretation": "MONOCHROME2",
      "PixelBandwidth": 2290.0,
      "PixelRepresentation": 0,
      "PixelSpacing": [2.0, 2.0],
      "ProtocolName": "func_task-things_run-6",
      "RepetitionTime": 1490.0,
      "Rows": 832,
      "SAR": 0.05429620387115,
      "SamplesPerPixel": 1,
      "ScanOptions": "FS",
      "ScanningSequence": "EP",
      "SequenceName": "epfid2d1_104",
      "SequenceVariant": [
        "SK",
        "SS"
],
      "SeriesDescription": "func_task-things_run-6",
      "SeriesNumber": 25,
      "SeriesTime": "113841.850000",
      "SliceLocation": -55.187958756075,
      "SliceThickness": 2.0,
      "SmallestImagePixelValue": 0,
      "SoftwareVersions": "syngo MR E11",
      "SpacingBetweenSlices": 2.0000000014688,
      "SpecificCharacterSet": "ISO_IR 100",
      "StudyID": "2",
      "StudyTime": "104629.320000",
      "TransmitCoilName": "Body",
      "VariableFlipAngleFlag": "N",
      "WindowCenterWidthExplanation": "Algo1",
      "dBdt": 0.0},
    "slices": {}
  },
  "time": {
    "samples": {
      "AcquisitionNumber": [1, 2, 3, 4, 5, 6, 7, 8, 9, 10, 11, 12, 13, 14, 15, 16, 17, 18, 19, 20, 21, 22, 23, 24, 25, 26, 27, 28, 29, 30, 31, 32, 33, 34, 35, 36, 37, 38, 39, 40, 41, 42, 43, 44, 45, 46, 47, 48, 49, 50, 51, 52, 53, 54, 55, 56, 57, 58, 59, 60, 61, 62, 63, 64, 65, 66, 67, 68, 69, 70, 71, 72, 73, 74, 75, 76, 77, 78, 79, 80, 81, 82, 83, 84, 85, 86, 87, 88, 89, 90, 91, 92, 93, 94, 95, 96, 97, 98, 99, 100, 101, 102, 103, 104, 105, 106, 107, 108, 109, 110, 111, 112, 113, 114, 115, 116, 117, 118, 119, 120, 121, 122, 123, 124, 125, 126, 127, 128, 129, 130, 131, 132, 133, 134, 135, 136, 137, 138, 139, 140, 141, 142, 143, 144, 145, 146, 147, 148, 149, 150, 151, 152, 153, 154, 155, 156, 157, 158, 159, 160, 161, 162, 163, 164, 165, 166, 167, 168, 169, 170, 171, 172, 173, 174, 175, 176, 177, 178, 179, 180, 181, 182, 183, 184, 185, 186, 187, 188, 189, 190],
      "AcquisitionTime": ["113720.057500", "113721.547500", "113723.037500", "113724.527500", "113726.017500", "113727.507500", "113728.997500", "113730.487500", "113731.977500", "113733.467500", "113734.957500", "113736.447500", "113737.937500", "113739.427500", "113740.917500", "113742.407500", "113743.897500", "113745.387500", "113746.877500", "113748.367500", "113749.857500", "113751.347500", "113752.837500", "113754.327500", "113755.817500", "113757.307500", "113758.797500", "113800.287500", "113801.777500", "113803.267500", "113804.757500", "113806.247500", "113807.737500", "113809.227500", "113810.717500", "113812.207500", "113813.697500", "113815.187500", "113816.677500", "113818.167500", "113819.657500", "113821.147500", "113822.637500", "113824.127500", "113825.617500", "113827.107500", "113828.597500", "113830.087500", "113831.577500", "113833.067500", "113834.557500", "113836.047500", "113837.537500", "113839.027500", "113840.517500", "113842.007500", "113843.497500", "113844.987500", "113846.477500", "113847.967500", "113849.457500", "113850.947500", "113852.437500", "113853.927500", "113855.417500", "113856.907500", "113858.397500", "113859.887500", "113901.377500", "113902.867500", "113904.357500", "113905.847500", "113907.337500", "113908.827500", "113910.317500", "113911.807500", "113913.297500", "113914.787500", "113916.277500", "113917.767500", "113919.257500", "113920.747500", "113922.237500", "113923.727500", "113925.217500", "113926.707500", "113928.197500", "113929.687500", "113931.177500", "113932.667500", "113934.157500", "113935.647500", "113937.137500", "113938.627500", "113940.117500", "113941.607500", "113943.097500", "113944.587500", "113946.077500", "113947.567500", "113949.057500", "113950.547500", "113952.037500", "113953.527500", "113955.017500", "113956.507500", "113957.997500", "113959.487500", "114000.977500", "114002.467500", "114003.957500", "114005.447500", "114006.937500", "114008.427500", "114009.917500", "114011.407500", "114012.897500", "114014.387500", "114015.877500", "114017.367500", "114018.857500", "114020.347500", "114021.837500", "114023.327500", "114024.817500", "114026.307500", "114027.797500", "114029.287500", "114030.777500", "114032.267500", "114033.757500", "114035.247500", "114036.737500", "114038.227500", "114039.717500", "114041.207500", "114042.697500", "114044.187500", "114045.677500", "114047.167500", "114048.657500", "114050.147500", "114051.637500", "114053.127500", "114054.617500", "114056.107500", "114057.597500", "114059.087500", "114100.577500", "114102.067500", "114103.557500", "114105.047500", "114106.537500", "114108.027500", "114109.517500", "114111.007500", "114112.497500", "114113.987500", "114115.477500", "114116.967500", "114118.457500", "114119.947500", "114121.437500", "114122.927500", "114124.417500", "114125.907500", "114127.397500", "114128.887500", "114130.377500", "114131.867500", "114133.357500", "114134.847500", "114136.337500", "114137.827500", "114139.317500", "114140.807500", "114142.297500", "114143.787500", "114145.277500", "114146.767500", "114148.257500", "114149.747500", "114151.237500", "114152.727500", "114154.217500", "114155.707500", "114157.197500", "114158.687500", "114200.177500", "114201.667500"],
      "ContentTime": ["113841.853000", "113841.857000", "113841.860000", "113841.863000", "113841.867000", "113841.870000", "113841.874000", "113841.877000", "113841.881000", "113841.884000", "113841.887000", "113841.891000", "113841.900000", "113841.920000", "113841.923000", "113841.927000", "113841.930000", "113841.940000", "113841.944000", "113841.947000", "113841.950000", "113841.954000", "113841.957000", "113841.961000", "113841.964000", "113901.803000", "113901.807000", "113901.810000", "113901.814000", "113901.817000", "113901.820000", "113901.824000", "113901.827000", "113901.831000", "113901.834000", "113901.837000", "113901.841000", "113901.844000", "113901.848000", "113901.851000", "113901.854000", "113901.858000", "113901.861000", "113901.865000", "113901.868000", "113921.803000", "113921.807000", "113921.810000", "113921.814000", "113921.817000", "113921.821000", "113921.824000", "113921.827000", "113921.831000", "113921.834000", "113921.837000", "113921.841000", "113921.844000", "113921.847000", "113921.851000", "113921.854000", "113921.858000", "113921.861000", "113921.864000", "113921.868000", "113941.803000", "113941.807000", "113941.810000", "113941.814000", "113941.817000", "113941.821000", "113941.824000", "113941.827000", "113941.831000", "113941.834000", "113941.837000", "113941.841000", "113941.844000", "113941.847000", "113941.851000", "113941.854000", "113941.858000", "113941.861000", "113941.865000", "113941.868000", "114001.802000", "114001.806000", "114001.810000", "114001.813000", "114001.817000", "114001.821000", "114001.825000", "114001.829000", "114001.832000", "114001.836000", "114001.840000", "114001.844000", "114001.847000", "114001.850000", "114001.854000", "114001.857000", "114001.861000", "114001.864000", "114001.867000", "114001.871000", "114041.802000", "114041.806000", "114041.809000", "114041.813000", "114041.816000", "114041.820000", "114041.823000", "114041.827000", "114041.830000", "114041.834000", "114041.837000", "114041.841000", "114041.863000", "114041.867000", "114041.870000", "114041.874000", "114041.883000", "114041.887000", "114041.890000", "114041.894000", "114041.897000", "114041.901000", "114041.904000", "114041.908000", "114041.911000", "114041.915000", "114041.926000", "114041.929000", "114041.933000", "114121.803000", "114121.807000", "114121.810000", "114121.814000", "114121.817000", "114121.821000", "114121.824000", "114121.827000", "114121.836000", "114121.840000", "114121.843000", "114121.847000", "114121.850000", "114121.853000", "114121.857000", "114121.860000", "114121.864000", "114121.867000", "114121.871000", "114121.874000", "114121.878000", "114121.881000", "114121.885000", "114121.888000", "114121.892000", "114121.895000", "114121.898000", "114201.803000", "114201.807000", "114201.810000", "114201.814000", "114201.817000", "114201.821000", "114201.824000", "114201.827000", "114201.831000", "114201.834000", "114201.838000", "114201.841000", "114201.844000", "114201.848000", "114201.851000", "114201.855000", "114201.858000", "114201.861000", "114201.865000", "114201.868000", "114201.872000", "114201.875000", "114201.878000", "114201.882000", "114201.885000", "114201.889000", "114201.892000", "114204.088000", "114204.092000"],
      "InstanceCreationTime": ["113841.853000", "113841.857000", "113841.860000", "113841.863000", "113841.867000", "113841.870000", "113841.874000", "113841.877000", "113841.881000", "113841.884000", "113841.887000", "113841.891000", "113841.900000", "113841.920000", "113841.923000", "113841.927000", "113841.930000", "113841.940000", "113841.944000", "113841.947000", "113841.950000", "113841.954000", "113841.957000", "113841.961000", "113841.964000", "113901.803000", "113901.807000", "113901.810000", "113901.814000", "113901.817000", "113901.820000", "113901.824000", "113901.827000", "113901.831000", "113901.834000", "113901.837000", "113901.841000", "113901.844000", "113901.848000", "113901.851000", "113901.854000", "113901.858000", "113901.861000", "113901.865000", "113901.868000", "113921.803000", "113921.807000", "113921.810000", "113921.814000", "113921.817000", "113921.821000", "113921.824000", "113921.827000", "113921.831000", "113921.834000", "113921.837000", "113921.841000", "113921.844000", "113921.847000", "113921.851000", "113921.854000", "113921.858000", "113921.861000", "113921.864000", "113921.868000", "113941.803000", "113941.807000", "113941.810000", "113941.814000", "113941.817000", "113941.821000", "113941.824000", "113941.827000", "113941.831000", "113941.834000", "113941.837000", "113941.841000", "113941.844000", "113941.847000", "113941.851000", "113941.854000", "113941.858000", "113941.861000", "113941.865000", "113941.868000", "114001.802000", "114001.806000", "114001.810000", "114001.813000", "114001.817000", "114001.821000", "114001.825000", "114001.829000", "114001.832000", "114001.836000", "114001.840000", "114001.844000", "114001.847000", "114001.850000", "114001.854000", "114001.857000", "114001.861000", "114001.864000", "114001.867000", "114001.871000", "114041.802000", "114041.806000", "114041.809000", "114041.813000", "114041.816000", "114041.820000", "114041.823000", "114041.827000", "114041.830000", "114041.834000", "114041.837000", "114041.841000", "114041.863000", "114041.867000", "114041.870000", "114041.874000", "114041.883000", "114041.887000", "114041.890000", "114041.894000", "114041.897000", "114041.901000", "114041.904000", "114041.908000", "114041.911000", "114041.915000", "114041.926000", "114041.929000", "114041.933000", "114121.803000", "114121.807000", "114121.810000", "114121.814000", "114121.817000", "114121.821000", "114121.824000", "114121.827000", "114121.836000", "114121.840000", "114121.843000", "114121.847000", "114121.850000", "114121.853000", "114121.857000", "114121.860000", "114121.864000", "114121.867000", "114121.871000", "114121.874000", "114121.878000", "114121.881000", "114121.885000", "114121.888000", "114121.892000", "114121.895000", "114121.898000", "114201.803000", "114201.807000", "114201.810000", "114201.814000", "114201.817000", "114201.821000", "114201.824000", "114201.827000", "114201.831000", "114201.834000", "114201.838000", "114201.841000", "114201.844000", "114201.848000", "114201.851000", "114201.855000", "114201.858000", "114201.861000", "114201.865000", "114201.868000", "114201.872000", "114201.875000", "114201.878000", "114201.882000", "114201.885000", "114201.889000", "114201.892000", "114204.088000", "114204.092000"],
      "InstanceNumber": [1, 2, 3, 4, 5, 6, 7, 8, 9, 10, 11, 12, 13, 14, 15, 16, 17, 18, 19, 20, 21, 22, 23, 24, 25, 26, 27, 28, 29, 30, 31, 32, 33, 34, 35, 36, 37, 38, 39, 40, 41, 42, 43, 44, 45, 46, 47, 48, 49, 50, 51, 52, 53, 54, 55, 56, 57, 58, 59, 60, 61, 62, 63, 64, 65, 66, 67, 68, 69, 70, 71, 72, 73, 74, 75, 76, 77, 78, 79, 80, 81, 82, 83, 84, 85, 86, 87, 88, 89, 90, 91, 92, 93, 94, 95, 96, 97, 98, 99, 100, 101, 102, 103, 104, 105, 106, 107, 108, 109, 110, 111, 112, 113, 114, 115, 116, 117, 118, 119, 120, 121, 122, 123, 124, 125, 126, 127, 128, 129, 130, 131, 132, 133, 134, 135, 136, 137, 138, 139, 140, 141, 142, 143, 144, 145, 146, 147, 148, 149, 150, 151, 152, 153, 154, 155, 156, 157, 158, 159, 160, 161, 162, 163, 164, 165, 166, 167, 168, 169, 170, 171, 172, 173, 174, 175, 176, 177, 178, 179, 180, 181, 182, 183, 184, 185, 186, 187, 188, 189, 190],
      "LargestImagePixelValue": [45772, 44040, 43409, 42738, 43124, 43218, 43102, 42739, 42861, 42880, 44267, 43719, 43462, 43014, 42949, 42879, 42792, 42984, 42994, 42590, 43130, 42412, 42542, 43334, 43030, 42921, 43358, 42532, 41769, 42480, 42592, 43312, 43311, 43051, 42226, 42649, 43013, 42875, 42934, 43091, 43089, 42671, 43662, 42491, 42941, 43308, 43329, 43204, 42891, 42880, 43492, 43706, 43505, 44010, 43043, 42939, 42347, 42201, 42362, 43357, 43905, 43298, 43436, 43213, 43640, 42520, 42910, 43209, 43840, 44021, 43721, 42907, 43238, 43258, 43080, 43978, 43462, 43187, 43775, 43638, 43181, 43010, 43121, 42961, 42690, 43017, 42396, 42392, 43005, 42987, 42763, 42312, 43200, 43467, 42773, 43004, 43628, 43350, 43121, 43275, 42902, 43325, 42754, 43437, 43350, 43046, 43238, 42368, 43051, 43880, 43373, 43535, 43085, 43400, 43565, 42967, 43123, 43976, 43218, 43866, 43274, 43696, 43759, 43630, 43079, 44041, 44027, 43744, 43386, 43539, 43695, 43691, 44060, 44086, 43663, 43199, 43271, 44068, 43520, 43632, 43626, 43195, 43421, 44105, 43587, 43553, 44029, 43946, 43521, 44012, 43282, 43858, 44198, 43467, 43592, 43679, 44186, 43665, 44093, 43921, 43599, 43540, 43848, 44247, 44064, 43816, 43153, 43253, 43360, 43637, 44196, 43307, 43727, 43702, 43262, 43569, 44000, 43563, 43803, 43774, 43551, 43264, 43521, 43111, 43819, 43568, 43841, 43259, 43841, 43610],
      "WindowCenter": [10881.0, 10845.0, 10828.0, 10811.0, 10796.0, 10792.0, 10805.0, 10777.0, 10794.0, 10766.0, 10756.0, 10783.0, 10779.0, 10789.0, 10838.0, 10869.0, 10876.0, 10836.0, 10830.0, 10826.0, 10820.0, 10806.0, 10816.0, 10812.0, 10792.0, 10762.0, 10787.0, 10812.0, 10775.0, 10776.0, 10784.0, 10818.0, 10813.0, 10834.0, 10809.0, 10808.0, 10804.0, 10748.0, 10740.0, 10788.0, 10827.0, 10851.0, 10844.0, 10792.0, 10776.0, 10753.0, 10756.0, 10793.0, 10835.0, 10821.0, 10800.0, 10776.0, 10755.0, 10804.0, 10863.0, 10848.0, 10810.0, 10826.0, 10799.0, 10764.0, 10765.0, 10746.0, 10776.0, 10796.0, 10807.0, 10795.0, 10788.0, 10772.0, 10765.0, 10762.0, 10754.0, 10753.0, 10769.0, 10778.0, 10780.0, 10804.0, 10785.0, 10761.0, 10783.0, 10794.0, 10814.0, 10813.0, 10779.0, 10763.0, 10774.0, 10827.0, 10791.0, 10759.0, 10771.0, 10789.0, 10793.0, 10768.0, 10754.0, 10797.0, 10790.0, 10784.0, 10787.0, 10761.0, 10777.0, 10830.0, 10828.0, 10813.0, 10754.0, 10723.0, 10737.0, 10816.0, 10824.0, 10798.0, 10761.0, 10745.0, 10782.0, 10793.0, 10773.0, 10750.0, 10747.0, 10769.0, 10768.0, 10783.0, 10759.0, 10772.0, 10766.0, 10779.0, 10799.0, 10774.0, 10757.0, 10767.0, 10806.0, 10811.0, 10822.0, 10802.0, 10776.0, 10728.0, 10729.0, 10755.0, 10794.0, 10800.0, 10760.0, 10760.0, 10746.0, 10773.0, 10803.0, 10790.0, 10775.0, 10763.0, 10749.0, 10746.0, 10758.0, 10780.0, 10782.0, 10792.0, 10779.0, 10775.0, 10779.0, 10784.0, 10759.0, 10748.0, 10769.0, 10766.0, 10792.0, 10786.0, 10778.0, 10768.0, 10747.0, 10731.0, 10769.0, 10791.0, 10808.0, 10793.0, 10772.0, 10759.0, 10793.0, 10838.0, 10843.0, 10823.0, 10802.0, 10762.0, 10783.0, 10778.0, 10757.0, 10770.0, 10798.0, 10794.0, 10770.0, 10717.0, 10708.0, 10737.0, 10763.0, 10776.0, 10776.0, 10787.0],
      "WindowWidth": [23389.0, 23276.0, 23218.0, 23171.0, 23127.0, 23115.0, 23141.0, 23076.0, 23117.0, 23051.0, 23023.0, 23086.0, 23082.0, 23104.0, 23219.0, 23289.0, 23302.0, 23214.0, 23197.0, 23187.0, 23172.0, 23140.0, 23164.0, 23154.0, 23112.0, 23040.0, 23092.0, 23150.0, 23072.0, 23074.0, 23091.0, 23165.0, 23159.0, 23204.0, 23153.0, 23150.0, 23146.0, 23017.0, 22990.0, 23095.0, 23183.0, 23242.0, 23228.0, 23107.0, 23073.0, 23021.0, 23023.0, 23108.0, 23202.0, 23175.0, 23126.0, 23075.0, 23019.0, 23126.0, 23267.0, 23236.0, 23154.0, 23192.0, 23127.0, 23045.0, 23045.0, 22999.0, 23068.0, 23114.0, 23140.0, 23117.0, 23098.0, 23057.0, 23041.0, 23032.0, 23017.0, 23018.0, 23052.0, 23073.0, 23077.0, 23131.0, 23087.0, 23035.0, 23080.0, 23110.0, 23154.0, 23158.0, 23081.0, 23043.0, 23070.0, 23190.0, 23115.0, 23043.0, 23061.0, 23099.0, 23112.0, 23060.0, 23023.0, 23116.0, 23100.0, 23089.0, 23094.0, 23033.0, 23067.0, 23187.0, 23187.0, 23158.0, 23022.0, 22947.0, 22979.0, 23154.0, 23176.0, 23121.0, 23032.0, 22993.0, 23078.0, 23106.0, 23070.0, 23011.0, 23004.0, 23056.0, 23054.0, 23085.0, 23032.0, 23057.0, 23044.0, 23070.0, 23117.0, 23065.0, 23025.0, 23045.0, 23133.0, 23147.0, 23173.0, 23130.0, 23068.0, 22964.0, 22958.0, 23016.0, 23109.0, 23127.0, 23036.0, 23030.0, 22998.0, 23059.0, 23126.0, 23103.0, 23064.0, 23036.0, 23009.0, 22999.0, 23021.0, 23074.0, 23083.0, 23104.0, 23075.0, 23063.0, 23070.0, 23084.0, 23031.0, 23004.0, 23044.0, 23042.0, 23100.0, 23088.0, 23067.0, 23048.0, 22999.0, 22959.0, 23045.0, 23098.0, 23137.0, 23108.0, 23059.0, 23026.0, 23100.0, 23205.0, 23215.0, 23165.0, 23129.0, 23036.0, 23078.0, 23070.0, 23019.0, 23044.0, 23114.0, 23106.0, 23049.0, 22934.0, 22908.0, 22973.0, 23032.0, 23063.0, 23068.0, 23093.0]
    },
    "slices": {}
  }
}