{
  "AcquisitionMatrixPE": 104,
  "AcquisitionNumber": 1,
  "AcquisitionTime": "11:12:4.622500",
  "BandwidthPerPixelPhaseEncode": 17.17,
  "BaseResolution": 104,
  "BodyPartExamined": "BRAIN",
  "CoilString": "HC1-7;NC1_2",
  "ConsistencyInfo": "N4_VE11C_LATEST_20160120",
  "ConversionSoftware": "dcm2niix",
  "ConversionSoftwareVersion": "v1.0.20190902",
  "DerivedVendorReportedEchoSpacing": 0.000560011,
  "DeviceSerialNumber": "167006",
  "DwellTime": 2.1e-06,
  "EchoTime": 0.037,
  "EchoTrainLength": 104,
  "EffectiveEchoSpacing": 0.000560011,
  "FlipAngle": 52,
  "ImageComments": "Unaliased_MB4_PE3_LB",
  "ImageOrientationPatientDICOM": [0.99963, 0.000760162, 0.027202, 0.0127369, 0.870286, -0.492382],
  "ImageType": [
    "ORIGINAL",
    "PRIMARY",
    "M",
    "MB",
    "ND",
    "MOSAIC"
],
  "ImagingFrequency": 123.259,
  "InPlanePhaseEncodingDirectionDICOM": "COL",
  "InstitutionAddress": "Chemin_Queen-Mary_4565_Montreal_District_CA_H3W_1W5",
  "InstitutionName": "IUGM",
  "InstitutionalDepartmentName": "Department",
  "MRAcquisitionType": "2D",
  "MagneticFieldStrength": 3,
  "Manufacturer": "Siemens",
  "ManufacturersModelName": "Prisma_fit",
  "Modality": "MR",
  "MultibandAccelerationFactor": 4,
  "PartialFourier": 1,
  "PatientPosition": "HFS",
  "PercentPhaseFOV": 100,
  "PhaseEncodingDirection": "j",
  "PhaseEncodingSteps": 104,
  "PhaseResolution": 1,
  "PixelBandwidth": 2290,
  "ProcedureStepDescription": "memory_things",
  "ProtocolName": "func_task-things_run-2",
  "PulseSequenceDetails": "%CustomerSeq%_cmrr_mbep2d_bold",
  "ReceiveCoilActiveElements": "HC1-7;NC1,2",
  "ReceiveCoilName": "HeadNeck_64",
  "ReconMatrixPE": 104,
  "RepetitionTime": 1.49,
  "SAR": 0.0542962,
  "ScanOptions": "FS",
  "ScanningSequence": "EP",
  "SequenceName": "epfid2d1_104",
  "SequenceVariant": "SK_SS",
  "SeriesDescription": "func_task-things_run-2",
  "SeriesNumber": 13,
  "ShimSetting": [611, -7157, -8858, 231, -20, -183, -1, -34],
  "SliceThickness": 2,
  "SliceTiming": [0, 0.785, 0.0975, 0.8825, 0.1975, 0.98, 0.295, 1.0775, 0.3925, 1.1775, 0.49, 1.275, 0.5875, 1.3725, 0.6875, 0, 0.785, 0.0975, 0.8825, 0.1975, 0.98, 0.295, 1.0775, 0.3925, 1.1775, 0.49, 1.275, 0.5875, 1.3725, 0.6875, 0, 0.785, 0.0975, 0.8825, 0.1975, 0.98, 0.295, 1.0775, 0.3925, 1.1775, 0.49, 1.275, 0.5875, 1.3725, 0.6875, 0, 0.785, 0.0975, 0.8825, 0.1975, 0.98, 0.295, 1.0775, 0.3925, 1.1775, 0.49, 1.275, 0.5875, 1.3725, 0.6875],
  "SoftwareVersions": "syngo_MR_E11",
  "SpacingBetweenSlices": 2,
  "StationName": "MRC35049",
  "TaskName": "things",
  "TotalReadoutTime": 0.0576811,
  "TxRefAmp": 284.595,
  "WipMemBlock": "8656d92a-2994-4f96-a4e2-0ee1103518d6||Sequence: R016 ve11c/master r/e634e98; Dec 19 2017 11:00:25 by eja",
  "dcmmeta_affine": [
    [-1.999259352684021, 0.025473840534687042, 0.04809560254216194, 104.71864318847656],
    [-0.0015203235670924187, 1.7405723333358765, -0.9850917458534241, -52.705528259277344],
    [0.05440397188067436, 0.984763503074646, 1.7399083375930786, -96.17300415039062],
    [0.0, 0.0, 0.0, 1.0]
],
  "dcmmeta_reorient_transform": [
    [0.0, -1.0, 0.0, 103.0],
    [1.0, 0.0, 0.0, 0.0],
    [0.0, 0.0, 1.0, 0.0],
    [0.0, 0.0, 0.0, 1.0]
],
  "dcmmeta_shape": [104, 104, 60, 190],
  "dcmmeta_slice_dim": 2,
  "dcmmeta_version": 0.6,
  "global": {
    "const": {
      "AcquisitionMatrix": [104, 0, 0, 104],
      "AngioFlag": "N",
      "BitsAllocated": 16,
      "BitsStored": 16,
      "BodyPartExamined": "BRAIN",
      "Columns": 832,
      "EchoNumbers": 1,
      "EchoTime": 37.0,
      "EchoTrainLength": 104,
      "FlipAngle": 52.0,
      "HighBit": 15,
      "ImageOrientationPatient": [0.99962966846487, 0.00076016180132, 0.02720198667108, 0.01273692065884, 0.87028614476318, -0.492381759497],
      "ImagePositionPatient": [-844.34532210293, -760.6951271288, 343.90851538815],
      "ImageType": [
        "ORIGINAL",
        "PRIMARY",
        "M",
        "MB",
        "ND",
        "MOSAIC"
],
      "ImagedNucleus": "1H",
      "ImagingFrequency": 123.258959,
      "InPlanePhaseEncodingDirection": "COL",
      "MRAcquisitionType": "2D",
      "MagneticFieldStrength": 3.0,
      "Manufacturer": "SIEMENS",
      "ManufacturerModelName": "Prisma_fit",
      "Modality": "MR",
      "NumberOfAverages": 1.0,
      "NumberOfPhaseEncodingSteps": 104,
      "PercentPhaseFieldOfView": 100.0,
      "PercentSampling": 100.0,
      "PerformedProcedureStepStartTime": "104629.394000",
      "PhotometricInterpretation": "MONOCHROME2",
      "PixelBandwidth": 2290.0,
      "PixelRepresentation": 0,
      "PixelSpacing": [2.0, 2.0],
      "ProtocolName": "func_task-things_run-2",
      "RepetitionTime": 1490.0,
      "Rows": 832,
      "SAR": 0.05429620387115,
      "SamplesPerPixel": 1,
      "ScanOptions": "FS",
      "ScanningSequence": "EP",
      "SequenceName": "epfid2d1_104",
      "SequenceVariant": [
        "SK",
        "SS"
],
      "SeriesDescription": "func_task-things_run-2",
      "SeriesNumber": 13,
      "SeriesTime": "111332.418000",
      "SliceLocation": -55.187958756075,
      "SliceThickness": 2.0,
      "SmallestImagePixelValue": 0,
      "SoftwareVersions": "syngo MR E11",
      "SpacingBetweenSlices": 2.0000000014688,
      "SpecificCharacterSet": "ISO_IR 100",
      "StudyID": "2",
      "StudyTime": "104629.320000",
      "TransmitCoilName": "Body",
      "VariableFlipAngleFlag": "N",
      "WindowCenterWidthExplanation": "Algo1",
      "dBdt": 0.0},
    "slices": {}
  },
  "time": {
    "samples": {
      "AcquisitionNumber": [1, 2, 3, 4, 5, 6, 7, 8, 9, 10, 11, 12, 13, 14, 15, 16, 17, 18, 19, 20, 21, 22, 23, 24, 25, 26, 27, 28, 29, 30, 31, 32, 33, 34, 35, 36, 37, 38, 39, 40, 41, 42, 43, 44, 45, 46, 47, 48, 49, 50, 51, 52, 53, 54, 55, 56, 57, 58, 59, 60, 61, 62, 63, 64, 65, 66, 67, 68, 69, 70, 71, 72, 73, 74, 75, 76, 77, 78, 79, 80, 81, 82, 83, 84, 85, 86, 87, 88, 89, 90, 91, 92, 93, 94, 95, 96, 97, 98, 99, 100, 101, 102, 103, 104, 105, 106, 107, 108, 109, 110, 111, 112, 113, 114, 115, 116, 117, 118, 119, 120, 121, 122, 123, 124, 125, 126, 127, 128, 129, 130, 131, 132, 133, 134, 135, 136, 137, 138, 139, 140, 141, 142, 143, 144, 145, 146, 147, 148, 149, 150, 151, 152, 153, 154, 155, 156, 157, 158, 159, 160, 161, 162, 163, 164, 165, 166, 167, 168, 169, 170, 171, 172, 173, 174, 175, 176, 177, 178, 179, 180, 181, 182, 183, 184, 185, 186, 187, 188, 189, 190],
      "AcquisitionTime": ["111204.622500", "111206.112500", "111207.602500", "111209.092500", "111210.582500", "111212.072500", "111213.562500", "111215.052500", "111216.542500", "111218.032500", "111219.522500", "111221.012500", "111222.502500", "111223.992500", "111225.482500", "111226.972500", "111228.462500", "111229.952500", "111231.442500", "111232.932500", "111234.422500", "111235.912500", "111237.402500", "111238.892500", "111240.382500", "111241.872500", "111243.362500", "111244.852500", "111246.342500", "111247.832500", "111249.322500", "111250.812500", "111252.302500", "111253.792500", "111255.282500", "111256.772500", "111258.262500", "111259.752500", "111301.242500", "111302.732500", "111304.222500", "111305.712500", "111307.202500", "111308.692500", "111310.182500", "111311.672500", "111313.162500", "111314.652500", "111316.142500", "111317.632500", "111319.122500", "111320.612500", "111322.102500", "111323.592500", "111325.082500", "111326.572500", "111328.062500", "111329.552500", "111331.042500", "111332.532500", "111334.022500", "111335.512500", "111337.002500", "111338.492500", "111339.982500", "111341.472500", "111342.962500", "111344.452500", "111345.942500", "111347.432500", "111348.922500", "111350.412500", "111351.902500", "111353.392500", "111354.882500", "111356.372500", "111357.862500", "111359.352500", "111400.842500", "111402.332500", "111403.822500", "111405.312500", "111406.802500", "111408.292500", "111409.782500", "111411.272500", "111412.762500", "111414.252500", "111415.742500", "111417.232500", "111418.722500", "111420.212500", "111421.702500", "111423.192500", "111424.682500", "111426.172500", "111427.662500", "111429.152500", "111430.642500", "111432.132500", "111433.622500", "111435.112500", "111436.602500", "111438.092500", "111439.582500", "111441.072500", "111442.562500", "111444.052500", "111445.542500", "111447.032500", "111448.522500", "111450.012500", "111451.502500", "111452.992500", "111454.482500", "111455.972500", "111457.462500", "111458.952500", "111500.442500", "111501.932500", "111503.422500", "111504.912500", "111506.402500", "111507.892500", "111509.382500", "111510.872500", "111512.362500", "111513.852500", "111515.342500", "111516.832500", "111518.322500", "111519.812500", "111521.302500", "111522.792500", "111524.282500", "111525.772500", "111527.262500", "111528.752500", "111530.242500", "111531.732500", "111533.222500", "111534.712500", "111536.202500", "111537.692500", "111539.182500", "111540.672500", "111542.162500", "111543.652500", "111545.142500", "111546.632500", "111548.122500", "111549.612500", "111551.102500", "111552.592500", "111554.082500", "111555.572500", "111557.062500", "111558.552500", "111600.042500", "111601.532500", "111603.022500", "111604.512500", "111606.002500", "111607.492500", "111608.982500", "111610.472500", "111611.962500", "111613.452500", "111614.942500", "111616.432500", "111617.922500", "111619.412500", "111620.902500", "111622.392500", "111623.882500", "111625.372500", "111626.862500", "111628.352500", "111629.842500", "111631.332500", "111632.822500", "111634.312500", "111635.802500", "111637.292500", "111638.782500", "111640.272500", "111641.762500", "111643.252500", "111644.742500", "111646.232500"],
      "ContentTime": ["111332.421000", "111332.425000", "111332.429000", "111332.432000", "111332.436000", "111332.439000", "111332.443000", "111332.446000", "111332.450000", "111332.453000", "111332.463000", "111332.467000", "111332.470000", "111332.473000", "111332.477000", "111332.480000", "111332.484000", "111332.487000", "111332.490000", "111332.494000", "111332.497000", "111332.500000", "111332.504000", "111332.510000", "111332.513000", "111332.516000", "111332.520000", "111332.523000", "111332.527000", "111332.530000", "111332.533000", "111332.537000", "111332.540000", "111352.385000", "111352.389000", "111352.392000", "111352.396000", "111352.399000", "111352.402000", "111352.406000", "111352.409000", "111352.413000", "111352.416000", "111352.433000", "111352.437000", "111352.440000", "111352.443000", "111352.447000", "111352.450000", "111352.454000", "111352.457000", "111352.469000", "111352.472000", "111412.385000", "111412.389000", "111412.393000", "111412.396000", "111412.399000", "111412.403000", "111412.406000", "111412.410000", "111412.413000", "111412.417000", "111412.420000", "111412.423000", "111412.427000", "111412.430000", "111412.434000", "111412.437000", "111412.440000", "111412.444000", "111412.448000", "111412.452000", "111412.468000", "111432.385000", "111432.389000", "111432.392000", "111432.396000", "111432.399000", "111432.403000", "111432.406000", "111432.409000", "111432.413000", "111432.416000", "111432.420000", "111432.423000", "111432.427000", "111432.430000", "111432.433000", "111432.437000", "111432.440000", "111432.443000", "111432.447000", "111432.450000", "111452.386000", "111452.390000", "111452.393000", "111452.397000", "111452.400000", "111452.404000", "111452.407000", "111452.410000", "111452.414000", "111452.417000", "111452.421000", "111452.433000", "111452.436000", "111452.440000", "111452.443000", "111452.446000", "111452.450000", "111452.453000", "111532.385000", "111532.389000", "111532.392000", "111532.396000", "111532.399000", "111532.403000", "111532.406000", "111532.409000", "111532.413000", "111532.416000", "111532.420000", "111532.423000", "111532.427000", "111532.430000", "111532.433000", "111532.437000", "111532.440000", "111532.443000", "111532.447000", "111532.450000", "111532.454000", "111532.457000", "111532.461000", "111532.464000", "111532.468000", "111532.471000", "111532.474000", "111612.385000", "111612.389000", "111612.392000", "111612.396000", "111612.399000", "111612.403000", "111612.406000", "111612.410000", "111612.413000", "111612.416000", "111612.420000", "111612.423000", "111612.427000", "111612.430000", "111612.434000", "111612.438000", "111612.441000", "111612.444000", "111612.448000", "111612.451000", "111612.455000", "111612.458000", "111612.462000", "111612.465000", "111612.468000", "111612.472000", "111648.401000", "111648.405000", "111648.408000", "111648.412000", "111648.416000", "111648.419000", "111648.423000", "111648.427000", "111648.430000", "111648.434000", "111648.438000", "111648.459000", "111648.462000", "111648.466000", "111648.469000", "111648.473000", "111648.476000", "111648.480000", "111648.484000", "111648.487000", "111648.491000", "111648.494000", "111648.498000", "111648.501000", "111648.505000"],
      "InstanceCreationTime": ["111332.421000", "111332.425000", "111332.429000", "111332.432000", "111332.436000", "111332.439000", "111332.443000", "111332.446000", "111332.450000", "111332.453000", "111332.463000", "111332.467000", "111332.470000", "111332.473000", "111332.477000", "111332.480000", "111332.484000", "111332.487000", "111332.490000", "111332.494000", "111332.497000", "111332.500000", "111332.504000", "111332.510000", "111332.513000", "111332.516000", "111332.520000", "111332.523000", "111332.527000", "111332.530000", "111332.533000", "111332.537000", "111332.540000", "111352.385000", "111352.389000", "111352.392000", "111352.396000", "111352.399000", "111352.402000", "111352.406000", "111352.409000", "111352.413000", "111352.416000", "111352.433000", "111352.437000", "111352.440000", "111352.443000", "111352.447000", "111352.450000", "111352.454000", "111352.457000", "111352.469000", "111352.472000", "111412.385000", "111412.389000", "111412.393000", "111412.396000", "111412.399000", "111412.403000", "111412.406000", "111412.410000", "111412.413000", "111412.417000", "111412.420000", "111412.423000", "111412.427000", "111412.430000", "111412.434000", "111412.437000", "111412.440000", "111412.444000", "111412.448000", "111412.452000", "111412.468000", "111432.385000", "111432.389000", "111432.392000", "111432.396000", "111432.399000", "111432.403000", "111432.406000", "111432.409000", "111432.413000", "111432.416000", "111432.420000", "111432.423000", "111432.427000", "111432.430000", "111432.433000", "111432.437000", "111432.440000", "111432.443000", "111432.447000", "111432.450000", "111452.386000", "111452.390000", "111452.393000", "111452.397000", "111452.400000", "111452.404000", "111452.407000", "111452.410000", "111452.414000", "111452.417000", "111452.421000", "111452.433000", "111452.436000", "111452.440000", "111452.443000", "111452.446000", "111452.450000", "111452.453000", "111532.385000", "111532.389000", "111532.392000", "111532.396000", "111532.399000", "111532.403000", "111532.406000", "111532.409000", "111532.413000", "111532.416000", "111532.420000", "111532.423000", "111532.427000", "111532.430000", "111532.433000", "111532.437000", "111532.440000", "111532.443000", "111532.447000", "111532.450000", "111532.454000", "111532.457000", "111532.461000", "111532.464000", "111532.468000", "111532.471000", "111532.474000", "111612.385000", "111612.389000", "111612.392000", "111612.396000", "111612.399000", "111612.403000", "111612.406000", "111612.410000", "111612.413000", "111612.416000", "111612.420000", "111612.423000", "111612.427000", "111612.430000", "111612.434000", "111612.438000", "111612.441000", "111612.444000", "111612.448000", "111612.451000", "111612.455000", "111612.458000", "111612.462000", "111612.465000", "111612.468000", "111612.472000", "111648.401000", "111648.405000", "111648.408000", "111648.412000", "111648.416000", "111648.419000", "111648.423000", "111648.427000", "111648.430000", "111648.434000", "111648.438000", "111648.459000", "111648.462000", "111648.466000", "111648.469000", "111648.473000", "111648.476000", "111648.480000", "111648.484000", "111648.487000", "111648.491000", "111648.494000", "111648.498000", "111648.501000", "111648.505000"],
      "InstanceNumber": [1, 2, 3, 4, 5, 6, 7, 8, 9, 10, 11, 12, 13, 14, 15, 16, 17, 18, 19, 20, 21, 22, 23, 24, 25, 26, 27, 28, 29, 30, 31, 32, 33, 34, 35, 36, 37, 38, 39, 40, 41, 42, 43, 44, 45, 46, 47, 48, 49, 50, 51, 52, 53, 54, 55, 56, 57, 58, 59, 60, 61, 62, 63, 64, 65, 66, 67, 68, 69, 70, 71, 72, 73, 74, 75, 76, 77, 78, 79, 80, 81, 82, 83, 84, 85, 86, 87, 88, 89, 90, 91, 92, 93, 94, 95, 96, 97, 98, 99, 100, 101, 102, 103, 104, 105, 106, 107, 108, 109, 110, 111, 112, 113, 114, 115, 116, 117, 118, 119, 120, 121, 122, 123, 124, 125, 126, 127, 128, 129, 130, 131, 132, 133, 134, 135, 136, 137, 138, 139, 140, 141, 142, 143, 144, 145, 146, 147, 148, 149, 150, 151, 152, 153, 154, 155, 156, 157, 158, 159, 160, 161, 162, 163, 164, 165, 166, 167, 168, 169, 170, 171, 172, 173, 174, 175, 176, 177, 178, 179, 180, 181, 182, 183, 184, 185, 186, 187, 188, 189, 190],
      "LargestImagePixelValue": [47640, 46205, 45427, 44814, 44738, 44513, 44968, 43854, 44797, 44910, 44422, 44523, 44598, 43840, 44365, 44056, 43566, 44411, 44260, 44233, 44362, 44448, 44563, 44318, 43726, 44797, 44394, 44558, 44245, 44286, 44593, 44867, 44613, 44168, 43624, 44544, 45051, 45241, 45161, 44726, 45351, 44716, 43942, 43849, 43312, 43698, 43381, 43387, 43308, 43663, 43394, 43247, 42926, 43257, 43114, 43269, 43226, 43273, 43039, 43014, 43543, 43305, 43576, 42674, 42191, 42345, 42412, 43280, 43316, 42819, 42830, 43022, 42927, 43009, 42956, 42804, 43241, 43532, 43645, 43406, 42816, 42726, 42865, 43454, 43404, 43450, 42605, 42268, 42100, 42496, 42940, 42834, 43278, 43027, 42949, 42818, 43243, 42826, 43290, 43116, 43148, 42401, 42546, 43168, 43131, 43326, 43296, 42952, 42588, 42808, 42907, 42504, 42626, 42943, 42799, 42625, 43024, 42424, 42771, 42183, 42125, 42688, 43441, 42912, 42619, 42674, 42541, 42752, 43069, 42874, 43188, 42725, 42189, 41656, 42353, 42750, 42145, 43223, 43135, 42822, 41799, 42157, 42284, 42984, 42877, 43167, 42673, 43093, 42713, 43016, 41826, 42241, 42164, 42596, 42621, 42376, 42755, 42580, 42875, 41652, 42608, 42224, 42786, 42251, 42199, 41924, 41716, 42106, 42591, 42951, 43031, 43064, 42593, 42524, 42209, 42163, 42138, 42022, 42209, 42052, 42270, 42303, 42555, 42652, 42186, 42252, 42498, 42277, 41873, 42880],
      "WindowCenter": [11106.0, 11015.0, 10921.0, 10891.0, 10919.0, 10993.0, 11043.0, 11028.0, 11016.0, 10992.0, 10949.0, 10925.0, 10923.0, 10917.0, 10930.0, 10949.0, 10974.0, 10997.0, 10992.0, 10973.0, 10979.0, 11011.0, 10993.0, 10973.0, 10946.0, 10936.0, 10956.0, 10999.0, 10991.0, 11000.0, 11009.0, 10949.0, 10905.0, 10923.0, 10972.0, 10996.0, 11000.0, 10959.0, 10950.0, 10963.0, 10964.0, 10995.0, 10981.0, 10973.0, 10948.0, 10908.0, 10897.0, 10937.0, 10955.0, 10945.0, 10937.0, 10922.0, 10910.0, 10909.0, 10918.0, 10908.0, 10914.0, 10914.0, 10918.0, 10918.0, 10931.0, 10921.0, 10895.0, 10913.0, 10943.0, 10963.0, 10965.0, 10935.0, 10920.0, 10924.0, 10908.0, 10928.0, 10958.0, 10961.0, 10951.0, 10935.0, 10919.0, 10882.0, 10880.0, 10882.0, 10936.0, 10965.0, 10971.0, 10928.0, 10892.0, 10874.0, 10907.0, 10943.0, 10947.0, 10938.0, 10907.0, 10858.0, 10841.0, 10863.0, 10879.0, 10905.0, 10907.0, 10893.0, 10896.0, 10905.0, 10925.0, 10929.0, 10916.0, 10921.0, 10908.0, 10907.0, 10889.0, 10882.0, 10894.0, 10910.0, 10920.0, 10914.0, 10907.0, 10901.0, 10909.0, 10906.0, 10920.0, 10910.0, 10896.0, 10900.0, 10906.0, 10914.0, 10922.0, 10905.0, 10898.0, 10907.0, 10911.0, 10906.0, 10896.0, 10914.0, 10910.0, 10920.0, 10900.0, 10888.0, 10891.0, 10906.0, 10880.0, 10896.0, 10912.0, 10909.0, 10902.0, 10910.0, 10885.0, 10893.0, 10877.0, 10899.0, 10922.0, 10927.0, 10915.0, 10903.0, 10886.0, 10891.0, 10898.0, 10903.0, 10918.0, 10898.0, 10874.0, 10876.0, 10918.0, 10925.0, 10930.0, 10904.0, 10885.0, 10890.0, 10933.0, 10964.0, 10950.0, 10934.0, 10892.0, 10887.0, 10884.0, 10873.0, 10896.0, 10929.0, 10920.0, 10891.0, 10899.0, 10938.0, 10943.0, 10881.0, 10857.0, 10832.0, 10859.0, 10910.0, 10939.0, 10931.0, 10884.0, 10848.0, 10873.0, 10933.0],
      "WindowWidth": [23911.0, 23665.0, 23432.0, 23357.0, 23403.0, 23567.0, 23678.0, 23647.0, 23615.0, 23563.0, 23465.0, 23408.0, 23402.0, 23396.0, 23421.0, 23464.0, 23527.0, 23576.0, 23570.0, 23529.0, 23533.0, 23607.0, 23565.0, 23523.0, 23467.0, 23436.0, 23479.0, 23579.0, 23565.0, 23585.0, 23603.0, 23465.0, 23365.0, 23405.0, 23520.0, 23572.0, 23578.0, 23489.0, 23461.0, 23496.0, 23495.0, 23569.0, 23542.0, 23523.0, 23468.0, 23373.0, 23349.0, 23436.0, 23484.0, 23459.0, 23441.0, 23407.0, 23378.0, 23376.0, 23399.0, 23375.0, 23386.0, 23384.0, 23399.0, 23398.0, 23424.0, 23409.0, 23344.0, 23390.0, 23458.0, 23503.0, 23509.0, 23441.0, 23402.0, 23417.0, 23376.0, 23422.0, 23489.0, 23497.0, 23471.0, 23433.0, 23397.0, 23313.0, 23309.0, 23311.0, 23438.0, 23504.0, 23520.0, 23420.0, 23341.0, 23293.0, 23371.0, 23459.0, 23470.0, 23446.0, 23373.0, 23258.0, 23216.0, 23272.0, 23303.0, 23361.0, 23369.0, 23339.0, 23341.0, 23361.0, 23409.0, 23424.0, 23394.0, 23404.0, 23372.0, 23371.0, 23331.0, 23314.0, 23343.0, 23379.0, 23401.0, 23390.0, 23371.0, 23354.0, 23375.0, 23372.0, 23400.0, 23384.0, 23349.0, 23357.0, 23370.0, 23384.0, 23398.0, 23366.0, 23351.0, 23372.0, 23377.0, 23368.0, 23341.0, 23392.0, 23376.0, 23398.0, 23355.0, 23332.0, 23335.0, 23370.0, 23310.0, 23338.0, 23381.0, 23369.0, 23361.0, 23378.0, 23322.0, 23336.0, 23302.0, 23349.0, 23405.0, 23417.0, 23390.0, 23359.0, 23327.0, 23341.0, 23351.0, 23361.0, 23398.0, 23351.0, 23295.0, 23301.0, 23392.0, 23416.0, 23424.0, 23369.0, 23321.0, 23333.0, 23431.0, 23505.0, 23475.0, 23434.0, 23341.0, 23325.0, 23319.0, 23294.0, 23349.0, 23419.0, 23404.0, 23337.0, 23351.0, 23444.0, 23460.0, 23318.0, 23263.0, 23199.0, 23258.0, 23373.0, 23447.0, 23426.0, 23318.0, 23239.0, 23300.0, 23439.0]
    },
    "slices": {}
  }
}