{
  "AcquisitionMatrixPE": 104,
  "AcquisitionNumber": 1,
  "AcquisitionTime": "10:50:55.215000",
  "BandwidthPerPixelPhaseEncode": 17.17,
  "BaseResolution": 104,
  "BodyPartExamined": "BRAIN",
  "CoilString": "HC1-7;NC1_2",
  "ConsistencyInfo": "N4_VE11C_LATEST_20160120",
  "ConversionSoftware": "dcm2niix",
  "ConversionSoftwareVersion": "v1.0.20190902",
  "DerivedVendorReportedEchoSpacing": 0.000560011,
  "DeviceSerialNumber": "167006",
  "DwellTime": 2.1e-06,
  "EchoTime": 0.037,
  "EchoTrainLength": 104,
  "EffectiveEchoSpacing": 0.000560011,
  "FlipAngle": 52,
  "ImageComments": "Unaliased_MB4_PE3_LB",
  "ImageOrientationPatientDICOM": [0.999193, -0.0211978, 0.0341175, 0.0352417, 0.870189, -0.491456],
  "ImageType": [
    "ORIGINAL",
    "PRIMARY",
    "P",
    "MB",
    "ND",
    "MOSAIC"
],
  "ImagingFrequency": 123.259,
  "InPlanePhaseEncodingDirectionDICOM": "COL",
  "InstitutionAddress": "Chemin_Queen-Mary_4565_Montreal_District_CA_H3W_1W5",
  "InstitutionName": "IUGM",
  "InstitutionalDepartmentName": "Department",
  "MRAcquisitionType": "2D",
  "MagneticFieldStrength": 3,
  "Manufacturer": "Siemens",
  "ManufacturersModelName": "Prisma_fit",
  "Modality": "MR",
  "MultibandAccelerationFactor": 4,
  "PartialFourier": 1,
  "PatientPosition": "HFS",
  "PercentPhaseFOV": 100,
  "PhaseEncodingDirection": "j",
  "PhaseEncodingSteps": 104,
  "PhaseResolution": 1,
  "PixelBandwidth": 2290,
  "ProcedureStepDescription": "memory_things",
  "ProtocolName": "func_task-things_run-1",
  "PulseSequenceDetails": "%CustomerSeq%_cmrr_mbep2d_bold",
  "ReceiveCoilActiveElements": "HC1-7;NC1,2",
  "ReceiveCoilName": "HeadNeck_64",
  "ReconMatrixPE": 104,
  "RepetitionTime": 1.49,
  "SAR": 0.0462303,
  "ScanOptions": "FS",
  "ScanningSequence": "EP",
  "SequenceName": "epfid2d1_104",
  "SequenceVariant": "SK_SS",
  "SeriesDescription": "func_task-things_run-1",
  "SeriesNumber": 11,
  "ShimSetting": [618, -7181, -8861, 295, -20, -131, -26, -8],
  "SliceThickness": 2,
  "SliceTiming": [0, 0.7825, 0.0975, 0.8825, 0.195, 0.98, 0.2925, 1.0775, 0.3925, 1.175, 0.49, 1.2725, 0.5875, 1.3725, 0.685, 0, 0.7825, 0.0975, 0.8825, 0.195, 0.98, 0.2925, 1.0775, 0.3925, 1.175, 0.49, 1.2725, 0.5875, 1.3725, 0.685, 0, 0.7825, 0.0975, 0.8825, 0.195, 0.98, 0.2925, 1.0775, 0.3925, 1.175, 0.49, 1.2725, 0.5875, 1.3725, 0.685, 0, 0.7825, 0.0975, 0.8825, 0.195, 0.98, 0.2925, 1.0775, 0.3925, 1.175, 0.49, 1.2725, 0.5875, 1.3725, 0.685],
  "SoftwareVersions": "syngo_MR_E11",
  "SpacingBetweenSlices": 2,
  "StationName": "MRC35049",
  "TaskName": "things",
  "TotalReadoutTime": 0.0576811,
  "TxRefAmp": 267.62,
  "WipMemBlock": "c93ca239-11c0-48a7-9e7a-f3e546936b4c||Sequence: R016 ve11c/master r/e634e98; Dec 19 2017 11:00:25 by eja",
  "dcmmeta_affine": [
    [-1.998386025428772, 0.07048349827528, 0.03854168578982353, 102.95903015136719],
    [0.042395543307065964, 1.7403775453567505, -0.9845244884490967, -55.32969284057617],
    [0.06823490560054779, 0.9829129576683044, 1.7404671907424927, -95.05342864990234],
    [0.0, 0.0, 0.0, 1.0]
],
  "dcmmeta_reorient_transform": [
    [0.0, -1.0, 0.0, 103.0],
    [1.0, 0.0, 0.0, 0.0],
    [0.0, 0.0, 1.0, 0.0],
    [0.0, 0.0, 0.0, 1.0]
],
  "dcmmeta_shape": [104, 104, 60, 190],
  "dcmmeta_slice_dim": 2,
  "dcmmeta_version": 0.6,
  "global": {
    "const": {
      "AcquisitionMatrix": [104, 0, 0, 104],
      "AngioFlag": "N",
      "BitsAllocated": 16,
      "BitsStored": 16,
      "BodyPartExamined": "BRAIN",
      "Columns": 832,
      "EchoNumbers": 1,
      "EchoTime": 37.0,
      "EchoTrainLength": 104,
      "FlipAngle": 52.0,
      "HighBit": 15,
      "ImageOrientationPatient": [0.99919300129157, -0.0211977718493, 0.03411745357687, 0.03524174737614, 0.87018879881148, -0.4914564819645],
      "ImagePositionPatient": [-863.28732394963, -741.99466681776, 339.12941603988],
      "ImageType": [
        "ORIGINAL",
        "PRIMARY",
        "P",
        "MB",
        "ND",
        "MOSAIC"
],
      "ImagedNucleus": "1H",
      "ImagingFrequency": 123.258887,
      "InPlanePhaseEncodingDirection": "COL",
      "LargestImagePixelValue": 4095,
      "MRAcquisitionType": "2D",
      "MagneticFieldStrength": 3.0,
      "Manufacturer": "SIEMENS",
      "ManufacturerModelName": "Prisma_fit",
      "Modality": "MR",
      "NumberOfAverages": 1.0,
      "NumberOfPhaseEncodingSteps": 104,
      "PercentPhaseFieldOfView": 100.0,
      "PercentSampling": 100.0,
      "PerformedProcedureStepStartTime": "102246.503000",
      "PhotometricInterpretation": "MONOCHROME2",
      "PixelBandwidth": 2290.0,
      "PixelRepresentation": 0,
      "PixelSpacing": [2.0, 2.0],
      "ProtocolName": "func_task-things_run-1",
      "RepetitionTime": 1490.0,
      "RescaleIntercept": -4096.0,
      "RescaleSlope": 2.0,
      "RescaleType": "US",
      "Rows": 832,
      "SAR": 0.04623029582984,
      "SamplesPerPixel": 1,
      "ScanOptions": "FS",
      "ScanningSequence": "EP",
      "SequenceName": "epfid2d1_104",
      "SequenceVariant": [
        "SK",
        "SS"
],
      "SeriesDescription": "func_task-things_run-1",
      "SeriesNumber": 11,
      "SeriesTime": "105211.012000",
      "SliceLocation": -53.49786476321,
      "SliceThickness": 2.0,
      "SmallestImagePixelValue": 0,
      "SoftwareVersions": "syngo MR E11",
      "SpacingBetweenSlices": 1.9999999830767,
      "SpecificCharacterSet": "ISO_IR 100",
      "StudyID": "1",
      "StudyTime": "102246.421000",
      "TransmitCoilName": "Body",
      "VariableFlipAngleFlag": "N",
      "WindowCenterWidthExplanation": "Algo1",
      "dBdt": 0.0},
    "slices": {}
  },
  "time": {
    "samples": {
      "AcquisitionNumber": [1, 2, 3, 4, 5, 6, 7, 8, 9, 10, 11, 12, 13, 14, 15, 16, 17, 18, 19, 20, 21, 22, 23, 24, 25, 26, 27, 28, 29, 30, 31, 32, 33, 34, 35, 36, 37, 38, 39, 40, 41, 42, 43, 44, 45, 46, 47, 48, 49, 50, 51, 52, 53, 54, 55, 56, 57, 58, 59, 60, 61, 62, 63, 64, 65, 66, 67, 68, 69, 70, 71, 72, 73, 74, 75, 76, 77, 78, 79, 80, 81, 82, 83, 84, 85, 86, 87, 88, 89, 90, 91, 92, 93, 94, 95, 96, 97, 98, 99, 100, 101, 102, 103, 104, 105, 106, 107, 108, 109, 110, 111, 112, 113, 114, 115, 116, 117, 118, 119, 120, 121, 122, 123, 124, 125, 126, 127, 128, 129, 130, 131, 132, 133, 134, 135, 136, 137, 138, 139, 140, 141, 142, 143, 144, 145, 146, 147, 148, 149, 150, 151, 152, 153, 154, 155, 156, 157, 158, 159, 160, 161, 162, 163, 164, 165, 166, 167, 168, 169, 170, 171, 172, 173, 174, 175, 176, 177, 178, 179, 180, 181, 182, 183, 184, 185, 186, 187, 188, 189, 190],
      "AcquisitionTime": ["105055.215000", "105056.705000", "105058.195000", "105059.685000", "105101.175000", "105102.665000", "105104.155000", "105105.645000", "105107.135000", "105108.625000", "105110.115000", "105111.605000", "105113.095000", "105114.585000", "105116.075000", "105117.565000", "105119.055000", "105120.545000", "105122.035000", "105123.525000", "105125.015000", "105126.505000", "105127.995000", "105129.485000", "105130.975000", "105132.465000", "105133.955000", "105135.445000", "105136.935000", "105138.425000", "105139.915000", "105141.405000", "105142.895000", "105144.385000", "105145.875000", "105147.365000", "105148.855000", "105150.345000", "105151.835000", "105153.325000", "105154.815000", "105156.305000", "105157.795000", "105159.285000", "105200.775000", "105202.265000", "105203.755000", "105205.245000", "105206.735000", "105208.225000", "105209.715000", "105211.205000", "105212.695000", "105214.185000", "105215.675000", "105217.165000", "105218.655000", "105220.145000", "105221.635000", "105223.125000", "105224.615000", "105226.105000", "105227.595000", "105229.085000", "105230.575000", "105232.065000", "105233.555000", "105235.045000", "105236.535000", "105238.025000", "105239.515000", "105241.005000", "105242.495000", "105243.985000", "105245.475000", "105246.965000", "105248.455000", "105249.945000", "105251.435000", "105252.925000", "105254.415000", "105255.905000", "105257.395000", "105258.885000", "105300.375000", "105301.865000", "105303.355000", "105304.845000", "105306.335000", "105307.825000", "105309.315000", "105310.805000", "105312.295000", "105313.785000", "105315.275000", "105316.765000", "105318.255000", "105319.745000", "105321.235000", "105322.725000", "105324.215000", "105325.705000", "105327.195000", "105328.685000", "105330.175000", "105331.665000", "105333.155000", "105334.645000", "105336.135000", "105337.625000", "105339.115000", "105340.605000", "105342.095000", "105343.585000", "105345.075000", "105346.565000", "105348.055000", "105349.545000", "105351.035000", "105352.525000", "105354.015000", "105355.505000", "105356.995000", "105358.485000", "105359.975000", "105401.465000", "105402.955000", "105404.445000", "105405.935000", "105407.425000", "105408.915000", "105410.405000", "105411.895000", "105413.385000", "105414.875000", "105416.365000", "105417.855000", "105419.345000", "105420.835000", "105422.325000", "105423.815000", "105425.305000", "105426.795000", "105428.285000", "105429.775000", "105431.265000", "105432.755000", "105434.245000", "105435.735000", "105437.225000", "105438.715000", "105440.205000", "105441.695000", "105443.185000", "105444.675000", "105446.165000", "105447.655000", "105449.145000", "105450.635000", "105452.125000", "105453.615000", "105455.105000", "105456.595000", "105458.085000", "105459.575000", "105501.065000", "105502.555000", "105504.045000", "105505.535000", "105507.025000", "105508.515000", "105510.005000", "105511.495000", "105512.985000", "105514.475000", "105515.965000", "105517.455000", "105518.945000", "105520.435000", "105521.925000", "105523.415000", "105524.905000", "105526.395000", "105527.885000", "105529.375000", "105530.865000", "105532.355000", "105533.845000", "105535.335000", "105536.825000"],
      "ContentTime": ["105211.014000", "105211.017000", "105211.020000", "105211.022000", "105211.025000", "105211.027000", "105211.030000", "105211.032000", "105211.035000", "105211.037000", "105211.040000", "105211.042000", "105211.045000", "105211.047000", "105211.050000", "105211.052000", "105211.054000", "105211.057000", "105211.059000", "105211.062000", "105211.064000", "105230.971000", "105230.974000", "105230.977000", "105230.979000", "105230.982000", "105230.984000", "105230.987000", "105230.989000", "105230.992000", "105230.994000", "105230.996000", "105230.999000", "105231.001000", "105231.004000", "105231.006000", "105231.009000", "105231.011000", "105231.014000", "105231.016000", "105231.019000", "105250.986000", "105250.989000", "105250.992000", "105250.994000", "105250.997000", "105250.999000", "105251.001000", "105251.004000", "105251.006000", "105251.009000", "105251.011000", "105251.014000", "105251.016000", "105251.019000", "105251.021000", "105251.024000", "105251.026000", "105251.029000", "105251.031000", "105251.034000", "105310.980000", "105310.983000", "105310.985000", "105310.988000", "105310.990000", "105310.993000", "105310.995000", "105310.998000", "105311.000000", "105311.003000", "105311.005000", "105311.007000", "105311.010000", "105311.013000", "105311.015000", "105311.018000", "105311.020000", "105311.023000", "105311.025000", "105311.028000", "105311.030000", "105330.979000", "105330.982000", "105330.984000", "105330.987000", "105330.989000", "105330.992000", "105330.994000", "105330.996000", "105330.999000", "105331.001000", "105331.004000", "105331.006000", "105331.009000", "105331.011000", "105331.014000", "105331.016000", "105331.019000", "105331.021000", "105331.024000", "105331.026000", "105410.992000", "105410.995000", "105410.998000", "105411.001000", "105411.004000", "105411.006000", "105411.009000", "105411.012000", "105411.014000", "105411.026000", "105411.029000", "105411.031000", "105411.034000", "105411.036000", "105411.039000", "105411.041000", "105411.044000", "105411.046000", "105411.049000", "105411.051000", "105411.054000", "105411.056000", "105411.059000", "105411.061000", "105411.064000", "105411.067000", "105411.070000", "105411.073000", "105451.012000", "105451.015000", "105451.018000", "105451.020000", "105451.023000", "105451.025000", "105451.028000", "105451.030000", "105451.033000", "105451.035000", "105451.037000", "105451.040000", "105451.043000", "105451.045000", "105451.048000", "105451.050000", "105451.053000", "105451.055000", "105451.058000", "105451.060000", "105451.063000", "105451.065000", "105451.068000", "105451.070000", "105451.073000", "105451.075000", "105451.078000", "105531.008000", "105531.011000", "105531.014000", "105531.016000", "105531.019000", "105531.021000", "105531.024000", "105531.026000", "105531.029000", "105531.031000", "105531.034000", "105531.036000", "105531.039000", "105531.041000", "105531.044000", "105531.046000", "105531.049000", "105531.051000", "105531.054000", "105531.056000", "105531.059000", "105531.061000", "105531.064000", "105531.066000", "105531.069000", "105531.071000", "105531.074000", "105539.134000", "105539.137000", "105539.139000", "105539.142000", "105539.145000", "105539.147000"],
      "InstanceCreationTime": ["105211.014000", "105211.017000", "105211.020000", "105211.022000", "105211.025000", "105211.027000", "105211.030000", "105211.032000", "105211.035000", "105211.037000", "105211.040000", "105211.042000", "105211.045000", "105211.047000", "105211.050000", "105211.052000", "105211.054000", "105211.057000", "105211.059000", "105211.062000", "105211.064000", "105230.971000", "105230.974000", "105230.977000", "105230.979000", "105230.982000", "105230.984000", "105230.987000", "105230.989000", "105230.992000", "105230.994000", "105230.996000", "105230.999000", "105231.001000", "105231.004000", "105231.006000", "105231.009000", "105231.011000", "105231.014000", "105231.016000", "105231.019000", "105250.986000", "105250.989000", "105250.992000", "105250.994000", "105250.997000", "105250.999000", "105251.001000", "105251.004000", "105251.006000", "105251.009000", "105251.011000", "105251.014000", "105251.016000", "105251.019000", "105251.021000", "105251.024000", "105251.026000", "105251.029000", "105251.031000", "105251.034000", "105310.980000", "105310.983000", "105310.985000", "105310.988000", "105310.990000", "105310.993000", "105310.995000", "105310.998000", "105311.000000", "105311.003000", "105311.005000", "105311.007000", "105311.010000", "105311.013000", "105311.015000", "105311.018000", "105311.020000", "105311.023000", "105311.025000", "105311.028000", "105311.030000", "105330.979000", "105330.982000", "105330.984000", "105330.987000", "105330.989000", "105330.992000", "105330.994000", "105330.996000", "105330.999000", "105331.001000", "105331.004000", "105331.006000", "105331.009000", "105331.011000", "105331.014000", "105331.016000", "105331.019000", "105331.021000", "105331.024000", "105331.026000", "105410.992000", "105410.995000", "105410.998000", "105411.001000", "105411.004000", "105411.006000", "105411.009000", "105411.012000", "105411.014000", "105411.026000", "105411.029000", "105411.031000", "105411.034000", "105411.036000", "105411.039000", "105411.041000", "105411.044000", "105411.046000", "105411.049000", "105411.051000", "105411.054000", "105411.056000", "105411.059000", "105411.061000", "105411.064000", "105411.067000", "105411.070000", "105411.073000", "105451.012000", "105451.015000", "105451.018000", "105451.020000", "105451.023000", "105451.025000", "105451.028000", "105451.030000", "105451.033000", "105451.035000", "105451.037000", "105451.040000", "105451.043000", "105451.045000", "105451.048000", "105451.050000", "105451.053000", "105451.055000", "105451.058000", "105451.060000", "105451.063000", "105451.065000", "105451.068000", "105451.070000", "105451.073000", "105451.075000", "105451.078000", "105531.008000", "105531.011000", "105531.014000", "105531.016000", "105531.019000", "105531.021000", "105531.024000", "105531.026000", "105531.029000", "105531.031000", "105531.034000", "105531.036000", "105531.039000", "105531.041000", "105531.044000", "105531.046000", "105531.049000", "105531.051000", "105531.054000", "105531.056000", "105531.059000", "105531.061000", "105531.064000", "105531.066000", "105531.069000", "105531.071000", "105531.074000", "105539.134000", "105539.137000", "105539.139000", "105539.142000", "105539.145000", "105539.147000"],
      "InstanceNumber": [1, 2, 3, 4, 5, 6, 7, 8, 9, 10, 11, 12, 13, 14, 15, 16, 17, 18, 19, 20, 21, 22, 23, 24, 25, 26, 27, 28, 29, 30, 31, 32, 33, 34, 35, 36, 37, 38, 39, 40, 41, 42, 43, 44, 45, 46, 47, 48, 49, 50, 51, 52, 53, 54, 55, 56, 57, 58, 59, 60, 61, 62, 63, 64, 65, 66, 67, 68, 69, 70, 71, 72, 73, 74, 75, 76, 77, 78, 79, 80, 81, 82, 83, 84, 85, 86, 87, 88, 89, 90, 91, 92, 93, 94, 95, 96, 97, 98, 99, 100, 101, 102, 103, 104, 105, 106, 107, 108, 109, 110, 111, 112, 113, 114, 115, 116, 117, 118, 119, 120, 121, 122, 123, 124, 125, 126, 127, 128, 129, 130, 131, 132, 133, 134, 135, 136, 137, 138, 139, 140, 141, 142, 143, 144, 145, 146, 147, 148, 149, 150, 151, 152, 153, 154, 155, 156, 157, 158, 159, 160, 161, 162, 163, 164, 165, 166, 167, 168, 169, 170, 171, 172, 173, 174, 175, 176, 177, 178, 179, 180, 181, 182, 183, 184, 185, 186, 187, 188, 189, 190],
      "WindowCenter": [4792.0, 4854.0, 4834.0, 4828.0, 4856.0, 4786.0, 4790.0, 4826.0, 4792.0, 4798.0, 4858.0, 4798.0, 4824.0, 4860.0, 4864.0, 4862.0, 4738.0, 4758.0, 4822.0, 4758.0, 4854.0, 4828.0, 4864.0, 4868.0, 4866.0, 4828.0, 4790.0, 4824.0, 4766.0, 4764.0, 4826.0, 4758.0, 4822.0, 4864.0, 4888.0, 4862.0, 4828.0, 4856.0, 4794.0, 4786.0, 4822.0, 4760.0, 4796.0, 4828.0, 4788.0, 4854.0, 4900.0, 4894.0, 4854.0, 4734.0, 4792.0, 4798.0, 4826.0, 4824.0, 4830.0, 4858.0, 4796.0, 4858.0, 4794.0, 4788.0, 4858.0, 4786.0, 4786.0, 4862.0, 4796.0, 4826.0, 4888.0, 4822.0, 4826.0, 4856.0, 4788.0, 4822.0, 4860.0, 4764.0, 4820.0, 4858.0, 4824.0, 4866.0, 4792.0, 4764.0, 4822.0, 4868.0, 4796.0, 4858.0, 4860.0, 4796.0, 4836.0, 4790.0, 4792.0, 4792.0, 4830.0, 4830.0, 4788.0, 4828.0, 4828.0, 4788.0, 4856.0, 4826.0, 4792.0, 4858.0, 4800.0, 4760.0, 4828.0, 4832.0, 4788.0, 4826.0, 4860.0, 4792.0, 4832.0, 4858.0, 4754.0, 4786.0, 4854.0, 4862.0, 4894.0, 4826.0, 4824.0, 4854.0, 4760.0, 4796.0, 4798.0, 4788.0, 4862.0, 4830.0, 4890.0, 4826.0, 4824.0, 4824.0, 4758.0, 4796.0, 4830.0, 4786.0, 4830.0, 4864.0, 4866.0, 4892.0, 4794.0, 4828.0, 4792.0, 4758.0, 4794.0, 4830.0, 4824.0, 4892.0, 4864.0, 4892.0, 4800.0, 4854.0, 4786.0, 4764.0, 4824.0, 4798.0, 4862.0, 4828.0, 4824.0, 4858.0, 4794.0, 4830.0, 4830.0, 4830.0, 4758.0, 4822.0, 4796.0, 4764.0, 4862.0, 4822.0, 4826.0, 4862.0, 4828.0, 4864.0, 4820.0, 4820.0, 4820.0, 4784.0, 4828.0, 4786.0, 4820.0, 4862.0, 4792.0, 4854.0, 4858.0, 4794.0, 4856.0, 4800.0, 4734.0, 4736.0, 4758.0, 4888.0, 4900.0, 4886.0],
      "WindowWidth": [18612.0, 18692.0, 18662.0, 18658.0, 18692.0, 18600.0, 18604.0, 18652.0, 18602.0, 18614.0, 18686.0, 18614.0, 18648.0, 18694.0, 18698.0, 18690.0, 18530.0, 18560.0, 18642.0, 18558.0, 18686.0, 18652.0, 18696.0, 18696.0, 18700.0, 18650.0, 18606.0, 18644.0, 18570.0, 18568.0, 18652.0, 18562.0, 18650.0, 18696.0, 18726.0, 18688.0, 18648.0, 18688.0, 18610.0, 18594.0, 18652.0, 18562.0, 18610.0, 18652.0, 18604.0, 18686.0, 18728.0, 18728.0, 18684.0, 18526.0, 18608.0, 18610.0, 18650.0, 18650.0, 18658.0, 18690.0, 18612.0, 18688.0, 18612.0, 18598.0, 18690.0, 18600.0, 18600.0, 18692.0, 18610.0, 18654.0, 18724.0, 18644.0, 18652.0, 18684.0, 18602.0, 18646.0, 18692.0, 18566.0, 18644.0, 18690.0, 18646.0, 18696.0, 18608.0, 18566.0, 18646.0, 18696.0, 18614.0, 18690.0, 18692.0, 18610.0, 18658.0, 18598.0, 18602.0, 18608.0, 18654.0, 18656.0, 18602.0, 18650.0, 18654.0, 18602.0, 18678.0, 18650.0, 18606.0, 18694.0, 18614.0, 18566.0, 18650.0, 18654.0, 18602.0, 18650.0, 18696.0, 18606.0, 18652.0, 18686.0, 18558.0, 18598.0, 18686.0, 18698.0, 18730.0, 18648.0, 18650.0, 18682.0, 18564.0, 18610.0, 18612.0, 18600.0, 18694.0, 18656.0, 18724.0, 18650.0, 18644.0, 18646.0, 18560.0, 18614.0, 18652.0, 18596.0, 18654.0, 18694.0, 18688.0, 18720.0, 18606.0, 18648.0, 18606.0, 18564.0, 18610.0, 18652.0, 18648.0, 18724.0, 18692.0, 18724.0, 18616.0, 18684.0, 18600.0, 18570.0, 18642.0, 18610.0, 18692.0, 18650.0, 18648.0, 18688.0, 18612.0, 18654.0, 18658.0, 18648.0, 18562.0, 18646.0, 18610.0, 18570.0, 18692.0, 18646.0, 18648.0, 18696.0, 18650.0, 18694.0, 18642.0, 18642.0, 18640.0, 18596.0, 18650.0, 18600.0, 18646.0, 18692.0, 18602.0, 18686.0, 18684.0, 18610.0, 18692.0, 18610.0, 18528.0, 18532.0, 18560.0, 18724.0, 18722.0, 18728.0]
    },
    "slices": {}
  }
}