{
  "AcquisitionMatrixPE": 104,
  "AcquisitionNumber": 1,
  "AcquisitionTime": "11:02:59.777500",
  "BandwidthPerPixelPhaseEncode": 17.17,
  "BaseResolution": 104,
  "BodyPartExamined": "BRAIN",
  "CoilString": "HC1-7;NC1_2",
  "ConsistencyInfo": "N4_VE11C_LATEST_20160120",
  "ConversionSoftware": "dcm2niix",
  "ConversionSoftwareVersion": "v1.0.20190902",
  "DerivedVendorReportedEchoSpacing": 0.000560011,
  "DeviceSerialNumber": "167006",
  "DwellTime": 2.1e-06,
  "EchoTime": 0.037,
  "EchoTrainLength": 104,
  "EffectiveEchoSpacing": 0.000560011,
  "FlipAngle": 52,
  "ImageComments": "Unaliased_MB4_PE3_LB",
  "ImageOrientationPatientDICOM": [0.999193, -0.0211978, 0.0341175, 0.0352417, 0.870189, -0.491456],
  "ImageType": [
    "ORIGINAL",
    "PRIMARY",
    "P",
    "MB",
    "ND",
    "MOSAIC"
],
  "ImagingFrequency": 123.259,
  "InPlanePhaseEncodingDirectionDICOM": "COL",
  "InstitutionAddress": "Chemin_Queen-Mary_4565_Montreal_District_CA_H3W_1W5",
  "InstitutionName": "IUGM",
  "InstitutionalDepartmentName": "Department",
  "MRAcquisitionType": "2D",
  "MagneticFieldStrength": 3,
  "Manufacturer": "Siemens",
  "ManufacturersModelName": "Prisma_fit",
  "Modality": "MR",
  "MultibandAccelerationFactor": 4,
  "PartialFourier": 1,
  "PatientPosition": "HFS",
  "PercentPhaseFOV": 100,
  "PhaseEncodingDirection": "j",
  "PhaseEncodingSteps": 104,
  "PhaseResolution": 1,
  "PixelBandwidth": 2290,
  "ProcedureStepDescription": "memory_things",
  "ProtocolName": "func_task-things_run-3",
  "PulseSequenceDetails": "%CustomerSeq%_cmrr_mbep2d_bold",
  "ReceiveCoilActiveElements": "HC1-7;NC1,2",
  "ReceiveCoilName": "HeadNeck_64",
  "ReconMatrixPE": 104,
  "RepetitionTime": 1.49,
  "SAR": 0.0462303,
  "ScanOptions": "FS",
  "ScanningSequence": "EP",
  "SequenceName": "epfid2d1_104",
  "SequenceVariant": "SK_SS",
  "SeriesDescription": "func_task-things_run-3",
  "SeriesNumber": 17,
  "ShimSetting": [618, -7181, -8861, 295, -20, -131, -26, -8],
  "SliceThickness": 2,
  "SliceTiming": [0, 0.7825, 0.0975, 0.88, 0.195, 0.98, 0.2925, 1.0775, 0.39, 1.175, 0.49, 1.2725, 0.5875, 1.37, 0.685, 0, 0.7825, 0.0975, 0.88, 0.195, 0.98, 0.2925, 1.0775, 0.39, 1.175, 0.49, 1.2725, 0.5875, 1.37, 0.685, 0, 0.7825, 0.0975, 0.88, 0.195, 0.98, 0.2925, 1.0775, 0.39, 1.175, 0.49, 1.2725, 0.5875, 1.37, 0.685, 0, 0.7825, 0.0975, 0.88, 0.195, 0.98, 0.2925, 1.0775, 0.39, 1.175, 0.49, 1.2725, 0.5875, 1.37, 0.685],
  "SoftwareVersions": "syngo_MR_E11",
  "SpacingBetweenSlices": 2,
  "StationName": "MRC35049",
  "TaskName": "things",
  "TotalReadoutTime": 0.0576811,
  "TxRefAmp": 267.62,
  "WipMemBlock": "f262f105-ab19-4ecb-8b79-7f4515ad38cf||Sequence: R016 ve11c/master r/e634e98; Dec 19 2017 11:00:25 by eja",
  "dcmmeta_affine": [
    [-1.998386025428772, 0.07048349827528, 0.03854168578982353, 102.95903015136719],
    [0.042395543307065964, 1.7403775453567505, -0.9845244884490967, -55.32969284057617],
    [0.06823490560054779, 0.9829129576683044, 1.7404671907424927, -95.05342864990234],
    [0.0, 0.0, 0.0, 1.0]
],
  "dcmmeta_reorient_transform": [
    [0.0, -1.0, 0.0, 103.0],
    [1.0, 0.0, 0.0, 0.0],
    [0.0, 0.0, 1.0, 0.0],
    [0.0, 0.0, 0.0, 1.0]
],
  "dcmmeta_shape": [104, 104, 60, 190],
  "dcmmeta_slice_dim": 2,
  "dcmmeta_version": 0.6,
  "global": {
    "const": {
      "AcquisitionMatrix": [104, 0, 0, 104],
      "AngioFlag": "N",
      "BitsAllocated": 16,
      "BitsStored": 16,
      "BodyPartExamined": "BRAIN",
      "Columns": 832,
      "EchoNumbers": 1,
      "EchoTime": 37.0,
      "EchoTrainLength": 104,
      "FlipAngle": 52.0,
      "HighBit": 15,
      "ImageOrientationPatient": [0.99919300129157, -0.0211977718493, 0.03411745357687, 0.03524174737614, 0.87018879881148, -0.4914564819645],
      "ImagePositionPatient": [-863.28732394963, -741.99466681776, 339.12941603988],
      "ImageType": [
        "ORIGINAL",
        "PRIMARY",
        "P",
        "MB",
        "ND",
        "MOSAIC"
],
      "ImagedNucleus": "1H",
      "ImagingFrequency": 123.258895,
      "InPlanePhaseEncodingDirection": "COL",
      "LargestImagePixelValue": 4095,
      "MRAcquisitionType": "2D",
      "MagneticFieldStrength": 3.0,
      "Manufacturer": "SIEMENS",
      "ManufacturerModelName": "Prisma_fit",
      "Modality": "MR",
      "NumberOfAverages": 1.0,
      "NumberOfPhaseEncodingSteps": 104,
      "PercentPhaseFieldOfView": 100.0,
      "PercentSampling": 100.0,
      "PerformedProcedureStepStartTime": "102246.503000",
      "PhotometricInterpretation": "MONOCHROME2",
      "PixelBandwidth": 2290.0,
      "PixelRepresentation": 0,
      "PixelSpacing": [2.0, 2.0],
      "ProtocolName": "func_task-things_run-3",
      "RepetitionTime": 1490.0,
      "RescaleIntercept": -4096.0,
      "RescaleSlope": 2.0,
      "RescaleType": "US",
      "Rows": 832,
      "SAR": 0.04623029582984,
      "SamplesPerPixel": 1,
      "ScanOptions": "FS",
      "ScanningSequence": "EP",
      "SequenceName": "epfid2d1_104",
      "SequenceVariant": [
        "SK",
        "SS"
],
      "SeriesDescription": "func_task-things_run-3",
      "SeriesNumber": 17,
      "SeriesTime": "110421.457000",
      "SliceLocation": -53.49786476321,
      "SliceThickness": 2.0,
      "SmallestImagePixelValue": 0,
      "SoftwareVersions": "syngo MR E11",
      "SpacingBetweenSlices": 1.9999999830767,
      "SpecificCharacterSet": "ISO_IR 100",
      "StudyID": "1",
      "StudyTime": "102246.421000",
      "TransmitCoilName": "Body",
      "VariableFlipAngleFlag": "N",
      "WindowCenterWidthExplanation": "Algo1",
      "dBdt": 0.0},
    "slices": {}
  },
  "time": {
    "samples": {
      "AcquisitionNumber": [1, 2, 3, 4, 5, 6, 7, 8, 9, 10, 11, 12, 13, 14, 15, 16, 17, 18, 19, 20, 21, 22, 23, 24, 25, 26, 27, 28, 29, 30, 31, 32, 33, 34, 35, 36, 37, 38, 39, 40, 41, 42, 43, 44, 45, 46, 47, 48, 49, 50, 51, 52, 53, 54, 55, 56, 57, 58, 59, 60, 61, 62, 63, 64, 65, 66, 67, 68, 69, 70, 71, 72, 73, 74, 75, 76, 77, 78, 79, 80, 81, 82, 83, 84, 85, 86, 87, 88, 89, 90, 91, 92, 93, 94, 95, 96, 97, 98, 99, 100, 101, 102, 103, 104, 105, 106, 107, 108, 109, 110, 111, 112, 113, 114, 115, 116, 117, 118, 119, 120, 121, 122, 123, 124, 125, 126, 127, 128, 129, 130, 131, 132, 133, 134, 135, 136, 137, 138, 139, 140, 141, 142, 143, 144, 145, 146, 147, 148, 149, 150, 151, 152, 153, 154, 155, 156, 157, 158, 159, 160, 161, 162, 163, 164, 165, 166, 167, 168, 169, 170, 171, 172, 173, 174, 175, 176, 177, 178, 179, 180, 181, 182, 183, 184, 185, 186, 187, 188, 189, 190],
      "AcquisitionTime": ["110259.777500", "110301.267500", "110302.757500", "110304.247500", "110305.737500", "110307.227500", "110308.717500", "110310.207500", "110311.697500", "110313.187500", "110314.677500", "110316.167500", "110317.657500", "110319.147500", "110320.637500", "110322.127500", "110323.617500", "110325.107500", "110326.597500", "110328.087500", "110329.577500", "110331.067500", "110332.557500", "110334.047500", "110335.537500", "110337.027500", "110338.517500", "110340.007500", "110341.497500", "110342.987500", "110344.477500", "110345.967500", "110347.457500", "110348.947500", "110350.437500", "110351.927500", "110353.417500", "110354.907500", "110356.397500", "110357.887500", "110359.377500", "110400.867500", "110402.357500", "110403.847500", "110405.337500", "110406.827500", "110408.317500", "110409.807500", "110411.297500", "110412.787500", "110414.277500", "110415.767500", "110417.257500", "110418.747500", "110420.237500", "110421.727500", "110423.217500", "110424.707500", "110426.197500", "110427.687500", "110429.177500", "110430.667500", "110432.157500", "110433.647500", "110435.137500", "110436.627500", "110438.117500", "110439.607500", "110441.097500", "110442.587500", "110444.077500", "110445.567500", "110447.057500", "110448.547500", "110450.037500", "110451.527500", "110453.017500", "110454.507500", "110455.997500", "110457.487500", "110458.977500", "110500.467500", "110501.957500", "110503.447500", "110504.937500", "110506.427500", "110507.917500", "110509.407500", "110510.897500", "110512.387500", "110513.877500", "110515.367500", "110516.857500", "110518.347500", "110519.837500", "110521.327500", "110522.817500", "110524.307500", "110525.797500", "110527.287500", "110528.777500", "110530.267500", "110531.757500", "110533.247500", "110534.737500", "110536.227500", "110537.717500", "110539.207500", "110540.697500", "110542.187500", "110543.677500", "110545.167500", "110546.657500", "110548.147500", "110549.637500", "110551.127500", "110552.617500", "110554.107500", "110555.597500", "110557.087500", "110558.577500", "110600.067500", "110601.557500", "110603.047500", "110604.537500", "110606.027500", "110607.517500", "110609.007500", "110610.497500", "110611.987500", "110613.477500", "110614.967500", "110616.457500", "110617.947500", "110619.437500", "110620.927500", "110622.417500", "110623.907500", "110625.397500", "110626.887500", "110628.377500", "110629.867500", "110631.357500", "110632.847500", "110634.337500", "110635.827500", "110637.317500", "110638.807500", "110640.297500", "110641.787500", "110643.277500", "110644.767500", "110646.257500", "110647.747500", "110649.237500", "110650.727500", "110652.217500", "110653.707500", "110655.197500", "110656.687500", "110658.177500", "110659.667500", "110701.157500", "110702.647500", "110704.137500", "110705.627500", "110707.117500", "110708.607500", "110710.097500", "110711.587500", "110713.077500", "110714.567500", "110716.057500", "110717.547500", "110719.037500", "110720.527500", "110722.017500", "110723.507500", "110724.997500", "110726.487500", "110727.977500", "110729.467500", "110730.957500", "110732.447500", "110733.937500", "110735.427500", "110736.917500", "110738.407500", "110739.897500", "110741.387500"],
      "ContentTime": ["110421.459000", "110421.462000", "110421.464000", "110421.467000", "110421.469000", "110421.472000", "110421.474000", "110421.477000", "110421.479000", "110421.482000", "110421.484000", "110421.487000", "110421.489000", "110421.492000", "110421.494000", "110421.497000", "110421.499000", "110421.502000", "110421.504000", "110421.507000", "110421.509000", "110421.512000", "110421.514000", "110421.517000", "110421.519000", "110421.522000", "110421.524000", "110421.527000", "110441.393000", "110441.396000", "110441.399000", "110441.401000", "110441.404000", "110441.406000", "110441.409000", "110441.411000", "110441.413000", "110441.416000", "110441.419000", "110441.421000", "110441.424000", "110441.426000", "110441.429000", "110441.431000", "110441.433000", "110441.436000", "110441.438000", "110441.441000", "110501.388000", "110501.390000", "110501.393000", "110501.396000", "110501.398000", "110501.401000", "110501.403000", "110501.406000", "110501.408000", "110501.411000", "110501.413000", "110501.416000", "110501.418000", "110501.420000", "110501.423000", "110501.425000", "110501.428000", "110501.430000", "110501.433000", "110501.435000", "110501.438000", "110521.398000", "110521.401000", "110521.403000", "110521.406000", "110521.408000", "110521.411000", "110521.413000", "110521.416000", "110521.418000", "110521.421000", "110521.423000", "110521.426000", "110521.428000", "110521.431000", "110521.433000", "110521.436000", "110521.438000", "110521.441000", "110521.443000", "110521.445000", "110601.429000", "110601.432000", "110601.435000", "110601.437000", "110601.440000", "110601.442000", "110601.445000", "110601.447000", "110601.450000", "110601.452000", "110601.455000", "110601.457000", "110601.460000", "110601.462000", "110601.465000", "110601.467000", "110601.470000", "110601.472000", "110601.475000", "110601.478000", "110601.480000", "110601.483000", "110601.485000", "110601.488000", "110601.490000", "110601.493000", "110601.495000", "110601.498000", "110601.500000", "110601.503000", "110601.505000", "110601.508000", "110641.407000", "110641.410000", "110641.412000", "110641.415000", "110641.418000", "110641.423000", "110641.427000", "110641.430000", "110641.433000", "110641.436000", "110641.439000", "110641.441000", "110641.444000", "110641.446000", "110641.449000", "110641.451000", "110641.454000", "110641.456000", "110641.459000", "110641.461000", "110641.464000", "110641.466000", "110641.469000", "110641.471000", "110641.474000", "110641.477000", "110721.421000", "110721.424000", "110721.426000", "110721.429000", "110721.431000", "110721.434000", "110721.436000", "110721.439000", "110721.441000", "110721.444000", "110721.446000", "110721.449000", "110721.452000", "110721.454000", "110721.457000", "110721.459000", "110721.462000", "110721.464000", "110721.466000", "110721.469000", "110721.471000", "110721.474000", "110721.477000", "110721.479000", "110721.482000", "110721.484000", "110721.487000", "110744.168000", "110744.171000", "110744.174000", "110744.176000", "110744.179000", "110744.181000", "110744.184000", "110744.186000", "110744.189000", "110744.192000", "110744.194000", "110744.197000", "110744.199000", "110744.202000", "110744.204000", "110744.207000"],
      "InstanceCreationTime": ["110421.459000", "110421.462000", "110421.464000", "110421.467000", "110421.469000", "110421.472000", "110421.474000", "110421.477000", "110421.479000", "110421.482000", "110421.484000", "110421.487000", "110421.489000", "110421.492000", "110421.494000", "110421.497000", "110421.499000", "110421.502000", "110421.504000", "110421.507000", "110421.509000", "110421.512000", "110421.514000", "110421.517000", "110421.519000", "110421.522000", "110421.524000", "110421.527000", "110441.393000", "110441.396000", "110441.399000", "110441.401000", "110441.404000", "110441.406000", "110441.409000", "110441.411000", "110441.413000", "110441.416000", "110441.419000", "110441.421000", "110441.424000", "110441.426000", "110441.429000", "110441.431000", "110441.433000", "110441.436000", "110441.438000", "110441.441000", "110501.388000", "110501.390000", "110501.393000", "110501.396000", "110501.398000", "110501.401000", "110501.403000", "110501.406000", "110501.408000", "110501.411000", "110501.413000", "110501.416000", "110501.418000", "110501.420000", "110501.423000", "110501.425000", "110501.428000", "110501.430000", "110501.433000", "110501.435000", "110501.438000", "110521.398000", "110521.401000", "110521.403000", "110521.406000", "110521.408000", "110521.411000", "110521.413000", "110521.416000", "110521.418000", "110521.421000", "110521.423000", "110521.426000", "110521.428000", "110521.431000", "110521.433000", "110521.436000", "110521.438000", "110521.441000", "110521.443000", "110521.445000", "110601.429000", "110601.432000", "110601.435000", "110601.437000", "110601.440000", "110601.442000", "110601.445000", "110601.447000", "110601.450000", "110601.452000", "110601.455000", "110601.457000", "110601.460000", "110601.462000", "110601.465000", "110601.467000", "110601.470000", "110601.472000", "110601.475000", "110601.478000", "110601.480000", "110601.483000", "110601.485000", "110601.488000", "110601.490000", "110601.493000", "110601.495000", "110601.498000", "110601.500000", "110601.503000", "110601.505000", "110601.508000", "110641.407000", "110641.410000", "110641.412000", "110641.415000", "110641.418000", "110641.423000", "110641.427000", "110641.430000", "110641.433000", "110641.436000", "110641.439000", "110641.441000", "110641.444000", "110641.446000", "110641.449000", "110641.451000", "110641.454000", "110641.456000", "110641.459000", "110641.461000", "110641.464000", "110641.466000", "110641.469000", "110641.471000", "110641.474000", "110641.477000", "110721.421000", "110721.424000", "110721.426000", "110721.429000", "110721.431000", "110721.434000", "110721.436000", "110721.439000", "110721.441000", "110721.444000", "110721.446000", "110721.449000", "110721.452000", "110721.454000", "110721.457000", "110721.459000", "110721.462000", "110721.464000", "110721.466000", "110721.469000", "110721.471000", "110721.474000", "110721.477000", "110721.479000", "110721.482000", "110721.484000", "110721.487000", "110744.168000", "110744.171000", "110744.174000", "110744.176000", "110744.179000", "110744.181000", "110744.184000", "110744.186000", "110744.189000", "110744.192000", "110744.194000", "110744.197000", "110744.199000", "110744.202000", "110744.204000", "110744.207000"],
      "InstanceNumber": [1, 2, 3, 4, 5, 6, 7, 8, 9, 10, 11, 12, 13, 14, 15, 16, 17, 18, 19, 20, 21, 22, 23, 24, 25, 26, 27, 28, 29, 30, 31, 32, 33, 34, 35, 36, 37, 38, 39, 40, 41, 42, 43, 44, 45, 46, 47, 48, 49, 50, 51, 52, 53, 54, 55, 56, 57, 58, 59, 60, 61, 62, 63, 64, 65, 66, 67, 68, 69, 70, 71, 72, 73, 74, 75, 76, 77, 78, 79, 80, 81, 82, 83, 84, 85, 86, 87, 88, 89, 90, 91, 92, 93, 94, 95, 96, 97, 98, 99, 100, 101, 102, 103, 104, 105, 106, 107, 108, 109, 110, 111, 112, 113, 114, 115, 116, 117, 118, 119, 120, 121, 122, 123, 124, 125, 126, 127, 128, 129, 130, 131, 132, 133, 134, 135, 136, 137, 138, 139, 140, 141, 142, 143, 144, 145, 146, 147, 148, 149, 150, 151, 152, 153, 154, 155, 156, 157, 158, 159, 160, 161, 162, 163, 164, 165, 166, 167, 168, 169, 170, 171, 172, 173, 174, 175, 176, 177, 178, 179, 180, 181, 182, 183, 184, 185, 186, 187, 188, 189, 190],
      "WindowCenter": [4930.0, 4932.0, 4916.0, 4910.0, 4934.0, 4934.0, 4934.0, 4928.0, 4936.0, 4934.0, 4928.0, 4934.0, 4936.0, 4912.0, 4934.0, 4934.0, 4932.0, 4936.0, 4924.0, 4928.0, 4930.0, 4900.0, 4930.0, 4934.0, 4914.0, 4914.0, 4934.0, 4934.0, 4928.0, 4932.0, 4934.0, 4926.0, 4934.0, 4932.0, 4928.0, 4932.0, 4912.0, 4916.0, 4914.0, 4934.0, 4796.0, 4788.0, 4924.0, 4934.0, 4934.0, 4890.0, 4892.0, 4914.0, 4912.0, 4916.0, 4932.0, 4924.0, 4932.0, 4898.0, 4932.0, 4934.0, 4932.0, 4934.0, 4912.0, 4914.0, 4914.0, 4888.0, 4892.0, 4930.0, 4934.0, 4930.0, 4910.0, 4936.0, 4932.0, 4938.0, 4930.0, 4930.0, 4932.0, 4932.0, 4924.0, 4932.0, 4932.0, 4936.0, 4914.0, 4936.0, 4936.0, 4932.0, 4818.0, 4856.0, 4936.0, 4914.0, 4910.0, 4892.0, 4938.0, 4922.0, 4928.0, 4930.0, 4928.0, 4932.0, 4932.0, 4928.0, 4934.0, 4932.0, 4932.0, 4936.0, 4936.0, 4932.0, 4938.0, 4922.0, 4922.0, 4932.0, 4858.0, 4898.0, 4934.0, 4930.0, 4914.0, 4912.0, 4930.0, 4934.0, 4936.0, 4928.0, 4934.0, 4934.0, 4936.0, 4932.0, 4932.0, 4930.0, 4932.0, 4932.0, 4852.0, 4890.0, 4928.0, 4854.0, 4928.0, 4914.0, 4910.0, 4912.0, 4916.0, 4934.0, 4934.0, 4922.0, 4918.0, 4924.0, 4934.0, 4864.0, 4898.0, 4910.0, 4936.0, 4934.0, 4914.0, 4932.0, 4934.0, 4930.0, 4922.0, 4926.0, 4924.0, 4926.0, 4934.0, 4932.0, 4912.0, 4930.0, 4934.0, 4932.0, 4932.0, 4930.0, 4854.0, 4928.0, 4922.0, 4824.0, 4922.0, 4914.0, 4936.0, 4912.0, 4914.0, 4916.0, 4936.0, 4938.0, 4826.0, 4782.0, 4854.0, 4934.0, 4930.0, 4912.0, 4892.0, 4934.0, 4912.0, 4932.0, 4896.0, 4924.0, 4898.0, 4920.0, 4932.0, 4932.0, 4912.0, 4936.0],
      "WindowWidth": [18746.0, 18734.0, 18680.0, 18686.0, 18736.0, 18726.0, 18730.0, 18756.0, 18742.0, 18750.0, 18760.0, 18724.0, 18734.0, 18678.0, 18742.0, 18744.0, 18738.0, 18730.0, 18758.0, 18762.0, 18738.0, 18732.0, 18728.0, 18734.0, 18686.0, 18694.0, 18738.0, 18726.0, 18752.0, 18750.0, 18740.0, 18754.0, 18742.0, 18730.0, 18750.0, 18730.0, 18688.0, 18688.0, 18686.0, 18736.0, 18610.0, 18604.0, 18756.0, 18748.0, 18738.0, 18644.0, 18648.0, 18684.0, 18684.0, 18692.0, 18742.0, 18762.0, 18756.0, 18730.0, 18758.0, 18748.0, 18752.0, 18724.0, 18684.0, 18674.0, 18698.0, 18730.0, 18732.0, 18752.0, 18736.0, 18744.0, 18686.0, 18724.0, 18728.0, 18720.0, 18738.0, 18754.0, 18746.0, 18752.0, 18762.0, 18750.0, 18736.0, 18722.0, 18684.0, 18754.0, 18730.0, 18746.0, 18642.0, 18694.0, 18744.0, 18686.0, 18686.0, 18636.0, 18730.0, 18758.0, 18760.0, 18742.0, 18758.0, 18740.0, 18736.0, 18746.0, 18736.0, 18736.0, 18750.0, 18744.0, 18734.0, 18730.0, 18726.0, 18758.0, 18760.0, 18750.0, 18684.0, 18728.0, 18726.0, 18742.0, 18684.0, 18690.0, 18760.0, 18744.0, 18734.0, 18756.0, 18736.0, 18736.0, 18748.0, 18738.0, 18746.0, 18736.0, 18738.0, 18740.0, 18682.0, 18726.0, 18748.0, 18686.0, 18758.0, 18678.0, 18696.0, 18678.0, 18688.0, 18726.0, 18746.0, 18760.0, 18760.0, 18760.0, 18752.0, 18694.0, 18728.0, 18692.0, 18738.0, 18724.0, 18684.0, 18756.0, 18744.0, 18742.0, 18762.0, 18754.0, 18758.0, 18752.0, 18732.0, 18748.0, 18692.0, 18752.0, 18740.0, 18734.0, 18736.0, 18744.0, 18690.0, 18766.0, 18752.0, 18656.0, 18762.0, 18690.0, 18744.0, 18692.0, 18684.0, 18692.0, 18728.0, 18744.0, 18648.0, 18602.0, 18686.0, 18752.0, 18744.0, 18690.0, 18652.0, 18732.0, 18694.0, 18744.0, 18734.0, 18760.0, 18732.0, 18756.0, 18742.0, 18724.0, 18692.0, 18724.0]
    },
    "slices": {}
  }
}