{
  "AcquisitionMatrixPE": 104,
  "AcquisitionNumber": 1,
  "AcquisitionTime": "11:12:38.025000",
  "BandwidthPerPixelPhaseEncode": 17.17,
  "BaseResolution": 104,
  "BodyPartExamined": "BRAIN",
  "CoilString": "HC1-7;NC1_2",
  "ConsistencyInfo": "N4_VE11C_LATEST_20160120",
  "ConversionSoftware": "dcm2niix",
  "ConversionSoftwareVersion": "v1.0.20190902",
  "DerivedVendorReportedEchoSpacing": 0.000560011,
  "DeviceSerialNumber": "167006",
  "DwellTime": 2.1e-06,
  "EchoTime": 0.037,
  "EchoTrainLength": 104,
  "EffectiveEchoSpacing": 0.000560011,
  "FlipAngle": 52,
  "ImageComments": "Unaliased_MB4_PE3_LB",
  "ImageOrientationPatientDICOM": [0.999193, -0.0211978, 0.0341175, 0.0352417, 0.870189, -0.491456],
  "ImageType": [
    "ORIGINAL",
    "PRIMARY",
    "P",
    "MB",
    "ND",
    "MOSAIC"
],
  "ImagingFrequency": 123.259,
  "InPlanePhaseEncodingDirectionDICOM": "COL",
  "InstitutionAddress": "Chemin_Queen-Mary_4565_Montreal_District_CA_H3W_1W5",
  "InstitutionName": "IUGM",
  "InstitutionalDepartmentName": "Department",
  "MRAcquisitionType": "2D",
  "MagneticFieldStrength": 3,
  "Manufacturer": "Siemens",
  "ManufacturersModelName": "Prisma_fit",
  "Modality": "MR",
  "MultibandAccelerationFactor": 4,
  "PartialFourier": 1,
  "PatientPosition": "HFS",
  "PercentPhaseFOV": 100,
  "PhaseEncodingDirection": "j",
  "PhaseEncodingSteps": 104,
  "PhaseResolution": 1,
  "PixelBandwidth": 2290,
  "ProcedureStepDescription": "memory_things",
  "ProtocolName": "func_task-things_run-4",
  "PulseSequenceDetails": "%CustomerSeq%_cmrr_mbep2d_bold",
  "ReceiveCoilActiveElements": "HC1-7;NC1,2",
  "ReceiveCoilName": "HeadNeck_64",
  "ReconMatrixPE": 104,
  "RepetitionTime": 1.49,
  "SAR": 0.0462303,
  "ScanOptions": "FS",
  "ScanningSequence": "EP",
  "SequenceName": "epfid2d1_104",
  "SequenceVariant": "SK_SS",
  "SeriesDescription": "func_task-things_run-4",
  "SeriesNumber": 20,
  "ShimSetting": [618, -7181, -8861, 295, -20, -131, -26, -8],
  "SliceThickness": 2,
  "SliceTiming": [0, 0.785, 0.0975, 0.8825, 0.195, 0.98, 0.295, 1.0775, 0.3925, 1.175, 0.49, 1.275, 0.5875, 1.3725, 0.685, 0, 0.785, 0.0975, 0.8825, 0.195, 0.98, 0.295, 1.0775, 0.3925, 1.175, 0.49, 1.275, 0.5875, 1.3725, 0.685, 0, 0.785, 0.0975, 0.8825, 0.195, 0.98, 0.295, 1.0775, 0.3925, 1.175, 0.49, 1.275, 0.5875, 1.3725, 0.685, 0, 0.785, 0.0975, 0.8825, 0.195, 0.98, 0.295, 1.0775, 0.3925, 1.175, 0.49, 1.275, 0.5875, 1.3725, 0.685],
  "SoftwareVersions": "syngo_MR_E11",
  "SpacingBetweenSlices": 2,
  "StationName": "MRC35049",
  "TaskName": "things",
  "TotalReadoutTime": 0.0576811,
  "TxRefAmp": 267.62,
  "WipMemBlock": "8a1e1ffb-26b3-46f4-947f-f74408516e63||Sequence: R016 ve11c/master r/e634e98; Dec 19 2017 11:00:25 by eja",
  "dcmmeta_affine": [
    [-1.998386025428772, 0.07048349827528, 0.03854168578982353, 102.95903015136719],
    [0.042395543307065964, 1.7403775453567505, -0.9845244884490967, -55.32969284057617],
    [0.06823490560054779, 0.9829129576683044, 1.7404671907424927, -95.05342864990234],
    [0.0, 0.0, 0.0, 1.0]
],
  "dcmmeta_reorient_transform": [
    [0.0, -1.0, 0.0, 103.0],
    [1.0, 0.0, 0.0, 0.0],
    [0.0, 0.0, 1.0, 0.0],
    [0.0, 0.0, 0.0, 1.0]
],
  "dcmmeta_shape": [104, 104, 60, 190],
  "dcmmeta_slice_dim": 2,
  "dcmmeta_version": 0.6,
  "global": {
    "const": {
      "AcquisitionMatrix": [104, 0, 0, 104],
      "AngioFlag": "N",
      "BitsAllocated": 16,
      "BitsStored": 16,
      "BodyPartExamined": "BRAIN",
      "Columns": 832,
      "EchoNumbers": 1,
      "EchoTime": 37.0,
      "EchoTrainLength": 104,
      "FlipAngle": 52.0,
      "HighBit": 15,
      "ImageOrientationPatient": [0.99919300129157, -0.0211977718493, 0.03411745357687, 0.03524174737614, 0.87018879881148, -0.4914564819645],
      "ImagePositionPatient": [-863.28732394963, -741.99466681776, 339.12941603988],
      "ImageType": [
        "ORIGINAL",
        "PRIMARY",
        "P",
        "MB",
        "ND",
        "MOSAIC"
],
      "ImagedNucleus": "1H",
      "ImagingFrequency": 123.258902,
      "InPlanePhaseEncodingDirection": "COL",
      "LargestImagePixelValue": 4095,
      "MRAcquisitionType": "2D",
      "MagneticFieldStrength": 3.0,
      "Manufacturer": "SIEMENS",
      "ManufacturerModelName": "Prisma_fit",
      "Modality": "MR",
      "NumberOfAverages": 1.0,
      "NumberOfPhaseEncodingSteps": 104,
      "PercentPhaseFieldOfView": 100.0,
      "PercentSampling": 100.0,
      "PerformedProcedureStepStartTime": "102246.503000",
      "PhotometricInterpretation": "MONOCHROME2",
      "PixelBandwidth": 2290.0,
      "PixelRepresentation": 0,
      "PixelSpacing": [2.0, 2.0],
      "ProtocolName": "func_task-things_run-4",
      "RepetitionTime": 1490.0,
      "RescaleIntercept": -4096.0,
      "RescaleSlope": 2.0,
      "RescaleType": "US",
      "Rows": 832,
      "SAR": 0.04623029582984,
      "SamplesPerPixel": 1,
      "ScanOptions": "FS",
      "ScanningSequence": "EP",
      "SequenceName": "epfid2d1_104",
      "SequenceVariant": [
        "SK",
        "SS"
],
      "SeriesDescription": "func_task-things_run-4",
      "SeriesNumber": 20,
      "SeriesTime": "111351.017000",
      "SliceLocation": -53.49786476321,
      "SliceThickness": 2.0,
      "SmallestImagePixelValue": 0,
      "SoftwareVersions": "syngo MR E11",
      "SpacingBetweenSlices": 1.9999999830767,
      "SpecificCharacterSet": "ISO_IR 100",
      "StudyID": "1",
      "StudyTime": "102246.421000",
      "TransmitCoilName": "Body",
      "VariableFlipAngleFlag": "N",
      "WindowCenterWidthExplanation": "Algo1",
      "dBdt": 0.0},
    "slices": {}
  },
  "time": {
    "samples": {
      "AcquisitionNumber": [1, 2, 3, 4, 5, 6, 7, 8, 9, 10, 11, 12, 13, 14, 15, 16, 17, 18, 19, 20, 21, 22, 23, 24, 25, 26, 27, 28, 29, 30, 31, 32, 33, 34, 35, 36, 37, 38, 39, 40, 41, 42, 43, 44, 45, 46, 47, 48, 49, 50, 51, 52, 53, 54, 55, 56, 57, 58, 59, 60, 61, 62, 63, 64, 65, 66, 67, 68, 69, 70, 71, 72, 73, 74, 75, 76, 77, 78, 79, 80, 81, 82, 83, 84, 85, 86, 87, 88, 89, 90, 91, 92, 93, 94, 95, 96, 97, 98, 99, 100, 101, 102, 103, 104, 105, 106, 107, 108, 109, 110, 111, 112, 113, 114, 115, 116, 117, 118, 119, 120, 121, 122, 123, 124, 125, 126, 127, 128, 129, 130, 131, 132, 133, 134, 135, 136, 137, 138, 139, 140, 141, 142, 143, 144, 145, 146, 147, 148, 149, 150, 151, 152, 153, 154, 155, 156, 157, 158, 159, 160, 161, 162, 163, 164, 165, 166, 167, 168, 169, 170, 171, 172, 173, 174, 175, 176, 177, 178, 179, 180, 181, 182, 183, 184, 185, 186, 187, 188, 189, 190],
      "AcquisitionTime": ["111238.025000", "111239.515000", "111241.005000", "111242.495000", "111243.985000", "111245.475000", "111246.965000", "111248.455000", "111249.945000", "111251.435000", "111252.925000", "111254.415000", "111255.905000", "111257.395000", "111258.885000", "111300.375000", "111301.865000", "111303.355000", "111304.845000", "111306.335000", "111307.825000", "111309.315000", "111310.805000", "111312.295000", "111313.785000", "111315.275000", "111316.765000", "111318.255000", "111319.745000", "111321.235000", "111322.725000", "111324.215000", "111325.705000", "111327.195000", "111328.685000", "111330.175000", "111331.665000", "111333.155000", "111334.645000", "111336.135000", "111337.625000", "111339.115000", "111340.605000", "111342.095000", "111343.585000", "111345.075000", "111346.565000", "111348.055000", "111349.545000", "111351.035000", "111352.525000", "111354.015000", "111355.505000", "111356.995000", "111358.485000", "111359.975000", "111401.465000", "111402.955000", "111404.445000", "111405.935000", "111407.425000", "111408.915000", "111410.405000", "111411.895000", "111413.385000", "111414.875000", "111416.365000", "111417.855000", "111419.345000", "111420.835000", "111422.325000", "111423.815000", "111425.305000", "111426.795000", "111428.285000", "111429.775000", "111431.265000", "111432.755000", "111434.245000", "111435.735000", "111437.225000", "111438.715000", "111440.205000", "111441.695000", "111443.185000", "111444.675000", "111446.165000", "111447.655000", "111449.145000", "111450.635000", "111452.125000", "111453.615000", "111455.105000", "111456.595000", "111458.085000", "111459.575000", "111501.065000", "111502.555000", "111504.045000", "111505.535000", "111507.025000", "111508.515000", "111510.005000", "111511.495000", "111512.985000", "111514.475000", "111515.965000", "111517.455000", "111518.945000", "111520.435000", "111521.925000", "111523.415000", "111524.905000", "111526.395000", "111527.885000", "111529.375000", "111530.865000", "111532.355000", "111533.845000", "111535.335000", "111536.825000", "111538.315000", "111539.805000", "111541.295000", "111542.785000", "111544.275000", "111545.765000", "111547.255000", "111548.745000", "111550.235000", "111551.725000", "111553.215000", "111554.705000", "111556.195000", "111557.685000", "111559.175000", "111600.665000", "111602.155000", "111603.645000", "111605.135000", "111606.625000", "111608.115000", "111609.605000", "111611.095000", "111612.585000", "111614.075000", "111615.565000", "111617.055000", "111618.545000", "111620.035000", "111621.525000", "111623.015000", "111624.505000", "111625.995000", "111627.485000", "111628.975000", "111630.465000", "111631.955000", "111633.445000", "111634.935000", "111636.425000", "111637.915000", "111639.405000", "111640.895000", "111642.385000", "111643.875000", "111645.365000", "111646.855000", "111648.345000", "111649.835000", "111651.325000", "111652.815000", "111654.305000", "111655.795000", "111657.285000", "111658.775000", "111700.265000", "111701.755000", "111703.245000", "111704.735000", "111706.225000", "111707.715000", "111709.205000", "111710.695000", "111712.185000", "111713.675000", "111715.165000", "111716.655000", "111718.145000", "111719.635000"],
      "ContentTime": ["111351.019000", "111351.022000", "111351.024000", "111351.027000", "111351.034000", "111351.036000", "111351.039000", "111351.041000", "111351.044000", "111351.046000", "111351.048000", "111351.051000", "111351.053000", "111351.056000", "111351.058000", "111351.061000", "111351.063000", "111351.066000", "111410.970000", "111410.973000", "111410.976000", "111410.978000", "111410.981000", "111410.983000", "111410.986000", "111410.988000", "111410.991000", "111410.993000", "111410.995000", "111410.998000", "111411.002000", "111411.004000", "111411.006000", "111411.009000", "111411.011000", "111411.014000", "111411.016000", "111411.019000", "111430.970000", "111430.973000", "111430.975000", "111430.978000", "111430.980000", "111430.983000", "111430.985000", "111430.988000", "111430.990000", "111430.992000", "111430.995000", "111430.997000", "111431.001000", "111431.003000", "111431.012000", "111431.015000", "111431.017000", "111431.020000", "111431.022000", "111431.025000", "111450.974000", "111450.977000", "111450.980000", "111450.982000", "111450.985000", "111450.987000", "111450.990000", "111450.992000", "111450.995000", "111450.997000", "111451.001000", "111451.003000", "111451.006000", "111451.008000", "111451.011000", "111451.013000", "111451.016000", "111451.018000", "111451.021000", "111451.025000", "111510.991000", "111510.994000", "111510.996000", "111511.000000", "111511.002000", "111511.005000", "111511.007000", "111511.010000", "111511.012000", "111511.015000", "111511.017000", "111511.019000", "111511.022000", "111511.024000", "111511.027000", "111511.030000", "111511.032000", "111511.034000", "111511.037000", "111511.039000", "111511.042000", "111551.005000", "111551.008000", "111551.011000", "111551.013000", "111551.016000", "111551.018000", "111551.021000", "111551.023000", "111551.026000", "111551.028000", "111551.031000", "111551.033000", "111551.035000", "111551.038000", "111551.040000", "111551.043000", "111551.045000", "111551.048000", "111551.050000", "111551.053000", "111551.066000", "111551.068000", "111551.071000", "111551.073000", "111551.076000", "111551.078000", "111551.081000", "111551.083000", "111551.086000", "111631.002000", "111631.005000", "111631.008000", "111631.010000", "111631.012000", "111631.015000", "111631.017000", "111631.020000", "111631.022000", "111631.025000", "111631.027000", "111631.030000", "111631.032000", "111631.035000", "111631.037000", "111631.040000", "111631.042000", "111631.045000", "111631.047000", "111631.050000", "111631.052000", "111631.055000", "111631.057000", "111631.060000", "111631.062000", "111631.065000", "111631.067000", "111710.992000", "111710.994000", "111710.997000", "111711.001000", "111711.004000", "111711.006000", "111711.009000", "111711.011000", "111711.014000", "111711.016000", "111711.019000", "111711.021000", "111711.024000", "111711.026000", "111711.029000", "111711.031000", "111711.034000", "111711.036000", "111711.039000", "111711.041000", "111711.044000", "111711.046000", "111711.049000", "111711.051000", "111711.054000", "111711.056000", "111711.059000", "111722.320000", "111722.323000", "111722.326000", "111722.329000", "111722.332000", "111722.334000", "111722.337000", "111722.340000"],
      "InstanceCreationTime": ["111351.019000", "111351.022000", "111351.024000", "111351.027000", "111351.034000", "111351.036000", "111351.039000", "111351.041000", "111351.044000", "111351.046000", "111351.048000", "111351.051000", "111351.053000", "111351.056000", "111351.058000", "111351.061000", "111351.063000", "111351.066000", "111410.970000", "111410.973000", "111410.976000", "111410.978000", "111410.981000", "111410.983000", "111410.986000", "111410.988000", "111410.991000", "111410.993000", "111410.995000", "111410.998000", "111411.002000", "111411.004000", "111411.006000", "111411.009000", "111411.011000", "111411.014000", "111411.016000", "111411.019000", "111430.970000", "111430.973000", "111430.975000", "111430.978000", "111430.980000", "111430.983000", "111430.985000", "111430.988000", "111430.990000", "111430.992000", "111430.995000", "111430.997000", "111431.001000", "111431.003000", "111431.012000", "111431.015000", "111431.017000", "111431.020000", "111431.022000", "111431.025000", "111450.974000", "111450.977000", "111450.980000", "111450.982000", "111450.985000", "111450.987000", "111450.990000", "111450.992000", "111450.995000", "111450.997000", "111451.001000", "111451.003000", "111451.006000", "111451.008000", "111451.011000", "111451.013000", "111451.016000", "111451.018000", "111451.021000", "111451.025000", "111510.991000", "111510.994000", "111510.996000", "111511.000000", "111511.002000", "111511.005000", "111511.007000", "111511.010000", "111511.012000", "111511.015000", "111511.017000", "111511.019000", "111511.022000", "111511.024000", "111511.027000", "111511.030000", "111511.032000", "111511.034000", "111511.037000", "111511.039000", "111511.042000", "111551.005000", "111551.008000", "111551.011000", "111551.013000", "111551.016000", "111551.018000", "111551.021000", "111551.023000", "111551.026000", "111551.028000", "111551.031000", "111551.033000", "111551.035000", "111551.038000", "111551.040000", "111551.043000", "111551.045000", "111551.048000", "111551.050000", "111551.053000", "111551.066000", "111551.068000", "111551.071000", "111551.073000", "111551.076000", "111551.078000", "111551.081000", "111551.083000", "111551.086000", "111631.002000", "111631.005000", "111631.008000", "111631.010000", "111631.012000", "111631.015000", "111631.017000", "111631.020000", "111631.022000", "111631.025000", "111631.027000", "111631.030000", "111631.032000", "111631.035000", "111631.037000", "111631.040000", "111631.042000", "111631.045000", "111631.047000", "111631.050000", "111631.052000", "111631.055000", "111631.057000", "111631.060000", "111631.062000", "111631.065000", "111631.067000", "111710.992000", "111710.994000", "111710.997000", "111711.001000", "111711.004000", "111711.006000", "111711.009000", "111711.011000", "111711.014000", "111711.016000", "111711.019000", "111711.021000", "111711.024000", "111711.026000", "111711.029000", "111711.031000", "111711.034000", "111711.036000", "111711.039000", "111711.041000", "111711.044000", "111711.046000", "111711.049000", "111711.051000", "111711.054000", "111711.056000", "111711.059000", "111722.320000", "111722.323000", "111722.326000", "111722.329000", "111722.332000", "111722.334000", "111722.337000", "111722.340000"],
      "InstanceNumber": [1, 2, 3, 4, 5, 6, 7, 8, 9, 10, 11, 12, 13, 14, 15, 16, 17, 18, 19, 20, 21, 22, 23, 24, 25, 26, 27, 28, 29, 30, 31, 32, 33, 34, 35, 36, 37, 38, 39, 40, 41, 42, 43, 44, 45, 46, 47, 48, 49, 50, 51, 52, 53, 54, 55, 56, 57, 58, 59, 60, 61, 62, 63, 64, 65, 66, 67, 68, 69, 70, 71, 72, 73, 74, 75, 76, 77, 78, 79, 80, 81, 82, 83, 84, 85, 86, 87, 88, 89, 90, 91, 92, 93, 94, 95, 96, 97, 98, 99, 100, 101, 102, 103, 104, 105, 106, 107, 108, 109, 110, 111, 112, 113, 114, 115, 116, 117, 118, 119, 120, 121, 122, 123, 124, 125, 126, 127, 128, 129, 130, 131, 132, 133, 134, 135, 136, 137, 138, 139, 140, 141, 142, 143, 144, 145, 146, 147, 148, 149, 150, 151, 152, 153, 154, 155, 156, 157, 158, 159, 160, 161, 162, 163, 164, 165, 166, 167, 168, 169, 170, 171, 172, 173, 174, 175, 176, 177, 178, 179, 180, 181, 182, 183, 184, 185, 186, 187, 188, 189, 190],
      "WindowCenter": [4836.0, 4836.0, 4836.0, 4864.0, 4840.0, 4868.0, 4864.0, 4810.0, 4836.0, 4808.0, 4802.0, 4800.0, 4800.0, 4810.0, 4866.0, 4840.0, 4890.0, 4868.0, 4840.0, 4812.0, 4806.0, 4770.0, 4800.0, 4840.0, 4838.0, 4864.0, 4890.0, 4890.0, 4840.0, 4806.0, 4804.0, 4776.0, 4800.0, 4812.0, 4834.0, 4836.0, 4838.0, 4892.0, 4844.0, 4840.0, 4892.0, 4866.0, 4810.0, 4770.0, 4772.0, 4768.0, 4800.0, 4808.0, 4840.0, 4868.0, 4864.0, 4864.0, 4864.0, 4840.0, 4812.0, 4796.0, 4802.0, 4796.0, 4808.0, 4840.0, 4840.0, 4868.0, 4864.0, 4842.0, 4840.0, 4834.0, 4806.0, 4842.0, 4892.0, 4838.0, 4834.0, 4838.0, 4802.0, 4830.0, 4836.0, 4812.0, 4840.0, 4842.0, 4838.0, 4842.0, 4836.0, 4812.0, 4842.0, 4836.0, 4810.0, 4838.0, 4836.0, 4808.0, 4812.0, 4810.0, 4812.0, 4866.0, 4892.0, 4862.0, 4834.0, 4838.0, 4800.0, 4806.0, 4804.0, 4800.0, 4840.0, 4842.0, 4840.0, 4868.0, 4844.0, 4866.0, 4866.0, 4838.0, 4812.0, 4804.0, 4800.0, 4798.0, 4866.0, 4892.0, 4866.0, 4864.0, 4810.0, 4798.0, 4808.0, 4810.0, 4808.0, 4864.0, 4838.0, 4838.0, 4840.0, 4866.0, 4840.0, 4810.0, 4806.0, 4800.0, 4836.0, 4842.0, 4840.0, 4864.0, 4866.0, 4840.0, 4836.0, 4838.0, 4836.0, 4808.0, 4834.0, 4834.0, 4834.0, 4838.0, 4838.0, 4886.0, 4908.0, 4860.0, 4806.0, 4802.0, 4800.0, 4794.0, 4832.0, 4842.0, 4864.0, 4840.0, 4842.0, 4836.0, 4842.0, 4838.0, 4840.0, 4868.0, 4864.0, 4838.0, 4806.0, 4770.0, 4796.0, 4810.0, 4810.0, 4842.0, 4868.0, 4866.0, 4866.0, 4838.0, 4804.0, 4828.0, 4842.0, 4838.0, 4810.0, 4840.0, 4838.0, 4836.0, 4836.0, 4840.0, 4842.0, 4912.0, 4926.0, 4892.0, 4832.0, 4770.0],
      "WindowWidth": [18570.0, 18568.0, 18566.0, 18592.0, 18568.0, 18614.0, 18598.0, 18542.0, 18570.0, 18538.0, 18540.0, 18536.0, 18544.0, 18540.0, 18594.0, 18564.0, 18636.0, 18608.0, 18566.0, 18536.0, 18540.0, 18512.0, 18542.0, 18568.0, 18570.0, 18600.0, 18650.0, 18636.0, 18568.0, 18540.0, 18542.0, 18512.0, 18538.0, 18538.0, 18570.0, 18566.0, 18564.0, 18638.0, 18568.0, 18570.0, 18652.0, 18614.0, 18538.0, 18510.0, 18504.0, 18506.0, 18532.0, 18534.0, 18572.0, 18612.0, 18598.0, 18602.0, 18600.0, 18570.0, 18542.0, 18544.0, 18536.0, 18534.0, 18540.0, 18570.0, 18568.0, 18602.0, 18592.0, 18564.0, 18568.0, 18566.0, 18540.0, 18576.0, 18646.0, 18564.0, 18570.0, 18572.0, 18538.0, 18566.0, 18568.0, 18538.0, 18570.0, 18574.0, 18570.0, 18568.0, 18562.0, 18538.0, 18568.0, 18564.0, 18542.0, 18564.0, 18568.0, 18534.0, 18540.0, 18540.0, 18540.0, 18604.0, 18660.0, 18598.0, 18566.0, 18566.0, 18536.0, 18534.0, 18536.0, 18536.0, 18570.0, 18574.0, 18566.0, 18598.0, 18572.0, 18598.0, 18602.0, 18564.0, 18542.0, 18540.0, 18540.0, 18540.0, 18608.0, 18646.0, 18606.0, 18594.0, 18536.0, 18540.0, 18536.0, 18540.0, 18540.0, 18600.0, 18566.0, 18566.0, 18568.0, 18598.0, 18570.0, 18538.0, 18540.0, 18540.0, 18574.0, 18570.0, 18568.0, 18602.0, 18598.0, 18568.0, 18568.0, 18566.0, 18572.0, 18542.0, 18570.0, 18568.0, 18570.0, 18568.0, 18574.0, 18646.0, 18692.0, 18598.0, 18540.0, 18534.0, 18534.0, 18540.0, 18566.0, 18568.0, 18594.0, 18566.0, 18570.0, 18562.0, 18568.0, 18566.0, 18574.0, 18610.0, 18602.0, 18564.0, 18540.0, 18514.0, 18532.0, 18538.0, 18542.0, 18570.0, 18604.0, 18600.0, 18598.0, 18572.0, 18538.0, 18568.0, 18570.0, 18568.0, 18540.0, 18570.0, 18568.0, 18566.0, 18566.0, 18572.0, 18572.0, 18700.0, 18750.0, 18656.0, 18564.0, 18510.0]
    },
    "slices": {}
  }
}