{
  "AcquisitionMatrixPE": 104,
  "AcquisitionNumber": 1,
  "AcquisitionTime": "10:50:55.215000",
  "BandwidthPerPixelPhaseEncode": 17.17,
  "BaseResolution": 104,
  "BodyPartExamined": "BRAIN",
  "CoilString": "HC1-7;NC1_2",
  "ConsistencyInfo": "N4_VE11C_LATEST_20160120",
  "ConversionSoftware": "dcm2niix",
  "ConversionSoftwareVersion": "v1.0.20190902",
  "DerivedVendorReportedEchoSpacing": 0.000560011,
  "DeviceSerialNumber": "167006",
  "DwellTime": 2.1e-06,
  "EchoTime": 0.037,
  "EchoTrainLength": 104,
  "EffectiveEchoSpacing": 0.000560011,
  "FlipAngle": 52,
  "ImageComments": "Unaliased_MB4_PE3_LB",
  "ImageOrientationPatientDICOM": [0.999193, -0.0211978, 0.0341175, 0.0352417, 0.870189, -0.491456],
  "ImageType": [
    "ORIGINAL",
    "PRIMARY",
    "M",
    "MB",
    "ND",
    "MOSAIC"
],
  "ImagingFrequency": 123.259,
  "InPlanePhaseEncodingDirectionDICOM": "COL",
  "InstitutionAddress": "Chemin_Queen-Mary_4565_Montreal_District_CA_H3W_1W5",
  "InstitutionName": "IUGM",
  "InstitutionalDepartmentName": "Department",
  "MRAcquisitionType": "2D",
  "MagneticFieldStrength": 3,
  "Manufacturer": "Siemens",
  "ManufacturersModelName": "Prisma_fit",
  "Modality": "MR",
  "MultibandAccelerationFactor": 4,
  "PartialFourier": 1,
  "PatientPosition": "HFS",
  "PercentPhaseFOV": 100,
  "PhaseEncodingDirection": "j",
  "PhaseEncodingSteps": 104,
  "PhaseResolution": 1,
  "PixelBandwidth": 2290,
  "ProcedureStepDescription": "memory_things",
  "ProtocolName": "func_task-things_run-1",
  "PulseSequenceDetails": "%CustomerSeq%_cmrr_mbep2d_bold",
  "ReceiveCoilActiveElements": "HC1-7;NC1,2",
  "ReceiveCoilName": "HeadNeck_64",
  "ReconMatrixPE": 104,
  "RepetitionTime": 1.49,
  "SAR": 0.0462303,
  "ScanOptions": "FS",
  "ScanningSequence": "EP",
  "SequenceName": "epfid2d1_104",
  "SequenceVariant": "SK_SS",
  "SeriesDescription": "func_task-things_run-1",
  "SeriesNumber": 10,
  "ShimSetting": [618, -7181, -8861, 295, -20, -131, -26, -8],
  "SliceThickness": 2,
  "SliceTiming": [0, 0.7825, 0.0975, 0.8825, 0.195, 0.98, 0.2925, 1.0775, 0.3925, 1.175, 0.49, 1.2725, 0.5875, 1.3725, 0.685, 0, 0.7825, 0.0975, 0.8825, 0.195, 0.98, 0.2925, 1.0775, 0.3925, 1.175, 0.49, 1.2725, 0.5875, 1.3725, 0.685, 0, 0.7825, 0.0975, 0.8825, 0.195, 0.98, 0.2925, 1.0775, 0.3925, 1.175, 0.49, 1.2725, 0.5875, 1.3725, 0.685, 0, 0.7825, 0.0975, 0.8825, 0.195, 0.98, 0.2925, 1.0775, 0.3925, 1.175, 0.49, 1.2725, 0.5875, 1.3725, 0.685],
  "SoftwareVersions": "syngo_MR_E11",
  "SpacingBetweenSlices": 2,
  "StationName": "MRC35049",
  "TaskName": "things",
  "TotalReadoutTime": 0.0576811,
  "TxRefAmp": 267.62,
  "WipMemBlock": "c93ca239-11c0-48a7-9e7a-f3e546936b4c||Sequence: R016 ve11c/master r/e634e98; Dec 19 2017 11:00:25 by eja",
  "dcmmeta_affine": [
    [-1.998386025428772, 0.07048349827528, 0.03854168578982353, 102.95903015136719],
    [0.042395543307065964, 1.7403775453567505, -0.9845244884490967, -55.32969284057617],
    [0.06823490560054779, 0.9829129576683044, 1.7404671907424927, -95.05342864990234],
    [0.0, 0.0, 0.0, 1.0]
],
  "dcmmeta_reorient_transform": [
    [0.0, -1.0, 0.0, 103.0],
    [1.0, 0.0, 0.0, 0.0],
    [0.0, 0.0, 1.0, 0.0],
    [0.0, 0.0, 0.0, 1.0]
],
  "dcmmeta_shape": [104, 104, 60, 190],
  "dcmmeta_slice_dim": 2,
  "dcmmeta_version": 0.6,
  "global": {
    "const": {
      "AcquisitionMatrix": [104, 0, 0, 104],
      "AngioFlag": "N",
      "BitsAllocated": 16,
      "BitsStored": 16,
      "BodyPartExamined": "BRAIN",
      "Columns": 832,
      "EchoNumbers": 1,
      "EchoTime": 37.0,
      "EchoTrainLength": 104,
      "FlipAngle": 52.0,
      "HighBit": 15,
      "ImageOrientationPatient": [0.99919300129157, -0.0211977718493, 0.03411745357687, 0.03524174737614, 0.87018879881148, -0.4914564819645],
      "ImagePositionPatient": [-863.28732394963, -741.99466681776, 339.12941603988],
      "ImageType": [
        "ORIGINAL",
        "PRIMARY",
        "M",
        "MB",
        "ND",
        "MOSAIC"
],
      "ImagedNucleus": "1H",
      "ImagingFrequency": 123.258887,
      "InPlanePhaseEncodingDirection": "COL",
      "MRAcquisitionType": "2D",
      "MagneticFieldStrength": 3.0,
      "Manufacturer": "SIEMENS",
      "ManufacturerModelName": "Prisma_fit",
      "Modality": "MR",
      "NumberOfAverages": 1.0,
      "NumberOfPhaseEncodingSteps": 104,
      "PercentPhaseFieldOfView": 100.0,
      "PercentSampling": 100.0,
      "PerformedProcedureStepStartTime": "102246.503000",
      "PhotometricInterpretation": "MONOCHROME2",
      "PixelBandwidth": 2290.0,
      "PixelRepresentation": 0,
      "PixelSpacing": [2.0, 2.0],
      "ProtocolName": "func_task-things_run-1",
      "RepetitionTime": 1490.0,
      "Rows": 832,
      "SAR": 0.04623029582984,
      "SamplesPerPixel": 1,
      "ScanOptions": "FS",
      "ScanningSequence": "EP",
      "SequenceName": "epfid2d1_104",
      "SequenceVariant": [
        "SK",
        "SS"
],
      "SeriesDescription": "func_task-things_run-1",
      "SeriesNumber": 10,
      "SeriesTime": "105210.890000",
      "SliceLocation": -53.49786476321,
      "SliceThickness": 2.0,
      "SmallestImagePixelValue": 0,
      "SoftwareVersions": "syngo MR E11",
      "SpacingBetweenSlices": 1.9999999830767,
      "SpecificCharacterSet": "ISO_IR 100",
      "StudyID": "1",
      "StudyTime": "102246.421000",
      "TransmitCoilName": "Body",
      "VariableFlipAngleFlag": "N",
      "WindowCenterWidthExplanation": "Algo1",
      "dBdt": 0.0},
    "slices": {}
  },
  "time": {
    "samples": {
      "AcquisitionNumber": [1, 2, 3, 4, 5, 6, 7, 8, 9, 10, 11, 12, 13, 14, 15, 16, 17, 18, 19, 20, 21, 22, 23, 24, 25, 26, 27, 28, 29, 30, 31, 32, 33, 34, 35, 36, 37, 38, 39, 40, 41, 42, 43, 44, 45, 46, 47, 48, 49, 50, 51, 52, 53, 54, 55, 56, 57, 58, 59, 60, 61, 62, 63, 64, 65, 66, 67, 68, 69, 70, 71, 72, 73, 74, 75, 76, 77, 78, 79, 80, 81, 82, 83, 84, 85, 86, 87, 88, 89, 90, 91, 92, 93, 94, 95, 96, 97, 98, 99, 100, 101, 102, 103, 104, 105, 106, 107, 108, 109, 110, 111, 112, 113, 114, 115, 116, 117, 118, 119, 120, 121, 122, 123, 124, 125, 126, 127, 128, 129, 130, 131, 132, 133, 134, 135, 136, 137, 138, 139, 140, 141, 142, 143, 144, 145, 146, 147, 148, 149, 150, 151, 152, 153, 154, 155, 156, 157, 158, 159, 160, 161, 162, 163, 164, 165, 166, 167, 168, 169, 170, 171, 172, 173, 174, 175, 176, 177, 178, 179, 180, 181, 182, 183, 184, 185, 186, 187, 188, 189, 190],
      "AcquisitionTime": ["105055.215000", "105056.705000", "105058.195000", "105059.685000", "105101.175000", "105102.665000", "105104.155000", "105105.645000", "105107.135000", "105108.625000", "105110.115000", "105111.605000", "105113.095000", "105114.585000", "105116.075000", "105117.565000", "105119.055000", "105120.545000", "105122.035000", "105123.525000", "105125.015000", "105126.505000", "105127.995000", "105129.485000", "105130.975000", "105132.465000", "105133.955000", "105135.445000", "105136.935000", "105138.425000", "105139.915000", "105141.405000", "105142.895000", "105144.385000", "105145.875000", "105147.365000", "105148.855000", "105150.345000", "105151.835000", "105153.325000", "105154.815000", "105156.305000", "105157.795000", "105159.285000", "105200.775000", "105202.265000", "105203.755000", "105205.245000", "105206.735000", "105208.225000", "105209.715000", "105211.205000", "105212.695000", "105214.185000", "105215.675000", "105217.165000", "105218.655000", "105220.145000", "105221.635000", "105223.125000", "105224.615000", "105226.105000", "105227.595000", "105229.085000", "105230.575000", "105232.065000", "105233.555000", "105235.045000", "105236.535000", "105238.025000", "105239.515000", "105241.005000", "105242.495000", "105243.985000", "105245.475000", "105246.965000", "105248.455000", "105249.945000", "105251.435000", "105252.925000", "105254.415000", "105255.905000", "105257.395000", "105258.885000", "105300.375000", "105301.865000", "105303.355000", "105304.845000", "105306.335000", "105307.825000", "105309.315000", "105310.805000", "105312.295000", "105313.785000", "105315.275000", "105316.765000", "105318.255000", "105319.745000", "105321.235000", "105322.725000", "105324.215000", "105325.705000", "105327.195000", "105328.685000", "105330.175000", "105331.665000", "105333.155000", "105334.645000", "105336.135000", "105337.625000", "105339.115000", "105340.605000", "105342.095000", "105343.585000", "105345.075000", "105346.565000", "105348.055000", "105349.545000", "105351.035000", "105352.525000", "105354.015000", "105355.505000", "105356.995000", "105358.485000", "105359.975000", "105401.465000", "105402.955000", "105404.445000", "105405.935000", "105407.425000", "105408.915000", "105410.405000", "105411.895000", "105413.385000", "105414.875000", "105416.365000", "105417.855000", "105419.345000", "105420.835000", "105422.325000", "105423.815000", "105425.305000", "105426.795000", "105428.285000", "105429.775000", "105431.265000", "105432.755000", "105434.245000", "105435.735000", "105437.225000", "105438.715000", "105440.205000", "105441.695000", "105443.185000", "105444.675000", "105446.165000", "105447.655000", "105449.145000", "105450.635000", "105452.125000", "105453.615000", "105455.105000", "105456.595000", "105458.085000", "105459.575000", "105501.065000", "105502.555000", "105504.045000", "105505.535000", "105507.025000", "105508.515000", "105510.005000", "105511.495000", "105512.985000", "105514.475000", "105515.965000", "105517.455000", "105518.945000", "105520.435000", "105521.925000", "105523.415000", "105524.905000", "105526.395000", "105527.885000", "105529.375000", "105530.865000", "105532.355000", "105533.845000", "105535.335000", "105536.825000"],
      "ContentTime": ["105210.893000", "105210.897000", "105210.906000", "105210.909000", "105210.912000", "105210.915000", "105210.919000", "105210.922000", "105210.925000", "105210.929000", "105210.932000", "105210.935000", "105210.938000", "105210.942000", "105210.945000", "105210.959000", "105210.963000", "105210.966000", "105210.969000", "105210.973000", "105210.976000", "105230.861000", "105230.865000", "105230.868000", "105230.871000", "105230.875000", "105230.878000", "105230.881000", "105230.884000", "105230.888000", "105230.891000", "105230.894000", "105230.897000", "105230.901000", "105230.904000", "105230.907000", "105230.910000", "105230.913000", "105230.917000", "105230.920000", "105230.923000", "105250.861000", "105250.871000", "105250.874000", "105250.878000", "105250.881000", "105250.884000", "105250.887000", "105250.891000", "105250.894000", "105250.897000", "105250.900000", "105250.904000", "105250.907000", "105250.910000", "105250.914000", "105250.917000", "105250.920000", "105250.923000", "105250.927000", "105250.930000", "105310.860000", "105310.864000", "105310.867000", "105310.870000", "105310.874000", "105310.877000", "105310.880000", "105310.883000", "105310.887000", "105310.890000", "105310.893000", "105310.896000", "105310.900000", "105310.903000", "105310.906000", "105310.910000", "105310.913000", "105310.917000", "105310.920000", "105310.923000", "105310.926000", "105330.860000", "105330.870000", "105330.873000", "105330.877000", "105330.880000", "105330.883000", "105330.886000", "105330.890000", "105330.893000", "105330.896000", "105330.899000", "105330.903000", "105330.906000", "105330.909000", "105330.912000", "105330.916000", "105330.919000", "105330.922000", "105330.926000", "105330.929000", "105410.860000", "105410.864000", "105410.867000", "105410.870000", "105410.874000", "105410.877000", "105410.880000", "105410.883000", "105410.887000", "105410.890000", "105410.893000", "105410.897000", "105410.900000", "105410.903000", "105410.906000", "105410.910000", "105410.913000", "105410.916000", "105410.919000", "105410.923000", "105410.926000", "105410.929000", "105410.933000", "105410.936000", "105410.939000", "105410.942000", "105410.947000", "105410.950000", "105450.861000", "105450.865000", "105450.868000", "105450.871000", "105450.875000", "105450.878000", "105450.881000", "105450.885000", "105450.888000", "105450.891000", "105450.894000", "105450.898000", "105450.901000", "105450.904000", "105450.907000", "105450.911000", "105450.914000", "105450.917000", "105450.921000", "105450.924000", "105450.927000", "105450.930000", "105450.934000", "105450.937000", "105450.940000", "105450.943000", "105450.947000", "105530.860000", "105530.864000", "105530.867000", "105530.870000", "105530.874000", "105530.877000", "105530.880000", "105530.883000", "105530.887000", "105530.890000", "105530.893000", "105530.896000", "105530.900000", "105530.903000", "105530.906000", "105530.910000", "105530.913000", "105530.916000", "105530.919000", "105530.923000", "105530.926000", "105530.929000", "105530.932000", "105530.936000", "105530.939000", "105530.942000", "105530.945000", "105539.072000", "105539.076000", "105539.080000", "105539.083000", "105539.092000", "105539.096000"],
      "InstanceCreationTime": ["105210.893000", "105210.897000", "105210.906000", "105210.909000", "105210.912000", "105210.915000", "105210.919000", "105210.922000", "105210.925000", "105210.929000", "105210.932000", "105210.935000", "105210.938000", "105210.942000", "105210.945000", "105210.959000", "105210.963000", "105210.966000", "105210.969000", "105210.973000", "105210.976000", "105230.861000", "105230.865000", "105230.868000", "105230.871000", "105230.875000", "105230.878000", "105230.881000", "105230.884000", "105230.888000", "105230.891000", "105230.894000", "105230.897000", "105230.901000", "105230.904000", "105230.907000", "105230.910000", "105230.913000", "105230.917000", "105230.920000", "105230.923000", "105250.861000", "105250.871000", "105250.874000", "105250.878000", "105250.881000", "105250.884000", "105250.887000", "105250.891000", "105250.894000", "105250.897000", "105250.900000", "105250.904000", "105250.907000", "105250.910000", "105250.914000", "105250.917000", "105250.920000", "105250.923000", "105250.927000", "105250.930000", "105310.860000", "105310.864000", "105310.867000", "105310.870000", "105310.874000", "105310.877000", "105310.880000", "105310.883000", "105310.887000", "105310.890000", "105310.893000", "105310.896000", "105310.900000", "105310.903000", "105310.906000", "105310.910000", "105310.913000", "105310.917000", "105310.920000", "105310.923000", "105310.926000", "105330.860000", "105330.870000", "105330.873000", "105330.877000", "105330.880000", "105330.883000", "105330.886000", "105330.890000", "105330.893000", "105330.896000", "105330.899000", "105330.903000", "105330.906000", "105330.909000", "105330.912000", "105330.916000", "105330.919000", "105330.922000", "105330.926000", "105330.929000", "105410.860000", "105410.864000", "105410.867000", "105410.870000", "105410.874000", "105410.877000", "105410.880000", "105410.883000", "105410.887000", "105410.890000", "105410.893000", "105410.897000", "105410.900000", "105410.903000", "105410.906000", "105410.910000", "105410.913000", "105410.916000", "105410.919000", "105410.923000", "105410.926000", "105410.929000", "105410.933000", "105410.936000", "105410.939000", "105410.942000", "105410.947000", "105410.950000", "105450.861000", "105450.865000", "105450.868000", "105450.871000", "105450.875000", "105450.878000", "105450.881000", "105450.885000", "105450.888000", "105450.891000", "105450.894000", "105450.898000", "105450.901000", "105450.904000", "105450.907000", "105450.911000", "105450.914000", "105450.917000", "105450.921000", "105450.924000", "105450.927000", "105450.930000", "105450.934000", "105450.937000", "105450.940000", "105450.943000", "105450.947000", "105530.860000", "105530.864000", "105530.867000", "105530.870000", "105530.874000", "105530.877000", "105530.880000", "105530.883000", "105530.887000", "105530.890000", "105530.893000", "105530.896000", "105530.900000", "105530.903000", "105530.906000", "105530.910000", "105530.913000", "105530.916000", "105530.919000", "105530.923000", "105530.926000", "105530.929000", "105530.932000", "105530.936000", "105530.939000", "105530.942000", "105530.945000", "105539.072000", "105539.076000", "105539.080000", "105539.083000", "105539.092000", "105539.096000"],
      "InstanceNumber": [1, 2, 3, 4, 5, 6, 7, 8, 9, 10, 11, 12, 13, 14, 15, 16, 17, 18, 19, 20, 21, 22, 23, 24, 25, 26, 27, 28, 29, 30, 31, 32, 33, 34, 35, 36, 37, 38, 39, 40, 41, 42, 43, 44, 45, 46, 47, 48, 49, 50, 51, 52, 53, 54, 55, 56, 57, 58, 59, 60, 61, 62, 63, 64, 65, 66, 67, 68, 69, 70, 71, 72, 73, 74, 75, 76, 77, 78, 79, 80, 81, 82, 83, 84, 85, 86, 87, 88, 89, 90, 91, 92, 93, 94, 95, 96, 97, 98, 99, 100, 101, 102, 103, 104, 105, 106, 107, 108, 109, 110, 111, 112, 113, 114, 115, 116, 117, 118, 119, 120, 121, 122, 123, 124, 125, 126, 127, 128, 129, 130, 131, 132, 133, 134, 135, 136, 137, 138, 139, 140, 141, 142, 143, 144, 145, 146, 147, 148, 149, 150, 151, 152, 153, 154, 155, 156, 157, 158, 159, 160, 161, 162, 163, 164, 165, 166, 167, 168, 169, 170, 171, 172, 173, 174, 175, 176, 177, 178, 179, 180, 181, 182, 183, 184, 185, 186, 187, 188, 189, 190],
      "LargestImagePixelValue": [50059, 47801, 48003, 47501, 47027, 47786, 46844, 45606, 46744, 46360, 45326, 47568, 45944, 46309, 46016, 47087, 48572, 45834, 45486, 47781, 45553, 47138, 46123, 46744, 45925, 47931, 47388, 46571, 48324, 47676, 47338, 49158, 47418, 47836, 48105, 49056, 48973, 48068, 49071, 48577, 47992, 48381, 47295, 48254, 48678, 47718, 47686, 48489, 49706, 48062, 46106, 47851, 46896, 47993, 47884, 48104, 48656, 47947, 48944, 48920, 47859, 48403, 47912, 46807, 48497, 47622, 47786, 48710, 48095, 48928, 48682, 48178, 48214, 48066, 48265, 48050, 47810, 47833, 48962, 48263, 47804, 47853, 48481, 47416, 49283, 49047, 47779, 48502, 47823, 48032, 47612, 48019, 48261, 47839, 49179, 48939, 48040, 48572, 48372, 48239, 49209, 48896, 48034, 48577, 48287, 47500, 48385, 48323, 48277, 48299, 48323, 47342, 46715, 47511, 47816, 48533, 48294, 48095, 48036, 47562, 48673, 48140, 47200, 48732, 47348, 48523, 47684, 48165, 48302, 47398, 47903, 48428, 47636, 47385, 47526, 47772, 48064, 47475, 48485, 48084, 46302, 47725, 47412, 47501, 47691, 48005, 48357, 47404, 49031, 47550, 46904, 47732, 46602, 48307, 47712, 47702, 47965, 46569, 47196, 47696, 47638, 46364, 48230, 47240, 46192, 48108, 47084, 46824, 48857, 47436, 48731, 48198, 48368, 47965, 47345, 48296, 46836, 46685, 47951, 45780, 46909, 47232, 45385, 47532, 48077, 47341, 46882, 45874, 45952, 47225],
      "WindowCenter": [11277.0, 11211.0, 11193.0, 11181.0, 11174.0, 11177.0, 11167.0, 11155.0, 11150.0, 11133.0, 11108.0, 11153.0, 11165.0, 11168.0, 11165.0, 11199.0, 11198.0, 11170.0, 11163.0, 11150.0, 11115.0, 11142.0, 11156.0, 11185.0, 11181.0, 11190.0, 11166.0, 11150.0, 11154.0, 11131.0, 11125.0, 11149.0, 11123.0, 11135.0, 11135.0, 11154.0, 11157.0, 11127.0, 11148.0, 11169.0, 11183.0, 11182.0, 11157.0, 11153.0, 11142.0, 11121.0, 11104.0, 11129.0, 11206.0, 11233.0, 11213.0, 11195.0, 11158.0, 11143.0, 11131.0, 11136.0, 11144.0, 11145.0, 11148.0, 11141.0, 11135.0, 11141.0, 11146.0, 11149.0, 11158.0, 11140.0, 11140.0, 11139.0, 11137.0, 11148.0, 11135.0, 11115.0, 11107.0, 11119.0, 11159.0, 11160.0, 11150.0, 11136.0, 11143.0, 11135.0, 11132.0, 11139.0, 11144.0, 11128.0, 11140.0, 11145.0, 11113.0, 11128.0, 11118.0, 11122.0, 11123.0, 11124.0, 11132.0, 11145.0, 11139.0, 11119.0, 11130.0, 11129.0, 11130.0, 11140.0, 11152.0, 11142.0, 11134.0, 11145.0, 11141.0, 11138.0, 11138.0, 11124.0, 11122.0, 11123.0, 11124.0, 11130.0, 11128.0, 11120.0, 11110.0, 11137.0, 11147.0, 11137.0, 11121.0, 11108.0, 11113.0, 11117.0, 11125.0, 11134.0, 11115.0, 11120.0, 11119.0, 11132.0, 11124.0, 11117.0, 11119.0, 11114.0, 11114.0, 11111.0, 11116.0, 11119.0, 11128.0, 11122.0, 11127.0, 11117.0, 11102.0, 11119.0, 11114.0, 11119.0, 11128.0, 11135.0, 11141.0, 11117.0, 11130.0, 11108.0, 11098.0, 11097.0, 11074.0, 11105.0, 11113.0, 11131.0, 11139.0, 11123.0, 11113.0, 11122.0, 11125.0, 11118.0, 11138.0, 11110.0, 11099.0, 11118.0, 11114.0, 11110.0, 11132.0, 11106.0, 11110.0, 11099.0, 11106.0, 11094.0, 11087.0, 11098.0, 11080.0, 11081.0, 11093.0, 11081.0, 11098.0, 11097.0, 11082.0, 11103.0, 11100.0, 11106.0, 11088.0, 11069.0, 11065.0, 11065.0],
      "WindowWidth": [24351.0, 24162.0, 24101.0, 24060.0, 24038.0, 24039.0, 24017.0, 23991.0, 23978.0, 23939.0, 23879.0, 23975.0, 24010.0, 24022.0, 24017.0, 24092.0, 24082.0, 24025.0, 24014.0, 23971.0, 23898.0, 23954.0, 23988.0, 24058.0, 24049.0, 24062.0, 24011.0, 23974.0, 23975.0, 23923.0, 23912.0, 23959.0, 23909.0, 23934.0, 23932.0, 23973.0, 23982.0, 23916.0, 23958.0, 24010.0, 24047.0, 24043.0, 23990.0, 23976.0, 23949.0, 23905.0, 23872.0, 23920.0, 24096.0, 24164.0, 24124.0, 24077.0, 23990.0, 23953.0, 23924.0, 23936.0, 23955.0, 23958.0, 23962.0, 23943.0, 23934.0, 23949.0, 23962.0, 23977.0, 23988.0, 23948.0, 23949.0, 23941.0, 23939.0, 23961.0, 23935.0, 23885.0, 23869.0, 23895.0, 23990.0, 23995.0, 23970.0, 23937.0, 23956.0, 23934.0, 23928.0, 23944.0, 23955.0, 23920.0, 23939.0, 23952.0, 23879.0, 23917.0, 23896.0, 23903.0, 23903.0, 23906.0, 23923.0, 23954.0, 23932.0, 23890.0, 23921.0, 23913.0, 23915.0, 23940.0, 23964.0, 23940.0, 23927.0, 23949.0, 23942.0, 23942.0, 23938.0, 23905.0, 23900.0, 23903.0, 23905.0, 23923.0, 23921.0, 23902.0, 23877.0, 23934.0, 23957.0, 23939.0, 23901.0, 23866.0, 23875.0, 23885.0, 23907.0, 23928.0, 23891.0, 23894.0, 23896.0, 23926.0, 23906.0, 23893.0, 23895.0, 23881.0, 23884.0, 23881.0, 23890.0, 23896.0, 23919.0, 23907.0, 23913.0, 23891.0, 23862.0, 23898.0, 23888.0, 23896.0, 23917.0, 23934.0, 23944.0, 23892.0, 23914.0, 23868.0, 23848.0, 23848.0, 23796.0, 23863.0, 23883.0, 23924.0, 23944.0, 23911.0, 23886.0, 23903.0, 23911.0, 23901.0, 23948.0, 23879.0, 23855.0, 23893.0, 23883.0, 23877.0, 23920.0, 23863.0, 23869.0, 23844.0, 23861.0, 23832.0, 23821.0, 23841.0, 23802.0, 23809.0, 23833.0, 23814.0, 23847.0, 23846.0, 23817.0, 23861.0, 23848.0, 23871.0, 23827.0, 23785.0, 23783.0, 23771.0]
    },
    "slices": {}
  }
}