{
  "AcquisitionMatrixPE": 104,
  "AcquisitionNumber": 1,
  "AcquisitionTime": "11:02:59.777500",
  "BandwidthPerPixelPhaseEncode": 17.17,
  "BaseResolution": 104,
  "BodyPartExamined": "BRAIN",
  "CoilString": "HC1-7;NC1_2",
  "ConsistencyInfo": "N4_VE11C_LATEST_20160120",
  "ConversionSoftware": "dcm2niix",
  "ConversionSoftwareVersion": "v1.0.20190902",
  "DerivedVendorReportedEchoSpacing": 0.000560011,
  "DeviceSerialNumber": "167006",
  "DwellTime": 2.1e-06,
  "EchoTime": 0.037,
  "EchoTrainLength": 104,
  "EffectiveEchoSpacing": 0.000560011,
  "FlipAngle": 52,
  "ImageComments": "Unaliased_MB4_PE3_LB",
  "ImageOrientationPatientDICOM": [0.999193, -0.0211978, 0.0341175, 0.0352417, 0.870189, -0.491456],
  "ImageType": [
    "ORIGINAL",
    "PRIMARY",
    "M",
    "MB",
    "ND",
    "MOSAIC"
],
  "ImagingFrequency": 123.259,
  "InPlanePhaseEncodingDirectionDICOM": "COL",
  "InstitutionAddress": "Chemin_Queen-Mary_4565_Montreal_District_CA_H3W_1W5",
  "InstitutionName": "IUGM",
  "InstitutionalDepartmentName": "Department",
  "MRAcquisitionType": "2D",
  "MagneticFieldStrength": 3,
  "Manufacturer": "Siemens",
  "ManufacturersModelName": "Prisma_fit",
  "Modality": "MR",
  "MultibandAccelerationFactor": 4,
  "PartialFourier": 1,
  "PatientPosition": "HFS",
  "PercentPhaseFOV": 100,
  "PhaseEncodingDirection": "j",
  "PhaseEncodingSteps": 104,
  "PhaseResolution": 1,
  "PixelBandwidth": 2290,
  "ProcedureStepDescription": "memory_things",
  "ProtocolName": "func_task-things_run-3",
  "PulseSequenceDetails": "%CustomerSeq%_cmrr_mbep2d_bold",
  "ReceiveCoilActiveElements": "HC1-7;NC1,2",
  "ReceiveCoilName": "HeadNeck_64",
  "ReconMatrixPE": 104,
  "RepetitionTime": 1.49,
  "SAR": 0.0462303,
  "ScanOptions": "FS",
  "ScanningSequence": "EP",
  "SequenceName": "epfid2d1_104",
  "SequenceVariant": "SK_SS",
  "SeriesDescription": "func_task-things_run-3",
  "SeriesNumber": 16,
  "ShimSetting": [618, -7181, -8861, 295, -20, -131, -26, -8],
  "SliceThickness": 2,
  "SliceTiming": [0, 0.7825, 0.0975, 0.88, 0.195, 0.98, 0.2925, 1.0775, 0.39, 1.175, 0.49, 1.2725, 0.5875, 1.37, 0.685, 0, 0.7825, 0.0975, 0.88, 0.195, 0.98, 0.2925, 1.0775, 0.39, 1.175, 0.49, 1.2725, 0.5875, 1.37, 0.685, 0, 0.7825, 0.0975, 0.88, 0.195, 0.98, 0.2925, 1.0775, 0.39, 1.175, 0.49, 1.2725, 0.5875, 1.37, 0.685, 0, 0.7825, 0.0975, 0.88, 0.195, 0.98, 0.2925, 1.0775, 0.39, 1.175, 0.49, 1.2725, 0.5875, 1.37, 0.685],
  "SoftwareVersions": "syngo_MR_E11",
  "SpacingBetweenSlices": 2,
  "StationName": "MRC35049",
  "TaskName": "things",
  "TotalReadoutTime": 0.0576811,
  "TxRefAmp": 267.62,
  "WipMemBlock": "f262f105-ab19-4ecb-8b79-7f4515ad38cf||Sequence: R016 ve11c/master r/e634e98; Dec 19 2017 11:00:25 by eja",
  "dcmmeta_affine": [
    [-1.998386025428772, 0.07048349827528, 0.03854168578982353, 102.95903015136719],
    [0.042395543307065964, 1.7403775453567505, -0.9845244884490967, -55.32969284057617],
    [0.06823490560054779, 0.9829129576683044, 1.7404671907424927, -95.05342864990234],
    [0.0, 0.0, 0.0, 1.0]
],
  "dcmmeta_reorient_transform": [
    [0.0, -1.0, 0.0, 103.0],
    [1.0, 0.0, 0.0, 0.0],
    [0.0, 0.0, 1.0, 0.0],
    [0.0, 0.0, 0.0, 1.0]
],
  "dcmmeta_shape": [104, 104, 60, 190],
  "dcmmeta_slice_dim": 2,
  "dcmmeta_version": 0.6,
  "global": {
    "const": {
      "AcquisitionMatrix": [104, 0, 0, 104],
      "AngioFlag": "N",
      "BitsAllocated": 16,
      "BitsStored": 16,
      "BodyPartExamined": "BRAIN",
      "Columns": 832,
      "EchoNumbers": 1,
      "EchoTime": 37.0,
      "EchoTrainLength": 104,
      "FlipAngle": 52.0,
      "HighBit": 15,
      "ImageOrientationPatient": [0.99919300129157, -0.0211977718493, 0.03411745357687, 0.03524174737614, 0.87018879881148, -0.4914564819645],
      "ImagePositionPatient": [-863.28732394963, -741.99466681776, 339.12941603988],
      "ImageType": [
        "ORIGINAL",
        "PRIMARY",
        "M",
        "MB",
        "ND",
        "MOSAIC"
],
      "ImagedNucleus": "1H",
      "ImagingFrequency": 123.258895,
      "InPlanePhaseEncodingDirection": "COL",
      "MRAcquisitionType": "2D",
      "MagneticFieldStrength": 3.0,
      "Manufacturer": "SIEMENS",
      "ManufacturerModelName": "Prisma_fit",
      "Modality": "MR",
      "NumberOfAverages": 1.0,
      "NumberOfPhaseEncodingSteps": 104,
      "PercentPhaseFieldOfView": 100.0,
      "PercentSampling": 100.0,
      "PerformedProcedureStepStartTime": "102246.503000",
      "PhotometricInterpretation": "MONOCHROME2",
      "PixelBandwidth": 2290.0,
      "PixelRepresentation": 0,
      "PixelSpacing": [2.0, 2.0],
      "ProtocolName": "func_task-things_run-3",
      "RepetitionTime": 1490.0,
      "Rows": 832,
      "SAR": 0.04623029582984,
      "SamplesPerPixel": 1,
      "ScanOptions": "FS",
      "ScanningSequence": "EP",
      "SequenceName": "epfid2d1_104",
      "SequenceVariant": [
        "SK",
        "SS"
],
      "SeriesDescription": "func_task-things_run-3",
      "SeriesNumber": 16,
      "SeriesTime": "110421.304000",
      "SliceLocation": -53.49786476321,
      "SliceThickness": 2.0,
      "SmallestImagePixelValue": 0,
      "SoftwareVersions": "syngo MR E11",
      "SpacingBetweenSlices": 1.9999999830767,
      "SpecificCharacterSet": "ISO_IR 100",
      "StudyID": "1",
      "StudyTime": "102246.421000",
      "TransmitCoilName": "Body",
      "VariableFlipAngleFlag": "N",
      "WindowCenterWidthExplanation": "Algo1",
      "dBdt": 0.0},
    "slices": {}
  },
  "time": {
    "samples": {
      "AcquisitionNumber": [1, 2, 3, 4, 5, 6, 7, 8, 9, 10, 11, 12, 13, 14, 15, 16, 17, 18, 19, 20, 21, 22, 23, 24, 25, 26, 27, 28, 29, 30, 31, 32, 33, 34, 35, 36, 37, 38, 39, 40, 41, 42, 43, 44, 45, 46, 47, 48, 49, 50, 51, 52, 53, 54, 55, 56, 57, 58, 59, 60, 61, 62, 63, 64, 65, 66, 67, 68, 69, 70, 71, 72, 73, 74, 75, 76, 77, 78, 79, 80, 81, 82, 83, 84, 85, 86, 87, 88, 89, 90, 91, 92, 93, 94, 95, 96, 97, 98, 99, 100, 101, 102, 103, 104, 105, 106, 107, 108, 109, 110, 111, 112, 113, 114, 115, 116, 117, 118, 119, 120, 121, 122, 123, 124, 125, 126, 127, 128, 129, 130, 131, 132, 133, 134, 135, 136, 137, 138, 139, 140, 141, 142, 143, 144, 145, 146, 147, 148, 149, 150, 151, 152, 153, 154, 155, 156, 157, 158, 159, 160, 161, 162, 163, 164, 165, 166, 167, 168, 169, 170, 171, 172, 173, 174, 175, 176, 177, 178, 179, 180, 181, 182, 183, 184, 185, 186, 187, 188, 189, 190],
      "AcquisitionTime": ["110259.777500", "110301.267500", "110302.757500", "110304.247500", "110305.737500", "110307.227500", "110308.717500", "110310.207500", "110311.697500", "110313.187500", "110314.677500", "110316.167500", "110317.657500", "110319.147500", "110320.637500", "110322.127500", "110323.617500", "110325.107500", "110326.597500", "110328.087500", "110329.577500", "110331.067500", "110332.557500", "110334.047500", "110335.537500", "110337.027500", "110338.517500", "110340.007500", "110341.497500", "110342.987500", "110344.477500", "110345.967500", "110347.457500", "110348.947500", "110350.437500", "110351.927500", "110353.417500", "110354.907500", "110356.397500", "110357.887500", "110359.377500", "110400.867500", "110402.357500", "110403.847500", "110405.337500", "110406.827500", "110408.317500", "110409.807500", "110411.297500", "110412.787500", "110414.277500", "110415.767500", "110417.257500", "110418.747500", "110420.237500", "110421.727500", "110423.217500", "110424.707500", "110426.197500", "110427.687500", "110429.177500", "110430.667500", "110432.157500", "110433.647500", "110435.137500", "110436.627500", "110438.117500", "110439.607500", "110441.097500", "110442.587500", "110444.077500", "110445.567500", "110447.057500", "110448.547500", "110450.037500", "110451.527500", "110453.017500", "110454.507500", "110455.997500", "110457.487500", "110458.977500", "110500.467500", "110501.957500", "110503.447500", "110504.937500", "110506.427500", "110507.917500", "110509.407500", "110510.897500", "110512.387500", "110513.877500", "110515.367500", "110516.857500", "110518.347500", "110519.837500", "110521.327500", "110522.817500", "110524.307500", "110525.797500", "110527.287500", "110528.777500", "110530.267500", "110531.757500", "110533.247500", "110534.737500", "110536.227500", "110537.717500", "110539.207500", "110540.697500", "110542.187500", "110543.677500", "110545.167500", "110546.657500", "110548.147500", "110549.637500", "110551.127500", "110552.617500", "110554.107500", "110555.597500", "110557.087500", "110558.577500", "110600.067500", "110601.557500", "110603.047500", "110604.537500", "110606.027500", "110607.517500", "110609.007500", "110610.497500", "110611.987500", "110613.477500", "110614.967500", "110616.457500", "110617.947500", "110619.437500", "110620.927500", "110622.417500", "110623.907500", "110625.397500", "110626.887500", "110628.377500", "110629.867500", "110631.357500", "110632.847500", "110634.337500", "110635.827500", "110637.317500", "110638.807500", "110640.297500", "110641.787500", "110643.277500", "110644.767500", "110646.257500", "110647.747500", "110649.237500", "110650.727500", "110652.217500", "110653.707500", "110655.197500", "110656.687500", "110658.177500", "110659.667500", "110701.157500", "110702.647500", "110704.137500", "110705.627500", "110707.117500", "110708.607500", "110710.097500", "110711.587500", "110713.077500", "110714.567500", "110716.057500", "110717.547500", "110719.037500", "110720.527500", "110722.017500", "110723.507500", "110724.997500", "110726.487500", "110727.977500", "110729.467500", "110730.957500", "110732.447500", "110733.937500", "110735.427500", "110736.917500", "110738.407500", "110739.897500", "110741.387500"],
      "ContentTime": ["110421.307000", "110421.311000", "110421.315000", "110421.318000", "110421.321000", "110421.324000", "110421.328000", "110421.331000", "110421.334000", "110421.338000", "110421.347000", "110421.350000", "110421.353000", "110421.357000", "110421.360000", "110421.363000", "110421.367000", "110421.370000", "110421.373000", "110421.376000", "110421.380000", "110421.383000", "110421.386000", "110421.389000", "110421.393000", "110421.396000", "110421.399000", "110421.403000", "110441.274000", "110441.278000", "110441.281000", "110441.284000", "110441.288000", "110441.291000", "110441.294000", "110441.297000", "110441.301000", "110441.304000", "110441.314000", "110441.317000", "110441.321000", "110441.324000", "110441.327000", "110441.330000", "110441.334000", "110441.337000", "110441.340000", "110441.344000", "110501.275000", "110501.279000", "110501.282000", "110501.285000", "110501.289000", "110501.292000", "110501.295000", "110501.299000", "110501.302000", "110501.305000", "110501.308000", "110501.312000", "110501.315000", "110501.318000", "110501.321000", "110501.325000", "110501.328000", "110501.331000", "110501.335000", "110501.338000", "110501.341000", "110521.275000", "110521.279000", "110521.282000", "110521.285000", "110521.289000", "110521.292000", "110521.295000", "110521.298000", "110521.302000", "110521.305000", "110521.308000", "110521.317000", "110521.320000", "110521.324000", "110521.327000", "110521.330000", "110521.333000", "110521.337000", "110521.340000", "110521.343000", "110601.275000", "110601.286000", "110601.289000", "110601.292000", "110601.296000", "110601.299000", "110601.302000", "110601.305000", "110601.309000", "110601.312000", "110601.315000", "110601.319000", "110601.322000", "110601.325000", "110601.328000", "110601.332000", "110601.335000", "110601.338000", "110601.342000", "110601.345000", "110601.348000", "110601.351000", "110601.355000", "110601.358000", "110601.361000", "110601.365000", "110601.368000", "110601.371000", "110601.374000", "110601.378000", "110601.381000", "110601.384000", "110641.274000", "110641.278000", "110641.282000", "110641.285000", "110641.289000", "110641.292000", "110641.295000", "110641.299000", "110641.302000", "110641.305000", "110641.309000", "110641.312000", "110641.315000", "110641.318000", "110641.322000", "110641.325000", "110641.328000", "110641.331000", "110641.335000", "110641.338000", "110641.342000", "110641.345000", "110641.348000", "110641.351000", "110641.355000", "110641.358000", "110721.275000", "110721.279000", "110721.282000", "110721.285000", "110721.289000", "110721.292000", "110721.295000", "110721.299000", "110721.302000", "110721.305000", "110721.309000", "110721.312000", "110721.315000", "110721.319000", "110721.322000", "110721.325000", "110721.328000", "110721.332000", "110721.335000", "110721.338000", "110721.341000", "110721.345000", "110721.348000", "110721.351000", "110721.355000", "110721.358000", "110721.361000", "110744.063000", "110744.067000", "110744.071000", "110744.074000", "110744.077000", "110744.081000", "110744.084000", "110744.088000", "110744.091000", "110744.095000", "110744.098000", "110744.102000", "110744.105000", "110744.108000", "110744.112000", "110744.128000"],
      "InstanceCreationTime": ["110421.307000", "110421.311000", "110421.315000", "110421.318000", "110421.321000", "110421.324000", "110421.328000", "110421.331000", "110421.334000", "110421.338000", "110421.347000", "110421.350000", "110421.353000", "110421.357000", "110421.360000", "110421.363000", "110421.367000", "110421.370000", "110421.373000", "110421.376000", "110421.380000", "110421.383000", "110421.386000", "110421.389000", "110421.393000", "110421.396000", "110421.399000", "110421.403000", "110441.274000", "110441.278000", "110441.281000", "110441.284000", "110441.288000", "110441.291000", "110441.294000", "110441.297000", "110441.301000", "110441.304000", "110441.314000", "110441.317000", "110441.321000", "110441.324000", "110441.327000", "110441.330000", "110441.334000", "110441.337000", "110441.340000", "110441.344000", "110501.275000", "110501.279000", "110501.282000", "110501.285000", "110501.289000", "110501.292000", "110501.295000", "110501.299000", "110501.302000", "110501.305000", "110501.308000", "110501.312000", "110501.315000", "110501.318000", "110501.321000", "110501.325000", "110501.328000", "110501.331000", "110501.335000", "110501.338000", "110501.341000", "110521.275000", "110521.279000", "110521.282000", "110521.285000", "110521.289000", "110521.292000", "110521.295000", "110521.298000", "110521.302000", "110521.305000", "110521.308000", "110521.317000", "110521.320000", "110521.324000", "110521.327000", "110521.330000", "110521.333000", "110521.337000", "110521.340000", "110521.343000", "110601.275000", "110601.286000", "110601.289000", "110601.292000", "110601.296000", "110601.299000", "110601.302000", "110601.305000", "110601.309000", "110601.312000", "110601.315000", "110601.319000", "110601.322000", "110601.325000", "110601.328000", "110601.332000", "110601.335000", "110601.338000", "110601.342000", "110601.345000", "110601.348000", "110601.351000", "110601.355000", "110601.358000", "110601.361000", "110601.365000", "110601.368000", "110601.371000", "110601.374000", "110601.378000", "110601.381000", "110601.384000", "110641.274000", "110641.278000", "110641.282000", "110641.285000", "110641.289000", "110641.292000", "110641.295000", "110641.299000", "110641.302000", "110641.305000", "110641.309000", "110641.312000", "110641.315000", "110641.318000", "110641.322000", "110641.325000", "110641.328000", "110641.331000", "110641.335000", "110641.338000", "110641.342000", "110641.345000", "110641.348000", "110641.351000", "110641.355000", "110641.358000", "110721.275000", "110721.279000", "110721.282000", "110721.285000", "110721.289000", "110721.292000", "110721.295000", "110721.299000", "110721.302000", "110721.305000", "110721.309000", "110721.312000", "110721.315000", "110721.319000", "110721.322000", "110721.325000", "110721.328000", "110721.332000", "110721.335000", "110721.338000", "110721.341000", "110721.345000", "110721.348000", "110721.351000", "110721.355000", "110721.358000", "110721.361000", "110744.063000", "110744.067000", "110744.071000", "110744.074000", "110744.077000", "110744.081000", "110744.084000", "110744.088000", "110744.091000", "110744.095000", "110744.098000", "110744.102000", "110744.105000", "110744.108000", "110744.112000", "110744.128000"],
      "InstanceNumber": [1, 2, 3, 4, 5, 6, 7, 8, 9, 10, 11, 12, 13, 14, 15, 16, 17, 18, 19, 20, 21, 22, 23, 24, 25, 26, 27, 28, 29, 30, 31, 32, 33, 34, 35, 36, 37, 38, 39, 40, 41, 42, 43, 44, 45, 46, 47, 48, 49, 50, 51, 52, 53, 54, 55, 56, 57, 58, 59, 60, 61, 62, 63, 64, 65, 66, 67, 68, 69, 70, 71, 72, 73, 74, 75, 76, 77, 78, 79, 80, 81, 82, 83, 84, 85, 86, 87, 88, 89, 90, 91, 92, 93, 94, 95, 96, 97, 98, 99, 100, 101, 102, 103, 104, 105, 106, 107, 108, 109, 110, 111, 112, 113, 114, 115, 116, 117, 118, 119, 120, 121, 122, 123, 124, 125, 126, 127, 128, 129, 130, 131, 132, 133, 134, 135, 136, 137, 138, 139, 140, 141, 142, 143, 144, 145, 146, 147, 148, 149, 150, 151, 152, 153, 154, 155, 156, 157, 158, 159, 160, 161, 162, 163, 164, 165, 166, 167, 168, 169, 170, 171, 172, 173, 174, 175, 176, 177, 178, 179, 180, 181, 182, 183, 184, 185, 186, 187, 188, 189, 190],
      "LargestImagePixelValue": [50562, 49222, 48334, 49005, 48168, 48342, 48698, 48675, 48234, 48313, 47986, 46746, 48216, 47258, 47559, 47803, 47978, 47377, 48306, 47428, 46879, 47464, 45077, 46035, 44923, 46222, 45786, 45312, 45905, 44941, 44397, 44781, 44836, 44525, 45205, 44374, 44475, 45027, 45352, 45854, 46478, 45385, 44065, 44383, 44709, 44151, 44461, 45695, 44808, 45089, 45542, 46042, 44358, 44875, 44748, 44741, 45044, 44845, 44817, 45039, 45043, 45840, 44681, 44285, 44241, 44836, 44430, 44552, 44263, 44107, 44670, 44728, 44695, 44502, 44487, 44208, 44360, 44098, 44091, 45940, 44369, 45747, 45844, 44540, 43763, 44154, 44480, 44552, 44544, 44994, 44651, 44296, 44638, 45049, 44790, 45101, 44900, 45196, 45082, 45637, 45227, 44550, 44873, 45529, 45258, 44655, 45586, 44990, 44363, 45407, 44572, 45123, 45521, 44862, 44722, 45842, 45272, 45504, 45635, 45144, 45956, 45416, 45483, 44889, 45882, 45443, 45418, 45800, 46270, 44510, 45892, 45758, 45795, 45923, 45660, 45626, 45056, 44711, 45206, 45368, 45676, 44780, 45563, 45766, 46008, 46364, 45819, 46243, 46298, 45610, 46219, 46313, 45352, 46589, 45560, 46838, 46219, 45954, 46342, 46393, 46267, 45742, 45875, 46259, 45191, 44835, 46816, 46372, 45913, 46079, 46251, 46454, 45885, 46092, 44851, 44809, 45643, 45566, 45379, 46329, 46057, 46699, 46283, 46416, 46356, 46068, 45502, 46426, 46879, 46437],
      "WindowCenter": [11199.0, 11135.0, 11093.0, 11092.0, 11099.0, 11110.0, 11117.0, 11110.0, 11106.0, 11101.0, 11097.0, 11085.0, 11105.0, 11095.0, 11105.0, 11113.0, 11126.0, 11124.0, 11126.0, 11116.0, 11110.0, 11108.0, 11096.0, 11105.0, 11090.0, 11105.0, 11099.0, 11097.0, 11090.0, 11072.0, 11066.0, 11064.0, 11062.0, 11055.0, 11056.0, 11052.0, 11053.0, 11045.0, 11060.0, 11083.0, 11085.0, 11084.0, 11069.0, 11047.0, 11038.0, 11061.0, 11077.0, 11090.0, 11083.0, 11070.0, 11058.0, 11054.0, 11037.0, 11036.0, 11033.0, 11040.0, 11053.0, 11064.0, 11067.0, 11066.0, 11076.0, 11080.0, 11093.0, 11099.0, 11070.0, 11053.0, 11079.0, 11098.0, 11095.0, 11079.0, 11065.0, 11053.0, 11045.0, 11045.0, 11053.0, 11063.0, 11059.0, 11049.0, 11055.0, 11073.0, 11064.0, 11073.0, 11070.0, 11068.0, 11070.0, 11059.0, 11054.0, 11061.0, 11065.0, 11075.0, 11074.0, 11046.0, 11029.0, 11031.0, 11039.0, 11046.0, 11044.0, 11058.0, 11051.0, 11070.0, 11047.0, 11034.0, 11057.0, 11075.0, 11077.0, 11073.0, 11059.0, 11051.0, 11055.0, 11072.0, 11074.0, 11081.0, 11081.0, 11069.0, 11056.0, 11045.0, 11025.0, 11018.0, 11025.0, 11020.0, 11040.0, 11025.0, 11019.0, 11025.0, 11042.0, 11045.0, 11046.0, 11049.0, 11056.0, 11052.0, 11058.0, 11059.0, 11056.0, 11058.0, 11048.0, 11033.0, 11010.0, 10995.0, 11000.0, 11015.0, 11037.0, 11024.0, 11018.0, 11005.0, 11026.0, 11044.0, 11050.0, 11088.0, 11058.0, 11043.0, 11052.0, 11047.0, 11037.0, 11052.0, 11035.0, 11046.0, 11032.0, 11022.0, 11009.0, 11025.0, 11056.0, 11054.0, 11048.0, 11037.0, 11020.0, 11003.0, 11016.0, 11032.0, 11037.0, 11036.0, 11027.0, 11031.0, 11035.0, 11034.0, 11020.0, 10999.0, 10985.0, 10986.0, 11012.0, 11040.0, 11056.0, 11043.0, 11030.0, 11029.0, 11036.0, 11033.0, 11027.0, 11039.0, 11039.0, 11037.0],
      "WindowWidth": [24157.0, 23978.0, 23857.0, 23843.0, 23849.0, 23870.0, 23882.0, 23866.0, 23853.0, 23847.0, 23838.0, 23814.0, 23853.0, 23838.0, 23855.0, 23876.0, 23907.0, 23898.0, 23901.0, 23881.0, 23869.0, 23866.0, 23846.0, 23864.0, 23836.0, 23866.0, 23851.0, 23854.0, 23831.0, 23791.0, 23780.0, 23774.0, 23769.0, 23755.0, 23753.0, 23745.0, 23750.0, 23730.0, 23754.0, 23810.0, 23811.0, 23812.0, 23788.0, 23739.0, 23714.0, 23769.0, 23807.0, 23831.0, 23820.0, 23784.0, 23752.0, 23740.0, 23707.0, 23707.0, 23696.0, 23714.0, 23741.0, 23771.0, 23779.0, 23775.0, 23794.0, 23803.0, 23834.0, 23854.0, 23792.0, 23748.0, 23810.0, 23854.0, 23845.0, 23807.0, 23772.0, 23744.0, 23727.0, 23727.0, 23746.0, 23774.0, 23764.0, 23740.0, 23751.0, 23784.0, 23771.0, 23786.0, 23777.0, 23779.0, 23789.0, 23764.0, 23751.0, 23766.0, 23780.0, 23794.0, 23795.0, 23731.0, 23693.0, 23692.0, 23713.0, 23729.0, 23726.0, 23761.0, 23740.0, 23778.0, 23732.0, 23705.0, 23752.0, 23795.0, 23798.0, 23792.0, 23760.0, 23741.0, 23756.0, 23791.0, 23796.0, 23810.0, 23810.0, 23784.0, 23763.0, 23724.0, 23678.0, 23660.0, 23678.0, 23667.0, 23707.0, 23676.0, 23664.0, 23685.0, 23718.0, 23723.0, 23731.0, 23740.0, 23752.0, 23759.0, 23762.0, 23759.0, 23747.0, 23749.0, 23724.0, 23692.0, 23643.0, 23608.0, 23616.0, 23649.0, 23699.0, 23678.0, 23663.0, 23628.0, 23676.0, 23717.0, 23731.0, 23823.0, 23749.0, 23714.0, 23746.0, 23724.0, 23705.0, 23736.0, 23702.0, 23722.0, 23693.0, 23668.0, 23637.0, 23666.0, 23744.0, 23741.0, 23733.0, 23703.0, 23665.0, 23630.0, 23653.0, 23686.0, 23706.0, 23702.0, 23674.0, 23682.0, 23696.0, 23691.0, 23666.0, 23623.0, 23584.0, 23593.0, 23647.0, 23704.0, 23745.0, 23709.0, 23681.0, 23680.0, 23695.0, 23688.0, 23680.0, 23711.0, 23710.0, 23709.0]
    },
    "slices": {}
  }
}