{
  "AcquisitionMatrixPE": 104,
  "AcquisitionNumber": 1,
  "AcquisitionTime": "10:56:56.815000",
  "BandwidthPerPixelPhaseEncode": 17.17,
  "BaseResolution": 104,
  "BodyPartExamined": "BRAIN",
  "CoilString": "HC1-7;NC1_2",
  "ConsistencyInfo": "N4_VE11C_LATEST_20160120",
  "ConversionSoftware": "dcm2niix",
  "ConversionSoftwareVersion": "v1.0.20190902",
  "DerivedVendorReportedEchoSpacing": 0.000560011,
  "DeviceSerialNumber": "167006",
  "DwellTime": 2.1e-06,
  "EchoTime": 0.037,
  "EchoTrainLength": 104,
  "EffectiveEchoSpacing": 0.000560011,
  "FlipAngle": 52,
  "ImageComments": "Unaliased_MB4_PE3_LB",
  "ImageOrientationPatientDICOM": [0.999193, -0.0211978, 0.0341175, 0.0352417, 0.870189, -0.491456],
  "ImageType": [
    "ORIGINAL",
    "PRIMARY",
    "P",
    "MB",
    "ND",
    "MOSAIC"
],
  "ImagingFrequency": 123.259,
  "InPlanePhaseEncodingDirectionDICOM": "COL",
  "InstitutionAddress": "Chemin_Queen-Mary_4565_Montreal_District_CA_H3W_1W5",
  "InstitutionName": "IUGM",
  "InstitutionalDepartmentName": "Department",
  "MRAcquisitionType": "2D",
  "MagneticFieldStrength": 3,
  "Manufacturer": "Siemens",
  "ManufacturersModelName": "Prisma_fit",
  "Modality": "MR",
  "MultibandAccelerationFactor": 4,
  "PartialFourier": 1,
  "PatientPosition": "HFS",
  "PercentPhaseFOV": 100,
  "PhaseEncodingDirection": "j",
  "PhaseEncodingSteps": 104,
  "PhaseResolution": 1,
  "PixelBandwidth": 2290,
  "ProcedureStepDescription": "memory_things",
  "ProtocolName": "func_task-things_run-2",
  "PulseSequenceDetails": "%CustomerSeq%_cmrr_mbep2d_bold",
  "ReceiveCoilActiveElements": "HC1-7;NC1,2",
  "ReceiveCoilName": "HeadNeck_64",
  "ReconMatrixPE": 104,
  "RepetitionTime": 1.49,
  "SAR": 0.0462303,
  "ScanOptions": "FS",
  "ScanningSequence": "EP",
  "SequenceName": "epfid2d1_104",
  "SequenceVariant": "SK_SS",
  "SeriesDescription": "func_task-things_run-2",
  "SeriesNumber": 14,
  "ShimSetting": [618, -7181, -8861, 295, -20, -131, -26, -8],
  "SliceThickness": 2,
  "SliceTiming": [0, 0.785, 0.0975, 0.8825, 0.1975, 0.98, 0.295, 1.0775, 0.3925, 1.1775, 0.49, 1.275, 0.5875, 1.3725, 0.6875, 0, 0.785, 0.0975, 0.8825, 0.1975, 0.98, 0.295, 1.0775, 0.3925, 1.1775, 0.49, 1.275, 0.5875, 1.3725, 0.6875, 0, 0.785, 0.0975, 0.8825, 0.1975, 0.98, 0.295, 1.0775, 0.3925, 1.1775, 0.49, 1.275, 0.5875, 1.3725, 0.6875, 0, 0.785, 0.0975, 0.8825, 0.1975, 0.98, 0.295, 1.0775, 0.3925, 1.1775, 0.49, 1.275, 0.5875, 1.3725, 0.6875],
  "SoftwareVersions": "syngo_MR_E11",
  "SpacingBetweenSlices": 2,
  "StationName": "MRC35049",
  "TaskName": "things",
  "TotalReadoutTime": 0.0576811,
  "TxRefAmp": 267.62,
  "WipMemBlock": "b065572c-4fe1-41b3-8539-c036ab605cb7||Sequence: R016 ve11c/master r/e634e98; Dec 19 2017 11:00:25 by eja",
  "dcmmeta_affine": [
    [-1.998386025428772, 0.07048349827528, 0.03854168578982353, 102.95903015136719],
    [0.042395543307065964, 1.7403775453567505, -0.9845244884490967, -55.32969284057617],
    [0.06823490560054779, 0.9829129576683044, 1.7404671907424927, -95.05342864990234],
    [0.0, 0.0, 0.0, 1.0]
],
  "dcmmeta_reorient_transform": [
    [0.0, -1.0, 0.0, 103.0],
    [1.0, 0.0, 0.0, 0.0],
    [0.0, 0.0, 1.0, 0.0],
    [0.0, 0.0, 0.0, 1.0]
],
  "dcmmeta_shape": [104, 104, 60, 190],
  "dcmmeta_slice_dim": 2,
  "dcmmeta_version": 0.6,
  "global": {
    "const": {
      "AcquisitionMatrix": [104, 0, 0, 104],
      "AngioFlag": "N",
      "BitsAllocated": 16,
      "BitsStored": 16,
      "BodyPartExamined": "BRAIN",
      "Columns": 832,
      "EchoNumbers": 1,
      "EchoTime": 37.0,
      "EchoTrainLength": 104,
      "FlipAngle": 52.0,
      "HighBit": 15,
      "ImageOrientationPatient": [0.99919300129157, -0.0211977718493, 0.03411745357687, 0.03524174737614, 0.87018879881148, -0.4914564819645],
      "ImagePositionPatient": [-863.28732394963, -741.99466681776, 339.12941603988],
      "ImageType": [
        "ORIGINAL",
        "PRIMARY",
        "P",
        "MB",
        "ND",
        "MOSAIC"
],
      "ImagedNucleus": "1H",
      "ImagingFrequency": 123.258892,
      "InPlanePhaseEncodingDirection": "COL",
      "LargestImagePixelValue": 4095,
      "MRAcquisitionType": "2D",
      "MagneticFieldStrength": 3.0,
      "Manufacturer": "SIEMENS",
      "ManufacturerModelName": "Prisma_fit",
      "Modality": "MR",
      "NumberOfAverages": 1.0,
      "NumberOfPhaseEncodingSteps": 104,
      "PercentPhaseFieldOfView": 100.0,
      "PercentSampling": 100.0,
      "PerformedProcedureStepStartTime": "102246.503000",
      "PhotometricInterpretation": "MONOCHROME2",
      "PixelBandwidth": 2290.0,
      "PixelRepresentation": 0,
      "PixelSpacing": [2.0, 2.0],
      "ProtocolName": "func_task-things_run-2",
      "RepetitionTime": 1490.0,
      "RescaleIntercept": -4096.0,
      "RescaleSlope": 2.0,
      "RescaleType": "US",
      "Rows": 832,
      "SAR": 0.04623029582984,
      "SamplesPerPixel": 1,
      "ScanOptions": "FS",
      "ScanningSequence": "EP",
      "SequenceName": "epfid2d1_104",
      "SequenceVariant": [
        "SK",
        "SS"
],
      "SeriesDescription": "func_task-things_run-2",
      "SeriesNumber": 14,
      "SeriesTime": "105801.465000",
      "SliceLocation": -53.49786476321,
      "SliceThickness": 2.0,
      "SmallestImagePixelValue": 0,
      "SoftwareVersions": "syngo MR E11",
      "SpacingBetweenSlices": 1.9999999830767,
      "SpecificCharacterSet": "ISO_IR 100",
      "StudyID": "1",
      "StudyTime": "102246.421000",
      "TransmitCoilName": "Body",
      "VariableFlipAngleFlag": "N",
      "WindowCenterWidthExplanation": "Algo1",
      "dBdt": 0.0},
    "slices": {}
  },
  "time": {
    "samples": {
      "AcquisitionNumber": [1, 2, 3, 4, 5, 6, 7, 8, 9, 10, 11, 12, 13, 14, 15, 16, 17, 18, 19, 20, 21, 22, 23, 24, 25, 26, 27, 28, 29, 30, 31, 32, 33, 34, 35, 36, 37, 38, 39, 40, 41, 42, 43, 44, 45, 46, 47, 48, 49, 50, 51, 52, 53, 54, 55, 56, 57, 58, 59, 60, 61, 62, 63, 64, 65, 66, 67, 68, 69, 70, 71, 72, 73, 74, 75, 76, 77, 78, 79, 80, 81, 82, 83, 84, 85, 86, 87, 88, 89, 90, 91, 92, 93, 94, 95, 96, 97, 98, 99, 100, 101, 102, 103, 104, 105, 106, 107, 108, 109, 110, 111, 112, 113, 114, 115, 116, 117, 118, 119, 120, 121, 122, 123, 124, 125, 126, 127, 128, 129, 130, 131, 132, 133, 134, 135, 136, 137, 138, 139, 140, 141, 142, 143, 144, 145, 146, 147, 148, 149, 150, 151, 152, 153, 154, 155, 156, 157, 158, 159, 160, 161, 162, 163, 164, 165, 166, 167, 168, 169, 170, 171, 172, 173, 174, 175, 176, 177, 178, 179, 180, 181, 182, 183, 184, 185, 186, 187, 188, 189, 190],
      "AcquisitionTime": ["105656.815000", "105658.305000", "105659.795000", "105701.285000", "105702.775000", "105704.265000", "105705.755000", "105707.245000", "105708.735000", "105710.225000", "105711.715000", "105713.205000", "105714.695000", "105716.185000", "105717.675000", "105719.165000", "105720.655000", "105722.145000", "105723.635000", "105725.125000", "105726.615000", "105728.105000", "105729.595000", "105731.085000", "105732.575000", "105734.065000", "105735.555000", "105737.045000", "105738.535000", "105740.025000", "105741.515000", "105743.005000", "105744.495000", "105745.985000", "105747.475000", "105748.965000", "105750.455000", "105751.945000", "105753.435000", "105754.925000", "105756.415000", "105757.905000", "105759.395000", "105800.885000", "105802.375000", "105803.865000", "105805.355000", "105806.845000", "105808.335000", "105809.825000", "105811.315000", "105812.805000", "105814.295000", "105815.785000", "105817.275000", "105818.765000", "105820.255000", "105821.745000", "105823.235000", "105824.725000", "105826.215000", "105827.705000", "105829.195000", "105830.685000", "105832.175000", "105833.665000", "105835.155000", "105836.645000", "105838.135000", "105839.625000", "105841.115000", "105842.605000", "105844.095000", "105845.585000", "105847.075000", "105848.565000", "105850.055000", "105851.545000", "105853.035000", "105854.525000", "105856.015000", "105857.505000", "105858.995000", "105900.485000", "105901.975000", "105903.465000", "105904.955000", "105906.445000", "105907.935000", "105909.425000", "105910.915000", "105912.405000", "105913.895000", "105915.385000", "105916.875000", "105918.365000", "105919.855000", "105921.345000", "105922.835000", "105924.325000", "105925.815000", "105927.305000", "105928.795000", "105930.285000", "105931.775000", "105933.265000", "105934.755000", "105936.245000", "105937.735000", "105939.225000", "105940.715000", "105942.205000", "105943.695000", "105945.185000", "105946.675000", "105948.165000", "105949.655000", "105951.145000", "105952.635000", "105954.125000", "105955.615000", "105957.105000", "105958.595000", "110000.085000", "110001.575000", "110003.065000", "110004.555000", "110006.045000", "110007.535000", "110009.025000", "110010.515000", "110012.005000", "110013.495000", "110014.985000", "110016.475000", "110017.965000", "110019.455000", "110020.945000", "110022.435000", "110023.925000", "110025.415000", "110026.905000", "110028.395000", "110029.885000", "110031.375000", "110032.865000", "110034.355000", "110035.845000", "110037.335000", "110038.825000", "110040.315000", "110041.805000", "110043.295000", "110044.785000", "110046.275000", "110047.765000", "110049.255000", "110050.745000", "110052.235000", "110053.725000", "110055.215000", "110056.705000", "110058.195000", "110059.685000", "110101.175000", "110102.665000", "110104.155000", "110105.645000", "110107.135000", "110108.625000", "110110.115000", "110111.605000", "110113.095000", "110114.585000", "110116.075000", "110117.565000", "110119.055000", "110120.545000", "110122.035000", "110123.525000", "110125.015000", "110126.505000", "110127.995000", "110129.485000", "110130.975000", "110132.465000", "110133.955000", "110135.445000", "110136.935000", "110138.425000"],
      "ContentTime": ["105801.467000", "105801.479000", "105801.481000", "105801.484000", "105801.487000", "105801.489000", "105801.491000", "105801.494000", "105801.496000", "105821.471000", "105821.474000", "105821.476000", "105821.479000", "105821.481000", "105821.483000", "105821.486000", "105821.493000", "105821.496000", "105821.498000", "105821.501000", "105821.503000", "105821.505000", "105821.508000", "105821.510000", "105821.513000", "105821.515000", "105821.518000", "105821.520000", "105821.523000", "105821.525000", "105841.498000", "105841.501000", "105841.504000", "105841.506000", "105841.509000", "105841.511000", "105841.513000", "105841.516000", "105841.519000", "105841.521000", "105841.523000", "105841.526000", "105841.528000", "105841.531000", "105841.533000", "105841.536000", "105841.538000", "105841.541000", "105841.543000", "105841.546000", "105901.475000", "105901.477000", "105901.480000", "105901.482000", "105901.485000", "105901.488000", "105901.490000", "105901.492000", "105901.495000", "105901.497000", "105901.500000", "105901.502000", "105901.505000", "105901.507000", "105901.510000", "105901.513000", "105901.516000", "105901.519000", "105901.522000", "105901.524000", "105921.468000", "105921.470000", "105921.473000", "105921.475000", "105921.478000", "105921.480000", "105921.483000", "105921.485000", "105921.488000", "105921.490000", "105921.493000", "105921.495000", "105921.511000", "105921.513000", "105921.516000", "105921.518000", "105921.521000", "105921.523000", "105921.526000", "105921.528000", "105921.531000", "110001.516000", "110001.519000", "110001.521000", "110001.524000", "110001.526000", "110001.529000", "110001.531000", "110001.534000", "110001.536000", "110001.539000", "110001.541000", "110001.544000", "110001.546000", "110001.549000", "110001.551000", "110001.554000", "110001.556000", "110001.559000", "110001.561000", "110001.564000", "110001.566000", "110001.569000", "110001.571000", "110001.574000", "110001.576000", "110001.579000", "110001.581000", "110001.584000", "110001.586000", "110001.589000", "110001.592000", "110001.594000", "110041.496000", "110041.499000", "110041.501000", "110041.504000", "110041.506000", "110041.509000", "110041.511000", "110041.514000", "110041.516000", "110041.519000", "110041.521000", "110041.523000", "110041.526000", "110041.529000", "110041.531000", "110041.533000", "110041.536000", "110041.538000", "110041.541000", "110041.543000", "110041.546000", "110041.549000", "110041.551000", "110041.554000", "110041.556000", "110041.559000", "110122.002000", "110122.005000", "110122.008000", "110122.010000", "110122.013000", "110122.015000", "110122.018000", "110122.020000", "110122.023000", "110122.025000", "110122.028000", "110122.030000", "110122.033000", "110122.035000", "110122.038000", "110122.040000", "110122.043000", "110122.045000", "110122.048000", "110122.050000", "110122.053000", "110122.056000", "110122.058000", "110122.060000", "110122.063000", "110122.065000", "110122.068000", "110141.166000", "110141.169000", "110141.171000", "110141.174000", "110141.177000", "110141.179000", "110141.182000", "110141.184000", "110141.187000", "110141.189000", "110141.192000", "110141.195000", "110141.198000", "110141.200000"],
      "InstanceCreationTime": ["105801.467000", "105801.479000", "105801.481000", "105801.484000", "105801.487000", "105801.489000", "105801.491000", "105801.494000", "105801.496000", "105821.471000", "105821.474000", "105821.476000", "105821.479000", "105821.481000", "105821.483000", "105821.486000", "105821.493000", "105821.496000", "105821.498000", "105821.501000", "105821.503000", "105821.505000", "105821.508000", "105821.510000", "105821.513000", "105821.515000", "105821.518000", "105821.520000", "105821.523000", "105821.525000", "105841.498000", "105841.501000", "105841.504000", "105841.506000", "105841.509000", "105841.511000", "105841.513000", "105841.516000", "105841.519000", "105841.521000", "105841.523000", "105841.526000", "105841.528000", "105841.531000", "105841.533000", "105841.536000", "105841.538000", "105841.541000", "105841.543000", "105841.546000", "105901.475000", "105901.477000", "105901.480000", "105901.482000", "105901.485000", "105901.488000", "105901.490000", "105901.492000", "105901.495000", "105901.497000", "105901.500000", "105901.502000", "105901.505000", "105901.507000", "105901.510000", "105901.513000", "105901.516000", "105901.519000", "105901.522000", "105901.524000", "105921.468000", "105921.470000", "105921.473000", "105921.475000", "105921.478000", "105921.480000", "105921.483000", "105921.485000", "105921.488000", "105921.490000", "105921.493000", "105921.495000", "105921.511000", "105921.513000", "105921.516000", "105921.518000", "105921.521000", "105921.523000", "105921.526000", "105921.528000", "105921.531000", "110001.516000", "110001.519000", "110001.521000", "110001.524000", "110001.526000", "110001.529000", "110001.531000", "110001.534000", "110001.536000", "110001.539000", "110001.541000", "110001.544000", "110001.546000", "110001.549000", "110001.551000", "110001.554000", "110001.556000", "110001.559000", "110001.561000", "110001.564000", "110001.566000", "110001.569000", "110001.571000", "110001.574000", "110001.576000", "110001.579000", "110001.581000", "110001.584000", "110001.586000", "110001.589000", "110001.592000", "110001.594000", "110041.496000", "110041.499000", "110041.501000", "110041.504000", "110041.506000", "110041.509000", "110041.511000", "110041.514000", "110041.516000", "110041.519000", "110041.521000", "110041.523000", "110041.526000", "110041.529000", "110041.531000", "110041.533000", "110041.536000", "110041.538000", "110041.541000", "110041.543000", "110041.546000", "110041.549000", "110041.551000", "110041.554000", "110041.556000", "110041.559000", "110122.002000", "110122.005000", "110122.008000", "110122.010000", "110122.013000", "110122.015000", "110122.018000", "110122.020000", "110122.023000", "110122.025000", "110122.028000", "110122.030000", "110122.033000", "110122.035000", "110122.038000", "110122.040000", "110122.043000", "110122.045000", "110122.048000", "110122.050000", "110122.053000", "110122.056000", "110122.058000", "110122.060000", "110122.063000", "110122.065000", "110122.068000", "110141.166000", "110141.169000", "110141.171000", "110141.174000", "110141.177000", "110141.179000", "110141.182000", "110141.184000", "110141.187000", "110141.189000", "110141.192000", "110141.195000", "110141.198000", "110141.200000"],
      "InstanceNumber": [1, 2, 3, 4, 5, 6, 7, 8, 9, 10, 11, 12, 13, 14, 15, 16, 17, 18, 19, 20, 21, 22, 23, 24, 25, 26, 27, 28, 29, 30, 31, 32, 33, 34, 35, 36, 37, 38, 39, 40, 41, 42, 43, 44, 45, 46, 47, 48, 49, 50, 51, 52, 53, 54, 55, 56, 57, 58, 59, 60, 61, 62, 63, 64, 65, 66, 67, 68, 69, 70, 71, 72, 73, 74, 75, 76, 77, 78, 79, 80, 81, 82, 83, 84, 85, 86, 87, 88, 89, 90, 91, 92, 93, 94, 95, 96, 97, 98, 99, 100, 101, 102, 103, 104, 105, 106, 107, 108, 109, 110, 111, 112, 113, 114, 115, 116, 117, 118, 119, 120, 121, 122, 123, 124, 125, 126, 127, 128, 129, 130, 131, 132, 133, 134, 135, 136, 137, 138, 139, 140, 141, 142, 143, 144, 145, 146, 147, 148, 149, 150, 151, 152, 153, 154, 155, 156, 157, 158, 159, 160, 161, 162, 163, 164, 165, 166, 167, 168, 169, 170, 171, 172, 173, 174, 175, 176, 177, 178, 179, 180, 181, 182, 183, 184, 185, 186, 187, 188, 189, 190],
      "WindowCenter": [4888.0, 4912.0, 4890.0, 4914.0, 4930.0, 4936.0, 4914.0, 4892.0, 4866.0, 4892.0, 4924.0, 4928.0, 4914.0, 4890.0, 4892.0, 4868.0, 4864.0, 4892.0, 4890.0, 4892.0, 4912.0, 4914.0, 4910.0, 4922.0, 4896.0, 4908.0, 4864.0, 4866.0, 4862.0, 4866.0, 4866.0, 4914.0, 4932.0, 4936.0, 4932.0, 4912.0, 4892.0, 4888.0, 4910.0, 4894.0, 4890.0, 4912.0, 4930.0, 4912.0, 4890.0, 4866.0, 4864.0, 4914.0, 4912.0, 4890.0, 4934.0, 4912.0, 4890.0, 4912.0, 4890.0, 4886.0, 4868.0, 4890.0, 4914.0, 4894.0, 4912.0, 4914.0, 4892.0, 4888.0, 4914.0, 4890.0, 4914.0, 4918.0, 4912.0, 4914.0, 4890.0, 4934.0, 4936.0, 4892.0, 4892.0, 4866.0, 4932.0, 4928.0, 4936.0, 4912.0, 4890.0, 4842.0, 4866.0, 4868.0, 4890.0, 4890.0, 4932.0, 4850.0, 4924.0, 4888.0, 4864.0, 4864.0, 4840.0, 4862.0, 4890.0, 4912.0, 4890.0, 4930.0, 4934.0, 4934.0, 4914.0, 4890.0, 4864.0, 4890.0, 4926.0, 4930.0, 4912.0, 4888.0, 4888.0, 4866.0, 4866.0, 4890.0, 4890.0, 4912.0, 4912.0, 4914.0, 4890.0, 4888.0, 4912.0, 4890.0, 4912.0, 4912.0, 4892.0, 4912.0, 4890.0, 4914.0, 4912.0, 4892.0, 4888.0, 4886.0, 4912.0, 4890.0, 4912.0, 4914.0, 4890.0, 4910.0, 4890.0, 4888.0, 4866.0, 4886.0, 4888.0, 4912.0, 4914.0, 4910.0, 4890.0, 4932.0, 4910.0, 4888.0, 4910.0, 4888.0, 4912.0, 4886.0, 4890.0, 4890.0, 4890.0, 4910.0, 4890.0, 4914.0, 4910.0, 4890.0, 4888.0, 4864.0, 4910.0, 4924.0, 4910.0, 4912.0, 4910.0, 4866.0, 4888.0, 4892.0, 4866.0, 4888.0, 4912.0, 4912.0, 4934.0, 4916.0, 4890.0, 4890.0, 4912.0, 4890.0, 4890.0, 4910.0, 4890.0, 4912.0, 4910.0, 4892.0, 4912.0, 4888.0, 4890.0, 4890.0],
      "WindowWidth": [18648.0, 18678.0, 18644.0, 18676.0, 18736.0, 18732.0, 18676.0, 18624.0, 18594.0, 18638.0, 18758.0, 18758.0, 18678.0, 18646.0, 18648.0, 18600.0, 18590.0, 18648.0, 18638.0, 18634.0, 18678.0, 18682.0, 18684.0, 18754.0, 18730.0, 18702.0, 18590.0, 18598.0, 18594.0, 18596.0, 18598.0, 18688.0, 18742.0, 18744.0, 18738.0, 18688.0, 18644.0, 18630.0, 18688.0, 18648.0, 18628.0, 18700.0, 18744.0, 18690.0, 18654.0, 18598.0, 18594.0, 18692.0, 18676.0, 18626.0, 18724.0, 18690.0, 18636.0, 18688.0, 18640.0, 18636.0, 18592.0, 18630.0, 18678.0, 18636.0, 18692.0, 18686.0, 18640.0, 18618.0, 18686.0, 18634.0, 18682.0, 18670.0, 18682.0, 18692.0, 18638.0, 18728.0, 18728.0, 18644.0, 18630.0, 18592.0, 18754.0, 18752.0, 18736.0, 18682.0, 18636.0, 18554.0, 18594.0, 18598.0, 18636.0, 18632.0, 18746.0, 18686.0, 18758.0, 18648.0, 18596.0, 18590.0, 18562.0, 18590.0, 18644.0, 18674.0, 18636.0, 18736.0, 18754.0, 18730.0, 18674.0, 18630.0, 18588.0, 18644.0, 18750.0, 18752.0, 18682.0, 18624.0, 18632.0, 18584.0, 18598.0, 18632.0, 18626.0, 18690.0, 18698.0, 18688.0, 18634.0, 18646.0, 18680.0, 18624.0, 18680.0, 18680.0, 18638.0, 18688.0, 18640.0, 18686.0, 18674.0, 18640.0, 18626.0, 18628.0, 18690.0, 18640.0, 18694.0, 18680.0, 18640.0, 18672.0, 18628.0, 18644.0, 18596.0, 18642.0, 18628.0, 18682.0, 18690.0, 18680.0, 18632.0, 18730.0, 18678.0, 18636.0, 18682.0, 18628.0, 18680.0, 18634.0, 18642.0, 18640.0, 18636.0, 18688.0, 18638.0, 18684.0, 18684.0, 18634.0, 18634.0, 18594.0, 18684.0, 18754.0, 18690.0, 18680.0, 18684.0, 18596.0, 18628.0, 18630.0, 18594.0, 18634.0, 18682.0, 18682.0, 18732.0, 18686.0, 18644.0, 18630.0, 18672.0, 18642.0, 18632.0, 18690.0, 18638.0, 18680.0, 18688.0, 18636.0, 18672.0, 18644.0, 18630.0, 18648.0]
    },
    "slices": {}
  }
}