{
  "AcquisitionMatrixPE": 104,
  "AcquisitionNumber": 1,
  "AcquisitionTime": "11:24:57.340000",
  "BandwidthPerPixelPhaseEncode": 17.17,
  "BaseResolution": 104,
  "BodyPartExamined": "BRAIN",
  "CoilString": "HC1-7;NC1_2",
  "ConsistencyInfo": "N4_VE11C_LATEST_20160120",
  "ConversionSoftware": "dcm2niix",
  "ConversionSoftwareVersion": "v1.0.20190902",
  "DerivedVendorReportedEchoSpacing": 0.000560011,
  "DeviceSerialNumber": "167006",
  "DwellTime": 2.1e-06,
  "EchoTime": 0.037,
  "EchoTrainLength": 104,
  "EffectiveEchoSpacing": 0.000560011,
  "FlipAngle": 52,
  "ImageComments": "Unaliased_MB4_PE3_LB",
  "ImageOrientationPatientDICOM": [0.999193, -0.0211978, 0.0341175, 0.0352417, 0.870189, -0.491456],
  "ImageType": [
    "ORIGINAL",
    "PRIMARY",
    "M",
    "MB",
    "ND",
    "MOSAIC"
],
  "ImagingFrequency": 123.259,
  "InPlanePhaseEncodingDirectionDICOM": "COL",
  "InstitutionAddress": "Chemin_Queen-Mary_4565_Montreal_District_CA_H3W_1W5",
  "InstitutionName": "IUGM",
  "InstitutionalDepartmentName": "Department",
  "MRAcquisitionType": "2D",
  "MagneticFieldStrength": 3,
  "Manufacturer": "Siemens",
  "ManufacturersModelName": "Prisma_fit",
  "Modality": "MR",
  "MultibandAccelerationFactor": 4,
  "PartialFourier": 1,
  "PatientPosition": "HFS",
  "PercentPhaseFOV": 100,
  "PhaseEncodingDirection": "j",
  "PhaseEncodingSteps": 104,
  "PhaseResolution": 1,
  "PixelBandwidth": 2290,
  "ProcedureStepDescription": "memory_things",
  "ProtocolName": "func_task-things_run-6",
  "PulseSequenceDetails": "%CustomerSeq%_cmrr_mbep2d_bold",
  "ReceiveCoilActiveElements": "HC1-7;NC1,2",
  "ReceiveCoilName": "HeadNeck_64",
  "ReconMatrixPE": 104,
  "RepetitionTime": 1.49,
  "SAR": 0.0462303,
  "ScanOptions": "FS",
  "ScanningSequence": "EP",
  "SequenceName": "epfid2d1_104",
  "SequenceVariant": "SK_SS",
  "SeriesDescription": "func_task-things_run-6",
  "SeriesNumber": 25,
  "ShimSetting": [618, -7181, -8861, 295, -20, -131, -26, -8],
  "SliceThickness": 2,
  "SliceTiming": [0, 0.7825, 0.0975, 0.8825, 0.195, 0.98, 0.2925, 1.0775, 0.3925, 1.175, 0.49, 1.2725, 0.5875, 1.3725, 0.685, 0, 0.7825, 0.0975, 0.8825, 0.195, 0.98, 0.2925, 1.0775, 0.3925, 1.175, 0.49, 1.2725, 0.5875, 1.3725, 0.685, 0, 0.7825, 0.0975, 0.8825, 0.195, 0.98, 0.2925, 1.0775, 0.3925, 1.175, 0.49, 1.2725, 0.5875, 1.3725, 0.685, 0, 0.7825, 0.0975, 0.8825, 0.195, 0.98, 0.2925, 1.0775, 0.3925, 1.175, 0.49, 1.2725, 0.5875, 1.3725, 0.685],
  "SoftwareVersions": "syngo_MR_E11",
  "SpacingBetweenSlices": 2,
  "StationName": "MRC35049",
  "TaskName": "things",
  "TotalReadoutTime": 0.0576811,
  "TxRefAmp": 267.62,
  "WipMemBlock": "db565410-6e7e-4b41-a57f-f33e32f80522||Sequence: R016 ve11c/master r/e634e98; Dec 19 2017 11:00:25 by eja",
  "dcmmeta_affine": [
    [-1.998386025428772, 0.07048349827528, 0.03854168578982353, 102.95903015136719],
    [0.042395543307065964, 1.7403775453567505, -0.9845244884490967, -55.32969284057617],
    [0.06823490560054779, 0.9829129576683044, 1.7404671907424927, -95.05342864990234],
    [0.0, 0.0, 0.0, 1.0]
],
  "dcmmeta_reorient_transform": [
    [0.0, -1.0, 0.0, 103.0],
    [1.0, 0.0, 0.0, 0.0],
    [0.0, 0.0, 1.0, 0.0],
    [0.0, 0.0, 0.0, 1.0]
],
  "dcmmeta_shape": [104, 104, 60, 190],
  "dcmmeta_slice_dim": 2,
  "dcmmeta_version": 0.6,
  "global": {
    "const": {
      "AcquisitionMatrix": [104, 0, 0, 104],
      "AngioFlag": "N",
      "BitsAllocated": 16,
      "BitsStored": 16,
      "BodyPartExamined": "BRAIN",
      "Columns": 832,
      "EchoNumbers": 1,
      "EchoTime": 37.0,
      "EchoTrainLength": 104,
      "FlipAngle": 52.0,
      "HighBit": 15,
      "ImageOrientationPatient": [0.99919300129157, -0.0211977718493, 0.03411745357687, 0.03524174737614, 0.87018879881148, -0.4914564819645],
      "ImagePositionPatient": [-863.28732394963, -741.99466681776, 339.12941603988],
      "ImageType": [
        "ORIGINAL",
        "PRIMARY",
        "M",
        "MB",
        "ND",
        "MOSAIC"
],
      "ImagedNucleus": "1H",
      "ImagingFrequency": 123.258904,
      "InPlanePhaseEncodingDirection": "COL",
      "MRAcquisitionType": "2D",
      "MagneticFieldStrength": 3.0,
      "Manufacturer": "SIEMENS",
      "ManufacturerModelName": "Prisma_fit",
      "Modality": "MR",
      "NumberOfAverages": 1.0,
      "NumberOfPhaseEncodingSteps": 104,
      "PercentPhaseFieldOfView": 100.0,
      "PercentSampling": 100.0,
      "PerformedProcedureStepStartTime": "102246.503000",
      "PhotometricInterpretation": "MONOCHROME2",
      "PixelBandwidth": 2290.0,
      "PixelRepresentation": 0,
      "PixelSpacing": [2.0, 2.0],
      "ProtocolName": "func_task-things_run-6",
      "RepetitionTime": 1490.0,
      "Rows": 832,
      "SAR": 0.04623029582984,
      "SamplesPerPixel": 1,
      "ScanOptions": "FS",
      "ScanningSequence": "EP",
      "SequenceName": "epfid2d1_104",
      "SequenceVariant": [
        "SK",
        "SS"
],
      "SeriesDescription": "func_task-things_run-6",
      "SeriesNumber": 25,
      "SeriesTime": "112621.314000",
      "SliceLocation": -53.49786476321,
      "SliceThickness": 2.0,
      "SmallestImagePixelValue": 0,
      "SoftwareVersions": "syngo MR E11",
      "SpacingBetweenSlices": 1.9999999830767,
      "SpecificCharacterSet": "ISO_IR 100",
      "StudyID": "1",
      "StudyTime": "102246.421000",
      "TransmitCoilName": "Body",
      "VariableFlipAngleFlag": "N",
      "WindowCenterWidthExplanation": "Algo1",
      "dBdt": 0.0},
    "slices": {}
  },
  "time": {
    "samples": {
      "AcquisitionNumber": [1, 2, 3, 4, 5, 6, 7, 8, 9, 10, 11, 12, 13, 14, 15, 16, 17, 18, 19, 20, 21, 22, 23, 24, 25, 26, 27, 28, 29, 30, 31, 32, 33, 34, 35, 36, 37, 38, 39, 40, 41, 42, 43, 44, 45, 46, 47, 48, 49, 50, 51, 52, 53, 54, 55, 56, 57, 58, 59, 60, 61, 62, 63, 64, 65, 66, 67, 68, 69, 70, 71, 72, 73, 74, 75, 76, 77, 78, 79, 80, 81, 82, 83, 84, 85, 86, 87, 88, 89, 90, 91, 92, 93, 94, 95, 96, 97, 98, 99, 100, 101, 102, 103, 104, 105, 106, 107, 108, 109, 110, 111, 112, 113, 114, 115, 116, 117, 118, 119, 120, 121, 122, 123, 124, 125, 126, 127, 128, 129, 130, 131, 132, 133, 134, 135, 136, 137, 138, 139, 140, 141, 142, 143, 144, 145, 146, 147, 148, 149, 150, 151, 152, 153, 154, 155, 156, 157, 158, 159, 160, 161, 162, 163, 164, 165, 166, 167, 168, 169, 170, 171, 172, 173, 174, 175, 176, 177, 178, 179, 180, 181, 182, 183, 184, 185, 186, 187, 188, 189, 190],
      "AcquisitionTime": ["112457.340000", "112458.830000", "112500.320000", "112501.810000", "112503.300000", "112504.790000", "112506.280000", "112507.770000", "112509.260000", "112510.750000", "112512.240000", "112513.730000", "112515.220000", "112516.710000", "112518.200000", "112519.690000", "112521.180000", "112522.670000", "112524.160000", "112525.650000", "112527.140000", "112528.630000", "112530.120000", "112531.610000", "112533.100000", "112534.590000", "112536.080000", "112537.570000", "112539.060000", "112540.550000", "112542.040000", "112543.530000", "112545.020000", "112546.510000", "112548.000000", "112549.490000", "112550.980000", "112552.470000", "112553.960000", "112555.450000", "112556.940000", "112558.430000", "112559.920000", "112601.410000", "112602.900000", "112604.390000", "112605.880000", "112607.370000", "112608.860000", "112610.350000", "112611.840000", "112613.330000", "112614.820000", "112616.310000", "112617.800000", "112619.290000", "112620.780000", "112622.270000", "112623.760000", "112625.250000", "112626.740000", "112628.230000", "112629.720000", "112631.210000", "112632.700000", "112634.190000", "112635.680000", "112637.170000", "112638.660000", "112640.150000", "112641.640000", "112643.130000", "112644.620000", "112646.110000", "112647.600000", "112649.090000", "112650.580000", "112652.070000", "112653.560000", "112655.050000", "112656.540000", "112658.030000", "112659.520000", "112701.010000", "112702.500000", "112703.990000", "112705.480000", "112706.970000", "112708.460000", "112709.950000", "112711.440000", "112712.930000", "112714.420000", "112715.910000", "112717.400000", "112718.890000", "112720.380000", "112721.870000", "112723.360000", "112724.850000", "112726.340000", "112727.830000", "112729.320000", "112730.810000", "112732.300000", "112733.790000", "112735.280000", "112736.770000", "112738.260000", "112739.750000", "112741.240000", "112742.730000", "112744.220000", "112745.710000", "112747.200000", "112748.690000", "112750.180000", "112751.670000", "112753.160000", "112754.650000", "112756.140000", "112757.630000", "112759.120000", "112800.610000", "112802.100000", "112803.590000", "112805.080000", "112806.570000", "112808.060000", "112809.550000", "112811.040000", "112812.530000", "112814.020000", "112815.510000", "112817.000000", "112818.490000", "112819.980000", "112821.470000", "112822.960000", "112824.450000", "112825.940000", "112827.430000", "112828.920000", "112830.410000", "112831.900000", "112833.390000", "112834.880000", "112836.370000", "112837.860000", "112839.350000", "112840.840000", "112842.330000", "112843.820000", "112845.310000", "112846.800000", "112848.290000", "112849.780000", "112851.270000", "112852.760000", "112854.250000", "112855.740000", "112857.230000", "112858.720000", "112900.210000", "112901.700000", "112903.190000", "112904.680000", "112906.170000", "112907.660000", "112909.150000", "112910.640000", "112912.130000", "112913.620000", "112915.110000", "112916.600000", "112918.090000", "112919.580000", "112921.070000", "112922.560000", "112924.050000", "112925.540000", "112927.030000", "112928.520000", "112930.010000", "112931.500000", "112932.990000", "112934.480000", "112935.970000", "112937.460000", "112938.950000"],
      "ContentTime": ["112621.317000", "112621.321000", "112621.324000", "112621.327000", "112621.330000", "112621.334000", "112621.337000", "112621.340000", "112621.344000", "112621.347000", "112621.350000", "112621.353000", "112621.365000", "112621.368000", "112621.371000", "112621.374000", "112621.378000", "112621.381000", "112621.384000", "112621.388000", "112621.391000", "112621.394000", "112621.397000", "112621.401000", "112621.404000", "112621.407000", "112621.411000", "112621.414000", "112621.417000", "112641.275000", "112641.279000", "112641.282000", "112641.285000", "112641.289000", "112641.292000", "112641.295000", "112641.298000", "112641.302000", "112641.305000", "112641.308000", "112641.312000", "112641.315000", "112641.318000", "112641.321000", "112641.325000", "112641.328000", "112641.331000", "112641.334000", "112641.338000", "112701.275000", "112701.279000", "112701.283000", "112701.289000", "112701.292000", "112701.296000", "112701.300000", "112701.323000", "112701.326000", "112701.330000", "112701.333000", "112701.336000", "112701.340000", "112701.343000", "112701.346000", "112701.349000", "112701.353000", "112701.356000", "112701.359000", "112701.363000", "112721.274000", "112721.278000", "112721.281000", "112721.284000", "112721.288000", "112721.291000", "112721.294000", "112721.298000", "112721.301000", "112721.304000", "112721.307000", "112721.311000", "112721.314000", "112721.317000", "112721.320000", "112721.324000", "112721.327000", "112721.330000", "112721.334000", "112721.337000", "112721.340000", "112801.275000", "112801.279000", "112801.282000", "112801.286000", "112801.289000", "112801.292000", "112801.295000", "112801.299000", "112801.303000", "112801.306000", "112801.309000", "112801.313000", "112801.316000", "112801.319000", "112801.322000", "112801.326000", "112801.329000", "112801.332000", "112801.335000", "112801.339000", "112801.342000", "112801.345000", "112801.349000", "112801.352000", "112801.355000", "112801.359000", "112801.362000", "112801.365000", "112801.368000", "112801.372000", "112801.375000", "112801.378000", "112801.382000", "112841.275000", "112841.279000", "112841.282000", "112841.286000", "112841.289000", "112841.292000", "112841.296000", "112841.299000", "112841.302000", "112841.306000", "112841.309000", "112841.312000", "112841.315000", "112841.319000", "112841.322000", "112841.327000", "112841.332000", "112841.335000", "112841.339000", "112841.344000", "112841.349000", "112841.352000", "112841.356000", "112841.360000", "112841.363000", "112841.367000", "112921.275000", "112921.279000", "112921.282000", "112921.285000", "112921.289000", "112921.292000", "112921.295000", "112921.299000", "112921.302000", "112921.305000", "112921.308000", "112921.312000", "112921.315000", "112921.318000", "112921.322000", "112921.325000", "112921.328000", "112921.331000", "112921.335000", "112921.338000", "112921.341000", "112921.344000", "112921.348000", "112921.351000", "112921.354000", "112921.358000", "112921.361000", "112941.015000", "112941.018000", "112941.022000", "112941.025000", "112941.028000", "112941.031000", "112941.035000", "112941.038000", "112941.041000", "112941.045000", "112941.048000", "112941.051000", "112941.055000", "112941.069000"],
      "InstanceCreationTime": ["112621.317000", "112621.321000", "112621.324000", "112621.327000", "112621.330000", "112621.334000", "112621.337000", "112621.340000", "112621.344000", "112621.347000", "112621.350000", "112621.353000", "112621.365000", "112621.368000", "112621.371000", "112621.374000", "112621.378000", "112621.381000", "112621.384000", "112621.388000", "112621.391000", "112621.394000", "112621.397000", "112621.401000", "112621.404000", "112621.407000", "112621.411000", "112621.414000", "112621.417000", "112641.275000", "112641.279000", "112641.282000", "112641.285000", "112641.289000", "112641.292000", "112641.295000", "112641.298000", "112641.302000", "112641.305000", "112641.308000", "112641.312000", "112641.315000", "112641.318000", "112641.321000", "112641.325000", "112641.328000", "112641.331000", "112641.334000", "112641.338000", "112701.275000", "112701.279000", "112701.283000", "112701.289000", "112701.292000", "112701.296000", "112701.300000", "112701.323000", "112701.326000", "112701.330000", "112701.333000", "112701.336000", "112701.340000", "112701.343000", "112701.346000", "112701.349000", "112701.353000", "112701.356000", "112701.359000", "112701.363000", "112721.274000", "112721.278000", "112721.281000", "112721.284000", "112721.288000", "112721.291000", "112721.294000", "112721.298000", "112721.301000", "112721.304000", "112721.307000", "112721.311000", "112721.314000", "112721.317000", "112721.320000", "112721.324000", "112721.327000", "112721.330000", "112721.334000", "112721.337000", "112721.340000", "112801.275000", "112801.279000", "112801.282000", "112801.286000", "112801.289000", "112801.292000", "112801.295000", "112801.299000", "112801.303000", "112801.306000", "112801.309000", "112801.313000", "112801.316000", "112801.319000", "112801.322000", "112801.326000", "112801.329000", "112801.332000", "112801.335000", "112801.339000", "112801.342000", "112801.345000", "112801.349000", "112801.352000", "112801.355000", "112801.359000", "112801.362000", "112801.365000", "112801.368000", "112801.372000", "112801.375000", "112801.378000", "112801.382000", "112841.275000", "112841.279000", "112841.282000", "112841.286000", "112841.289000", "112841.292000", "112841.296000", "112841.299000", "112841.302000", "112841.306000", "112841.309000", "112841.312000", "112841.315000", "112841.319000", "112841.322000", "112841.327000", "112841.332000", "112841.335000", "112841.339000", "112841.344000", "112841.349000", "112841.352000", "112841.356000", "112841.360000", "112841.363000", "112841.367000", "112921.275000", "112921.279000", "112921.282000", "112921.285000", "112921.289000", "112921.292000", "112921.295000", "112921.299000", "112921.302000", "112921.305000", "112921.308000", "112921.312000", "112921.315000", "112921.318000", "112921.322000", "112921.325000", "112921.328000", "112921.331000", "112921.335000", "112921.338000", "112921.341000", "112921.344000", "112921.348000", "112921.351000", "112921.354000", "112921.358000", "112921.361000", "112941.015000", "112941.018000", "112941.022000", "112941.025000", "112941.028000", "112941.031000", "112941.035000", "112941.038000", "112941.041000", "112941.045000", "112941.048000", "112941.051000", "112941.055000", "112941.069000"],
      "InstanceNumber": [1, 2, 3, 4, 5, 6, 7, 8, 9, 10, 11, 12, 13, 14, 15, 16, 17, 18, 19, 20, 21, 22, 23, 24, 25, 26, 27, 28, 29, 30, 31, 32, 33, 34, 35, 36, 37, 38, 39, 40, 41, 42, 43, 44, 45, 46, 47, 48, 49, 50, 51, 52, 53, 54, 55, 56, 57, 58, 59, 60, 61, 62, 63, 64, 65, 66, 67, 68, 69, 70, 71, 72, 73, 74, 75, 76, 77, 78, 79, 80, 81, 82, 83, 84, 85, 86, 87, 88, 89, 90, 91, 92, 93, 94, 95, 96, 97, 98, 99, 100, 101, 102, 103, 104, 105, 106, 107, 108, 109, 110, 111, 112, 113, 114, 115, 116, 117, 118, 119, 120, 121, 122, 123, 124, 125, 126, 127, 128, 129, 130, 131, 132, 133, 134, 135, 136, 137, 138, 139, 140, 141, 142, 143, 144, 145, 146, 147, 148, 149, 150, 151, 152, 153, 154, 155, 156, 157, 158, 159, 160, 161, 162, 163, 164, 165, 166, 167, 168, 169, 170, 171, 172, 173, 174, 175, 176, 177, 178, 179, 180, 181, 182, 183, 184, 185, 186, 187, 188, 189, 190],
      "LargestImagePixelValue": [45715, 45390, 44307, 43783, 43655, 42858, 43259, 44544, 43926, 43408, 43524, 43457, 43140, 43060, 44179, 42814, 44646, 45618, 45391, 45356, 44085, 44276, 45041, 44716, 44355, 44914, 44264, 44182, 44539, 43849, 44899, 44831, 44828, 44676, 45496, 44888, 45105, 45306, 45116, 44591, 44842, 45190, 44740, 45103, 44975, 45288, 44827, 44377, 44597, 44894, 45120, 45120, 45210, 45157, 45304, 44706, 45476, 45438, 44771, 44883, 45444, 45209, 44827, 44842, 44396, 44642, 44737, 44671, 45400, 45292, 45351, 45434, 45060, 45208, 45176, 44673, 44512, 44210, 45699, 44724, 45449, 45211, 45121, 45397, 45163, 44673, 44790, 44458, 44710, 44931, 44386, 45044, 45493, 45408, 45003, 44788, 44912, 45311, 45435, 45365, 45246, 44749, 45281, 44861, 45275, 44465, 45726, 45358, 45351, 44950, 44793, 44837, 45289, 45313, 45000, 44139, 44240, 43889, 45707, 44874, 44949, 45289, 44742, 43988, 45226, 43683, 44029, 44434, 43923, 43476, 44033, 43620, 44474, 44782, 42909, 44384, 43662, 43759, 44412, 43211, 43218, 44597, 43540, 43521, 44305, 44609, 44667, 44684, 44722, 45645, 45304, 43779, 43653, 44551, 45108, 44972, 44759, 44026, 44112, 44392, 44668, 44782, 44790, 45917, 44368, 44394, 44837, 45010, 44629, 44863, 44156, 44405, 44314, 44462, 44588, 44702, 44588, 44230, 44563, 44783, 44487, 44266, 44690, 44444, 45347, 43843, 42703, 42422, 42833, 44551],
      "WindowCenter": [11093.0, 11033.0, 11000.0, 11007.0, 11004.0, 10990.0, 10989.0, 10998.0, 10993.0, 10985.0, 10975.0, 10962.0, 10978.0, 10996.0, 11009.0, 11021.0, 11058.0, 11032.0, 11036.0, 11036.0, 11004.0, 10998.0, 10991.0, 10996.0, 11006.0, 11018.0, 10989.0, 10973.0, 10955.0, 10945.0, 10947.0, 10962.0, 10973.0, 10982.0, 10998.0, 11000.0, 11018.0, 11014.0, 11000.0, 10985.0, 11004.0, 11034.0, 11041.0, 11023.0, 10992.0, 10980.0, 10992.0, 11000.0, 11009.0, 10989.0, 10969.0, 10957.0, 10956.0, 10973.0, 11006.0, 11015.0, 11038.0, 11025.0, 10996.0, 10983.0, 11004.0, 11026.0, 11019.0, 11013.0, 11006.0, 10999.0, 10989.0, 10981.0, 10985.0, 10982.0, 10983.0, 10988.0, 10995.0, 10995.0, 10990.0, 10984.0, 10989.0, 10992.0, 11008.0, 10997.0, 10992.0, 10995.0, 10989.0, 10996.0, 11007.0, 11005.0, 10999.0, 10988.0, 10976.0, 10958.0, 10945.0, 10954.0, 10968.0, 10963.0, 10953.0, 10948.0, 10951.0, 10970.0, 10997.0, 10992.0, 10967.0, 10959.0, 10977.0, 10981.0, 10984.0, 10975.0, 10970.0, 10953.0, 10952.0, 10949.0, 10950.0, 10961.0, 10978.0, 10976.0, 11002.0, 10978.0, 10963.0, 10927.0, 10943.0, 10951.0, 10961.0, 10961.0, 10957.0, 10952.0, 10940.0, 10915.0, 10920.0, 10936.0, 10941.0, 10938.0, 10940.0, 10937.0, 10944.0, 10949.0, 10933.0, 10952.0, 10930.0, 10941.0, 10957.0, 10938.0, 10939.0, 10957.0, 10947.0, 10938.0, 10931.0, 10938.0, 10947.0, 10968.0, 10958.0, 10970.0, 10962.0, 10946.0, 10934.0, 10933.0, 10939.0, 10969.0, 10990.0, 10968.0, 10952.0, 10952.0, 10942.0, 10942.0, 10943.0, 10961.0, 10968.0, 10987.0, 10972.0, 10945.0, 10940.0, 10958.0, 10974.0, 10982.0, 10966.0, 10955.0, 10945.0, 10948.0, 10942.0, 10957.0, 10960.0, 10960.0, 10942.0, 10919.0, 10950.0, 10961.0, 10975.0, 10965.0, 10955.0, 10910.0, 10864.0, 10849.0],
      "WindowWidth": [23905.0, 23727.0, 23637.0, 23638.0, 23632.0, 23599.0, 23595.0, 23607.0, 23596.0, 23575.0, 23562.0, 23527.0, 23560.0, 23606.0, 23632.0, 23666.0, 23748.0, 23678.0, 23690.0, 23684.0, 23622.0, 23602.0, 23583.0, 23585.0, 23611.0, 23639.0, 23574.0, 23536.0, 23495.0, 23472.0, 23474.0, 23510.0, 23536.0, 23560.0, 23594.0, 23596.0, 23636.0, 23632.0, 23599.0, 23566.0, 23604.0, 23671.0, 23691.0, 23654.0, 23579.0, 23549.0, 23577.0, 23597.0, 23629.0, 23573.0, 23524.0, 23498.0, 23503.0, 23533.0, 23609.0, 23633.0, 23683.0, 23657.0, 23594.0, 23562.0, 23605.0, 23660.0, 23644.0, 23632.0, 23610.0, 23595.0, 23572.0, 23555.0, 23558.0, 23550.0, 23557.0, 23565.0, 23583.0, 23585.0, 23575.0, 23559.0, 23572.0, 23579.0, 23611.0, 23592.0, 23575.0, 23589.0, 23574.0, 23589.0, 23615.0, 23616.0, 23602.0, 23573.0, 23541.0, 23502.0, 23474.0, 23490.0, 23517.0, 23512.0, 23490.0, 23478.0, 23489.0, 23528.0, 23591.0, 23585.0, 23526.0, 23506.0, 23540.0, 23551.0, 23560.0, 23541.0, 23526.0, 23487.0, 23483.0, 23484.0, 23484.0, 23517.0, 23550.0, 23539.0, 23609.0, 23561.0, 23519.0, 23439.0, 23461.0, 23484.0, 23508.0, 23503.0, 23495.0, 23492.0, 23456.0, 23409.0, 23422.0, 23454.0, 23467.0, 23464.0, 23464.0, 23458.0, 23480.0, 23484.0, 23455.0, 23501.0, 23447.0, 23471.0, 23510.0, 23467.0, 23472.0, 23511.0, 23485.0, 23464.0, 23442.0, 23454.0, 23472.0, 23523.0, 23494.0, 23521.0, 23508.0, 23483.0, 23456.0, 23455.0, 23452.0, 23520.0, 23578.0, 23522.0, 23481.0, 23495.0, 23461.0, 23461.0, 23467.0, 23503.0, 23522.0, 23571.0, 23535.0, 23468.0, 23459.0, 23499.0, 23535.0, 23554.0, 23519.0, 23491.0, 23470.0, 23476.0, 23464.0, 23505.0, 23505.0, 23506.0, 23466.0, 23414.0, 23477.0, 23499.0, 23541.0, 23517.0, 23523.0, 23422.0, 23310.0, 23257.0]
    },
    "slices": {}
  }
}