{
  "AcquisitionMatrixPE": 104,
  "AcquisitionNumber": 1,
  "AcquisitionTime": "10:56:56.815000",
  "BandwidthPerPixelPhaseEncode": 17.17,
  "BaseResolution": 104,
  "BodyPartExamined": "BRAIN",
  "CoilString": "HC1-7;NC1_2",
  "ConsistencyInfo": "N4_VE11C_LATEST_20160120",
  "ConversionSoftware": "dcm2niix",
  "ConversionSoftwareVersion": "v1.0.20190902",
  "DerivedVendorReportedEchoSpacing": 0.000560011,
  "DeviceSerialNumber": "167006",
  "DwellTime": 2.1e-06,
  "EchoTime": 0.037,
  "EchoTrainLength": 104,
  "EffectiveEchoSpacing": 0.000560011,
  "FlipAngle": 52,
  "ImageComments": "Unaliased_MB4_PE3_LB",
  "ImageOrientationPatientDICOM": [0.999193, -0.0211978, 0.0341175, 0.0352417, 0.870189, -0.491456],
  "ImageType": [
    "ORIGINAL",
    "PRIMARY",
    "M",
    "MB",
    "ND",
    "MOSAIC"
],
  "ImagingFrequency": 123.259,
  "InPlanePhaseEncodingDirectionDICOM": "COL",
  "InstitutionAddress": "Chemin_Queen-Mary_4565_Montreal_District_CA_H3W_1W5",
  "InstitutionName": "IUGM",
  "InstitutionalDepartmentName": "Department",
  "MRAcquisitionType": "2D",
  "MagneticFieldStrength": 3,
  "Manufacturer": "Siemens",
  "ManufacturersModelName": "Prisma_fit",
  "Modality": "MR",
  "MultibandAccelerationFactor": 4,
  "PartialFourier": 1,
  "PatientPosition": "HFS",
  "PercentPhaseFOV": 100,
  "PhaseEncodingDirection": "j",
  "PhaseEncodingSteps": 104,
  "PhaseResolution": 1,
  "PixelBandwidth": 2290,
  "ProcedureStepDescription": "memory_things",
  "ProtocolName": "func_task-things_run-2",
  "PulseSequenceDetails": "%CustomerSeq%_cmrr_mbep2d_bold",
  "ReceiveCoilActiveElements": "HC1-7;NC1,2",
  "ReceiveCoilName": "HeadNeck_64",
  "ReconMatrixPE": 104,
  "RepetitionTime": 1.49,
  "SAR": 0.0462303,
  "ScanOptions": "FS",
  "ScanningSequence": "EP",
  "SequenceName": "epfid2d1_104",
  "SequenceVariant": "SK_SS",
  "SeriesDescription": "func_task-things_run-2",
  "SeriesNumber": 13,
  "ShimSetting": [618, -7181, -8861, 295, -20, -131, -26, -8],
  "SliceThickness": 2,
  "SliceTiming": [0, 0.785, 0.0975, 0.8825, 0.1975, 0.98, 0.295, 1.0775, 0.3925, 1.1775, 0.49, 1.275, 0.5875, 1.3725, 0.6875, 0, 0.785, 0.0975, 0.8825, 0.1975, 0.98, 0.295, 1.0775, 0.3925, 1.1775, 0.49, 1.275, 0.5875, 1.3725, 0.6875, 0, 0.785, 0.0975, 0.8825, 0.1975, 0.98, 0.295, 1.0775, 0.3925, 1.1775, 0.49, 1.275, 0.5875, 1.3725, 0.6875, 0, 0.785, 0.0975, 0.8825, 0.1975, 0.98, 0.295, 1.0775, 0.3925, 1.1775, 0.49, 1.275, 0.5875, 1.3725, 0.6875],
  "SoftwareVersions": "syngo_MR_E11",
  "SpacingBetweenSlices": 2,
  "StationName": "MRC35049",
  "TaskName": "things",
  "TotalReadoutTime": 0.0576811,
  "TxRefAmp": 267.62,
  "WipMemBlock": "b065572c-4fe1-41b3-8539-c036ab605cb7||Sequence: R016 ve11c/master r/e634e98; Dec 19 2017 11:00:25 by eja",
  "dcmmeta_affine": [
    [-1.998386025428772, 0.07048349827528, 0.03854168578982353, 102.95903015136719],
    [0.042395543307065964, 1.7403775453567505, -0.9845244884490967, -55.32969284057617],
    [0.06823490560054779, 0.9829129576683044, 1.7404671907424927, -95.05342864990234],
    [0.0, 0.0, 0.0, 1.0]
],
  "dcmmeta_reorient_transform": [
    [0.0, -1.0, 0.0, 103.0],
    [1.0, 0.0, 0.0, 0.0],
    [0.0, 0.0, 1.0, 0.0],
    [0.0, 0.0, 0.0, 1.0]
],
  "dcmmeta_shape": [104, 104, 60, 190],
  "dcmmeta_slice_dim": 2,
  "dcmmeta_version": 0.6,
  "global": {
    "const": {
      "AcquisitionMatrix": [104, 0, 0, 104],
      "AngioFlag": "N",
      "BitsAllocated": 16,
      "BitsStored": 16,
      "BodyPartExamined": "BRAIN",
      "Columns": 832,
      "EchoNumbers": 1,
      "EchoTime": 37.0,
      "EchoTrainLength": 104,
      "FlipAngle": 52.0,
      "HighBit": 15,
      "ImageOrientationPatient": [0.99919300129157, -0.0211977718493, 0.03411745357687, 0.03524174737614, 0.87018879881148, -0.4914564819645],
      "ImagePositionPatient": [-863.28732394963, -741.99466681776, 339.12941603988],
      "ImageType": [
        "ORIGINAL",
        "PRIMARY",
        "M",
        "MB",
        "ND",
        "MOSAIC"
],
      "ImagedNucleus": "1H",
      "ImagingFrequency": 123.258892,
      "InPlanePhaseEncodingDirection": "COL",
      "MRAcquisitionType": "2D",
      "MagneticFieldStrength": 3.0,
      "Manufacturer": "SIEMENS",
      "ManufacturerModelName": "Prisma_fit",
      "Modality": "MR",
      "NumberOfAverages": 1.0,
      "NumberOfPhaseEncodingSteps": 104,
      "PercentPhaseFieldOfView": 100.0,
      "PercentSampling": 100.0,
      "PerformedProcedureStepStartTime": "102246.503000",
      "PhotometricInterpretation": "MONOCHROME2",
      "PixelBandwidth": 2290.0,
      "PixelRepresentation": 0,
      "PixelSpacing": [2.0, 2.0],
      "ProtocolName": "func_task-things_run-2",
      "RepetitionTime": 1490.0,
      "Rows": 832,
      "SAR": 0.04623029582984,
      "SamplesPerPixel": 1,
      "ScanOptions": "FS",
      "ScanningSequence": "EP",
      "SequenceName": "epfid2d1_104",
      "SequenceVariant": [
        "SK",
        "SS"
],
      "SeriesDescription": "func_task-things_run-2",
      "SeriesNumber": 13,
      "SeriesTime": "105801.392000",
      "SliceLocation": -53.49786476321,
      "SliceThickness": 2.0,
      "SmallestImagePixelValue": 0,
      "SoftwareVersions": "syngo MR E11",
      "SpacingBetweenSlices": 1.9999999830767,
      "SpecificCharacterSet": "ISO_IR 100",
      "StudyID": "1",
      "StudyTime": "102246.421000",
      "TransmitCoilName": "Body",
      "VariableFlipAngleFlag": "N",
      "WindowCenterWidthExplanation": "Algo1",
      "dBdt": 0.0},
    "slices": {}
  },
  "time": {
    "samples": {
      "AcquisitionNumber": [1, 2, 3, 4, 5, 6, 7, 8, 9, 10, 11, 12, 13, 14, 15, 16, 17, 18, 19, 20, 21, 22, 23, 24, 25, 26, 27, 28, 29, 30, 31, 32, 33, 34, 35, 36, 37, 38, 39, 40, 41, 42, 43, 44, 45, 46, 47, 48, 49, 50, 51, 52, 53, 54, 55, 56, 57, 58, 59, 60, 61, 62, 63, 64, 65, 66, 67, 68, 69, 70, 71, 72, 73, 74, 75, 76, 77, 78, 79, 80, 81, 82, 83, 84, 85, 86, 87, 88, 89, 90, 91, 92, 93, 94, 95, 96, 97, 98, 99, 100, 101, 102, 103, 104, 105, 106, 107, 108, 109, 110, 111, 112, 113, 114, 115, 116, 117, 118, 119, 120, 121, 122, 123, 124, 125, 126, 127, 128, 129, 130, 131, 132, 133, 134, 135, 136, 137, 138, 139, 140, 141, 142, 143, 144, 145, 146, 147, 148, 149, 150, 151, 152, 153, 154, 155, 156, 157, 158, 159, 160, 161, 162, 163, 164, 165, 166, 167, 168, 169, 170, 171, 172, 173, 174, 175, 176, 177, 178, 179, 180, 181, 182, 183, 184, 185, 186, 187, 188, 189, 190],
      "AcquisitionTime": ["105656.815000", "105658.305000", "105659.795000", "105701.285000", "105702.775000", "105704.265000", "105705.755000", "105707.245000", "105708.735000", "105710.225000", "105711.715000", "105713.205000", "105714.695000", "105716.185000", "105717.675000", "105719.165000", "105720.655000", "105722.145000", "105723.635000", "105725.125000", "105726.615000", "105728.105000", "105729.595000", "105731.085000", "105732.575000", "105734.065000", "105735.555000", "105737.045000", "105738.535000", "105740.025000", "105741.515000", "105743.005000", "105744.495000", "105745.985000", "105747.475000", "105748.965000", "105750.455000", "105751.945000", "105753.435000", "105754.925000", "105756.415000", "105757.905000", "105759.395000", "105800.885000", "105802.375000", "105803.865000", "105805.355000", "105806.845000", "105808.335000", "105809.825000", "105811.315000", "105812.805000", "105814.295000", "105815.785000", "105817.275000", "105818.765000", "105820.255000", "105821.745000", "105823.235000", "105824.725000", "105826.215000", "105827.705000", "105829.195000", "105830.685000", "105832.175000", "105833.665000", "105835.155000", "105836.645000", "105838.135000", "105839.625000", "105841.115000", "105842.605000", "105844.095000", "105845.585000", "105847.075000", "105848.565000", "105850.055000", "105851.545000", "105853.035000", "105854.525000", "105856.015000", "105857.505000", "105858.995000", "105900.485000", "105901.975000", "105903.465000", "105904.955000", "105906.445000", "105907.935000", "105909.425000", "105910.915000", "105912.405000", "105913.895000", "105915.385000", "105916.875000", "105918.365000", "105919.855000", "105921.345000", "105922.835000", "105924.325000", "105925.815000", "105927.305000", "105928.795000", "105930.285000", "105931.775000", "105933.265000", "105934.755000", "105936.245000", "105937.735000", "105939.225000", "105940.715000", "105942.205000", "105943.695000", "105945.185000", "105946.675000", "105948.165000", "105949.655000", "105951.145000", "105952.635000", "105954.125000", "105955.615000", "105957.105000", "105958.595000", "110000.085000", "110001.575000", "110003.065000", "110004.555000", "110006.045000", "110007.535000", "110009.025000", "110010.515000", "110012.005000", "110013.495000", "110014.985000", "110016.475000", "110017.965000", "110019.455000", "110020.945000", "110022.435000", "110023.925000", "110025.415000", "110026.905000", "110028.395000", "110029.885000", "110031.375000", "110032.865000", "110034.355000", "110035.845000", "110037.335000", "110038.825000", "110040.315000", "110041.805000", "110043.295000", "110044.785000", "110046.275000", "110047.765000", "110049.255000", "110050.745000", "110052.235000", "110053.725000", "110055.215000", "110056.705000", "110058.195000", "110059.685000", "110101.175000", "110102.665000", "110104.155000", "110105.645000", "110107.135000", "110108.625000", "110110.115000", "110111.605000", "110113.095000", "110114.585000", "110116.075000", "110117.565000", "110119.055000", "110120.545000", "110122.035000", "110123.525000", "110125.015000", "110126.505000", "110127.995000", "110129.485000", "110130.975000", "110132.465000", "110133.955000", "110135.445000", "110136.935000", "110138.425000"],
      "ContentTime": ["105801.399000", "105801.403000", "105801.407000", "105801.425000", "105801.428000", "105801.431000", "105801.434000", "105801.438000", "105801.441000", "105821.359000", "105821.363000", "105821.366000", "105821.369000", "105821.372000", "105821.375000", "105821.379000", "105821.382000", "105821.385000", "105821.388000", "105821.392000", "105821.395000", "105821.398000", "105821.402000", "105821.405000", "105821.408000", "105821.411000", "105821.415000", "105821.418000", "105821.421000", "105821.425000", "105841.359000", "105841.363000", "105841.366000", "105841.369000", "105841.373000", "105841.376000", "105841.379000", "105841.382000", "105841.386000", "105841.389000", "105841.392000", "105841.395000", "105841.399000", "105841.402000", "105841.405000", "105841.408000", "105841.411000", "105841.415000", "105841.418000", "105841.421000", "105901.359000", "105901.363000", "105901.366000", "105901.369000", "105901.372000", "105901.376000", "105901.379000", "105901.382000", "105901.385000", "105901.389000", "105901.392000", "105901.395000", "105901.399000", "105901.402000", "105901.406000", "105901.410000", "105901.413000", "105901.416000", "105901.420000", "105901.423000", "105921.359000", "105921.363000", "105921.366000", "105921.369000", "105921.372000", "105921.376000", "105921.379000", "105921.382000", "105921.385000", "105921.389000", "105921.392000", "105921.395000", "105921.399000", "105921.402000", "105921.405000", "105921.409000", "105921.412000", "105921.415000", "105921.418000", "105921.422000", "105921.425000", "110001.358000", "110001.362000", "110001.365000", "110001.368000", "110001.371000", "110001.375000", "110001.378000", "110001.381000", "110001.385000", "110001.388000", "110001.391000", "110001.394000", "110001.398000", "110001.401000", "110001.404000", "110001.407000", "110001.411000", "110001.414000", "110001.417000", "110001.420000", "110001.424000", "110001.427000", "110001.430000", "110001.433000", "110001.437000", "110001.440000", "110001.443000", "110001.447000", "110001.450000", "110001.453000", "110001.457000", "110001.460000", "110041.361000", "110041.365000", "110041.369000", "110041.373000", "110041.377000", "110041.380000", "110041.384000", "110041.388000", "110041.391000", "110041.395000", "110041.398000", "110041.401000", "110041.405000", "110041.408000", "110041.412000", "110041.415000", "110041.418000", "110041.421000", "110041.425000", "110041.428000", "110041.431000", "110041.435000", "110041.438000", "110041.441000", "110041.444000", "110041.448000", "110121.359000", "110121.363000", "110121.366000", "110121.369000", "110121.373000", "110121.376000", "110121.379000", "110121.382000", "110121.386000", "110121.389000", "110121.392000", "110121.395000", "110121.399000", "110121.402000", "110121.405000", "110121.408000", "110121.412000", "110121.415000", "110121.418000", "110121.422000", "110121.425000", "110121.428000", "110121.432000", "110121.435000", "110121.438000", "110121.441000", "110121.445000", "110141.052000", "110141.056000", "110141.059000", "110141.063000", "110141.066000", "110141.069000", "110141.073000", "110141.076000", "110141.080000", "110141.083000", "110141.086000", "110141.090000", "110141.093000", "110141.103000"],
      "InstanceCreationTime": ["105801.399000", "105801.403000", "105801.407000", "105801.425000", "105801.428000", "105801.431000", "105801.434000", "105801.438000", "105801.441000", "105821.359000", "105821.363000", "105821.366000", "105821.369000", "105821.372000", "105821.375000", "105821.379000", "105821.382000", "105821.385000", "105821.388000", "105821.392000", "105821.395000", "105821.398000", "105821.402000", "105821.405000", "105821.408000", "105821.411000", "105821.415000", "105821.418000", "105821.421000", "105821.425000", "105841.359000", "105841.363000", "105841.366000", "105841.369000", "105841.373000", "105841.376000", "105841.379000", "105841.382000", "105841.386000", "105841.389000", "105841.392000", "105841.395000", "105841.399000", "105841.402000", "105841.405000", "105841.408000", "105841.411000", "105841.415000", "105841.418000", "105841.421000", "105901.359000", "105901.363000", "105901.366000", "105901.369000", "105901.372000", "105901.376000", "105901.379000", "105901.382000", "105901.385000", "105901.389000", "105901.392000", "105901.395000", "105901.399000", "105901.402000", "105901.406000", "105901.410000", "105901.413000", "105901.416000", "105901.420000", "105901.423000", "105921.359000", "105921.363000", "105921.366000", "105921.369000", "105921.372000", "105921.376000", "105921.379000", "105921.382000", "105921.385000", "105921.389000", "105921.392000", "105921.395000", "105921.399000", "105921.402000", "105921.405000", "105921.409000", "105921.412000", "105921.415000", "105921.418000", "105921.422000", "105921.425000", "110001.358000", "110001.362000", "110001.365000", "110001.368000", "110001.371000", "110001.375000", "110001.378000", "110001.381000", "110001.385000", "110001.388000", "110001.391000", "110001.394000", "110001.398000", "110001.401000", "110001.404000", "110001.407000", "110001.411000", "110001.414000", "110001.417000", "110001.420000", "110001.424000", "110001.427000", "110001.430000", "110001.433000", "110001.437000", "110001.440000", "110001.443000", "110001.447000", "110001.450000", "110001.453000", "110001.457000", "110001.460000", "110041.361000", "110041.365000", "110041.369000", "110041.373000", "110041.377000", "110041.380000", "110041.384000", "110041.388000", "110041.391000", "110041.395000", "110041.398000", "110041.401000", "110041.405000", "110041.408000", "110041.412000", "110041.415000", "110041.418000", "110041.421000", "110041.425000", "110041.428000", "110041.431000", "110041.435000", "110041.438000", "110041.441000", "110041.444000", "110041.448000", "110121.359000", "110121.363000", "110121.366000", "110121.369000", "110121.373000", "110121.376000", "110121.379000", "110121.382000", "110121.386000", "110121.389000", "110121.392000", "110121.395000", "110121.399000", "110121.402000", "110121.405000", "110121.408000", "110121.412000", "110121.415000", "110121.418000", "110121.422000", "110121.425000", "110121.428000", "110121.432000", "110121.435000", "110121.438000", "110121.441000", "110121.445000", "110141.052000", "110141.056000", "110141.059000", "110141.063000", "110141.066000", "110141.069000", "110141.073000", "110141.076000", "110141.080000", "110141.083000", "110141.086000", "110141.090000", "110141.093000", "110141.103000"],
      "InstanceNumber": [1, 2, 3, 4, 5, 6, 7, 8, 9, 10, 11, 12, 13, 14, 15, 16, 17, 18, 19, 20, 21, 22, 23, 24, 25, 26, 27, 28, 29, 30, 31, 32, 33, 34, 35, 36, 37, 38, 39, 40, 41, 42, 43, 44, 45, 46, 47, 48, 49, 50, 51, 52, 53, 54, 55, 56, 57, 58, 59, 60, 61, 62, 63, 64, 65, 66, 67, 68, 69, 70, 71, 72, 73, 74, 75, 76, 77, 78, 79, 80, 81, 82, 83, 84, 85, 86, 87, 88, 89, 90, 91, 92, 93, 94, 95, 96, 97, 98, 99, 100, 101, 102, 103, 104, 105, 106, 107, 108, 109, 110, 111, 112, 113, 114, 115, 116, 117, 118, 119, 120, 121, 122, 123, 124, 125, 126, 127, 128, 129, 130, 131, 132, 133, 134, 135, 136, 137, 138, 139, 140, 141, 142, 143, 144, 145, 146, 147, 148, 149, 150, 151, 152, 153, 154, 155, 156, 157, 158, 159, 160, 161, 162, 163, 164, 165, 166, 167, 168, 169, 170, 171, 172, 173, 174, 175, 176, 177, 178, 179, 180, 181, 182, 183, 184, 185, 186, 187, 188, 189, 190],
      "LargestImagePixelValue": [47228, 46186, 45694, 45404, 44704, 44532, 46986, 48745, 46792, 45399, 44342, 45183, 45847, 44415, 44778, 45117, 44516, 45537, 45312, 44852, 46957, 44161, 44641, 45579, 45353, 44432, 43714, 44776, 44594, 44812, 45394, 45904, 45393, 44913, 44803, 45384, 44357, 43716, 44009, 44065, 43962, 45009, 44717, 44071, 44393, 43809, 44650, 44936, 45250, 44401, 44793, 45623, 44645, 44902, 44204, 44543, 44626, 44380, 45574, 44168, 44779, 43927, 44478, 44131, 45067, 44066, 44481, 44147, 43964, 44122, 43824, 44353, 44412, 43964, 45060, 44434, 45077, 44265, 43863, 46557, 44758, 45161, 48518, 48742, 48153, 47117, 47479, 47108, 45632, 45880, 45244, 45607, 45955, 46327, 47395, 46669, 45074, 46844, 45918, 45255, 45437, 45801, 45312, 47606, 48538, 46944, 45844, 45343, 46924, 46103, 46693, 46240, 45873, 47075, 46916, 46820, 45341, 46765, 46182, 44624, 46488, 44834, 44177, 45310, 44861, 45108, 45551, 47307, 47263, 46549, 46807, 44647, 45515, 46493, 44748, 44769, 44614, 44454, 44001, 45076, 44376, 45044, 44442, 44031, 43893, 45807, 44061, 43950, 44853, 43757, 44174, 44218, 44091, 44339, 43915, 44258, 43771, 44272, 44011, 43905, 43618, 44005, 44445, 44134, 43569, 43447, 43952, 43553, 44132, 44225, 44270, 44274, 44130, 44068, 43862, 43816, 44014, 44381, 44886, 44131, 43918, 44253, 43700, 44029, 43931, 43779, 43970, 43789, 43504, 44126],
      "WindowCenter": [11224.0, 11171.0, 11139.0, 11113.0, 11074.0, 10987.0, 11145.0, 11073.0, 11124.0, 11147.0, 11163.0, 11169.0, 11156.0, 11109.0, 11081.0, 11109.0, 11111.0, 11113.0, 11101.0, 11093.0, 11064.0, 11070.0, 11078.0, 11094.0, 11095.0, 11078.0, 11056.0, 11040.0, 11028.0, 11062.0, 11096.0, 11115.0, 11112.0, 11100.0, 11076.0, 11037.0, 11057.0, 11074.0, 11092.0, 11095.0, 11090.0, 11095.0, 11088.0, 11095.0, 11079.0, 11078.0, 11101.0, 11102.0, 11126.0, 11104.0, 11079.0, 11073.0, 11068.0, 11065.0, 11068.0, 11051.0, 11062.0, 11078.0, 11091.0, 11085.0, 11101.0, 11090.0, 11063.0, 11073.0, 11109.0, 11109.0, 11110.0, 11103.0, 11087.0, 11078.0, 11073.0, 11075.0, 11068.0, 11082.0, 11092.0, 11070.0, 11079.0, 11087.0, 11079.0, 11050.0, 11042.0, 11038.0, 11071.0, 11070.0, 11080.0, 11080.0, 11078.0, 11079.0, 11075.0, 11063.0, 11029.0, 11031.0, 11070.0, 11098.0, 11109.0, 11099.0, 11068.0, 11072.0, 11066.0, 11067.0, 11061.0, 11064.0, 11069.0, 11102.0, 11122.0, 11124.0, 11094.0, 11059.0, 11065.0, 11072.0, 11097.0, 11111.0, 11098.0, 11092.0, 11094.0, 11062.0, 11052.0, 11068.0, 11074.0, 11070.0, 11089.0, 11077.0, 11073.0, 11086.0, 11087.0, 11091.0, 11105.0, 11115.0, 11096.0, 11100.0, 11116.0, 11100.0, 11100.0, 11098.0, 11074.0, 11071.0, 11064.0, 11063.0, 11066.0, 11095.0, 11082.0, 11083.0, 11069.0, 11054.0, 11050.0, 11076.0, 11071.0, 11078.0, 11078.0, 11068.0, 11065.0, 11073.0, 11072.0, 11074.0, 11077.0, 11075.0, 11077.0, 11071.0, 11056.0, 11059.0, 11049.0, 11055.0, 11080.0, 11082.0, 11070.0, 11049.0, 11026.0, 11017.0, 11037.0, 11067.0, 11065.0, 11057.0, 11057.0, 11040.0, 11041.0, 11048.0, 11028.0, 11039.0, 11058.0, 11072.0, 11067.0, 11068.0, 11062.0, 11066.0, 11069.0, 11081.0, 11080.0, 11071.0, 11067.0, 11060.0],
      "WindowWidth": [24228.0, 24065.0, 23963.0, 23898.0, 23797.0, 23585.0, 23962.0, 23776.0, 23910.0, 23956.0, 23998.0, 24008.0, 23979.0, 23877.0, 23810.0, 23874.0, 23879.0, 23881.0, 23857.0, 23849.0, 23756.0, 23781.0, 23802.0, 23835.0, 23839.0, 23807.0, 23763.0, 23720.0, 23692.0, 23764.0, 23843.0, 23888.0, 23881.0, 23855.0, 23801.0, 23714.0, 23756.0, 23796.0, 23839.0, 23847.0, 23841.0, 23847.0, 23829.0, 23846.0, 23817.0, 23818.0, 23863.0, 23863.0, 23917.0, 23871.0, 23807.0, 23791.0, 23785.0, 23776.0, 23789.0, 23751.0, 23770.0, 23811.0, 23834.0, 23826.0, 23870.0, 23847.0, 23775.0, 23796.0, 23873.0, 23878.0, 23881.0, 23867.0, 23833.0, 23809.0, 23800.0, 23799.0, 23783.0, 23823.0, 23838.0, 23792.0, 23809.0, 23830.0, 23815.0, 23739.0, 23722.0, 23719.0, 23775.0, 23769.0, 23796.0, 23798.0, 23795.0, 23796.0, 23797.0, 23768.0, 23692.0, 23696.0, 23779.0, 23845.0, 23867.0, 23845.0, 23780.0, 23782.0, 23771.0, 23780.0, 23767.0, 23768.0, 23782.0, 23845.0, 23887.0, 23904.0, 23842.0, 23763.0, 23768.0, 23784.0, 23844.0, 23875.0, 23847.0, 23829.0, 23833.0, 23764.0, 23742.0, 23774.0, 23791.0, 23789.0, 23824.0, 23804.0, 23800.0, 23821.0, 23827.0, 23837.0, 23864.0, 23893.0, 23842.0, 23848.0, 23887.0, 23859.0, 23856.0, 23844.0, 23799.0, 23794.0, 23778.0, 23775.0, 23784.0, 23845.0, 23816.0, 23816.0, 23785.0, 23755.0, 23748.0, 23795.0, 23792.0, 23812.0, 23808.0, 23787.0, 23781.0, 23801.0, 23797.0, 23801.0, 23812.0, 23806.0, 23814.0, 23796.0, 23760.0, 23771.0, 23754.0, 23759.0, 23814.0, 23817.0, 23797.0, 23747.0, 23694.0, 23672.0, 23715.0, 23791.0, 23778.0, 23763.0, 23766.0, 23719.0, 23722.0, 23739.0, 23697.0, 23720.0, 23758.0, 23793.0, 23787.0, 23783.0, 23770.0, 23785.0, 23795.0, 23822.0, 23819.0, 23796.0, 23796.0, 23771.0]
    },
    "slices": {}
  }
}