{
  "AcquisitionMatrixPE": 104,
  "AcquisitionNumber": 1,
  "AcquisitionTime": "13:49:27.977500",
  "BandwidthPerPixelPhaseEncode": 17.17,
  "BaseResolution": 104,
  "BodyPartExamined": "BRAIN",
  "CoilString": "HC1-7;NC1_2",
  "ConsistencyInfo": "N4_VE11C_LATEST_20160120",
  "ConversionSoftware": "dcm2niix",
  "ConversionSoftwareVersion": "v1.0.20190902",
  "DerivedVendorReportedEchoSpacing": 0.000560011,
  "DeviceSerialNumber": "167006",
  "DwellTime": 2.1e-06,
  "EchoTime": 0.037,
  "EchoTrainLength": 104,
  "EffectiveEchoSpacing": 0.000560011,
  "FlipAngle": 52,
  "HeudiconvVersion": "0.10.0",
  "ImageComments": "Unaliased_MB4_PE3_LB",
  "ImageOrientationPatientDICOM": [0.998185, 0.0262067, 0.0542202, -0.0109761, 0.964438, -0.264082],
  "ImageType": [
    "ORIGINAL",
    "PRIMARY",
    "M",
    "MB",
    "ND",
    "MOSAIC"
],
  "ImagingFrequency": 123.259,
  "InPlanePhaseEncodingDirectionDICOM": "COL",
  "InstitutionAddress": "Chemin_Queen-Mary_4565_Montreal_District_CA_H3W_1W5",
  "InstitutionName": "IUGM",
  "InstitutionalDepartmentName": "Department",
  "MRAcquisitionType": "2D",
  "MagneticFieldStrength": 3,
  "Manufacturer": "Siemens",
  "ManufacturersModelName": "Prisma_fit",
  "Modality": "MR",
  "MultibandAccelerationFactor": 4,
  "PartialFourier": 1,
  "PatientPosition": "HFS",
  "PercentPhaseFOV": 100,
  "PhaseEncodingDirection": "j",
  "PhaseEncodingSteps": 104,
  "PhaseResolution": 1,
  "PixelBandwidth": 2290,
  "ProcedureStepDescription": "memory_things",
  "ProtocolName": "func_task-things_run-6",
  "PulseSequenceDetails": "%CustomerSeq%_cmrr_mbep2d_bold",
  "ReceiveCoilActiveElements": "HC1-7;NC1,2",
  "ReceiveCoilName": "HeadNeck_64",
  "ReconMatrixPE": 104,
  "RepetitionTime": 1.49,
  "SAR": 0.0503089,
  "ScanOptions": "FS",
  "ScanningSequence": "EP",
  "SequenceName": "epfid2d1_104",
  "SequenceVariant": "SK_SS",
  "SeriesDescription": "func_task-things_run-6",
  "SeriesNumber": 25,
  "ShimSetting": [653, -7207, -8787, 689, 83, 19, 58, 3],
  "SliceThickness": 2,
  "SliceTiming": [0, 0.7825, 0.0975, 0.8825, 0.195, 0.98, 0.2925, 1.0775, 0.3925, 1.175, 0.49, 1.2725, 0.5875, 1.3725, 0.685, 0, 0.7825, 0.0975, 0.8825, 0.195, 0.98, 0.2925, 1.0775, 0.3925, 1.175, 0.49, 1.2725, 0.5875, 1.3725, 0.685, 0, 0.7825, 0.0975, 0.8825, 0.195, 0.98, 0.2925, 1.0775, 0.3925, 1.175, 0.49, 1.2725, 0.5875, 1.3725, 0.685, 0, 0.7825, 0.0975, 0.8825, 0.195, 0.98, 0.2925, 1.0775, 0.3925, 1.175, 0.49, 1.2725, 0.5875, 1.3725, 0.685],
  "SoftwareVersions": "syngo_MR_E11",
  "SpacingBetweenSlices": 2,
  "StationName": "MRC35049",
  "TaskName": "things",
  "TotalReadoutTime": 0.0576811,
  "TxRefAmp": 237.938,
  "WipMemBlock": "8b7345b3-947b-45a9-b230-aff2b75108d8||Sequence: R016 ve11c/master r/e634e98; Dec 19 2017 11:00:25 by eja",
  "dcmmeta_affine": [
    [-1.9963700771331787, -0.021952148526906967, 0.11842542886734009, 107.30120086669922],
    [-0.052413344383239746, 1.9288758039474487, -0.5260143280029297, -71.09922790527344],
    [0.10844039171934128, 0.5281631350517273, 1.925950288772583, -65.36978912353516],
    [0.0, 0.0, 0.0, 1.0]
],
  "dcmmeta_reorient_transform": [
    [0.0, -1.0, 0.0, 103.0],
    [1.0, 0.0, 0.0, 0.0],
    [0.0, 0.0, 1.0, 0.0],
    [0.0, 0.0, 0.0, 1.0]
],
  "dcmmeta_shape": [104, 104, 60, 190],
  "dcmmeta_slice_dim": 2,
  "dcmmeta_version": 0.6,
  "global": {
    "const": {
      "AcquisitionMatrix": [104, 0, 0, 104],
      "AngioFlag": "N",
      "BitsAllocated": 16,
      "BitsStored": 16,
      "BodyPartExamined": "BRAIN",
      "Columns": 832,
      "EchoNumbers": 1,
      "EchoTime": 37.0,
      "EchoTrainLength": 104,
      "FlipAngle": 52.0,
      "HighBit": 15,
      "ImageOrientationPatient": [0.99818504319172, 0.02620667297363, 0.05422019771262, -0.0109760740571, 0.96443789078844, -0.2640815794595],
      "ImagePositionPatient": [-823.72825845728, -848.76422207262, 141.81009869057],
      "ImageType": [
        "ORIGINAL",
        "PRIMARY",
        "M",
        "MB",
        "ND",
        "MOSAIC"
],
      "ImagedNucleus": "1H",
      "ImagingFrequency": 123.258923,
      "InPlanePhaseEncodingDirection": "COL",
      "MRAcquisitionType": "2D",
      "MagneticFieldStrength": 3.0,
      "Manufacturer": "SIEMENS",
      "ManufacturerModelName": "Prisma_fit",
      "Modality": "MR",
      "NumberOfAverages": 1.0,
      "NumberOfPhaseEncodingSteps": 104,
      "PercentPhaseFieldOfView": 100.0,
      "PercentSampling": 100.0,
      "PerformedProcedureStepStartTime": "121136.819000",
      "PhotometricInterpretation": "MONOCHROME2",
      "PixelBandwidth": 2290.0,
      "PixelRepresentation": 0,
      "PixelSpacing": [2.0, 2.0],
      "ProtocolName": "func_task-things_run-6",
      "RepetitionTime": 1490.0,
      "Rows": 832,
      "SAR": 0.05030887472296,
      "SamplesPerPixel": 1,
      "ScanOptions": "FS",
      "ScanningSequence": "EP",
      "SequenceName": "epfid2d1_104",
      "SequenceVariant": [
        "SK",
        "SS"
],
      "SeriesDescription": "func_task-things_run-6",
      "SeriesNumber": 25,
      "SeriesTime": "135049.603000",
      "SliceLocation": -37.896283669816,
      "SliceThickness": 2.0,
      "SmallestImagePixelValue": 0,
      "SoftwareVersions": "syngo MR E11",
      "SpacingBetweenSlices": 2.0000000045253,
      "SpecificCharacterSet": "ISO_IR 100",
      "StudyID": "1",
      "StudyTime": "121136.734000",
      "TransmitCoilName": "Body",
      "VariableFlipAngleFlag": "N",
      "WindowCenterWidthExplanation": "Algo1",
      "dBdt": 0.0},
    "slices": {}
  },
  "time": {
    "samples": {
      "AcquisitionNumber": [1, 2, 3, 4, 5, 6, 7, 8, 9, 10, 11, 12, 13, 14, 15, 16, 17, 18, 19, 20, 21, 22, 23, 24, 25, 26, 27, 28, 29, 30, 31, 32, 33, 34, 35, 36, 37, 38, 39, 40, 41, 42, 43, 44, 45, 46, 47, 48, 49, 50, 51, 52, 53, 54, 55, 56, 57, 58, 59, 60, 61, 62, 63, 64, 65, 66, 67, 68, 69, 70, 71, 72, 73, 74, 75, 76, 77, 78, 79, 80, 81, 82, 83, 84, 85, 86, 87, 88, 89, 90, 91, 92, 93, 94, 95, 96, 97, 98, 99, 100, 101, 102, 103, 104, 105, 106, 107, 108, 109, 110, 111, 112, 113, 114, 115, 116, 117, 118, 119, 120, 121, 122, 123, 124, 125, 126, 127, 128, 129, 130, 131, 132, 133, 134, 135, 136, 137, 138, 139, 140, 141, 142, 143, 144, 145, 146, 147, 148, 149, 150, 151, 152, 153, 154, 155, 156, 157, 158, 159, 160, 161, 162, 163, 164, 165, 166, 167, 168, 169, 170, 171, 172, 173, 174, 175, 176, 177, 178, 179, 180, 181, 182, 183, 184, 185, 186, 187, 188, 189, 190],
      "AcquisitionTime": ["134927.977500", "134929.467500", "134930.957500", "134932.447500", "134933.937500", "134935.427500", "134936.917500", "134938.407500", "134939.897500", "134941.387500", "134942.877500", "134944.367500", "134945.857500", "134947.347500", "134948.837500", "134950.327500", "134951.817500", "134953.307500", "134954.797500", "134956.287500", "134957.777500", "134959.267500", "135000.757500", "135002.247500", "135003.737500", "135005.227500", "135006.717500", "135008.207500", "135009.697500", "135011.187500", "135012.677500", "135014.167500", "135015.657500", "135017.147500", "135018.637500", "135020.127500", "135021.617500", "135023.107500", "135024.597500", "135026.087500", "135027.577500", "135029.067500", "135030.557500", "135032.047500", "135033.537500", "135035.027500", "135036.517500", "135038.007500", "135039.497500", "135040.987500", "135042.477500", "135043.967500", "135045.457500", "135046.947500", "135048.437500", "135049.927500", "135051.417500", "135052.907500", "135054.397500", "135055.887500", "135057.377500", "135058.867500", "135100.357500", "135101.847500", "135103.337500", "135104.827500", "135106.317500", "135107.807500", "135109.297500", "135110.787500", "135112.277500", "135113.767500", "135115.257500", "135116.747500", "135118.237500", "135119.727500", "135121.217500", "135122.707500", "135124.197500", "135125.687500", "135127.177500", "135128.667500", "135130.157500", "135131.647500", "135133.137500", "135134.627500", "135136.117500", "135137.607500", "135139.097500", "135140.587500", "135142.077500", "135143.567500", "135145.057500", "135146.547500", "135148.037500", "135149.527500", "135151.017500", "135152.507500", "135153.997500", "135155.487500", "135156.977500", "135158.467500", "135159.957500", "135201.447500", "135202.937500", "135204.427500", "135205.917500", "135207.407500", "135208.897500", "135210.387500", "135211.877500", "135213.367500", "135214.857500", "135216.347500", "135217.837500", "135219.327500", "135220.817500", "135222.307500", "135223.797500", "135225.287500", "135226.777500", "135228.267500", "135229.757500", "135231.247500", "135232.737500", "135234.227500", "135235.717500", "135237.207500", "135238.697500", "135240.187500", "135241.677500", "135243.167500", "135244.657500", "135246.147500", "135247.637500", "135249.127500", "135250.617500", "135252.107500", "135253.597500", "135255.087500", "135256.577500", "135258.067500", "135259.557500", "135301.047500", "135302.537500", "135304.027500", "135305.517500", "135307.007500", "135308.497500", "135309.987500", "135311.477500", "135312.967500", "135314.457500", "135315.947500", "135317.437500", "135318.927500", "135320.417500", "135321.907500", "135323.397500", "135324.887500", "135326.377500", "135327.867500", "135329.357500", "135330.847500", "135332.337500", "135333.827500", "135335.317500", "135336.807500", "135338.297500", "135339.787500", "135341.277500", "135342.767500", "135344.257500", "135345.747500", "135347.237500", "135348.727500", "135350.217500", "135351.707500", "135353.197500", "135354.687500", "135356.177500", "135357.667500", "135359.157500", "135400.647500", "135402.137500", "135403.627500", "135405.117500", "135406.607500", "135408.097500", "135409.587500"],
      "ContentTime": ["135049.607000", "135049.612000", "135049.615000", "135049.619000", "135049.622000", "135049.625000", "135049.629000", "135049.632000", "135049.636000", "135049.639000", "135049.642000", "135049.646000", "135049.649000", "135049.652000", "135049.656000", "135049.659000", "135049.662000", "135049.666000", "135049.669000", "135049.672000", "135049.676000", "135049.679000", "135049.682000", "135049.694000", "135049.697000", "135049.700000", "135109.562000", "135109.566000", "135109.569000", "135109.573000", "135109.576000", "135109.579000", "135109.582000", "135109.586000", "135109.589000", "135109.593000", "135109.596000", "135109.599000", "135109.602000", "135109.609000", "135109.613000", "135109.616000", "135109.619000", "135109.622000", "135109.626000", "135109.629000", "135109.632000", "135129.561000", "135129.565000", "135129.568000", "135129.572000", "135129.575000", "135129.579000", "135129.582000", "135129.586000", "135129.589000", "135129.592000", "135129.595000", "135129.599000", "135129.602000", "135129.605000", "135129.609000", "135129.612000", "135129.615000", "135129.619000", "135129.622000", "135129.631000", "135149.561000", "135149.565000", "135149.568000", "135149.571000", "135149.575000", "135149.578000", "135149.581000", "135149.585000", "135149.588000", "135149.591000", "135149.595000", "135149.598000", "135149.602000", "135149.605000", "135149.608000", "135149.611000", "135149.615000", "135149.618000", "135149.622000", "135149.625000", "135209.562000", "135209.566000", "135209.569000", "135209.572000", "135209.576000", "135209.579000", "135209.582000", "135209.586000", "135209.589000", "135209.592000", "135209.596000", "135209.599000", "135209.602000", "135209.606000", "135209.609000", "135209.612000", "135209.616000", "135209.619000", "135209.632000", "135209.635000", "135249.562000", "135249.566000", "135249.569000", "135249.573000", "135249.576000", "135249.579000", "135249.583000", "135249.586000", "135249.589000", "135249.593000", "135249.596000", "135249.599000", "135249.603000", "135249.606000", "135249.610000", "135249.613000", "135249.616000", "135249.620000", "135249.623000", "135249.626000", "135249.630000", "135249.641000", "135249.645000", "135249.648000", "135249.651000", "135249.655000", "135249.658000", "135329.562000", "135329.566000", "135329.569000", "135329.572000", "135329.576000", "135329.579000", "135329.583000", "135329.586000", "135329.590000", "135329.594000", "135329.597000", "135329.601000", "135329.604000", "135329.607000", "135329.611000", "135329.614000", "135329.617000", "135329.621000", "135329.624000", "135329.628000", "135329.631000", "135329.634000", "135329.638000", "135329.641000", "135329.644000", "135329.648000", "135329.651000", "135409.561000", "135409.565000", "135409.568000", "135409.572000", "135409.575000", "135409.578000", "135409.582000", "135409.585000", "135409.588000", "135409.592000", "135409.595000", "135409.598000", "135409.602000", "135409.605000", "135409.608000", "135409.612000", "135409.615000", "135409.618000", "135409.622000", "135409.625000", "135409.628000", "135409.632000", "135409.635000", "135409.638000", "135409.642000", "135409.645000", "135409.648000", "135412.194000", "135412.197000"],
      "InstanceCreationTime": ["135049.607000", "135049.612000", "135049.615000", "135049.619000", "135049.622000", "135049.625000", "135049.629000", "135049.632000", "135049.636000", "135049.639000", "135049.642000", "135049.646000", "135049.649000", "135049.652000", "135049.656000", "135049.659000", "135049.662000", "135049.666000", "135049.669000", "135049.672000", "135049.676000", "135049.679000", "135049.682000", "135049.694000", "135049.697000", "135049.700000", "135109.562000", "135109.566000", "135109.569000", "135109.573000", "135109.576000", "135109.579000", "135109.582000", "135109.586000", "135109.589000", "135109.593000", "135109.596000", "135109.599000", "135109.602000", "135109.609000", "135109.613000", "135109.616000", "135109.619000", "135109.622000", "135109.626000", "135109.629000", "135109.632000", "135129.561000", "135129.565000", "135129.568000", "135129.572000", "135129.575000", "135129.579000", "135129.582000", "135129.586000", "135129.589000", "135129.592000", "135129.595000", "135129.599000", "135129.602000", "135129.605000", "135129.609000", "135129.612000", "135129.615000", "135129.619000", "135129.622000", "135129.631000", "135149.561000", "135149.565000", "135149.568000", "135149.571000", "135149.575000", "135149.578000", "135149.581000", "135149.585000", "135149.588000", "135149.591000", "135149.595000", "135149.598000", "135149.602000", "135149.605000", "135149.608000", "135149.611000", "135149.615000", "135149.618000", "135149.622000", "135149.625000", "135209.562000", "135209.566000", "135209.569000", "135209.572000", "135209.576000", "135209.579000", "135209.582000", "135209.586000", "135209.589000", "135209.592000", "135209.596000", "135209.599000", "135209.602000", "135209.606000", "135209.609000", "135209.612000", "135209.616000", "135209.619000", "135209.632000", "135209.635000", "135249.562000", "135249.566000", "135249.569000", "135249.573000", "135249.576000", "135249.579000", "135249.583000", "135249.586000", "135249.589000", "135249.593000", "135249.596000", "135249.599000", "135249.603000", "135249.606000", "135249.610000", "135249.613000", "135249.616000", "135249.620000", "135249.623000", "135249.626000", "135249.630000", "135249.641000", "135249.645000", "135249.648000", "135249.651000", "135249.655000", "135249.658000", "135329.562000", "135329.566000", "135329.569000", "135329.572000", "135329.576000", "135329.579000", "135329.583000", "135329.586000", "135329.590000", "135329.594000", "135329.597000", "135329.601000", "135329.604000", "135329.607000", "135329.611000", "135329.614000", "135329.617000", "135329.621000", "135329.624000", "135329.628000", "135329.631000", "135329.634000", "135329.638000", "135329.641000", "135329.644000", "135329.648000", "135329.651000", "135409.561000", "135409.565000", "135409.568000", "135409.572000", "135409.575000", "135409.578000", "135409.582000", "135409.585000", "135409.588000", "135409.592000", "135409.595000", "135409.598000", "135409.602000", "135409.605000", "135409.608000", "135409.612000", "135409.615000", "135409.618000", "135409.622000", "135409.625000", "135409.628000", "135409.632000", "135409.635000", "135409.638000", "135409.642000", "135409.645000", "135409.648000", "135412.194000", "135412.197000"],
      "InstanceNumber": [1, 2, 3, 4, 5, 6, 7, 8, 9, 10, 11, 12, 13, 14, 15, 16, 17, 18, 19, 20, 21, 22, 23, 24, 25, 26, 27, 28, 29, 30, 31, 32, 33, 34, 35, 36, 37, 38, 39, 40, 41, 42, 43, 44, 45, 46, 47, 48, 49, 50, 51, 52, 53, 54, 55, 56, 57, 58, 59, 60, 61, 62, 63, 64, 65, 66, 67, 68, 69, 70, 71, 72, 73, 74, 75, 76, 77, 78, 79, 80, 81, 82, 83, 84, 85, 86, 87, 88, 89, 90, 91, 92, 93, 94, 95, 96, 97, 98, 99, 100, 101, 102, 103, 104, 105, 106, 107, 108, 109, 110, 111, 112, 113, 114, 115, 116, 117, 118, 119, 120, 121, 122, 123, 124, 125, 126, 127, 128, 129, 130, 131, 132, 133, 134, 135, 136, 137, 138, 139, 140, 141, 142, 143, 144, 145, 146, 147, 148, 149, 150, 151, 152, 153, 154, 155, 156, 157, 158, 159, 160, 161, 162, 163, 164, 165, 166, 167, 168, 169, 170, 171, 172, 173, 174, 175, 176, 177, 178, 179, 180, 181, 182, 183, 184, 185, 186, 187, 188, 189, 190],
      "LargestImagePixelValue": [39757, 38554, 38039, 37670, 37131, 37272, 37026, 37158, 37473, 37102, 36843, 37079, 37286, 37409, 37314, 37764, 37317, 37113, 36975, 36850, 37146, 37045, 36899, 36706, 36995, 36821, 36797, 36884, 37255, 36745, 36948, 36643, 37121, 36666, 36781, 36916, 36870, 36764, 36801, 36904, 37114, 36821, 37172, 36887, 36821, 36808, 36810, 36790, 36794, 36860, 36751, 36902, 37022, 36717, 36626, 36964, 36715, 37029, 36701, 36739, 36633, 36868, 36792, 36945, 36778, 36745, 37238, 36800, 37024, 36685, 36981, 36772, 36727, 37152, 36904, 37075, 36935, 36826, 36833, 36708, 36777, 36899, 36964, 36738, 36937, 37002, 37006, 36881, 37025, 36870, 37048, 36834, 36984, 37039, 37063, 37306, 36898, 36960, 37009, 37022, 36887, 37055, 36690, 37238, 36926, 36921, 37028, 36877, 37171, 37360, 36755, 36738, 36973, 36949, 36925, 37208, 37283, 36903, 37136, 37149, 36954, 37066, 36772, 37201, 36725, 36711, 37008, 36839, 37173, 37388, 36855, 36951, 36786, 36840, 37087, 37186, 37050, 37177, 36795, 37057, 37112, 36981, 36876, 36847, 37069, 37056, 36903, 37276, 37324, 37581, 36791, 36804, 37052, 36991, 37369, 37039, 37270, 37129, 37185, 36470, 37231, 36747, 37345, 37143, 37162, 37020, 37263, 36912, 37197, 36994, 36961, 37667, 37285, 37395, 37391, 37235, 36962, 37409, 37015, 36954, 37196, 37611, 37385, 37166, 37087, 37327, 37031, 36953, 37164, 36773],
      "WindowCenter": [10111.0, 10067.0, 10060.0, 10062.0, 10057.0, 10048.0, 10039.0, 10045.0, 10053.0, 10046.0, 10039.0, 10045.0, 10053.0, 10054.0, 10055.0, 10052.0, 10051.0, 10054.0, 10064.0, 10058.0, 10056.0, 10049.0, 10047.0, 10055.0, 10070.0, 10065.0, 10056.0, 10030.0, 10018.0, 10019.0, 10035.0, 10045.0, 10051.0, 10038.0, 10046.0, 10054.0, 10053.0, 10040.0, 10030.0, 10030.0, 10042.0, 10056.0, 10064.0, 10047.0, 10030.0, 10020.0, 10019.0, 10027.0, 10028.0, 10037.0, 10036.0, 10044.0, 10051.0, 10054.0, 10049.0, 10038.0, 10036.0, 10043.0, 10037.0, 10037.0, 10031.0, 10028.0, 10035.0, 10037.0, 10054.0, 10054.0, 10045.0, 10028.0, 10034.0, 10046.0, 10055.0, 10046.0, 10030.0, 10035.0, 10039.0, 10045.0, 10038.0, 10037.0, 10027.0, 10029.0, 10035.0, 10037.0, 10055.0, 10066.0, 10059.0, 10045.0, 10030.0, 10022.0, 10024.0, 10021.0, 10041.0, 10045.0, 10051.0, 10045.0, 10044.0, 10052.0, 10046.0, 10045.0, 10052.0, 10053.0, 10048.0, 10054.0, 10041.0, 10037.0, 10037.0, 10044.0, 10045.0, 10047.0, 10064.0, 10075.0, 10058.0, 10047.0, 10036.0, 10029.0, 10030.0, 10036.0, 10036.0, 10027.0, 10031.0, 10028.0, 10030.0, 10035.0, 10046.0, 10060.0, 10055.0, 10056.0, 10060.0, 10055.0, 10072.0, 10087.0, 10068.0, 10048.0, 10023.0, 10005.0, 10008.0, 10008.0, 10018.0, 10035.0, 10045.0, 10047.0, 10051.0, 10045.0, 10038.0, 10038.0, 10037.0, 10028.0, 10022.0, 10034.0, 10051.0, 10077.0, 10066.0, 10049.0, 10036.0, 10018.0, 10023.0, 10033.0, 10059.0, 10084.0, 10090.0, 10061.0, 10040.0, 10022.0, 10024.0, 10036.0, 10051.0, 10054.0, 10051.0, 10053.0, 10053.0, 10052.0, 10062.0, 10079.0, 10079.0, 10073.0, 10062.0, 10055.0, 10038.0, 10027.0, 10019.0, 10011.0, 10016.0, 10038.0, 10051.0, 10052.0, 10038.0, 10039.0, 10041.0, 10044.0, 10060.0, 10052.0],
      "WindowWidth": [21508.0, 21390.0, 21359.0, 21362.0, 21351.0, 21326.0, 21303.0, 21314.0, 21330.0, 21317.0, 21303.0, 21316.0, 21334.0, 21334.0, 21338.0, 21328.0, 21326.0, 21336.0, 21360.0, 21349.0, 21339.0, 21326.0, 21319.0, 21338.0, 21371.0, 21361.0, 21340.0, 21281.0, 21251.0, 21257.0, 21293.0, 21315.0, 21326.0, 21300.0, 21316.0, 21334.0, 21332.0, 21304.0, 21280.0, 21281.0, 21305.0, 21342.0, 21357.0, 21319.0, 21279.0, 21256.0, 21254.0, 21274.0, 21276.0, 21295.0, 21292.0, 21311.0, 21325.0, 21335.0, 21325.0, 21297.0, 21292.0, 21306.0, 21295.0, 21297.0, 21283.0, 21276.0, 21290.0, 21299.0, 21336.0, 21336.0, 21315.0, 21275.0, 21288.0, 21317.0, 21336.0, 21314.0, 21280.0, 21288.0, 21302.0, 21313.0, 21297.0, 21292.0, 21268.0, 21277.0, 21291.0, 21298.0, 21338.0, 21363.0, 21347.0, 21312.0, 21278.0, 21262.0, 21262.0, 21260.0, 21301.0, 21313.0, 21323.0, 21314.0, 21311.0, 21327.0, 21316.0, 21316.0, 21328.0, 21332.0, 21323.0, 21333.0, 21306.0, 21292.0, 21293.0, 21309.0, 21314.0, 21319.0, 21358.0, 21381.0, 21347.0, 21317.0, 21289.0, 21272.0, 21277.0, 21291.0, 21291.0, 21272.0, 21279.0, 21276.0, 21280.0, 21291.0, 21317.0, 21346.0, 21336.0, 21339.0, 21346.0, 21336.0, 21376.0, 21407.0, 21366.0, 21320.0, 21263.0, 21222.0, 21226.0, 21226.0, 21250.0, 21291.0, 21315.0, 21318.0, 21321.0, 21309.0, 21297.0, 21297.0, 21293.0, 21273.0, 21264.0, 21288.0, 21328.0, 21384.0, 21363.0, 21321.0, 21288.0, 21249.0, 21259.0, 21284.0, 21345.0, 21401.0, 21416.0, 21350.0, 21300.0, 21260.0, 21263.0, 21293.0, 21327.0, 21335.0, 21327.0, 21330.0, 21330.0, 21329.0, 21352.0, 21390.0, 21388.0, 21375.0, 21350.0, 21332.0, 21293.0, 21268.0, 21252.0, 21234.0, 21243.0, 21293.0, 21325.0, 21326.0, 21293.0, 21290.0, 21300.0, 21311.0, 21344.0, 21326.0]
    },
    "slices": {}
  }
}