{
  "AcquisitionMatrixPE": 104,
  "AcquisitionNumber": 1,
  "AcquisitionTime": "13:17:39.255000",
  "BandwidthPerPixelPhaseEncode": 17.17,
  "BaseResolution": 104,
  "BodyPartExamined": "BRAIN",
  "CoilString": "HC1-7;NC1_2",
  "ConsistencyInfo": "N4_VE11C_LATEST_20160120",
  "ConversionSoftware": "dcm2niix",
  "ConversionSoftwareVersion": "v1.0.20190902",
  "DerivedVendorReportedEchoSpacing": 0.000560011,
  "DeviceSerialNumber": "167006",
  "DwellTime": 2.1e-06,
  "EchoTime": 0.037,
  "EchoTrainLength": 104,
  "EffectiveEchoSpacing": 0.000560011,
  "FlipAngle": 52,
  "HeudiconvVersion": "0.10.0",
  "ImageComments": "Unaliased_MB4_PE3_LB",
  "ImageOrientationPatientDICOM": [0.998185, 0.0262067, 0.0542202, -0.0109761, 0.964438, -0.264082],
  "ImageType": [
    "ORIGINAL",
    "PRIMARY",
    "M",
    "MB",
    "ND",
    "MOSAIC"
],
  "ImagingFrequency": 123.259,
  "InPlanePhaseEncodingDirectionDICOM": "COL",
  "InstitutionAddress": "Chemin_Queen-Mary_4565_Montreal_District_CA_H3W_1W5",
  "InstitutionName": "IUGM",
  "InstitutionalDepartmentName": "Department",
  "MRAcquisitionType": "2D",
  "MagneticFieldStrength": 3,
  "Manufacturer": "Siemens",
  "ManufacturersModelName": "Prisma_fit",
  "Modality": "MR",
  "MultibandAccelerationFactor": 4,
  "PartialFourier": 1,
  "PatientPosition": "HFS",
  "PercentPhaseFOV": 100,
  "PhaseEncodingDirection": "j",
  "PhaseEncodingSteps": 104,
  "PhaseResolution": 1,
  "PixelBandwidth": 2290,
  "ProcedureStepDescription": "memory_things",
  "ProtocolName": "func_task-things_run-1",
  "PulseSequenceDetails": "%CustomerSeq%_cmrr_mbep2d_bold",
  "ReceiveCoilActiveElements": "HC1-7;NC1,2",
  "ReceiveCoilName": "HeadNeck_64",
  "ReconMatrixPE": 104,
  "RepetitionTime": 1.49,
  "SAR": 0.0503089,
  "ScanOptions": "FS",
  "ScanningSequence": "EP",
  "SequenceName": "epfid2d1_104",
  "SequenceVariant": "SK_SS",
  "SeriesDescription": "func_task-things_run-1",
  "SeriesNumber": 10,
  "ShimSetting": [653, -7207, -8787, 689, 83, 19, 58, 3],
  "SliceThickness": 2,
  "SliceTiming": [0, 0.7825, 0.0975, 0.88, 0.195, 0.98, 0.2925, 1.0775, 0.39, 1.175, 0.49, 1.2725, 0.5875, 1.37, 0.685, 0, 0.7825, 0.0975, 0.88, 0.195, 0.98, 0.2925, 1.0775, 0.39, 1.175, 0.49, 1.2725, 0.5875, 1.37, 0.685, 0, 0.7825, 0.0975, 0.88, 0.195, 0.98, 0.2925, 1.0775, 0.39, 1.175, 0.49, 1.2725, 0.5875, 1.37, 0.685, 0, 0.7825, 0.0975, 0.88, 0.195, 0.98, 0.2925, 1.0775, 0.39, 1.175, 0.49, 1.2725, 0.5875, 1.37, 0.685],
  "SoftwareVersions": "syngo_MR_E11",
  "SpacingBetweenSlices": 2,
  "StationName": "MRC35049",
  "TaskName": "things",
  "TotalReadoutTime": 0.0576811,
  "TxRefAmp": 237.938,
  "WipMemBlock": "ca932b7a-6b65-448b-a94b-46d2e6ba9956||Sequence: R016 ve11c/master r/e634e98; Dec 19 2017 11:00:25 by eja",
  "dcmmeta_affine": [
    [-1.9963700771331787, -0.021952148526906967, 0.11842542886734009, 107.30120086669922],
    [-0.052413344383239746, 1.9288758039474487, -0.5260143280029297, -71.09922790527344],
    [0.10844039171934128, 0.5281631350517273, 1.925950288772583, -65.36978912353516],
    [0.0, 0.0, 0.0, 1.0]
],
  "dcmmeta_reorient_transform": [
    [0.0, -1.0, 0.0, 103.0],
    [1.0, 0.0, 0.0, 0.0],
    [0.0, 0.0, 1.0, 0.0],
    [0.0, 0.0, 0.0, 1.0]
],
  "dcmmeta_shape": [104, 104, 60, 190],
  "dcmmeta_slice_dim": 2,
  "dcmmeta_version": 0.6,
  "global": {
    "const": {
      "AcquisitionMatrix": [104, 0, 0, 104],
      "AngioFlag": "N",
      "BitsAllocated": 16,
      "BitsStored": 16,
      "BodyPartExamined": "BRAIN",
      "Columns": 832,
      "EchoNumbers": 1,
      "EchoTime": 37.0,
      "EchoTrainLength": 104,
      "FlipAngle": 52.0,
      "HighBit": 15,
      "ImageOrientationPatient": [0.99818504319172, 0.02620667297363, 0.05422019771262, -0.0109760740571, 0.96443789078844, -0.2640815794595],
      "ImagePositionPatient": [-823.72825845728, -848.76422207262, 141.81009869057],
      "ImageType": [
        "ORIGINAL",
        "PRIMARY",
        "M",
        "MB",
        "ND",
        "MOSAIC"
],
      "ImagedNucleus": "1H",
      "ImagingFrequency": 123.258908,
      "InPlanePhaseEncodingDirection": "COL",
      "MRAcquisitionType": "2D",
      "MagneticFieldStrength": 3.0,
      "Manufacturer": "SIEMENS",
      "ManufacturerModelName": "Prisma_fit",
      "Modality": "MR",
      "NumberOfAverages": 1.0,
      "NumberOfPhaseEncodingSteps": 104,
      "PercentPhaseFieldOfView": 100.0,
      "PercentSampling": 100.0,
      "PerformedProcedureStepStartTime": "121136.819000",
      "PhotometricInterpretation": "MONOCHROME2",
      "PixelBandwidth": 2290.0,
      "PixelRepresentation": 0,
      "PixelSpacing": [2.0, 2.0],
      "ProtocolName": "func_task-things_run-1",
      "RepetitionTime": 1490.0,
      "Rows": 832,
      "SAR": 0.05030887472296,
      "SamplesPerPixel": 1,
      "ScanOptions": "FS",
      "ScanningSequence": "EP",
      "SequenceName": "epfid2d1_104",
      "SequenceVariant": [
        "SK",
        "SS"
],
      "SeriesDescription": "func_task-things_run-1",
      "SeriesNumber": 10,
      "SeriesTime": "131844.408000",
      "SliceLocation": -37.896283669816,
      "SliceThickness": 2.0,
      "SmallestImagePixelValue": 0,
      "SoftwareVersions": "syngo MR E11",
      "SpacingBetweenSlices": 2.0000000045253,
      "SpecificCharacterSet": "ISO_IR 100",
      "StudyID": "1",
      "StudyTime": "121136.734000",
      "TransmitCoilName": "Body",
      "VariableFlipAngleFlag": "N",
      "WindowCenterWidthExplanation": "Algo1",
      "dBdt": 0.0},
    "slices": {}
  },
  "time": {
    "samples": {
      "AcquisitionNumber": [1, 2, 3, 4, 5, 6, 7, 8, 9, 10, 11, 12, 13, 14, 15, 16, 17, 18, 19, 20, 21, 22, 23, 24, 25, 26, 27, 28, 29, 30, 31, 32, 33, 34, 35, 36, 37, 38, 39, 40, 41, 42, 43, 44, 45, 46, 47, 48, 49, 50, 51, 52, 53, 54, 55, 56, 57, 58, 59, 60, 61, 62, 63, 64, 65, 66, 67, 68, 69, 70, 71, 72, 73, 74, 75, 76, 77, 78, 79, 80, 81, 82, 83, 84, 85, 86, 87, 88, 89, 90, 91, 92, 93, 94, 95, 96, 97, 98, 99, 100, 101, 102, 103, 104, 105, 106, 107, 108, 109, 110, 111, 112, 113, 114, 115, 116, 117, 118, 119, 120, 121, 122, 123, 124, 125, 126, 127, 128, 129, 130, 131, 132, 133, 134, 135, 136, 137, 138, 139, 140, 141, 142, 143, 144, 145, 146, 147, 148, 149, 150, 151, 152, 153, 154, 155, 156, 157, 158, 159, 160, 161, 162, 163, 164, 165, 166, 167, 168, 169, 170, 171, 172, 173, 174, 175, 176, 177, 178, 179, 180, 181, 182, 183, 184, 185, 186, 187, 188, 189, 190],
      "AcquisitionTime": ["131739.255000", "131740.745000", "131742.235000", "131743.725000", "131745.215000", "131746.705000", "131748.195000", "131749.685000", "131751.175000", "131752.665000", "131754.155000", "131755.645000", "131757.135000", "131758.625000", "131800.115000", "131801.605000", "131803.095000", "131804.585000", "131806.075000", "131807.565000", "131809.055000", "131810.545000", "131812.035000", "131813.525000", "131815.015000", "131816.505000", "131817.995000", "131819.485000", "131820.975000", "131822.465000", "131823.955000", "131825.445000", "131826.935000", "131828.425000", "131829.915000", "131831.405000", "131832.895000", "131834.385000", "131835.875000", "131837.365000", "131838.855000", "131840.345000", "131841.835000", "131843.325000", "131844.815000", "131846.305000", "131847.795000", "131849.285000", "131850.775000", "131852.265000", "131853.755000", "131855.245000", "131856.735000", "131858.225000", "131859.715000", "131901.205000", "131902.695000", "131904.185000", "131905.675000", "131907.165000", "131908.655000", "131910.145000", "131911.635000", "131913.125000", "131914.615000", "131916.105000", "131917.595000", "131919.085000", "131920.575000", "131922.065000", "131923.555000", "131925.045000", "131926.535000", "131928.025000", "131929.515000", "131931.005000", "131932.495000", "131933.985000", "131935.475000", "131936.965000", "131938.455000", "131939.945000", "131941.435000", "131942.925000", "131944.415000", "131945.905000", "131947.395000", "131948.885000", "131950.375000", "131951.865000", "131953.355000", "131954.845000", "131956.335000", "131957.825000", "131959.315000", "132000.805000", "132002.295000", "132003.785000", "132005.275000", "132006.765000", "132008.255000", "132009.745000", "132011.235000", "132012.725000", "132014.215000", "132015.705000", "132017.195000", "132018.685000", "132020.175000", "132021.665000", "132023.155000", "132024.645000", "132026.135000", "132027.625000", "132029.115000", "132030.605000", "132032.095000", "132033.585000", "132035.075000", "132036.565000", "132038.055000", "132039.545000", "132041.035000", "132042.525000", "132044.015000", "132045.505000", "132046.995000", "132048.485000", "132049.975000", "132051.465000", "132052.955000", "132054.445000", "132055.935000", "132057.425000", "132058.915000", "132100.405000", "132101.895000", "132103.385000", "132104.875000", "132106.365000", "132107.855000", "132109.345000", "132110.835000", "132112.325000", "132113.815000", "132115.305000", "132116.795000", "132118.285000", "132119.775000", "132121.265000", "132122.755000", "132124.245000", "132125.735000", "132127.225000", "132128.715000", "132130.205000", "132131.695000", "132133.185000", "132134.675000", "132136.165000", "132137.655000", "132139.145000", "132140.635000", "132142.125000", "132143.615000", "132145.105000", "132146.595000", "132148.085000", "132149.575000", "132151.065000", "132152.555000", "132154.045000", "132155.535000", "132157.025000", "132158.515000", "132200.005000", "132201.495000", "132202.985000", "132204.475000", "132205.965000", "132207.455000", "132208.945000", "132210.435000", "132211.925000", "132213.415000", "132214.905000", "132216.395000", "132217.885000", "132219.375000", "132220.865000"],
      "ContentTime": ["131844.411000", "131844.415000", "131844.418000", "131844.421000", "131844.424000", "131844.428000", "131844.439000", "131844.443000", "131844.446000", "131904.364000", "131904.368000", "131904.371000", "131904.374000", "131904.378000", "131904.381000", "131904.384000", "131904.388000", "131904.391000", "131904.394000", "131904.398000", "131904.401000", "131904.404000", "131904.408000", "131904.411000", "131904.414000", "131904.418000", "131904.421000", "131904.424000", "131904.428000", "131924.364000", "131924.368000", "131924.371000", "131924.374000", "131924.378000", "131924.381000", "131924.393000", "131924.396000", "131924.399000", "131924.403000", "131924.406000", "131924.409000", "131924.413000", "131924.416000", "131924.419000", "131924.422000", "131924.426000", "131924.429000", "131924.432000", "131924.436000", "131944.363000", "131944.367000", "131944.371000", "131944.374000", "131944.377000", "131944.381000", "131944.384000", "131944.396000", "131944.399000", "131944.403000", "131944.406000", "131944.410000", "131944.415000", "131944.418000", "131944.422000", "131944.427000", "131944.433000", "131944.436000", "131944.440000", "131944.444000", "132004.363000", "132004.367000", "132004.370000", "132004.381000", "132004.384000", "132004.387000", "132004.391000", "132004.394000", "132004.397000", "132004.401000", "132004.404000", "132004.407000", "132004.411000", "132004.414000", "132004.417000", "132004.421000", "132004.424000", "132004.427000", "132004.431000", "132004.434000", "132004.437000", "132024.364000", "132024.368000", "132024.371000", "132024.374000", "132024.378000", "132024.381000", "132024.384000", "132024.388000", "132024.391000", "132024.395000", "132024.398000", "132024.401000", "132024.405000", "132024.408000", "132024.422000", "132024.425000", "132024.428000", "132024.432000", "132024.435000", "132024.438000", "132104.364000", "132104.368000", "132104.371000", "132104.382000", "132104.385000", "132104.388000", "132104.392000", "132104.395000", "132104.398000", "132104.402000", "132104.405000", "132104.408000", "132104.412000", "132104.415000", "132104.418000", "132104.422000", "132104.425000", "132104.428000", "132104.432000", "132104.435000", "132104.438000", "132104.442000", "132104.445000", "132104.449000", "132104.452000", "132104.455000", "132104.459000", "132144.364000", "132144.368000", "132144.371000", "132144.375000", "132144.378000", "132144.395000", "132144.399000", "132144.402000", "132144.406000", "132144.409000", "132144.413000", "132144.416000", "132144.419000", "132144.423000", "132144.426000", "132144.429000", "132144.433000", "132144.436000", "132144.439000", "132144.443000", "132144.446000", "132144.450000", "132144.453000", "132144.456000", "132144.459000", "132144.463000", "132144.466000", "132223.067000", "132223.071000", "132223.074000", "132223.077000", "132223.081000", "132223.084000", "132223.088000", "132223.096000", "132223.100000", "132223.103000", "132223.107000", "132223.110000", "132223.113000", "132223.117000", "132223.120000", "132223.123000", "132223.127000", "132223.130000", "132223.134000", "132223.137000", "132223.141000", "132223.144000", "132223.148000", "132223.151000", "132223.155000", "132223.158000"],
      "InstanceCreationTime": ["131844.411000", "131844.415000", "131844.418000", "131844.421000", "131844.424000", "131844.428000", "131844.439000", "131844.443000", "131844.446000", "131904.364000", "131904.368000", "131904.371000", "131904.374000", "131904.378000", "131904.381000", "131904.384000", "131904.388000", "131904.391000", "131904.394000", "131904.398000", "131904.401000", "131904.404000", "131904.408000", "131904.411000", "131904.414000", "131904.418000", "131904.421000", "131904.424000", "131904.428000", "131924.364000", "131924.368000", "131924.371000", "131924.374000", "131924.378000", "131924.381000", "131924.393000", "131924.396000", "131924.399000", "131924.403000", "131924.406000", "131924.409000", "131924.413000", "131924.416000", "131924.419000", "131924.422000", "131924.426000", "131924.429000", "131924.432000", "131924.436000", "131944.363000", "131944.367000", "131944.371000", "131944.374000", "131944.377000", "131944.381000", "131944.384000", "131944.396000", "131944.399000", "131944.403000", "131944.406000", "131944.410000", "131944.415000", "131944.418000", "131944.422000", "131944.427000", "131944.433000", "131944.436000", "131944.440000", "131944.444000", "132004.363000", "132004.367000", "132004.370000", "132004.381000", "132004.384000", "132004.387000", "132004.391000", "132004.394000", "132004.397000", "132004.401000", "132004.404000", "132004.407000", "132004.411000", "132004.414000", "132004.417000", "132004.421000", "132004.424000", "132004.427000", "132004.431000", "132004.434000", "132004.437000", "132024.364000", "132024.368000", "132024.371000", "132024.374000", "132024.378000", "132024.381000", "132024.384000", "132024.388000", "132024.391000", "132024.395000", "132024.398000", "132024.401000", "132024.405000", "132024.408000", "132024.422000", "132024.425000", "132024.428000", "132024.432000", "132024.435000", "132024.438000", "132104.364000", "132104.368000", "132104.371000", "132104.382000", "132104.385000", "132104.388000", "132104.392000", "132104.395000", "132104.398000", "132104.402000", "132104.405000", "132104.408000", "132104.412000", "132104.415000", "132104.418000", "132104.422000", "132104.425000", "132104.428000", "132104.432000", "132104.435000", "132104.438000", "132104.442000", "132104.445000", "132104.449000", "132104.452000", "132104.455000", "132104.459000", "132144.364000", "132144.368000", "132144.371000", "132144.375000", "132144.378000", "132144.395000", "132144.399000", "132144.402000", "132144.406000", "132144.409000", "132144.413000", "132144.416000", "132144.419000", "132144.423000", "132144.426000", "132144.429000", "132144.433000", "132144.436000", "132144.439000", "132144.443000", "132144.446000", "132144.450000", "132144.453000", "132144.456000", "132144.459000", "132144.463000", "132144.466000", "132223.067000", "132223.071000", "132223.074000", "132223.077000", "132223.081000", "132223.084000", "132223.088000", "132223.096000", "132223.100000", "132223.103000", "132223.107000", "132223.110000", "132223.113000", "132223.117000", "132223.120000", "132223.123000", "132223.127000", "132223.130000", "132223.134000", "132223.137000", "132223.141000", "132223.144000", "132223.148000", "132223.151000", "132223.155000", "132223.158000"],
      "InstanceNumber": [1, 2, 3, 4, 5, 6, 7, 8, 9, 10, 11, 12, 13, 14, 15, 16, 17, 18, 19, 20, 21, 22, 23, 24, 25, 26, 27, 28, 29, 30, 31, 32, 33, 34, 35, 36, 37, 38, 39, 40, 41, 42, 43, 44, 45, 46, 47, 48, 49, 50, 51, 52, 53, 54, 55, 56, 57, 58, 59, 60, 61, 62, 63, 64, 65, 66, 67, 68, 69, 70, 71, 72, 73, 74, 75, 76, 77, 78, 79, 80, 81, 82, 83, 84, 85, 86, 87, 88, 89, 90, 91, 92, 93, 94, 95, 96, 97, 98, 99, 100, 101, 102, 103, 104, 105, 106, 107, 108, 109, 110, 111, 112, 113, 114, 115, 116, 117, 118, 119, 120, 121, 122, 123, 124, 125, 126, 127, 128, 129, 130, 131, 132, 133, 134, 135, 136, 137, 138, 139, 140, 141, 142, 143, 144, 145, 146, 147, 148, 149, 150, 151, 152, 153, 154, 155, 156, 157, 158, 159, 160, 161, 162, 163, 164, 165, 166, 167, 168, 169, 170, 171, 172, 173, 174, 175, 176, 177, 178, 179, 180, 181, 182, 183, 184, 185, 186, 187, 188, 189, 190],
      "LargestImagePixelValue": [41346, 39879, 39778, 38610, 39043, 38677, 38479, 38308, 38518, 38809, 38347, 38176, 38199, 38336, 38282, 38394, 38384, 38503, 38353, 38332, 38663, 38584, 38356, 38371, 38333, 38565, 38333, 37978, 38458, 38222, 38437, 38222, 38096, 38592, 38488, 38462, 38270, 37802, 38012, 38284, 38331, 38096, 38204, 38293, 38369, 38307, 38705, 38062, 38233, 38093, 38356, 38578, 38018, 38033, 37895, 38050, 37803, 38303, 38606, 38527, 38450, 38057, 37979, 38261, 38185, 38191, 38103, 37959, 38202, 38132, 38242, 37971, 37882, 38325, 37810, 38103, 38122, 37772, 38271, 38035, 37764, 38350, 38149, 38039, 38235, 37880, 37751, 37925, 37853, 38253, 37871, 37835, 38112, 38003, 38149, 37708, 37647, 37928, 38067, 37971, 37770, 38070, 38174, 37864, 38051, 38212, 37822, 38405, 38028, 38106, 37848, 38028, 37855, 37666, 38027, 37835, 37860, 38022, 37948, 38020, 37914, 37834, 37779, 38063, 37784, 37592, 37546, 37616, 37799, 37708, 37936, 38019, 37769, 38108, 37478, 37580, 37871, 37857, 37847, 37761, 37866, 37723, 37428, 37682, 37899, 37822, 37811, 37668, 37684, 37739, 37551, 37577, 37365, 37505, 37714, 38060, 37693, 37799, 37467, 37673, 38029, 38212, 37521, 37615, 37808, 37797, 37683, 37429, 38036, 37830, 37904, 37765, 38067, 37442, 37833, 37570, 37550, 37732, 37771, 37399, 37408, 37517, 37422, 37654, 37755, 37322, 37783, 37365, 37499, 37385],
      "WindowCenter": [10172.0, 10133.0, 10106.0, 10097.0, 10103.0, 10105.0, 10100.0, 10108.0, 10107.0, 10114.0, 10117.0, 10124.0, 10118.0, 10108.0, 10107.0, 10104.0, 10098.0, 10098.0, 10096.0, 10103.0, 10099.0, 10103.0, 10103.0, 10097.0, 10102.0, 10102.0, 10103.0, 10097.0, 10096.0, 10082.0, 10088.0, 10087.0, 10080.0, 10082.0, 10093.0, 10095.0, 10095.0, 10073.0, 10080.0, 10087.0, 10095.0, 10090.0, 10079.0, 10077.0, 10079.0, 10085.0, 10095.0, 10090.0, 10083.0, 10080.0, 10078.0, 10090.0, 10096.0, 10106.0, 10101.0, 10090.0, 10074.0, 10068.0, 10066.0, 10068.0, 10083.0, 10093.0, 10096.0, 10104.0, 10106.0, 10098.0, 10087.0, 10081.0, 10081.0, 10089.0, 10095.0, 10099.0, 10098.0, 10098.0, 10091.0, 10100.0, 10115.0, 10121.0, 10118.0, 10108.0, 10100.0, 10105.0, 10099.0, 10100.0, 10115.0, 10119.0, 10112.0, 10102.0, 10086.0, 10081.0, 10080.0, 10079.0, 10081.0, 10074.0, 10073.0, 10064.0, 10064.0, 10071.0, 10073.0, 10080.0, 10081.0, 10089.0, 10084.0, 10093.0, 10101.0, 10099.0, 10078.0, 10073.0, 10071.0, 10078.0, 10082.0, 10092.0, 10092.0, 10084.0, 10080.0, 10074.0, 10080.0, 10087.0, 10081.0, 10082.0, 10074.0, 10073.0, 10073.0, 10095.0, 10107.0, 10111.0, 10097.0, 10084.0, 10076.0, 10075.0, 10065.0, 10065.0, 10074.0, 10089.0, 10085.0, 10084.0, 10075.0, 10081.0, 10092.0, 10100.0, 10104.0, 10103.0, 10097.0, 10095.0, 10093.0, 10085.0, 10101.0, 10105.0, 10114.0, 10113.0, 10090.0, 10071.0, 10067.0, 10067.0, 10082.0, 10093.0, 10094.0, 10078.0, 10070.0, 10072.0, 10074.0, 10082.0, 10086.0, 10091.0, 10087.0, 10085.0, 10086.0, 10080.0, 10078.0, 10077.0, 10078.0, 10078.0, 10086.0, 10086.0, 10086.0, 10072.0, 10069.0, 10067.0, 10067.0, 10066.0, 10076.0, 10086.0, 10095.0, 10093.0, 10079.0, 10076.0, 10091.0, 10094.0, 10080.0, 10078.0],
      "WindowWidth": [21659.0, 21546.0, 21475.0, 21448.0, 21456.0, 21461.0, 21452.0, 21468.0, 21466.0, 21481.0, 21492.0, 21505.0, 21492.0, 21468.0, 21462.0, 21455.0, 21443.0, 21442.0, 21439.0, 21451.0, 21443.0, 21451.0, 21450.0, 21442.0, 21451.0, 21450.0, 21452.0, 21440.0, 21437.0, 21408.0, 21418.0, 21418.0, 21401.0, 21401.0, 21430.0, 21434.0, 21434.0, 21389.0, 21400.0, 21416.0, 21435.0, 21424.0, 21399.0, 21393.0, 21399.0, 21413.0, 21436.0, 21427.0, 21411.0, 21402.0, 21395.0, 21420.0, 21439.0, 21463.0, 21452.0, 21424.0, 21386.0, 21370.0, 21365.0, 21372.0, 21405.0, 21428.0, 21437.0, 21455.0, 21459.0, 21440.0, 21415.0, 21405.0, 21405.0, 21421.0, 21434.0, 21445.0, 21443.0, 21441.0, 21426.0, 21447.0, 21482.0, 21498.0, 21488.0, 21465.0, 21446.0, 21453.0, 21446.0, 21449.0, 21483.0, 21495.0, 21478.0, 21452.0, 21416.0, 21400.0, 21400.0, 21398.0, 21402.0, 21388.0, 21382.0, 21364.0, 21364.0, 21378.0, 21386.0, 21399.0, 21402.0, 21419.0, 21409.0, 21431.0, 21446.0, 21440.0, 21396.0, 21383.0, 21375.0, 21394.0, 21405.0, 21427.0, 21428.0, 21408.0, 21395.0, 21386.0, 21399.0, 21412.0, 21398.0, 21401.0, 21386.0, 21382.0, 21384.0, 21432.0, 21464.0, 21473.0, 21443.0, 21410.0, 21391.0, 21386.0, 21363.0, 21363.0, 21384.0, 21420.0, 21412.0, 21409.0, 21387.0, 21400.0, 21427.0, 21445.0, 21457.0, 21452.0, 21439.0, 21433.0, 21428.0, 21414.0, 21448.0, 21458.0, 21479.0, 21475.0, 21425.0, 21379.0, 21369.0, 21369.0, 21403.0, 21430.0, 21433.0, 21395.0, 21378.0, 21377.0, 21382.0, 21402.0, 21415.0, 21424.0, 21416.0, 21412.0, 21414.0, 21401.0, 21394.0, 21393.0, 21395.0, 21394.0, 21411.0, 21414.0, 21411.0, 21380.0, 21372.0, 21366.0, 21367.0, 21367.0, 21390.0, 21417.0, 21436.0, 21428.0, 21398.0, 21388.0, 21421.0, 21431.0, 21400.0, 21394.0]
    },
    "slices": {}
  }
}