{
  "AcquisitionMatrixPE": 104,
  "AcquisitionNumber": 1,
  "AcquisitionTime": "13:24:15.477500",
  "BandwidthPerPixelPhaseEncode": 17.17,
  "BaseResolution": 104,
  "BodyPartExamined": "BRAIN",
  "CoilString": "HC1-7;NC1_2",
  "ConsistencyInfo": "N4_VE11C_LATEST_20160120",
  "ConversionSoftware": "dcm2niix",
  "ConversionSoftwareVersion": "v1.0.20190902",
  "DerivedVendorReportedEchoSpacing": 0.000560011,
  "DeviceSerialNumber": "167006",
  "DwellTime": 2.1e-06,
  "EchoTime": 0.037,
  "EchoTrainLength": 104,
  "EffectiveEchoSpacing": 0.000560011,
  "FlipAngle": 52,
  "HeudiconvVersion": "0.10.0",
  "ImageComments": "Unaliased_MB4_PE3_LB",
  "ImageOrientationPatientDICOM": [0.998185, 0.0262067, 0.0542202, -0.0109761, 0.964438, -0.264082],
  "ImageType": [
    "ORIGINAL",
    "PRIMARY",
    "P",
    "MB",
    "ND",
    "MOSAIC"
],
  "ImagingFrequency": 123.259,
  "InPlanePhaseEncodingDirectionDICOM": "COL",
  "InstitutionAddress": "Chemin_Queen-Mary_4565_Montreal_District_CA_H3W_1W5",
  "InstitutionName": "IUGM",
  "InstitutionalDepartmentName": "Department",
  "MRAcquisitionType": "2D",
  "MagneticFieldStrength": 3,
  "Manufacturer": "Siemens",
  "ManufacturersModelName": "Prisma_fit",
  "Modality": "MR",
  "MultibandAccelerationFactor": 4,
  "PartialFourier": 1,
  "PatientPosition": "HFS",
  "PercentPhaseFOV": 100,
  "PhaseEncodingDirection": "j",
  "PhaseEncodingSteps": 104,
  "PhaseResolution": 1,
  "PixelBandwidth": 2290,
  "ProcedureStepDescription": "memory_things",
  "ProtocolName": "func_task-things_run-2",
  "PulseSequenceDetails": "%CustomerSeq%_cmrr_mbep2d_bold",
  "ReceiveCoilActiveElements": "HC1-7;NC1,2",
  "ReceiveCoilName": "HeadNeck_64",
  "ReconMatrixPE": 104,
  "RepetitionTime": 1.49,
  "SAR": 0.0503089,
  "ScanOptions": "FS",
  "ScanningSequence": "EP",
  "SequenceName": "epfid2d1_104",
  "SequenceVariant": "SK_SS",
  "SeriesDescription": "func_task-things_run-2",
  "SeriesNumber": 14,
  "ShimSetting": [653, -7207, -8787, 689, 83, 19, 58, 3],
  "SliceThickness": 2,
  "SliceTiming": [0, 0.7825, 0.0975, 0.8825, 0.195, 0.98, 0.2925, 1.0775, 0.3925, 1.175, 0.49, 1.2725, 0.5875, 1.3725, 0.685, 0, 0.7825, 0.0975, 0.8825, 0.195, 0.98, 0.2925, 1.0775, 0.3925, 1.175, 0.49, 1.2725, 0.5875, 1.3725, 0.685, 0, 0.7825, 0.0975, 0.8825, 0.195, 0.98, 0.2925, 1.0775, 0.3925, 1.175, 0.49, 1.2725, 0.5875, 1.3725, 0.685, 0, 0.7825, 0.0975, 0.8825, 0.195, 0.98, 0.2925, 1.0775, 0.3925, 1.175, 0.49, 1.2725, 0.5875, 1.3725, 0.685],
  "SoftwareVersions": "syngo_MR_E11",
  "SpacingBetweenSlices": 2,
  "StationName": "MRC35049",
  "TaskName": "things",
  "TotalReadoutTime": 0.0576811,
  "TxRefAmp": 237.938,
  "WipMemBlock": "9e5c54d4-368c-4547-9afc-fab9dc26719b||Sequence: R016 ve11c/master r/e634e98; Dec 19 2017 11:00:25 by eja",
  "dcmmeta_affine": [
    [-1.9963700771331787, -0.021952148526906967, 0.11842542886734009, 107.30120086669922],
    [-0.052413344383239746, 1.9288758039474487, -0.5260143280029297, -71.09922790527344],
    [0.10844039171934128, 0.5281631350517273, 1.925950288772583, -65.36978912353516],
    [0.0, 0.0, 0.0, 1.0]
],
  "dcmmeta_reorient_transform": [
    [0.0, -1.0, 0.0, 103.0],
    [1.0, 0.0, 0.0, 0.0],
    [0.0, 0.0, 1.0, 0.0],
    [0.0, 0.0, 0.0, 1.0]
],
  "dcmmeta_shape": [104, 104, 60, 190],
  "dcmmeta_slice_dim": 2,
  "dcmmeta_version": 0.6,
  "global": {
    "const": {
      "AcquisitionMatrix": [104, 0, 0, 104],
      "AngioFlag": "N",
      "BitsAllocated": 16,
      "BitsStored": 16,
      "BodyPartExamined": "BRAIN",
      "Columns": 832,
      "EchoNumbers": 1,
      "EchoTime": 37.0,
      "EchoTrainLength": 104,
      "FlipAngle": 52.0,
      "HighBit": 15,
      "ImageOrientationPatient": [0.99818504319172, 0.02620667297363, 0.05422019771262, -0.0109760740571, 0.96443789078844, -0.2640815794595],
      "ImagePositionPatient": [-823.72825845728, -848.76422207262, 141.81009869057],
      "ImageType": [
        "ORIGINAL",
        "PRIMARY",
        "P",
        "MB",
        "ND",
        "MOSAIC"
],
      "ImagedNucleus": "1H",
      "ImagingFrequency": 123.258912,
      "InPlanePhaseEncodingDirection": "COL",
      "LargestImagePixelValue": 4095,
      "MRAcquisitionType": "2D",
      "MagneticFieldStrength": 3.0,
      "Manufacturer": "SIEMENS",
      "ManufacturerModelName": "Prisma_fit",
      "Modality": "MR",
      "NumberOfAverages": 1.0,
      "NumberOfPhaseEncodingSteps": 104,
      "PercentPhaseFieldOfView": 100.0,
      "PercentSampling": 100.0,
      "PerformedProcedureStepStartTime": "121136.819000",
      "PhotometricInterpretation": "MONOCHROME2",
      "PixelBandwidth": 2290.0,
      "PixelRepresentation": 0,
      "PixelSpacing": [2.0, 2.0],
      "ProtocolName": "func_task-things_run-2",
      "RepetitionTime": 1490.0,
      "RescaleIntercept": -4096.0,
      "RescaleSlope": 2.0,
      "RescaleType": "US",
      "Rows": 832,
      "SAR": 0.05030887472296,
      "SamplesPerPixel": 1,
      "ScanOptions": "FS",
      "ScanningSequence": "EP",
      "SequenceName": "epfid2d1_104",
      "SequenceVariant": [
        "SK",
        "SS"
],
      "SeriesDescription": "func_task-things_run-2",
      "SeriesNumber": 14,
      "SeriesTime": "132544.530000",
      "SliceLocation": -37.896283669816,
      "SliceThickness": 2.0,
      "SmallestImagePixelValue": 0,
      "SoftwareVersions": "syngo MR E11",
      "SpacingBetweenSlices": 2.0000000045253,
      "SpecificCharacterSet": "ISO_IR 100",
      "StudyID": "1",
      "StudyTime": "121136.734000",
      "TransmitCoilName": "Body",
      "VariableFlipAngleFlag": "N",
      "WindowCenterWidthExplanation": "Algo1",
      "dBdt": 0.0},
    "slices": {}
  },
  "time": {
    "samples": {
      "AcquisitionNumber": [1, 2, 3, 4, 5, 6, 7, 8, 9, 10, 11, 12, 13, 14, 15, 16, 17, 18, 19, 20, 21, 22, 23, 24, 25, 26, 27, 28, 29, 30, 31, 32, 33, 34, 35, 36, 37, 38, 39, 40, 41, 42, 43, 44, 45, 46, 47, 48, 49, 50, 51, 52, 53, 54, 55, 56, 57, 58, 59, 60, 61, 62, 63, 64, 65, 66, 67, 68, 69, 70, 71, 72, 73, 74, 75, 76, 77, 78, 79, 80, 81, 82, 83, 84, 85, 86, 87, 88, 89, 90, 91, 92, 93, 94, 95, 96, 97, 98, 99, 100, 101, 102, 103, 104, 105, 106, 107, 108, 109, 110, 111, 112, 113, 114, 115, 116, 117, 118, 119, 120, 121, 122, 123, 124, 125, 126, 127, 128, 129, 130, 131, 132, 133, 134, 135, 136, 137, 138, 139, 140, 141, 142, 143, 144, 145, 146, 147, 148, 149, 150, 151, 152, 153, 154, 155, 156, 157, 158, 159, 160, 161, 162, 163, 164, 165, 166, 167, 168, 169, 170, 171, 172, 173, 174, 175, 176, 177, 178, 179, 180, 181, 182, 183, 184, 185, 186, 187, 188, 189, 190],
      "AcquisitionTime": ["132415.477500", "132416.967500", "132418.457500", "132419.947500", "132421.437500", "132422.927500", "132424.417500", "132425.907500", "132427.397500", "132428.887500", "132430.377500", "132431.867500", "132433.357500", "132434.847500", "132436.337500", "132437.827500", "132439.317500", "132440.807500", "132442.297500", "132443.787500", "132445.277500", "132446.767500", "132448.257500", "132449.747500", "132451.237500", "132452.727500", "132454.217500", "132455.707500", "132457.197500", "132458.687500", "132500.177500", "132501.667500", "132503.157500", "132504.647500", "132506.137500", "132507.627500", "132509.117500", "132510.607500", "132512.097500", "132513.587500", "132515.077500", "132516.567500", "132518.057500", "132519.547500", "132521.037500", "132522.527500", "132524.017500", "132525.507500", "132526.997500", "132528.487500", "132529.977500", "132531.467500", "132532.957500", "132534.447500", "132535.937500", "132537.427500", "132538.917500", "132540.407500", "132541.897500", "132543.387500", "132544.877500", "132546.367500", "132547.857500", "132549.347500", "132550.837500", "132552.327500", "132553.817500", "132555.307500", "132556.797500", "132558.287500", "132559.777500", "132601.267500", "132602.757500", "132604.247500", "132605.737500", "132607.227500", "132608.717500", "132610.207500", "132611.697500", "132613.187500", "132614.677500", "132616.167500", "132617.657500", "132619.147500", "132620.637500", "132622.127500", "132623.617500", "132625.107500", "132626.597500", "132628.087500", "132629.577500", "132631.067500", "132632.557500", "132634.047500", "132635.537500", "132637.027500", "132638.517500", "132640.007500", "132641.497500", "132642.987500", "132644.477500", "132645.967500", "132647.457500", "132648.947500", "132650.437500", "132651.927500", "132653.417500", "132654.907500", "132656.397500", "132657.887500", "132659.377500", "132700.867500", "132702.357500", "132703.847500", "132705.337500", "132706.827500", "132708.317500", "132709.807500", "132711.297500", "132712.787500", "132714.277500", "132715.767500", "132717.257500", "132718.747500", "132720.237500", "132721.727500", "132723.217500", "132724.707500", "132726.197500", "132727.687500", "132729.177500", "132730.667500", "132732.157500", "132733.647500", "132735.137500", "132736.627500", "132738.117500", "132739.607500", "132741.097500", "132742.587500", "132744.077500", "132745.567500", "132747.057500", "132748.547500", "132750.037500", "132751.527500", "132753.017500", "132754.507500", "132755.997500", "132757.487500", "132758.977500", "132800.467500", "132801.957500", "132803.447500", "132804.937500", "132806.427500", "132807.917500", "132809.407500", "132810.897500", "132812.387500", "132813.877500", "132815.367500", "132816.857500", "132818.347500", "132819.837500", "132821.327500", "132822.817500", "132824.307500", "132825.797500", "132827.287500", "132828.777500", "132830.267500", "132831.757500", "132833.247500", "132834.737500", "132836.227500", "132837.717500", "132839.207500", "132840.697500", "132842.187500", "132843.677500", "132845.167500", "132846.657500", "132848.147500", "132849.637500", "132851.127500", "132852.617500", "132854.107500", "132855.597500", "132857.087500"],
      "ContentTime": ["132544.532000", "132544.535000", "132544.537000", "132544.540000", "132544.542000", "132544.545000", "132544.547000", "132544.550000", "132544.552000", "132544.555000", "132544.557000", "132544.560000", "132544.562000", "132544.565000", "132544.568000", "132544.581000", "132544.584000", "132544.586000", "132544.589000", "132544.591000", "132544.594000", "132544.596000", "132544.599000", "132544.601000", "132544.604000", "132544.606000", "132544.609000", "132544.620000", "132544.623000", "132544.625000", "132544.628000", "132544.630000", "132544.633000", "132603.695000", "132603.698000", "132603.701000", "132603.703000", "132603.706000", "132603.708000", "132603.711000", "132603.713000", "132603.716000", "132603.723000", "132603.726000", "132603.728000", "132603.731000", "132603.733000", "132603.736000", "132603.738000", "132603.749000", "132603.752000", "132603.754000", "132603.757000", "132623.677000", "132623.680000", "132623.683000", "132623.685000", "132623.688000", "132623.690000", "132623.693000", "132623.695000", "132623.705000", "132623.707000", "132623.710000", "132623.712000", "132623.715000", "132623.717000", "132623.720000", "132623.722000", "132623.730000", "132623.732000", "132623.735000", "132623.737000", "132623.740000", "132643.670000", "132643.673000", "132643.676000", "132643.678000", "132643.681000", "132643.683000", "132643.686000", "132643.691000", "132643.694000", "132643.696000", "132643.699000", "132643.701000", "132643.704000", "132643.706000", "132643.709000", "132643.711000", "132643.714000", "132643.716000", "132643.719000", "132643.721000", "132723.737000", "132723.740000", "132723.742000", "132723.745000", "132723.747000", "132723.750000", "132723.752000", "132723.755000", "132723.757000", "132723.760000", "132723.762000", "132723.765000", "132723.771000", "132723.773000", "132723.776000", "132723.779000", "132723.781000", "132723.784000", "132723.786000", "132723.789000", "132723.791000", "132723.794000", "132723.796000", "132723.799000", "132723.801000", "132723.804000", "132723.807000", "132723.809000", "132723.812000", "132723.820000", "132723.822000", "132803.704000", "132803.707000", "132803.710000", "132803.712000", "132803.715000", "132803.717000", "132803.720000", "132803.722000", "132803.725000", "132803.727000", "132803.730000", "132803.732000", "132803.735000", "132803.737000", "132803.740000", "132803.743000", "132803.745000", "132803.748000", "132803.750000", "132803.757000", "132803.760000", "132803.762000", "132803.765000", "132803.767000", "132803.770000", "132803.772000", "132803.775000", "132843.718000", "132843.720000", "132843.723000", "132843.726000", "132843.728000", "132843.731000", "132843.733000", "132843.736000", "132843.738000", "132843.741000", "132843.749000", "132843.752000", "132843.754000", "132843.757000", "132843.759000", "132843.762000", "132843.765000", "132843.767000", "132843.770000", "132843.772000", "132843.776000", "132843.778000", "132843.781000", "132843.784000", "132843.786000", "132843.789000", "132843.791000", "132859.774000", "132859.777000", "132859.780000", "132859.782000", "132859.785000", "132859.788000", "132859.791000", "132859.794000", "132859.796000", "132859.799000", "132859.802000"],
      "InstanceCreationTime": ["132544.532000", "132544.535000", "132544.537000", "132544.540000", "132544.542000", "132544.545000", "132544.547000", "132544.550000", "132544.552000", "132544.555000", "132544.557000", "132544.560000", "132544.562000", "132544.565000", "132544.568000", "132544.581000", "132544.584000", "132544.586000", "132544.589000", "132544.591000", "132544.594000", "132544.596000", "132544.599000", "132544.601000", "132544.604000", "132544.606000", "132544.609000", "132544.620000", "132544.623000", "132544.625000", "132544.628000", "132544.630000", "132544.633000", "132603.695000", "132603.698000", "132603.701000", "132603.703000", "132603.706000", "132603.708000", "132603.711000", "132603.713000", "132603.716000", "132603.723000", "132603.726000", "132603.728000", "132603.731000", "132603.733000", "132603.736000", "132603.738000", "132603.749000", "132603.752000", "132603.754000", "132603.757000", "132623.677000", "132623.680000", "132623.683000", "132623.685000", "132623.688000", "132623.690000", "132623.693000", "132623.695000", "132623.705000", "132623.707000", "132623.710000", "132623.712000", "132623.715000", "132623.717000", "132623.720000", "132623.722000", "132623.730000", "132623.732000", "132623.735000", "132623.737000", "132623.740000", "132643.670000", "132643.673000", "132643.676000", "132643.678000", "132643.681000", "132643.683000", "132643.686000", "132643.691000", "132643.694000", "132643.696000", "132643.699000", "132643.701000", "132643.704000", "132643.706000", "132643.709000", "132643.711000", "132643.714000", "132643.716000", "132643.719000", "132643.721000", "132723.737000", "132723.740000", "132723.742000", "132723.745000", "132723.747000", "132723.750000", "132723.752000", "132723.755000", "132723.757000", "132723.760000", "132723.762000", "132723.765000", "132723.771000", "132723.773000", "132723.776000", "132723.779000", "132723.781000", "132723.784000", "132723.786000", "132723.789000", "132723.791000", "132723.794000", "132723.796000", "132723.799000", "132723.801000", "132723.804000", "132723.807000", "132723.809000", "132723.812000", "132723.820000", "132723.822000", "132803.704000", "132803.707000", "132803.710000", "132803.712000", "132803.715000", "132803.717000", "132803.720000", "132803.722000", "132803.725000", "132803.727000", "132803.730000", "132803.732000", "132803.735000", "132803.737000", "132803.740000", "132803.743000", "132803.745000", "132803.748000", "132803.750000", "132803.757000", "132803.760000", "132803.762000", "132803.765000", "132803.767000", "132803.770000", "132803.772000", "132803.775000", "132843.718000", "132843.720000", "132843.723000", "132843.726000", "132843.728000", "132843.731000", "132843.733000", "132843.736000", "132843.738000", "132843.741000", "132843.749000", "132843.752000", "132843.754000", "132843.757000", "132843.759000", "132843.762000", "132843.765000", "132843.767000", "132843.770000", "132843.772000", "132843.776000", "132843.778000", "132843.781000", "132843.784000", "132843.786000", "132843.789000", "132843.791000", "132859.774000", "132859.777000", "132859.780000", "132859.782000", "132859.785000", "132859.788000", "132859.791000", "132859.794000", "132859.796000", "132859.799000", "132859.802000"],
      "InstanceNumber": [1, 2, 3, 4, 5, 6, 7, 8, 9, 10, 11, 12, 13, 14, 15, 16, 17, 18, 19, 20, 21, 22, 23, 24, 25, 26, 27, 28, 29, 30, 31, 32, 33, 34, 35, 36, 37, 38, 39, 40, 41, 42, 43, 44, 45, 46, 47, 48, 49, 50, 51, 52, 53, 54, 55, 56, 57, 58, 59, 60, 61, 62, 63, 64, 65, 66, 67, 68, 69, 70, 71, 72, 73, 74, 75, 76, 77, 78, 79, 80, 81, 82, 83, 84, 85, 86, 87, 88, 89, 90, 91, 92, 93, 94, 95, 96, 97, 98, 99, 100, 101, 102, 103, 104, 105, 106, 107, 108, 109, 110, 111, 112, 113, 114, 115, 116, 117, 118, 119, 120, 121, 122, 123, 124, 125, 126, 127, 128, 129, 130, 131, 132, 133, 134, 135, 136, 137, 138, 139, 140, 141, 142, 143, 144, 145, 146, 147, 148, 149, 150, 151, 152, 153, 154, 155, 156, 157, 158, 159, 160, 161, 162, 163, 164, 165, 166, 167, 168, 169, 170, 171, 172, 173, 174, 175, 176, 177, 178, 179, 180, 181, 182, 183, 184, 185, 186, 187, 188, 189, 190],
      "WindowCenter": [4828.0, 4828.0, 4830.0, 4830.0, 4830.0, 4832.0, 4828.0, 4830.0, 4830.0, 4828.0, 4828.0, 4832.0, 4828.0, 4834.0, 4830.0, 4828.0, 4828.0, 4830.0, 4830.0, 4830.0, 4828.0, 4832.0, 4834.0, 4832.0, 4826.0, 4830.0, 4828.0, 4832.0, 4828.0, 4834.0, 4832.0, 4828.0, 4826.0, 4832.0, 4830.0, 4830.0, 4828.0, 4832.0, 4830.0, 4832.0, 4828.0, 4832.0, 4828.0, 4830.0, 4826.0, 4828.0, 4832.0, 4832.0, 4830.0, 4828.0, 4832.0, 4832.0, 4828.0, 4830.0, 4832.0, 4830.0, 4830.0, 4830.0, 4828.0, 4828.0, 4830.0, 4832.0, 4830.0, 4830.0, 4832.0, 4830.0, 4830.0, 4828.0, 4830.0, 4832.0, 4830.0, 4828.0, 4826.0, 4830.0, 4834.0, 4832.0, 4830.0, 4832.0, 4830.0, 4830.0, 4830.0, 4828.0, 4830.0, 4830.0, 4832.0, 4830.0, 4832.0, 4830.0, 4832.0, 4830.0, 4832.0, 4828.0, 4828.0, 4830.0, 4830.0, 4832.0, 4832.0, 4832.0, 4830.0, 4830.0, 4830.0, 4828.0, 4828.0, 4828.0, 4834.0, 4828.0, 4830.0, 4830.0, 4830.0, 4828.0, 4832.0, 4826.0, 4830.0, 4828.0, 4830.0, 4830.0, 4830.0, 4830.0, 4828.0, 4832.0, 4832.0, 4830.0, 4832.0, 4830.0, 4832.0, 4828.0, 4832.0, 4830.0, 4830.0, 4830.0, 4830.0, 4832.0, 4830.0, 4828.0, 4828.0, 4830.0, 4832.0, 4832.0, 4828.0, 4828.0, 4830.0, 4828.0, 4828.0, 4830.0, 4828.0, 4830.0, 4830.0, 4830.0, 4830.0, 4830.0, 4834.0, 4828.0, 4832.0, 4830.0, 4832.0, 4830.0, 4830.0, 4828.0, 4830.0, 4830.0, 4828.0, 4830.0, 4830.0, 4832.0, 4830.0, 4828.0, 4832.0, 4832.0, 4830.0, 4828.0, 4832.0, 4830.0, 4830.0, 4830.0, 4828.0, 4832.0, 4830.0, 4830.0, 4830.0, 4830.0, 4826.0, 4830.0, 4834.0, 4830.0, 4828.0, 4830.0, 4832.0, 4828.0, 4832.0, 4830.0],
      "WindowWidth": [18586.0, 18584.0, 18582.0, 18586.0, 18590.0, 18590.0, 18588.0, 18586.0, 18588.0, 18582.0, 18584.0, 18580.0, 18586.0, 18588.0, 18584.0, 18588.0, 18584.0, 18580.0, 18590.0, 18584.0, 18584.0, 18588.0, 18592.0, 18590.0, 18580.0, 18582.0, 18584.0, 18586.0, 18584.0, 18592.0, 18584.0, 18584.0, 18582.0, 18586.0, 18584.0, 18584.0, 18584.0, 18590.0, 18588.0, 18590.0, 18584.0, 18586.0, 18590.0, 18586.0, 18586.0, 18584.0, 18586.0, 18586.0, 18586.0, 18580.0, 18584.0, 18588.0, 18582.0, 18596.0, 18586.0, 18588.0, 18586.0, 18584.0, 18582.0, 18588.0, 18588.0, 18590.0, 18586.0, 18582.0, 18582.0, 18582.0, 18584.0, 18586.0, 18588.0, 18588.0, 18582.0, 18588.0, 18582.0, 18586.0, 18590.0, 18582.0, 18588.0, 18584.0, 18586.0, 18586.0, 18586.0, 18584.0, 18586.0, 18582.0, 18588.0, 18584.0, 18582.0, 18582.0, 18588.0, 18582.0, 18588.0, 18584.0, 18582.0, 18588.0, 18586.0, 18592.0, 18586.0, 18584.0, 18588.0, 18586.0, 18590.0, 18586.0, 18582.0, 18582.0, 18586.0, 18588.0, 18586.0, 18582.0, 18582.0, 18586.0, 18580.0, 18580.0, 18588.0, 18584.0, 18584.0, 18582.0, 18586.0, 18582.0, 18586.0, 18582.0, 18588.0, 18584.0, 18582.0, 18586.0, 18586.0, 18586.0, 18584.0, 18584.0, 18584.0, 18588.0, 18586.0, 18586.0, 18584.0, 18584.0, 18582.0, 18584.0, 18580.0, 18590.0, 18584.0, 18588.0, 18584.0, 18584.0, 18588.0, 18580.0, 18584.0, 18584.0, 18590.0, 18586.0, 18586.0, 18580.0, 18594.0, 18584.0, 18586.0, 18586.0, 18586.0, 18584.0, 18584.0, 18584.0, 18588.0, 18586.0, 18584.0, 18586.0, 18586.0, 18590.0, 18586.0, 18578.0, 18586.0, 18586.0, 18580.0, 18582.0, 18586.0, 18584.0, 18584.0, 18584.0, 18584.0, 18586.0, 18586.0, 18582.0, 18586.0, 18584.0, 18580.0, 18582.0, 18592.0, 18582.0, 18582.0, 18582.0, 18584.0, 18584.0, 18588.0, 18584.0]
    },
    "slices": {}
  }
}