{
  "AcquisitionMatrixPE": 104,
  "AcquisitionNumber": 1,
  "AcquisitionTime": "13:42:38.747500",
  "BandwidthPerPixelPhaseEncode": 17.17,
  "BaseResolution": 104,
  "BodyPartExamined": "BRAIN",
  "CoilString": "HC1-7;NC1_2",
  "ConsistencyInfo": "N4_VE11C_LATEST_20160120",
  "ConversionSoftware": "dcm2niix",
  "ConversionSoftwareVersion": "v1.0.20190902",
  "DerivedVendorReportedEchoSpacing": 0.000560011,
  "DeviceSerialNumber": "167006",
  "DwellTime": 2.1e-06,
  "EchoTime": 0.037,
  "EchoTrainLength": 104,
  "EffectiveEchoSpacing": 0.000560011,
  "FlipAngle": 52,
  "HeudiconvVersion": "0.10.0",
  "ImageComments": "Unaliased_MB4_PE3_LB",
  "ImageOrientationPatientDICOM": [0.998185, 0.0262067, 0.0542202, -0.0109761, 0.964438, -0.264082],
  "ImageType": [
    "ORIGINAL",
    "PRIMARY",
    "M",
    "MB",
    "ND",
    "MOSAIC"
],
  "ImagingFrequency": 123.259,
  "InPlanePhaseEncodingDirectionDICOM": "COL",
  "InstitutionAddress": "Chemin_Queen-Mary_4565_Montreal_District_CA_H3W_1W5",
  "InstitutionName": "IUGM",
  "InstitutionalDepartmentName": "Department",
  "MRAcquisitionType": "2D",
  "MagneticFieldStrength": 3,
  "Manufacturer": "Siemens",
  "ManufacturersModelName": "Prisma_fit",
  "Modality": "MR",
  "MultibandAccelerationFactor": 4,
  "PartialFourier": 1,
  "PatientPosition": "HFS",
  "PercentPhaseFOV": 100,
  "PhaseEncodingDirection": "j",
  "PhaseEncodingSteps": 104,
  "PhaseResolution": 1,
  "PixelBandwidth": 2290,
  "ProcedureStepDescription": "memory_things",
  "ProtocolName": "func_task-things_run-5",
  "PulseSequenceDetails": "%CustomerSeq%_cmrr_mbep2d_bold",
  "ReceiveCoilActiveElements": "HC1-7;NC1,2",
  "ReceiveCoilName": "HeadNeck_64",
  "ReconMatrixPE": 104,
  "RepetitionTime": 1.49,
  "SAR": 0.0503089,
  "ScanOptions": "FS",
  "ScanningSequence": "EP",
  "SequenceName": "epfid2d1_104",
  "SequenceVariant": "SK_SS",
  "SeriesDescription": "func_task-things_run-5",
  "SeriesNumber": 22,
  "ShimSetting": [653, -7207, -8787, 689, 83, 19, 58, 3],
  "SliceThickness": 2,
  "SliceTiming": [0, 0.7825, 0.0975, 0.88, 0.195, 0.98, 0.2925, 1.0775, 0.39, 1.175, 0.49, 1.2725, 0.5875, 1.37, 0.685, 0, 0.7825, 0.0975, 0.88, 0.195, 0.98, 0.2925, 1.0775, 0.39, 1.175, 0.49, 1.2725, 0.5875, 1.37, 0.685, 0, 0.7825, 0.0975, 0.88, 0.195, 0.98, 0.2925, 1.0775, 0.39, 1.175, 0.49, 1.2725, 0.5875, 1.37, 0.685, 0, 0.7825, 0.0975, 0.88, 0.195, 0.98, 0.2925, 1.0775, 0.39, 1.175, 0.49, 1.2725, 0.5875, 1.37, 0.685],
  "SoftwareVersions": "syngo_MR_E11",
  "SpacingBetweenSlices": 2,
  "StationName": "MRC35049",
  "TaskName": "things",
  "TotalReadoutTime": 0.0576811,
  "TxRefAmp": 237.938,
  "WipMemBlock": "4a2f6365-6292-4371-b3ed-d462f6e1410a||Sequence: R016 ve11c/master r/e634e98; Dec 19 2017 11:00:25 by eja",
  "dcmmeta_affine": [
    [-1.9963700771331787, -0.021952148526906967, 0.11842542886734009, 107.30120086669922],
    [-0.052413344383239746, 1.9288758039474487, -0.5260143280029297, -71.09922790527344],
    [0.10844039171934128, 0.5281631350517273, 1.925950288772583, -65.36978912353516],
    [0.0, 0.0, 0.0, 1.0]
],
  "dcmmeta_reorient_transform": [
    [0.0, -1.0, 0.0, 103.0],
    [1.0, 0.0, 0.0, 0.0],
    [0.0, 0.0, 1.0, 0.0],
    [0.0, 0.0, 0.0, 1.0]
],
  "dcmmeta_shape": [104, 104, 60, 190],
  "dcmmeta_slice_dim": 2,
  "dcmmeta_version": 0.6,
  "global": {
    "const": {
      "AcquisitionMatrix": [104, 0, 0, 104],
      "AngioFlag": "N",
      "BitsAllocated": 16,
      "BitsStored": 16,
      "BodyPartExamined": "BRAIN",
      "Columns": 832,
      "EchoNumbers": 1,
      "EchoTime": 37.0,
      "EchoTrainLength": 104,
      "FlipAngle": 52.0,
      "HighBit": 15,
      "ImageOrientationPatient": [0.99818504319172, 0.02620667297363, 0.05422019771262, -0.0109760740571, 0.96443789078844, -0.2640815794595],
      "ImagePositionPatient": [-823.72825845728, -848.76422207262, 141.81009869057],
      "ImageType": [
        "ORIGINAL",
        "PRIMARY",
        "M",
        "MB",
        "ND",
        "MOSAIC"
],
      "ImagedNucleus": "1H",
      "ImagingFrequency": 123.258921,
      "InPlanePhaseEncodingDirection": "COL",
      "MRAcquisitionType": "2D",
      "MagneticFieldStrength": 3.0,
      "Manufacturer": "SIEMENS",
      "ManufacturerModelName": "Prisma_fit",
      "Modality": "MR",
      "NumberOfAverages": 1.0,
      "NumberOfPhaseEncodingSteps": 104,
      "PercentPhaseFieldOfView": 100.0,
      "PercentSampling": 100.0,
      "PerformedProcedureStepStartTime": "121136.819000",
      "PhotometricInterpretation": "MONOCHROME2",
      "PixelBandwidth": 2290.0,
      "PixelRepresentation": 0,
      "PixelSpacing": [2.0, 2.0],
      "ProtocolName": "func_task-things_run-5",
      "RepetitionTime": 1490.0,
      "Rows": 832,
      "SAR": 0.05030887472296,
      "SamplesPerPixel": 1,
      "ScanOptions": "FS",
      "ScanningSequence": "EP",
      "SequenceName": "epfid2d1_104",
      "SequenceVariant": [
        "SK",
        "SS"
],
      "SeriesDescription": "func_task-things_run-5",
      "SeriesNumber": 22,
      "SeriesTime": "134403.590000",
      "SliceLocation": -37.896283669816,
      "SliceThickness": 2.0,
      "SmallestImagePixelValue": 0,
      "SoftwareVersions": "syngo MR E11",
      "SpacingBetweenSlices": 2.0000000045253,
      "SpecificCharacterSet": "ISO_IR 100",
      "StudyID": "1",
      "StudyTime": "121136.734000",
      "TransmitCoilName": "Body",
      "VariableFlipAngleFlag": "N",
      "WindowCenterWidthExplanation": "Algo1",
      "dBdt": 0.0},
    "slices": {}
  },
  "time": {
    "samples": {
      "AcquisitionNumber": [1, 2, 3, 4, 5, 6, 7, 8, 9, 10, 11, 12, 13, 14, 15, 16, 17, 18, 19, 20, 21, 22, 23, 24, 25, 26, 27, 28, 29, 30, 31, 32, 33, 34, 35, 36, 37, 38, 39, 40, 41, 42, 43, 44, 45, 46, 47, 48, 49, 50, 51, 52, 53, 54, 55, 56, 57, 58, 59, 60, 61, 62, 63, 64, 65, 66, 67, 68, 69, 70, 71, 72, 73, 74, 75, 76, 77, 78, 79, 80, 81, 82, 83, 84, 85, 86, 87, 88, 89, 90, 91, 92, 93, 94, 95, 96, 97, 98, 99, 100, 101, 102, 103, 104, 105, 106, 107, 108, 109, 110, 111, 112, 113, 114, 115, 116, 117, 118, 119, 120, 121, 122, 123, 124, 125, 126, 127, 128, 129, 130, 131, 132, 133, 134, 135, 136, 137, 138, 139, 140, 141, 142, 143, 144, 145, 146, 147, 148, 149, 150, 151, 152, 153, 154, 155, 156, 157, 158, 159, 160, 161, 162, 163, 164, 165, 166, 167, 168, 169, 170, 171, 172, 173, 174, 175, 176, 177, 178, 179, 180, 181, 182, 183, 184, 185, 186, 187, 188, 189, 190],
      "AcquisitionTime": ["134238.747500", "134240.237500", "134241.727500", "134243.217500", "134244.707500", "134246.197500", "134247.687500", "134249.177500", "134250.667500", "134252.157500", "134253.647500", "134255.137500", "134256.627500", "134258.117500", "134259.607500", "134301.097500", "134302.587500", "134304.077500", "134305.567500", "134307.057500", "134308.547500", "134310.037500", "134311.527500", "134313.017500", "134314.507500", "134315.997500", "134317.487500", "134318.977500", "134320.467500", "134321.957500", "134323.447500", "134324.937500", "134326.427500", "134327.917500", "134329.407500", "134330.897500", "134332.387500", "134333.877500", "134335.367500", "134336.857500", "134338.347500", "134339.837500", "134341.327500", "134342.817500", "134344.307500", "134345.797500", "134347.287500", "134348.777500", "134350.267500", "134351.757500", "134353.247500", "134354.737500", "134356.227500", "134357.717500", "134359.207500", "134400.697500", "134402.187500", "134403.677500", "134405.167500", "134406.657500", "134408.147500", "134409.637500", "134411.127500", "134412.617500", "134414.107500", "134415.597500", "134417.087500", "134418.577500", "134420.067500", "134421.557500", "134423.047500", "134424.537500", "134426.027500", "134427.517500", "134429.007500", "134430.497500", "134431.987500", "134433.477500", "134434.967500", "134436.457500", "134437.947500", "134439.437500", "134440.927500", "134442.417500", "134443.907500", "134445.397500", "134446.887500", "134448.377500", "134449.867500", "134451.357500", "134452.847500", "134454.337500", "134455.827500", "134457.317500", "134458.807500", "134500.297500", "134501.787500", "134503.277500", "134504.767500", "134506.257500", "134507.747500", "134509.237500", "134510.727500", "134512.217500", "134513.707500", "134515.197500", "134516.687500", "134518.177500", "134519.667500", "134521.157500", "134522.647500", "134524.137500", "134525.627500", "134527.117500", "134528.607500", "134530.097500", "134531.587500", "134533.077500", "134534.567500", "134536.057500", "134537.547500", "134539.037500", "134540.527500", "134542.017500", "134543.507500", "134544.997500", "134546.487500", "134547.977500", "134549.467500", "134550.957500", "134552.447500", "134553.937500", "134555.427500", "134556.917500", "134558.407500", "134559.897500", "134601.387500", "134602.877500", "134604.367500", "134605.857500", "134607.347500", "134608.837500", "134610.327500", "134611.817500", "134613.307500", "134614.797500", "134616.287500", "134617.777500", "134619.267500", "134620.757500", "134622.247500", "134623.737500", "134625.227500", "134626.717500", "134628.207500", "134629.697500", "134631.187500", "134632.677500", "134634.167500", "134635.657500", "134637.147500", "134638.637500", "134640.127500", "134641.617500", "134643.107500", "134644.597500", "134646.087500", "134647.577500", "134649.067500", "134650.557500", "134652.047500", "134653.537500", "134655.027500", "134656.517500", "134658.007500", "134659.497500", "134700.987500", "134702.477500", "134703.967500", "134705.457500", "134706.947500", "134708.437500", "134709.927500", "134711.417500", "134712.907500", "134714.397500", "134715.887500", "134717.377500", "134718.867500", "134720.357500"],
      "ContentTime": ["134403.593000", "134403.597000", "134403.600000", "134403.603000", "134403.607000", "134403.610000", "134403.622000", "134403.625000", "134403.628000", "134403.631000", "134403.635000", "134403.638000", "134403.641000", "134403.649000", "134403.653000", "134403.656000", "134403.659000", "134403.662000", "134403.666000", "134403.669000", "134403.672000", "134403.676000", "134403.679000", "134403.682000", "134403.686000", "134403.689000", "134403.692000", "134403.696000", "134403.699000", "134403.702000", "134423.560000", "134423.563000", "134423.567000", "134423.570000", "134423.573000", "134423.577000", "134423.580000", "134423.583000", "134423.587000", "134423.590000", "134423.593000", "134423.597000", "134423.600000", "134423.603000", "134423.607000", "134423.610000", "134423.613000", "134423.617000", "134423.620000", "134423.623000", "134443.559000", "134443.563000", "134443.566000", "134443.570000", "134443.573000", "134443.576000", "134443.580000", "134443.583000", "134443.586000", "134443.590000", "134443.593000", "134443.596000", "134443.600000", "134443.603000", "134443.606000", "134443.610000", "134443.613000", "134443.616000", "134443.620000", "134443.623000", "134503.559000", "134503.563000", "134503.566000", "134503.570000", "134503.573000", "134503.576000", "134503.580000", "134503.583000", "134503.586000", "134503.590000", "134503.593000", "134503.596000", "134503.600000", "134503.603000", "134503.606000", "134503.609000", "134503.613000", "134503.616000", "134503.620000", "134503.633000", "134523.558000", "134523.562000", "134523.566000", "134523.569000", "134523.572000", "134523.576000", "134523.579000", "134523.582000", "134523.586000", "134523.590000", "134523.594000", "134523.598000", "134523.601000", "134523.606000", "134523.624000", "134523.628000", "134523.632000", "134523.636000", "134523.640000", "134523.644000", "134603.559000", "134603.563000", "134603.566000", "134603.570000", "134603.573000", "134603.576000", "134603.580000", "134603.583000", "134603.587000", "134603.590000", "134603.593000", "134603.596000", "134603.600000", "134603.603000", "134603.607000", "134603.610000", "134603.613000", "134603.617000", "134603.620000", "134603.623000", "134603.627000", "134603.630000", "134603.633000", "134603.637000", "134603.640000", "134603.643000", "134603.646000", "134643.559000", "134643.563000", "134643.566000", "134643.570000", "134643.573000", "134643.577000", "134643.580000", "134643.583000", "134643.587000", "134643.590000", "134643.593000", "134643.597000", "134643.600000", "134643.603000", "134643.607000", "134643.610000", "134643.613000", "134643.617000", "134643.620000", "134643.623000", "134643.627000", "134643.630000", "134643.633000", "134643.637000", "134643.640000", "134643.643000", "134643.647000", "134722.070000", "134722.074000", "134722.077000", "134722.081000", "134722.084000", "134722.087000", "134722.091000", "134722.094000", "134722.098000", "134722.101000", "134722.104000", "134722.108000", "134722.111000", "134722.115000", "134722.118000", "134722.122000", "134722.125000", "134722.129000", "134722.132000", "134722.135000", "134722.139000", "134722.142000", "134722.145000", "134722.149000", "134722.152000", "134722.155000"],
      "InstanceCreationTime": ["134403.593000", "134403.597000", "134403.600000", "134403.603000", "134403.607000", "134403.610000", "134403.622000", "134403.625000", "134403.628000", "134403.631000", "134403.635000", "134403.638000", "134403.641000", "134403.649000", "134403.653000", "134403.656000", "134403.659000", "134403.662000", "134403.666000", "134403.669000", "134403.672000", "134403.676000", "134403.679000", "134403.682000", "134403.686000", "134403.689000", "134403.692000", "134403.696000", "134403.699000", "134403.702000", "134423.560000", "134423.563000", "134423.567000", "134423.570000", "134423.573000", "134423.577000", "134423.580000", "134423.583000", "134423.587000", "134423.590000", "134423.593000", "134423.597000", "134423.600000", "134423.603000", "134423.607000", "134423.610000", "134423.613000", "134423.617000", "134423.620000", "134423.623000", "134443.559000", "134443.563000", "134443.566000", "134443.570000", "134443.573000", "134443.576000", "134443.580000", "134443.583000", "134443.586000", "134443.590000", "134443.593000", "134443.596000", "134443.600000", "134443.603000", "134443.606000", "134443.610000", "134443.613000", "134443.616000", "134443.620000", "134443.623000", "134503.559000", "134503.563000", "134503.566000", "134503.570000", "134503.573000", "134503.576000", "134503.580000", "134503.583000", "134503.586000", "134503.590000", "134503.593000", "134503.596000", "134503.600000", "134503.603000", "134503.606000", "134503.609000", "134503.613000", "134503.616000", "134503.620000", "134503.633000", "134523.558000", "134523.562000", "134523.566000", "134523.569000", "134523.572000", "134523.576000", "134523.579000", "134523.582000", "134523.586000", "134523.590000", "134523.594000", "134523.598000", "134523.601000", "134523.606000", "134523.624000", "134523.628000", "134523.632000", "134523.636000", "134523.640000", "134523.644000", "134603.559000", "134603.563000", "134603.566000", "134603.570000", "134603.573000", "134603.576000", "134603.580000", "134603.583000", "134603.587000", "134603.590000", "134603.593000", "134603.596000", "134603.600000", "134603.603000", "134603.607000", "134603.610000", "134603.613000", "134603.617000", "134603.620000", "134603.623000", "134603.627000", "134603.630000", "134603.633000", "134603.637000", "134603.640000", "134603.643000", "134603.646000", "134643.559000", "134643.563000", "134643.566000", "134643.570000", "134643.573000", "134643.577000", "134643.580000", "134643.583000", "134643.587000", "134643.590000", "134643.593000", "134643.597000", "134643.600000", "134643.603000", "134643.607000", "134643.610000", "134643.613000", "134643.617000", "134643.620000", "134643.623000", "134643.627000", "134643.630000", "134643.633000", "134643.637000", "134643.640000", "134643.643000", "134643.647000", "134722.070000", "134722.074000", "134722.077000", "134722.081000", "134722.084000", "134722.087000", "134722.091000", "134722.094000", "134722.098000", "134722.101000", "134722.104000", "134722.108000", "134722.111000", "134722.115000", "134722.118000", "134722.122000", "134722.125000", "134722.129000", "134722.132000", "134722.135000", "134722.139000", "134722.142000", "134722.145000", "134722.149000", "134722.152000", "134722.155000"],
      "InstanceNumber": [1, 2, 3, 4, 5, 6, 7, 8, 9, 10, 11, 12, 13, 14, 15, 16, 17, 18, 19, 20, 21, 22, 23, 24, 25, 26, 27, 28, 29, 30, 31, 32, 33, 34, 35, 36, 37, 38, 39, 40, 41, 42, 43, 44, 45, 46, 47, 48, 49, 50, 51, 52, 53, 54, 55, 56, 57, 58, 59, 60, 61, 62, 63, 64, 65, 66, 67, 68, 69, 70, 71, 72, 73, 74, 75, 76, 77, 78, 79, 80, 81, 82, 83, 84, 85, 86, 87, 88, 89, 90, 91, 92, 93, 94, 95, 96, 97, 98, 99, 100, 101, 102, 103, 104, 105, 106, 107, 108, 109, 110, 111, 112, 113, 114, 115, 116, 117, 118, 119, 120, 121, 122, 123, 124, 125, 126, 127, 128, 129, 130, 131, 132, 133, 134, 135, 136, 137, 138, 139, 140, 141, 142, 143, 144, 145, 146, 147, 148, 149, 150, 151, 152, 153, 154, 155, 156, 157, 158, 159, 160, 161, 162, 163, 164, 165, 166, 167, 168, 169, 170, 171, 172, 173, 174, 175, 176, 177, 178, 179, 180, 181, 182, 183, 184, 185, 186, 187, 188, 189, 190],
      "LargestImagePixelValue": [39290, 38340, 37683, 37265, 36910, 36835, 36871, 37080, 36748, 36944, 36787, 36935, 36938, 36882, 36630, 36835, 36558, 36877, 36646, 36591, 36940, 36769, 36952, 36732, 36916, 37065, 36924, 37217, 36447, 37033, 36743, 37093, 36986, 36762, 36971, 37077, 36679, 36771, 36759, 36798, 36979, 36659, 36809, 36831, 36728, 36903, 36798, 36851, 36696, 37066, 36781, 36939, 36847, 37181, 36876, 36734, 37176, 36913, 36977, 36868, 36838, 36971, 36912, 36738, 36862, 36875, 36886, 37107, 36992, 37169, 36960, 37074, 37174, 37173, 37071, 36967, 37051, 36994, 37063, 37412, 37197, 37165, 37058, 37182, 37052, 36930, 37175, 37163, 37083, 37217, 37089, 37176, 37139, 37192, 37259, 36955, 36561, 37318, 37408, 37386, 36749, 37390, 36911, 37296, 37164, 37417, 36786, 37249, 37010, 37432, 37121, 37202, 37105, 37044, 37147, 37121, 37716, 37696, 37290, 36853, 37269, 36897, 36986, 37181, 37193, 37486, 37678, 37313, 37199, 37179, 37127, 37535, 37723, 37412, 37418, 37313, 37263, 37695, 37633, 37617, 37618, 37099, 37499, 37551, 37066, 37364, 37188, 37609, 36894, 37650, 37013, 37383, 36972, 36944, 37041, 37799, 37229, 36966, 36993, 37155, 37267, 36873, 37159, 37283, 37007, 37589, 37097, 37103, 36968, 36902, 37187, 37387, 37390, 37177, 37114, 36878, 37242, 36992, 37235, 36592, 37256, 36985, 37206, 36786, 36937, 37172, 36736, 36819, 37003, 36997],
      "WindowCenter": [10113.0, 10075.0, 10062.0, 10062.0, 10056.0, 10063.0, 10057.0, 10062.0, 10056.0, 10061.0, 10055.0, 10062.0, 10072.0, 10078.0, 10068.0, 10071.0, 10065.0, 10063.0, 10063.0, 10056.0, 10056.0, 10062.0, 10069.0, 10064.0, 10062.0, 10053.0, 10051.0, 10042.0, 10035.0, 10058.0, 10062.0, 10055.0, 10051.0, 10043.0, 10035.0, 10026.0, 10025.0, 10043.0, 10062.0, 10064.0, 10045.0, 10021.0, 10016.0, 10031.0, 10049.0, 10052.0, 10037.0, 10026.0, 10016.0, 10015.0, 10019.0, 10025.0, 10036.0, 10044.0, 10042.0, 10042.0, 10052.0, 10054.0, 10046.0, 10036.0, 10020.0, 10024.0, 10035.0, 10052.0, 10054.0, 10045.0, 10050.0, 10057.0, 10068.0, 10078.0, 10078.0, 10062.0, 10054.0, 10062.0, 10080.0, 10072.0, 10061.0, 10038.0, 10025.0, 10020.0, 10029.0, 10039.0, 10057.0, 10062.0, 10068.0, 10053.0, 10060.0, 10071.0, 10072.0, 10055.0, 10042.0, 10041.0, 10057.0, 10061.0, 10060.0, 10053.0, 10038.0, 10051.0, 10059.0, 10067.0, 10047.0, 10049.0, 10035.0, 10041.0, 10059.0, 10085.0, 10074.0, 10057.0, 10035.0, 10029.0, 10034.0, 10042.0, 10035.0, 10019.0, 10006.0, 10012.0, 10043.0, 10055.0, 10051.0, 10036.0, 10025.0, 10017.0, 10016.0, 10021.0, 10029.0, 10037.0, 10030.0, 10031.0, 10035.0, 10042.0, 10034.0, 10042.0, 10058.0, 10062.0, 10052.0, 10035.0, 10017.0, 10013.0, 10017.0, 10037.0, 10057.0, 10058.0, 10060.0, 10076.0, 10069.0, 10059.0, 10037.0, 10031.0, 10023.0, 10055.0, 10077.0, 10078.0, 10046.0, 10019.0, 10000.0, 10002.0, 10011.0, 10030.0, 10044.0, 10052.0, 10052.0, 10038.0, 10034.0, 10024.0, 10024.0, 10030.0, 10042.0, 10052.0, 10045.0, 10038.0, 10042.0, 10050.0, 10074.0, 10080.0, 10073.0, 10063.0, 10052.0, 10035.0, 10026.0, 10030.0, 10050.0, 10050.0, 10042.0, 10026.0, 10025.0, 10041.0, 10042.0, 10020.0, 10023.0, 10046.0],
      "WindowWidth": [21517.0, 21411.0, 21367.0, 21361.0, 21348.0, 21362.0, 21349.0, 21355.0, 21345.0, 21354.0, 21342.0, 21358.0, 21378.0, 21393.0, 21373.0, 21374.0, 21361.0, 21357.0, 21356.0, 21341.0, 21341.0, 21353.0, 21369.0, 21359.0, 21352.0, 21330.0, 21325.0, 21303.0, 21290.0, 21341.0, 21352.0, 21339.0, 21324.0, 21308.0, 21291.0, 21271.0, 21269.0, 21313.0, 21356.0, 21360.0, 21312.0, 21259.0, 21247.0, 21278.0, 21323.0, 21329.0, 21293.0, 21267.0, 21243.0, 21242.0, 21256.0, 21269.0, 21294.0, 21313.0, 21307.0, 21306.0, 21330.0, 21333.0, 21316.0, 21291.0, 21257.0, 21265.0, 21293.0, 21330.0, 21335.0, 21315.0, 21323.0, 21338.0, 21366.0, 21388.0, 21390.0, 21352.0, 21334.0, 21351.0, 21391.0, 21373.0, 21347.0, 21295.0, 21264.0, 21250.0, 21272.0, 21300.0, 21338.0, 21353.0, 21364.0, 21331.0, 21345.0, 21373.0, 21375.0, 21335.0, 21301.0, 21302.0, 21338.0, 21347.0, 21346.0, 21329.0, 21298.0, 21325.0, 21344.0, 21361.0, 21319.0, 21316.0, 21291.0, 21303.0, 21344.0, 21401.0, 21381.0, 21340.0, 21288.0, 21269.0, 21287.0, 21305.0, 21290.0, 21253.0, 21219.0, 21235.0, 21304.0, 21333.0, 21327.0, 21293.0, 21265.0, 21247.0, 21245.0, 21255.0, 21275.0, 21292.0, 21275.0, 21279.0, 21292.0, 21306.0, 21289.0, 21307.0, 21340.0, 21352.0, 21326.0, 21289.0, 21247.0, 21236.0, 21243.0, 21291.0, 21340.0, 21344.0, 21349.0, 21383.0, 21366.0, 21342.0, 21294.0, 21275.0, 21260.0, 21333.0, 21383.0, 21384.0, 21312.0, 21250.0, 21208.0, 21209.0, 21234.0, 21281.0, 21311.0, 21329.0, 21328.0, 21298.0, 21287.0, 21262.0, 21263.0, 21275.0, 21307.0, 21328.0, 21313.0, 21299.0, 21307.0, 21323.0, 21378.0, 21397.0, 21378.0, 21355.0, 21327.0, 21289.0, 21268.0, 21282.0, 21323.0, 21323.0, 21302.0, 21268.0, 21266.0, 21302.0, 21304.0, 21256.0, 21258.0, 21311.0]
    },
    "slices": {}
  }
}