{
  "AcquisitionMatrixPE": 104,
  "AcquisitionNumber": 1,
  "AcquisitionTime": "13:49:27.977500",
  "BandwidthPerPixelPhaseEncode": 17.17,
  "BaseResolution": 104,
  "BodyPartExamined": "BRAIN",
  "CoilString": "HC1-7;NC1_2",
  "ConsistencyInfo": "N4_VE11C_LATEST_20160120",
  "ConversionSoftware": "dcm2niix",
  "ConversionSoftwareVersion": "v1.0.20190902",
  "DerivedVendorReportedEchoSpacing": 0.000560011,
  "DeviceSerialNumber": "167006",
  "DwellTime": 2.1e-06,
  "EchoTime": 0.037,
  "EchoTrainLength": 104,
  "EffectiveEchoSpacing": 0.000560011,
  "FlipAngle": 52,
  "HeudiconvVersion": "0.10.0",
  "ImageComments": "Unaliased_MB4_PE3_LB",
  "ImageOrientationPatientDICOM": [0.998185, 0.0262067, 0.0542202, -0.0109761, 0.964438, -0.264082],
  "ImageType": [
    "ORIGINAL",
    "PRIMARY",
    "P",
    "MB",
    "ND",
    "MOSAIC"
],
  "ImagingFrequency": 123.259,
  "InPlanePhaseEncodingDirectionDICOM": "COL",
  "InstitutionAddress": "Chemin_Queen-Mary_4565_Montreal_District_CA_H3W_1W5",
  "InstitutionName": "IUGM",
  "InstitutionalDepartmentName": "Department",
  "MRAcquisitionType": "2D",
  "MagneticFieldStrength": 3,
  "Manufacturer": "Siemens",
  "ManufacturersModelName": "Prisma_fit",
  "Modality": "MR",
  "MultibandAccelerationFactor": 4,
  "PartialFourier": 1,
  "PatientPosition": "HFS",
  "PercentPhaseFOV": 100,
  "PhaseEncodingDirection": "j",
  "PhaseEncodingSteps": 104,
  "PhaseResolution": 1,
  "PixelBandwidth": 2290,
  "ProcedureStepDescription": "memory_things",
  "ProtocolName": "func_task-things_run-6",
  "PulseSequenceDetails": "%CustomerSeq%_cmrr_mbep2d_bold",
  "ReceiveCoilActiveElements": "HC1-7;NC1,2",
  "ReceiveCoilName": "HeadNeck_64",
  "ReconMatrixPE": 104,
  "RepetitionTime": 1.49,
  "SAR": 0.0503089,
  "ScanOptions": "FS",
  "ScanningSequence": "EP",
  "SequenceName": "epfid2d1_104",
  "SequenceVariant": "SK_SS",
  "SeriesDescription": "func_task-things_run-6",
  "SeriesNumber": 26,
  "ShimSetting": [653, -7207, -8787, 689, 83, 19, 58, 3],
  "SliceThickness": 2,
  "SliceTiming": [0, 0.7825, 0.0975, 0.8825, 0.195, 0.98, 0.2925, 1.0775, 0.3925, 1.175, 0.49, 1.2725, 0.5875, 1.3725, 0.685, 0, 0.7825, 0.0975, 0.8825, 0.195, 0.98, 0.2925, 1.0775, 0.3925, 1.175, 0.49, 1.2725, 0.5875, 1.3725, 0.685, 0, 0.7825, 0.0975, 0.8825, 0.195, 0.98, 0.2925, 1.0775, 0.3925, 1.175, 0.49, 1.2725, 0.5875, 1.3725, 0.685, 0, 0.7825, 0.0975, 0.8825, 0.195, 0.98, 0.2925, 1.0775, 0.3925, 1.175, 0.49, 1.2725, 0.5875, 1.3725, 0.685],
  "SoftwareVersions": "syngo_MR_E11",
  "SpacingBetweenSlices": 2,
  "StationName": "MRC35049",
  "TaskName": "things",
  "TotalReadoutTime": 0.0576811,
  "TxRefAmp": 237.938,
  "WipMemBlock": "8b7345b3-947b-45a9-b230-aff2b75108d8||Sequence: R016 ve11c/master r/e634e98; Dec 19 2017 11:00:25 by eja",
  "dcmmeta_affine": [
    [-1.9963700771331787, -0.021952148526906967, 0.11842542886734009, 107.30120086669922],
    [-0.052413344383239746, 1.9288758039474487, -0.5260143280029297, -71.09922790527344],
    [0.10844039171934128, 0.5281631350517273, 1.925950288772583, -65.36978912353516],
    [0.0, 0.0, 0.0, 1.0]
],
  "dcmmeta_reorient_transform": [
    [0.0, -1.0, 0.0, 103.0],
    [1.0, 0.0, 0.0, 0.0],
    [0.0, 0.0, 1.0, 0.0],
    [0.0, 0.0, 0.0, 1.0]
],
  "dcmmeta_shape": [104, 104, 60, 190],
  "dcmmeta_slice_dim": 2,
  "dcmmeta_version": 0.6,
  "global": {
    "const": {
      "AcquisitionMatrix": [104, 0, 0, 104],
      "AngioFlag": "N",
      "BitsAllocated": 16,
      "BitsStored": 16,
      "BodyPartExamined": "BRAIN",
      "Columns": 832,
      "EchoNumbers": 1,
      "EchoTime": 37.0,
      "EchoTrainLength": 104,
      "FlipAngle": 52.0,
      "HighBit": 15,
      "ImageOrientationPatient": [0.99818504319172, 0.02620667297363, 0.05422019771262, -0.0109760740571, 0.96443789078844, -0.2640815794595],
      "ImagePositionPatient": [-823.72825845728, -848.76422207262, 141.81009869057],
      "ImageType": [
        "ORIGINAL",
        "PRIMARY",
        "P",
        "MB",
        "ND",
        "MOSAIC"
],
      "ImagedNucleus": "1H",
      "ImagingFrequency": 123.258923,
      "InPlanePhaseEncodingDirection": "COL",
      "LargestImagePixelValue": 4095,
      "MRAcquisitionType": "2D",
      "MagneticFieldStrength": 3.0,
      "Manufacturer": "SIEMENS",
      "ManufacturerModelName": "Prisma_fit",
      "Modality": "MR",
      "NumberOfAverages": 1.0,
      "NumberOfPhaseEncodingSteps": 104,
      "PercentPhaseFieldOfView": 100.0,
      "PercentSampling": 100.0,
      "PerformedProcedureStepStartTime": "121136.819000",
      "PhotometricInterpretation": "MONOCHROME2",
      "PixelBandwidth": 2290.0,
      "PixelRepresentation": 0,
      "PixelSpacing": [2.0, 2.0],
      "ProtocolName": "func_task-things_run-6",
      "RepetitionTime": 1490.0,
      "RescaleIntercept": -4096.0,
      "RescaleSlope": 2.0,
      "RescaleType": "US",
      "Rows": 832,
      "SAR": 0.05030887472296,
      "SamplesPerPixel": 1,
      "ScanOptions": "FS",
      "ScanningSequence": "EP",
      "SequenceName": "epfid2d1_104",
      "SequenceVariant": [
        "SK",
        "SS"
],
      "SeriesDescription": "func_task-things_run-6",
      "SeriesNumber": 26,
      "SeriesTime": "135049.755000",
      "SliceLocation": -37.896283669816,
      "SliceThickness": 2.0,
      "SmallestImagePixelValue": 0,
      "SoftwareVersions": "syngo MR E11",
      "SpacingBetweenSlices": 2.0000000045253,
      "SpecificCharacterSet": "ISO_IR 100",
      "StudyID": "1",
      "StudyTime": "121136.734000",
      "TransmitCoilName": "Body",
      "VariableFlipAngleFlag": "N",
      "WindowCenterWidthExplanation": "Algo1",
      "dBdt": 0.0},
    "slices": {}
  },
  "time": {
    "samples": {
      "AcquisitionNumber": [1, 2, 3, 4, 5, 6, 7, 8, 9, 10, 11, 12, 13, 14, 15, 16, 17, 18, 19, 20, 21, 22, 23, 24, 25, 26, 27, 28, 29, 30, 31, 32, 33, 34, 35, 36, 37, 38, 39, 40, 41, 42, 43, 44, 45, 46, 47, 48, 49, 50, 51, 52, 53, 54, 55, 56, 57, 58, 59, 60, 61, 62, 63, 64, 65, 66, 67, 68, 69, 70, 71, 72, 73, 74, 75, 76, 77, 78, 79, 80, 81, 82, 83, 84, 85, 86, 87, 88, 89, 90, 91, 92, 93, 94, 95, 96, 97, 98, 99, 100, 101, 102, 103, 104, 105, 106, 107, 108, 109, 110, 111, 112, 113, 114, 115, 116, 117, 118, 119, 120, 121, 122, 123, 124, 125, 126, 127, 128, 129, 130, 131, 132, 133, 134, 135, 136, 137, 138, 139, 140, 141, 142, 143, 144, 145, 146, 147, 148, 149, 150, 151, 152, 153, 154, 155, 156, 157, 158, 159, 160, 161, 162, 163, 164, 165, 166, 167, 168, 169, 170, 171, 172, 173, 174, 175, 176, 177, 178, 179, 180, 181, 182, 183, 184, 185, 186, 187, 188, 189, 190],
      "AcquisitionTime": ["134927.977500", "134929.467500", "134930.957500", "134932.447500", "134933.937500", "134935.427500", "134936.917500", "134938.407500", "134939.897500", "134941.387500", "134942.877500", "134944.367500", "134945.857500", "134947.347500", "134948.837500", "134950.327500", "134951.817500", "134953.307500", "134954.797500", "134956.287500", "134957.777500", "134959.267500", "135000.757500", "135002.247500", "135003.737500", "135005.227500", "135006.717500", "135008.207500", "135009.697500", "135011.187500", "135012.677500", "135014.167500", "135015.657500", "135017.147500", "135018.637500", "135020.127500", "135021.617500", "135023.107500", "135024.597500", "135026.087500", "135027.577500", "135029.067500", "135030.557500", "135032.047500", "135033.537500", "135035.027500", "135036.517500", "135038.007500", "135039.497500", "135040.987500", "135042.477500", "135043.967500", "135045.457500", "135046.947500", "135048.437500", "135049.927500", "135051.417500", "135052.907500", "135054.397500", "135055.887500", "135057.377500", "135058.867500", "135100.357500", "135101.847500", "135103.337500", "135104.827500", "135106.317500", "135107.807500", "135109.297500", "135110.787500", "135112.277500", "135113.767500", "135115.257500", "135116.747500", "135118.237500", "135119.727500", "135121.217500", "135122.707500", "135124.197500", "135125.687500", "135127.177500", "135128.667500", "135130.157500", "135131.647500", "135133.137500", "135134.627500", "135136.117500", "135137.607500", "135139.097500", "135140.587500", "135142.077500", "135143.567500", "135145.057500", "135146.547500", "135148.037500", "135149.527500", "135151.017500", "135152.507500", "135153.997500", "135155.487500", "135156.977500", "135158.467500", "135159.957500", "135201.447500", "135202.937500", "135204.427500", "135205.917500", "135207.407500", "135208.897500", "135210.387500", "135211.877500", "135213.367500", "135214.857500", "135216.347500", "135217.837500", "135219.327500", "135220.817500", "135222.307500", "135223.797500", "135225.287500", "135226.777500", "135228.267500", "135229.757500", "135231.247500", "135232.737500", "135234.227500", "135235.717500", "135237.207500", "135238.697500", "135240.187500", "135241.677500", "135243.167500", "135244.657500", "135246.147500", "135247.637500", "135249.127500", "135250.617500", "135252.107500", "135253.597500", "135255.087500", "135256.577500", "135258.067500", "135259.557500", "135301.047500", "135302.537500", "135304.027500", "135305.517500", "135307.007500", "135308.497500", "135309.987500", "135311.477500", "135312.967500", "135314.457500", "135315.947500", "135317.437500", "135318.927500", "135320.417500", "135321.907500", "135323.397500", "135324.887500", "135326.377500", "135327.867500", "135329.357500", "135330.847500", "135332.337500", "135333.827500", "135335.317500", "135336.807500", "135338.297500", "135339.787500", "135341.277500", "135342.767500", "135344.257500", "135345.747500", "135347.237500", "135348.727500", "135350.217500", "135351.707500", "135353.197500", "135354.687500", "135356.177500", "135357.667500", "135359.157500", "135400.647500", "135402.137500", "135403.627500", "135405.117500", "135406.607500", "135408.097500", "135409.587500"],
      "ContentTime": ["135049.757000", "135049.760000", "135049.762000", "135049.765000", "135049.767000", "135049.770000", "135049.772000", "135049.775000", "135049.777000", "135049.780000", "135049.782000", "135049.785000", "135049.787000", "135049.790000", "135049.792000", "135049.795000", "135049.797000", "135049.800000", "135049.802000", "135049.805000", "135049.807000", "135049.809000", "135049.812000", "135049.814000", "135049.817000", "135049.819000", "135109.686000", "135109.689000", "135109.691000", "135109.694000", "135109.696000", "135109.699000", "135109.701000", "135109.704000", "135109.706000", "135109.709000", "135109.711000", "135109.714000", "135109.716000", "135109.719000", "135109.721000", "135109.724000", "135109.726000", "135109.729000", "135109.731000", "135109.734000", "135109.736000", "135129.673000", "135129.676000", "135129.678000", "135129.681000", "135129.683000", "135129.686000", "135129.688000", "135129.691000", "135129.694000", "135129.696000", "135129.699000", "135129.701000", "135129.704000", "135129.706000", "135129.708000", "135129.711000", "135129.714000", "135129.716000", "135129.719000", "135129.721000", "135149.672000", "135149.675000", "135149.678000", "135149.680000", "135149.686000", "135149.689000", "135149.691000", "135149.694000", "135149.696000", "135149.699000", "135149.701000", "135149.704000", "135149.706000", "135149.709000", "135149.711000", "135149.714000", "135149.716000", "135149.719000", "135149.721000", "135149.724000", "135209.672000", "135209.675000", "135209.678000", "135209.680000", "135209.683000", "135209.685000", "135209.688000", "135209.690000", "135209.692000", "135209.703000", "135209.705000", "135209.708000", "135209.710000", "135209.713000", "135209.715000", "135209.718000", "135209.720000", "135209.723000", "135209.725000", "135209.728000", "135249.720000", "135249.723000", "135249.726000", "135249.728000", "135249.731000", "135249.733000", "135249.736000", "135249.738000", "135249.741000", "135249.743000", "135249.746000", "135249.748000", "135249.751000", "135249.753000", "135249.756000", "135249.758000", "135249.761000", "135249.763000", "135249.766000", "135249.768000", "135249.771000", "135249.773000", "135249.776000", "135249.779000", "135249.781000", "135249.784000", "135249.786000", "135329.699000", "135329.702000", "135329.704000", "135329.707000", "135329.709000", "135329.712000", "135329.714000", "135329.717000", "135329.719000", "135329.722000", "135329.724000", "135329.727000", "135329.729000", "135329.732000", "135329.734000", "135329.737000", "135329.739000", "135329.742000", "135329.745000", "135329.747000", "135329.750000", "135329.752000", "135329.755000", "135329.757000", "135329.760000", "135329.762000", "135329.765000", "135409.701000", "135409.703000", "135409.706000", "135409.708000", "135409.711000", "135409.713000", "135409.716000", "135409.718000", "135409.721000", "135409.724000", "135409.726000", "135409.729000", "135409.731000", "135409.734000", "135409.736000", "135409.739000", "135409.741000", "135409.744000", "135409.751000", "135409.753000", "135409.756000", "135409.758000", "135409.761000", "135409.763000", "135409.766000", "135409.768000", "135409.771000", "135412.222000", "135412.225000"],
      "InstanceCreationTime": ["135049.757000", "135049.760000", "135049.762000", "135049.765000", "135049.767000", "135049.770000", "135049.772000", "135049.775000", "135049.777000", "135049.780000", "135049.782000", "135049.785000", "135049.787000", "135049.790000", "135049.792000", "135049.795000", "135049.797000", "135049.800000", "135049.802000", "135049.805000", "135049.807000", "135049.809000", "135049.812000", "135049.814000", "135049.817000", "135049.819000", "135109.686000", "135109.689000", "135109.691000", "135109.694000", "135109.696000", "135109.699000", "135109.701000", "135109.704000", "135109.706000", "135109.709000", "135109.711000", "135109.714000", "135109.716000", "135109.719000", "135109.721000", "135109.724000", "135109.726000", "135109.729000", "135109.731000", "135109.734000", "135109.736000", "135129.673000", "135129.676000", "135129.678000", "135129.681000", "135129.683000", "135129.686000", "135129.688000", "135129.691000", "135129.694000", "135129.696000", "135129.699000", "135129.701000", "135129.704000", "135129.706000", "135129.708000", "135129.711000", "135129.714000", "135129.716000", "135129.719000", "135129.721000", "135149.672000", "135149.675000", "135149.678000", "135149.680000", "135149.686000", "135149.689000", "135149.691000", "135149.694000", "135149.696000", "135149.699000", "135149.701000", "135149.704000", "135149.706000", "135149.709000", "135149.711000", "135149.714000", "135149.716000", "135149.719000", "135149.721000", "135149.724000", "135209.672000", "135209.675000", "135209.678000", "135209.680000", "135209.683000", "135209.685000", "135209.688000", "135209.690000", "135209.692000", "135209.703000", "135209.705000", "135209.708000", "135209.710000", "135209.713000", "135209.715000", "135209.718000", "135209.720000", "135209.723000", "135209.725000", "135209.728000", "135249.720000", "135249.723000", "135249.726000", "135249.728000", "135249.731000", "135249.733000", "135249.736000", "135249.738000", "135249.741000", "135249.743000", "135249.746000", "135249.748000", "135249.751000", "135249.753000", "135249.756000", "135249.758000", "135249.761000", "135249.763000", "135249.766000", "135249.768000", "135249.771000", "135249.773000", "135249.776000", "135249.779000", "135249.781000", "135249.784000", "135249.786000", "135329.699000", "135329.702000", "135329.704000", "135329.707000", "135329.709000", "135329.712000", "135329.714000", "135329.717000", "135329.719000", "135329.722000", "135329.724000", "135329.727000", "135329.729000", "135329.732000", "135329.734000", "135329.737000", "135329.739000", "135329.742000", "135329.745000", "135329.747000", "135329.750000", "135329.752000", "135329.755000", "135329.757000", "135329.760000", "135329.762000", "135329.765000", "135409.701000", "135409.703000", "135409.706000", "135409.708000", "135409.711000", "135409.713000", "135409.716000", "135409.718000", "135409.721000", "135409.724000", "135409.726000", "135409.729000", "135409.731000", "135409.734000", "135409.736000", "135409.739000", "135409.741000", "135409.744000", "135409.751000", "135409.753000", "135409.756000", "135409.758000", "135409.761000", "135409.763000", "135409.766000", "135409.768000", "135409.771000", "135412.222000", "135412.225000"],
      "InstanceNumber": [1, 2, 3, 4, 5, 6, 7, 8, 9, 10, 11, 12, 13, 14, 15, 16, 17, 18, 19, 20, 21, 22, 23, 24, 25, 26, 27, 28, 29, 30, 31, 32, 33, 34, 35, 36, 37, 38, 39, 40, 41, 42, 43, 44, 45, 46, 47, 48, 49, 50, 51, 52, 53, 54, 55, 56, 57, 58, 59, 60, 61, 62, 63, 64, 65, 66, 67, 68, 69, 70, 71, 72, 73, 74, 75, 76, 77, 78, 79, 80, 81, 82, 83, 84, 85, 86, 87, 88, 89, 90, 91, 92, 93, 94, 95, 96, 97, 98, 99, 100, 101, 102, 103, 104, 105, 106, 107, 108, 109, 110, 111, 112, 113, 114, 115, 116, 117, 118, 119, 120, 121, 122, 123, 124, 125, 126, 127, 128, 129, 130, 131, 132, 133, 134, 135, 136, 137, 138, 139, 140, 141, 142, 143, 144, 145, 146, 147, 148, 149, 150, 151, 152, 153, 154, 155, 156, 157, 158, 159, 160, 161, 162, 163, 164, 165, 166, 167, 168, 169, 170, 171, 172, 173, 174, 175, 176, 177, 178, 179, 180, 181, 182, 183, 184, 185, 186, 187, 188, 189, 190],
      "WindowCenter": [4824.0, 4804.0, 4800.0, 4826.0, 4822.0, 4800.0, 4798.0, 4800.0, 4824.0, 4798.0, 4802.0, 4824.0, 4824.0, 4828.0, 4826.0, 4826.0, 4824.0, 4824.0, 4822.0, 4802.0, 4800.0, 4802.0, 4826.0, 4826.0, 4826.0, 4824.0, 4824.0, 4824.0, 4826.0, 4820.0, 4824.0, 4824.0, 4802.0, 4800.0, 4800.0, 4804.0, 4822.0, 4826.0, 4822.0, 4824.0, 4824.0, 4824.0, 4824.0, 4802.0, 4824.0, 4800.0, 4800.0, 4800.0, 4826.0, 4802.0, 4824.0, 4824.0, 4822.0, 4824.0, 4826.0, 4826.0, 4824.0, 4802.0, 4824.0, 4824.0, 4826.0, 4826.0, 4824.0, 4826.0, 4826.0, 4826.0, 4802.0, 4822.0, 4826.0, 4822.0, 4824.0, 4826.0, 4824.0, 4826.0, 4824.0, 4828.0, 4826.0, 4826.0, 4802.0, 4822.0, 4824.0, 4826.0, 4802.0, 4826.0, 4822.0, 4822.0, 4826.0, 4824.0, 4824.0, 4824.0, 4824.0, 4828.0, 4820.0, 4802.0, 4800.0, 4824.0, 4826.0, 4824.0, 4824.0, 4826.0, 4828.0, 4824.0, 4828.0, 4822.0, 4826.0, 4826.0, 4826.0, 4802.0, 4824.0, 4824.0, 4828.0, 4824.0, 4826.0, 4826.0, 4800.0, 4824.0, 4800.0, 4824.0, 4800.0, 4824.0, 4800.0, 4824.0, 4826.0, 4824.0, 4820.0, 4822.0, 4824.0, 4822.0, 4828.0, 4826.0, 4826.0, 4802.0, 4824.0, 4824.0, 4826.0, 4824.0, 4824.0, 4830.0, 4824.0, 4826.0, 4826.0, 4824.0, 4822.0, 4822.0, 4824.0, 4822.0, 4826.0, 4830.0, 4828.0, 4826.0, 4824.0, 4800.0, 4826.0, 4800.0, 4822.0, 4826.0, 4826.0, 4826.0, 4826.0, 4824.0, 4824.0, 4828.0, 4826.0, 4824.0, 4824.0, 4824.0, 4798.0, 4824.0, 4822.0, 4826.0, 4826.0, 4824.0, 4826.0, 4826.0, 4820.0, 4824.0, 4826.0, 4824.0, 4824.0, 4828.0, 4826.0, 4822.0, 4828.0, 4828.0, 4826.0, 4800.0, 4826.0, 4826.0, 4826.0, 4826.0],
      "WindowWidth": [18598.0, 18566.0, 18562.0, 18596.0, 18590.0, 18570.0, 18558.0, 18564.0, 18598.0, 18564.0, 18564.0, 18596.0, 18594.0, 18602.0, 18596.0, 18588.0, 18594.0, 18598.0, 18594.0, 18564.0, 18568.0, 18564.0, 18596.0, 18596.0, 18602.0, 18596.0, 18594.0, 18590.0, 18592.0, 18592.0, 18592.0, 18592.0, 18564.0, 18562.0, 18568.0, 18566.0, 18596.0, 18596.0, 18592.0, 18594.0, 18594.0, 18594.0, 18596.0, 18568.0, 18598.0, 18562.0, 18568.0, 18564.0, 18592.0, 18562.0, 18596.0, 18588.0, 18588.0, 18592.0, 18600.0, 18598.0, 18598.0, 18564.0, 18594.0, 18596.0, 18592.0, 18592.0, 18588.0, 18596.0, 18588.0, 18598.0, 18562.0, 18596.0, 18596.0, 18598.0, 18596.0, 18592.0, 18594.0, 18594.0, 18596.0, 18596.0, 18596.0, 18598.0, 18570.0, 18594.0, 18592.0, 18600.0, 18564.0, 18598.0, 18596.0, 18592.0, 18594.0, 18590.0, 18590.0, 18590.0, 18596.0, 18598.0, 18590.0, 18564.0, 18562.0, 18596.0, 18592.0, 18592.0, 18592.0, 18598.0, 18594.0, 18596.0, 18598.0, 18592.0, 18592.0, 18596.0, 18596.0, 18562.0, 18596.0, 18596.0, 18596.0, 18598.0, 18590.0, 18594.0, 18564.0, 18594.0, 18562.0, 18594.0, 18562.0, 18598.0, 18560.0, 18594.0, 18594.0, 18594.0, 18590.0, 18594.0, 18594.0, 18592.0, 18596.0, 18602.0, 18594.0, 18562.0, 18596.0, 18596.0, 18590.0, 18590.0, 18590.0, 18602.0, 18590.0, 18594.0, 18594.0, 18594.0, 18590.0, 18594.0, 18592.0, 18594.0, 18588.0, 18600.0, 18592.0, 18596.0, 18592.0, 18564.0, 18596.0, 18564.0, 18598.0, 18594.0, 18594.0, 18594.0, 18596.0, 18592.0, 18592.0, 18594.0, 18594.0, 18598.0, 18594.0, 18594.0, 18564.0, 18592.0, 18594.0, 18594.0, 18596.0, 18584.0, 18596.0, 18588.0, 18594.0, 18592.0, 18598.0, 18594.0, 18592.0, 18602.0, 18590.0, 18590.0, 18594.0, 18602.0, 18590.0, 18568.0, 18594.0, 18600.0, 18594.0, 18594.0]
    },
    "slices": {}
  }
}