{
  "AcquisitionMatrixPE": 104,
  "AcquisitionNumber": 1,
  "AcquisitionTime": "13:52:34.890000",
  "BandwidthPerPixelPhaseEncode": 17.17,
  "BaseResolution": 104,
  "BodyPartExamined": "BRAIN",
  "CoilCombinationMethod": "Sum of Squares",
  "ConsistencyInfo": "N4_VE11C_LATEST_20160120",
  "ConversionSoftware": "dcm2niix",
  "ConversionSoftwareVersion": "v1.0.20211006",
  "DerivedVendorReportedEchoSpacing": 0.000560011,
  "DeviceSerialNumber": "167006",
  "DwellTime": 2.1e-06,
  "EchoTime": 0.037,
  "EchoTrainLength": 104,
  "EffectiveEchoSpacing": 0.000560011,
  "FlipAngle": 52,
  "HeudiconvVersion": "0.10.0",
  "ImageComments": "Unaliased MB4/PE3/LB",
  "ImageOrientationPatientDICOM": [0.999008, 0.0282715, 0.0344136, -0.0183099, 0.965081, -0.26131],
  "ImageOrientationText": "Tra>Cor(-15.1)>Sag(2.3)",
  "ImageType": [
    "ORIGINAL",
    "PRIMARY",
    "M",
    "MB",
    "ND",
    "MOSAIC"
],
  "ImagingFrequency": 123.259,
  "InPlanePhaseEncodingDirectionDICOM": "COL",
  "InstitutionAddress": "Chemin Queen-Mary 4565,Montreal,District,CA,H3W 1W5",
  "InstitutionName": "IUGM",
  "InstitutionalDepartmentName": "Department",
  "MRAcquisitionType": "2D",
  "MagneticFieldStrength": 3,
  "Manufacturer": "Siemens",
  "ManufacturersModelName": "Prisma_fit",
  "MatrixCoilMode": "SENSE",
  "Modality": "MR",
  "MultibandAccelerationFactor": 4,
  "PartialFourier": 1,
  "PatientPosition": "HFS",
  "PercentPhaseFOV": 100,
  "PercentSampling": 100,
  "PhaseEncodingDirection": "j",
  "PhaseEncodingSteps": 104,
  "PhaseResolution": 1,
  "PixelBandwidth": 2290,
  "ProcedureStepDescription": "memory^things",
  "ProtocolName": "func_task-things_run-6",
  "PulseSequenceDetails": "%CustomerSeq%\\cmrr_mbep2d_bold",
  "ReceiveCoilActiveElements": "HC1-7;NC1,2",
  "ReceiveCoilName": "HeadNeck_64",
  "ReconMatrixPE": 104,
  "RepetitionTime": 1.49,
  "SAR": 0.0439774,
  "ScanOptions": "FS",
  "ScanningSequence": "EP",
  "SequenceName": "epfid2d1_104",
  "SequenceVariant": "SK\\SS",
  "SeriesDescription": "func_task-things_run-6",
  "SeriesNumber": 25,
  "ShimSetting": [641, -7207, -8814, 720, 57, 11, 71, -13],
  "SliceThickness": 2,
  "SliceTiming": [0, 0.785, 0.1, 0.8825, 0.1975, 0.98, 0.295, 1.0775, 0.3925, 1.1775, 0.49, 1.275, 0.5875, 1.3725, 0.6875, 0, 0.785, 0.1, 0.8825, 0.1975, 0.98, 0.295, 1.0775, 0.3925, 1.1775, 0.49, 1.275, 0.5875, 1.3725, 0.6875, 0, 0.785, 0.1, 0.8825, 0.1975, 0.98, 0.295, 1.0775, 0.3925, 1.1775, 0.49, 1.275, 0.5875, 1.3725, 0.6875, 0, 0.785, 0.1, 0.8825, 0.1975, 0.98, 0.295, 1.0775, 0.3925, 1.1775, 0.49, 1.275, 0.5875, 1.3725, 0.6875],
  "SoftwareVersions": "syngo MR E11",
  "SpacingBetweenSlices": 2,
  "StationName": "MRC35049",
  "TaskName": "things",
  "TotalReadoutTime": 0.0576811,
  "TxRefAmp": 222.806,
  "WipMemBlock": "d20aa1f4-8c87-4de6-94af-3b5736fefd1c||Sequence: R016 ve11c/master r/e634e98; Dec 19 2017 11:00:25 by eja",
  "dcmmeta_affine": [
    [-1.9980154037475586, -0.03661971166729927, 0.08119917660951614, 108.17005157470703],
    [-0.05654305964708328, 1.9301624298095703, -0.520841658115387, -71.31704711914062],
    [0.06882725656032562, 0.522620439529419, 1.9292824268341064, -72.3205795288086],
    [0.0, 0.0, 0.0, 1.0]
],
  "dcmmeta_reorient_transform": [
    [0.0, -1.0, 0.0, 103.0],
    [1.0, 0.0, 0.0, 0.0],
    [0.0, 0.0, 1.0, 0.0],
    [0.0, 0.0, 0.0, 1.0]
],
  "dcmmeta_shape": [104, 104, 60, 190],
  "dcmmeta_slice_dim": 2,
  "dcmmeta_version": 0.6,
  "global": {
    "const": {
      "AcquisitionMatrix": [104, 0, 0, 104],
      "AngioFlag": "N",
      "BitsAllocated": 16,
      "BitsStored": 16,
      "BodyPartExamined": "BRAIN",
      "Columns": 832,
      "EchoNumbers": 1,
      "EchoTime": 37.0,
      "EchoTrainLength": 104,
      "FlipAngle": 52.0,
      "HighBit": 15,
      "ImageOrientationPatient": [0.99900771903025, 0.02827152959615, 0.03441363003637, -0.0183098564055, 0.96508119429533, -0.2613102324363],
      "ImagePositionPatient": [-818.34626397483, -850.65046221888, 146.69005586885],
      "ImageType": [
        "ORIGINAL",
        "PRIMARY",
        "M",
        "MB",
        "ND",
        "MOSAIC"
],
      "ImagedNucleus": "1H",
      "ImagingFrequency": 123.258909,
      "InPlanePhaseEncodingDirection": "COL",
      "MRAcquisitionType": "2D",
      "MagneticFieldStrength": 3.0,
      "Manufacturer": "SIEMENS",
      "ManufacturerModelName": "Prisma_fit",
      "Modality": "MR",
      "NumberOfAverages": 1.0,
      "NumberOfPhaseEncodingSteps": 104,
      "PercentPhaseFieldOfView": 100.0,
      "PercentSampling": 100.0,
      "PerformedProcedureStepStartTime": "131826.057000",
      "PhotometricInterpretation": "MONOCHROME2",
      "PixelBandwidth": 2290.0,
      "PixelRepresentation": 0,
      "PixelSpacing": [2.0, 2.0],
      "ProtocolName": "func_task-things_run-6",
      "RepetitionTime": 1490.0,
      "Rows": 832,
      "SAR": 0.04397739894659,
      "SamplesPerPixel": 1,
      "ScanOptions": "FS",
      "ScanningSequence": "EP",
      "SequenceName": "epfid2d1_104",
      "SequenceVariant": [
        "SK",
        "SS"
],
      "SeriesDescription": "func_task-things_run-6",
      "SeriesNumber": 25,
      "SeriesTime": "135354.670000",
      "SliceLocation": -46.799306473317,
      "SliceThickness": 2.0,
      "SmallestImagePixelValue": 0,
      "SoftwareVersions": "syngo MR E11",
      "SpacingBetweenSlices": 2.0000000143568,
      "SpecificCharacterSet": "ISO_IR 100",
      "StudyID": "1",
      "StudyTime": "131825.952000",
      "TransmitCoilName": "Body",
      "VariableFlipAngleFlag": "N",
      "WindowCenterWidthExplanation": "Algo1",
      "dBdt": 0.0},
    "slices": {}
  },
  "time": {
    "samples": {
      "AcquisitionNumber": [1, 2, 3, 4, 5, 6, 7, 8, 9, 10, 11, 12, 13, 14, 15, 16, 17, 18, 19, 20, 21, 22, 23, 24, 25, 26, 27, 28, 29, 30, 31, 32, 33, 34, 35, 36, 37, 38, 39, 40, 41, 42, 43, 44, 45, 46, 47, 48, 49, 50, 51, 52, 53, 54, 55, 56, 57, 58, 59, 60, 61, 62, 63, 64, 65, 66, 67, 68, 69, 70, 71, 72, 73, 74, 75, 76, 77, 78, 79, 80, 81, 82, 83, 84, 85, 86, 87, 88, 89, 90, 91, 92, 93, 94, 95, 96, 97, 98, 99, 100, 101, 102, 103, 104, 105, 106, 107, 108, 109, 110, 111, 112, 113, 114, 115, 116, 117, 118, 119, 120, 121, 122, 123, 124, 125, 126, 127, 128, 129, 130, 131, 132, 133, 134, 135, 136, 137, 138, 139, 140, 141, 142, 143, 144, 145, 146, 147, 148, 149, 150, 151, 152, 153, 154, 155, 156, 157, 158, 159, 160, 161, 162, 163, 164, 165, 166, 167, 168, 169, 170, 171, 172, 173, 174, 175, 176, 177, 178, 179, 180, 181, 182, 183, 184, 185, 186, 187, 188, 189, 190],
      "AcquisitionTime": ["135234.890000", "135236.380000", "135237.870000", "135239.360000", "135240.850000", "135242.340000", "135243.830000", "135245.320000", "135246.810000", "135248.300000", "135249.790000", "135251.280000", "135252.770000", "135254.260000", "135255.750000", "135257.240000", "135258.730000", "135300.220000", "135301.710000", "135303.200000", "135304.690000", "135306.180000", "135307.670000", "135309.160000", "135310.650000", "135312.140000", "135313.630000", "135315.120000", "135316.610000", "135318.100000", "135319.590000", "135321.080000", "135322.570000", "135324.060000", "135325.550000", "135327.040000", "135328.530000", "135330.020000", "135331.510000", "135333.000000", "135334.490000", "135335.980000", "135337.470000", "135338.960000", "135340.450000", "135341.940000", "135343.430000", "135344.920000", "135346.410000", "135347.900000", "135349.390000", "135350.880000", "135352.370000", "135353.860000", "135355.350000", "135356.840000", "135358.330000", "135359.820000", "135401.310000", "135402.800000", "135404.290000", "135405.780000", "135407.270000", "135408.760000", "135410.250000", "135411.740000", "135413.230000", "135414.720000", "135416.210000", "135417.700000", "135419.190000", "135420.680000", "135422.170000", "135423.660000", "135425.150000", "135426.640000", "135428.130000", "135429.620000", "135431.110000", "135432.600000", "135434.090000", "135435.580000", "135437.070000", "135438.560000", "135440.050000", "135441.540000", "135443.030000", "135444.520000", "135446.010000", "135447.500000", "135448.990000", "135450.480000", "135451.970000", "135453.460000", "135454.950000", "135456.440000", "135457.930000", "135459.420000", "135500.910000", "135502.400000", "135503.890000", "135505.380000", "135506.870000", "135508.360000", "135509.850000", "135511.340000", "135512.830000", "135514.320000", "135515.810000", "135517.300000", "135518.790000", "135520.280000", "135521.770000", "135523.260000", "135524.750000", "135526.240000", "135527.730000", "135529.220000", "135530.710000", "135532.200000", "135533.690000", "135535.180000", "135536.670000", "135538.160000", "135539.650000", "135541.140000", "135542.630000", "135544.120000", "135545.610000", "135547.100000", "135548.590000", "135550.080000", "135551.570000", "135553.060000", "135554.550000", "135556.040000", "135557.530000", "135559.020000", "135600.510000", "135602.000000", "135603.490000", "135604.980000", "135606.470000", "135607.960000", "135609.450000", "135610.940000", "135612.430000", "135613.920000", "135615.410000", "135616.900000", "135618.390000", "135619.880000", "135621.370000", "135622.860000", "135624.350000", "135625.840000", "135627.330000", "135628.820000", "135630.310000", "135631.800000", "135633.290000", "135634.780000", "135636.270000", "135637.760000", "135639.250000", "135640.740000", "135642.230000", "135643.720000", "135645.210000", "135646.700000", "135648.190000", "135649.680000", "135651.170000", "135652.660000", "135654.150000", "135655.640000", "135657.130000", "135658.620000", "135700.110000", "135701.600000", "135703.090000", "135704.580000", "135706.070000", "135707.560000", "135709.050000", "135710.540000", "135712.030000", "135713.520000", "135715.010000", "135716.500000"],
      "ContentTime": ["135354.673000", "135354.677000", "135354.681000", "135354.689000", "135354.692000", "135354.696000", "135354.707000", "135354.711000", "135354.714000", "135354.717000", "135354.721000", "135354.724000", "135354.727000", "135354.730000", "135354.749000", "135354.753000", "135354.756000", "135354.759000", "135354.762000", "135354.766000", "135354.769000", "135354.773000", "135354.776000", "135354.779000", "135414.639000", "135414.643000", "135414.646000", "135414.650000", "135414.653000", "135414.656000", "135414.660000", "135414.663000", "135414.666000", "135414.679000", "135414.682000", "135414.685000", "135414.688000", "135414.692000", "135414.695000", "135414.698000", "135414.702000", "135414.705000", "135414.708000", "135414.711000", "135434.638000", "135434.642000", "135434.645000", "135434.649000", "135434.652000", "135434.655000", "135434.659000", "135434.662000", "135434.665000", "135434.669000", "135434.672000", "135434.675000", "135434.678000", "135434.682000", "135434.685000", "135434.688000", "135434.692000", "135434.695000", "135434.699000", "135434.702000", "135454.638000", "135454.659000", "135454.662000", "135454.666000", "135454.669000", "135454.672000", "135454.675000", "135454.679000", "135454.682000", "135454.686000", "135454.689000", "135454.692000", "135454.695000", "135454.699000", "135454.702000", "135454.705000", "135454.708000", "135454.712000", "135454.715000", "135454.718000", "135454.722000", "135514.638000", "135514.642000", "135514.645000", "135514.649000", "135514.652000", "135514.655000", "135514.658000", "135514.662000", "135514.665000", "135514.669000", "135514.672000", "135514.675000", "135514.678000", "135514.682000", "135514.685000", "135514.688000", "135514.692000", "135514.695000", "135514.698000", "135514.702000", "135554.638000", "135554.642000", "135554.645000", "135554.649000", "135554.652000", "135554.655000", "135554.659000", "135554.662000", "135554.665000", "135554.669000", "135554.672000", "135554.675000", "135554.679000", "135554.682000", "135554.685000", "135554.689000", "135554.692000", "135554.696000", "135554.699000", "135554.702000", "135554.705000", "135554.709000", "135554.712000", "135554.715000", "135554.719000", "135554.722000", "135554.726000", "135554.729000", "135634.639000", "135634.643000", "135634.646000", "135634.650000", "135634.653000", "135634.656000", "135634.660000", "135634.663000", "135634.666000", "135634.670000", "135634.673000", "135634.676000", "135634.680000", "135634.683000", "135634.686000", "135634.690000", "135634.693000", "135634.696000", "135634.707000", "135634.711000", "135634.714000", "135634.717000", "135634.720000", "135634.724000", "135634.727000", "135634.730000", "135634.734000", "135714.638000", "135714.642000", "135714.645000", "135714.649000", "135714.652000", "135714.656000", "135714.669000", "135714.672000", "135714.675000", "135714.679000", "135714.682000", "135714.685000", "135714.688000", "135714.692000", "135714.695000", "135714.698000", "135714.702000", "135714.705000", "135714.708000", "135714.712000", "135714.715000", "135714.719000", "135714.722000", "135714.725000", "135714.736000", "135714.739000", "135714.743000", "135718.793000", "135718.797000", "135718.800000"],
      "InstanceCreationTime": ["135354.673000", "135354.677000", "135354.681000", "135354.689000", "135354.692000", "135354.696000", "135354.707000", "135354.711000", "135354.714000", "135354.717000", "135354.721000", "135354.724000", "135354.727000", "135354.730000", "135354.749000", "135354.753000", "135354.756000", "135354.759000", "135354.762000", "135354.766000", "135354.769000", "135354.773000", "135354.776000", "135354.779000", "135414.639000", "135414.643000", "135414.646000", "135414.650000", "135414.653000", "135414.656000", "135414.660000", "135414.663000", "135414.666000", "135414.679000", "135414.682000", "135414.685000", "135414.688000", "135414.692000", "135414.695000", "135414.698000", "135414.702000", "135414.705000", "135414.708000", "135414.711000", "135434.638000", "135434.642000", "135434.645000", "135434.649000", "135434.652000", "135434.655000", "135434.659000", "135434.662000", "135434.665000", "135434.669000", "135434.672000", "135434.675000", "135434.678000", "135434.682000", "135434.685000", "135434.688000", "135434.692000", "135434.695000", "135434.699000", "135434.702000", "135454.638000", "135454.659000", "135454.662000", "135454.666000", "135454.669000", "135454.672000", "135454.675000", "135454.679000", "135454.682000", "135454.686000", "135454.689000", "135454.692000", "135454.695000", "135454.699000", "135454.702000", "135454.705000", "135454.708000", "135454.712000", "135454.715000", "135454.718000", "135454.722000", "135514.638000", "135514.642000", "135514.645000", "135514.649000", "135514.652000", "135514.655000", "135514.658000", "135514.662000", "135514.665000", "135514.669000", "135514.672000", "135514.675000", "135514.678000", "135514.682000", "135514.685000", "135514.688000", "135514.692000", "135514.695000", "135514.698000", "135514.702000", "135554.638000", "135554.642000", "135554.645000", "135554.649000", "135554.652000", "135554.655000", "135554.659000", "135554.662000", "135554.665000", "135554.669000", "135554.672000", "135554.675000", "135554.679000", "135554.682000", "135554.685000", "135554.689000", "135554.692000", "135554.696000", "135554.699000", "135554.702000", "135554.705000", "135554.709000", "135554.712000", "135554.715000", "135554.719000", "135554.722000", "135554.726000", "135554.729000", "135634.639000", "135634.643000", "135634.646000", "135634.650000", "135634.653000", "135634.656000", "135634.660000", "135634.663000", "135634.666000", "135634.670000", "135634.673000", "135634.676000", "135634.680000", "135634.683000", "135634.686000", "135634.690000", "135634.693000", "135634.696000", "135634.707000", "135634.711000", "135634.714000", "135634.717000", "135634.720000", "135634.724000", "135634.727000", "135634.730000", "135634.734000", "135714.638000", "135714.642000", "135714.645000", "135714.649000", "135714.652000", "135714.656000", "135714.669000", "135714.672000", "135714.675000", "135714.679000", "135714.682000", "135714.685000", "135714.688000", "135714.692000", "135714.695000", "135714.698000", "135714.702000", "135714.705000", "135714.708000", "135714.712000", "135714.715000", "135714.719000", "135714.722000", "135714.725000", "135714.736000", "135714.739000", "135714.743000", "135718.793000", "135718.797000", "135718.800000"],
      "InstanceNumber": [1, 2, 3, 4, 5, 6, 7, 8, 9, 10, 11, 12, 13, 14, 15, 16, 17, 18, 19, 20, 21, 22, 23, 24, 25, 26, 27, 28, 29, 30, 31, 32, 33, 34, 35, 36, 37, 38, 39, 40, 41, 42, 43, 44, 45, 46, 47, 48, 49, 50, 51, 52, 53, 54, 55, 56, 57, 58, 59, 60, 61, 62, 63, 64, 65, 66, 67, 68, 69, 70, 71, 72, 73, 74, 75, 76, 77, 78, 79, 80, 81, 82, 83, 84, 85, 86, 87, 88, 89, 90, 91, 92, 93, 94, 95, 96, 97, 98, 99, 100, 101, 102, 103, 104, 105, 106, 107, 108, 109, 110, 111, 112, 113, 114, 115, 116, 117, 118, 119, 120, 121, 122, 123, 124, 125, 126, 127, 128, 129, 130, 131, 132, 133, 134, 135, 136, 137, 138, 139, 140, 141, 142, 143, 144, 145, 146, 147, 148, 149, 150, 151, 152, 153, 154, 155, 156, 157, 158, 159, 160, 161, 162, 163, 164, 165, 166, 167, 168, 169, 170, 171, 172, 173, 174, 175, 176, 177, 178, 179, 180, 181, 182, 183, 184, 185, 186, 187, 188, 189, 190],
      "LargestImagePixelValue": [40591, 39187, 38551, 38289, 37795, 37675, 37759, 37754, 37692, 37644, 37642, 38015, 37228, 37651, 37565, 37973, 37706, 37775, 37733, 37530, 37191, 37210, 37481, 37664, 37162, 37542, 37416, 37511, 37613, 37536, 37869, 37573, 37480, 37639, 37915, 37385, 37271, 37134, 37472, 37630, 37361, 37680, 37611, 37153, 37664, 36882, 37923, 37825, 37626, 37541, 37608, 37874, 37918, 37787, 37740, 37554, 37631, 37706, 37621, 37581, 37570, 37893, 37954, 37734, 37876, 37592, 37613, 37706, 37737, 37937, 37326, 37655, 37389, 37804, 37384, 37461, 37672, 37723, 37535, 37597, 37552, 37593, 37646, 37941, 37883, 37640, 37726, 37268, 37778, 37660, 37561, 37769, 37785, 37800, 37520, 37853, 37907, 37657, 37839, 38062, 37443, 37376, 37379, 37772, 37430, 37143, 37539, 37083, 37260, 37495, 37387, 37878, 37761, 37826, 37632, 37579, 37169, 37496, 37598, 37338, 37475, 37533, 37513, 37378, 37775, 37239, 37675, 38165, 37816, 37646, 37492, 37702, 37593, 37760, 37613, 37602, 37531, 37689, 37112, 37300, 37255, 37136, 37472, 37516, 37932, 37380, 37323, 37732, 37622, 37898, 37211, 37320, 36927, 37257, 37259, 37052, 37463, 37242, 37456, 37272, 37500, 37930, 37724, 37500, 37311, 37423, 37360, 37802, 38377, 38377, 37994, 37805, 37497, 37346, 37474, 37146, 37715, 37528, 37290, 37646, 37514, 37647, 37672, 37343, 37450, 37952, 37893, 37817, 37269, 37256],
      "WindowCenter": [10098.0, 10054.0, 10052.0, 10052.0, 10045.0, 10029.0, 10026.0, 10027.0, 10035.0, 10038.0, 10050.0, 10049.0, 10032.0, 10043.0, 10043.0, 10043.0, 10050.0, 10052.0, 10066.0, 10062.0, 10065.0, 10066.0, 10065.0, 10069.0, 10049.0, 10053.0, 10060.0, 10063.0, 10069.0, 10057.0, 10054.0, 10052.0, 10045.0, 10035.0, 10042.0, 10059.0, 10072.0, 10074.0, 10064.0, 10060.0, 10053.0, 10054.0, 10060.0, 10063.0, 10063.0, 10048.0, 10052.0, 10052.0, 10051.0, 10045.0, 10050.0, 10052.0, 10059.0, 10059.0, 10044.0, 10042.0, 10043.0, 10059.0, 10062.0, 10057.0, 10047.0, 10051.0, 10050.0, 10053.0, 10067.0, 10056.0, 10038.0, 10026.0, 10031.0, 10033.0, 10036.0, 10036.0, 10029.0, 10042.0, 10045.0, 10053.0, 10047.0, 10045.0, 10043.0, 10044.0, 10045.0, 10039.0, 10036.0, 10043.0, 10045.0, 10052.0, 10046.0, 10031.0, 10033.0, 10041.0, 10044.0, 10053.0, 10061.0, 10055.0, 10046.0, 10045.0, 10045.0, 10046.0, 10051.0, 10052.0, 10046.0, 10039.0, 10037.0, 10037.0, 10044.0, 10039.0, 10052.0, 10055.0, 10050.0, 10048.0, 10031.0, 10026.0, 10050.0, 10071.0, 10072.0, 10048.0, 10023.0, 10027.0, 10043.0, 10046.0, 10045.0, 10036.0, 10029.0, 10035.0, 10043.0, 10031.0, 10035.0, 10040.0, 10042.0, 10045.0, 10048.0, 10053.0, 10046.0, 10052.0, 10054.0, 10054.0, 10054.0, 10047.0, 10054.0, 10065.0, 10068.0, 10057.0, 10039.0, 10037.0, 10043.0, 10053.0, 10063.0, 10062.0, 10054.0, 10047.0, 10046.0, 10055.0, 10056.0, 10048.0, 10041.0, 10041.0, 10055.0, 10051.0, 10053.0, 10024.0, 10018.0, 10024.0, 10043.0, 10055.0, 10055.0, 10039.0, 10035.0, 10028.0, 10031.0, 10032.0, 10043.0, 10053.0, 10055.0, 10040.0, 10030.0, 10029.0, 10050.0, 10054.0, 10056.0, 10054.0, 10045.0, 10051.0, 10055.0, 10057.0, 10047.0, 10050.0, 10063.0, 10087.0, 10068.0, 10043.0],
      "WindowWidth": [21505.0, 21384.0, 21368.0, 21365.0, 21346.0, 21309.0, 21298.0, 21302.0, 21319.0, 21330.0, 21350.0, 21347.0, 21312.0, 21333.0, 21335.0, 21335.0, 21352.0, 21359.0, 21386.0, 21383.0, 21391.0, 21390.0, 21389.0, 21392.0, 21353.0, 21356.0, 21373.0, 21383.0, 21397.0, 21369.0, 21361.0, 21356.0, 21340.0, 21318.0, 21333.0, 21372.0, 21406.0, 21410.0, 21387.0, 21373.0, 21361.0, 21362.0, 21375.0, 21382.0, 21381.0, 21350.0, 21353.0, 21355.0, 21351.0, 21339.0, 21348.0, 21354.0, 21368.0, 21369.0, 21335.0, 21330.0, 21334.0, 21368.0, 21380.0, 21368.0, 21344.0, 21349.0, 21349.0, 21359.0, 21389.0, 21368.0, 21324.0, 21293.0, 21301.0, 21308.0, 21319.0, 21318.0, 21306.0, 21331.0, 21341.0, 21358.0, 21346.0, 21338.0, 21332.0, 21336.0, 21339.0, 21327.0, 21318.0, 21332.0, 21338.0, 21355.0, 21342.0, 21309.0, 21311.0, 21330.0, 21338.0, 21358.0, 21374.0, 21362.0, 21340.0, 21337.0, 21339.0, 21343.0, 21352.0, 21353.0, 21341.0, 21328.0, 21323.0, 21324.0, 21338.0, 21329.0, 21357.0, 21362.0, 21354.0, 21344.0, 21309.0, 21295.0, 21351.0, 21401.0, 21401.0, 21344.0, 21291.0, 21296.0, 21333.0, 21345.0, 21339.0, 21319.0, 21304.0, 21317.0, 21335.0, 21311.0, 21315.0, 21324.0, 21332.0, 21339.0, 21348.0, 21355.0, 21341.0, 21352.0, 21360.0, 21358.0, 21359.0, 21347.0, 21361.0, 21388.0, 21396.0, 21368.0, 21326.0, 21319.0, 21334.0, 21357.0, 21383.0, 21378.0, 21357.0, 21342.0, 21341.0, 21363.0, 21365.0, 21347.0, 21331.0, 21331.0, 21361.0, 21355.0, 21356.0, 21291.0, 21274.0, 21290.0, 21337.0, 21365.0, 21364.0, 21327.0, 21315.0, 21298.0, 21301.0, 21303.0, 21332.0, 21356.0, 21362.0, 21331.0, 21305.0, 21302.0, 21346.0, 21359.0, 21366.0, 21359.0, 21337.0, 21352.0, 21365.0, 21368.0, 21342.0, 21346.0, 21378.0, 21431.0, 21392.0, 21332.0]
    },
    "slices": {}
  }
}