{
  "AcquisitionMatrixPE": 104,
  "AcquisitionNumber": 1,
  "AcquisitionTime": "13:40:23.705000",
  "BandwidthPerPixelPhaseEncode": 17.17,
  "BaseResolution": 104,
  "BodyPartExamined": "BRAIN",
  "CoilCombinationMethod": "Sum of Squares",
  "ConsistencyInfo": "N4_VE11C_LATEST_20160120",
  "ConversionSoftware": "dcm2niix",
  "ConversionSoftwareVersion": "v1.0.20211006",
  "DerivedVendorReportedEchoSpacing": 0.000560011,
  "DeviceSerialNumber": "167006",
  "DwellTime": 2.1e-06,
  "EchoTime": 0.037,
  "EchoTrainLength": 104,
  "EffectiveEchoSpacing": 0.000560011,
  "FlipAngle": 52,
  "HeudiconvVersion": "0.10.0",
  "ImageComments": "Unaliased MB4/PE3/LB",
  "ImageOrientationPatientDICOM": [0.999008, 0.0282715, 0.0344136, -0.0183099, 0.965081, -0.26131],
  "ImageOrientationText": "Tra>Cor(-15.1)>Sag(2.3)",
  "ImageType": [
    "ORIGINAL",
    "PRIMARY",
    "M",
    "MB",
    "ND",
    "MOSAIC"
],
  "ImagingFrequency": 123.259,
  "InPlanePhaseEncodingDirectionDICOM": "COL",
  "InstitutionAddress": "Chemin Queen-Mary 4565,Montreal,District,CA,H3W 1W5",
  "InstitutionName": "IUGM",
  "InstitutionalDepartmentName": "Department",
  "MRAcquisitionType": "2D",
  "MagneticFieldStrength": 3,
  "Manufacturer": "Siemens",
  "ManufacturersModelName": "Prisma_fit",
  "MatrixCoilMode": "SENSE",
  "Modality": "MR",
  "MultibandAccelerationFactor": 4,
  "PartialFourier": 1,
  "PatientPosition": "HFS",
  "PercentPhaseFOV": 100,
  "PercentSampling": 100,
  "PhaseEncodingDirection": "j",
  "PhaseEncodingSteps": 104,
  "PhaseResolution": 1,
  "PixelBandwidth": 2290,
  "ProcedureStepDescription": "memory^things",
  "ProtocolName": "func_task-things_run-4",
  "PulseSequenceDetails": "%CustomerSeq%\\cmrr_mbep2d_bold",
  "ReceiveCoilActiveElements": "HC1-7;NC1,2",
  "ReceiveCoilName": "HeadNeck_64",
  "ReconMatrixPE": 104,
  "RepetitionTime": 1.49,
  "SAR": 0.0439774,
  "ScanOptions": "FS",
  "ScanningSequence": "EP",
  "SequenceName": "epfid2d1_104",
  "SequenceVariant": "SK\\SS",
  "SeriesDescription": "func_task-things_run-4",
  "SeriesNumber": 19,
  "ShimSetting": [641, -7207, -8814, 720, 57, 11, 71, -13],
  "SliceThickness": 2,
  "SliceTiming": [0, 0.785, 0.1, 0.8825, 0.1975, 0.98, 0.295, 1.08, 0.3925, 1.1775, 0.49, 1.275, 0.59, 1.3725, 0.6875, 0, 0.785, 0.1, 0.8825, 0.1975, 0.98, 0.295, 1.08, 0.3925, 1.1775, 0.49, 1.275, 0.59, 1.3725, 0.6875, 0, 0.785, 0.1, 0.8825, 0.1975, 0.98, 0.295, 1.08, 0.3925, 1.1775, 0.49, 1.275, 0.59, 1.3725, 0.6875, 0, 0.785, 0.1, 0.8825, 0.1975, 0.98, 0.295, 1.08, 0.3925, 1.1775, 0.49, 1.275, 0.59, 1.3725, 0.6875],
  "SoftwareVersions": "syngo MR E11",
  "SpacingBetweenSlices": 2,
  "StationName": "MRC35049",
  "TaskName": "things",
  "TotalReadoutTime": 0.0576811,
  "TxRefAmp": 222.806,
  "WipMemBlock": "f996bc34-7bca-4b78-8aec-67d32480ee39||Sequence: R016 ve11c/master r/e634e98; Dec 19 2017 11:00:25 by eja",
  "dcmmeta_affine": [
    [-1.9980154037475586, -0.03661971166729927, 0.08119917660951614, 108.17005157470703],
    [-0.05654305964708328, 1.9301624298095703, -0.520841658115387, -71.31704711914062],
    [0.06882725656032562, 0.522620439529419, 1.9292824268341064, -72.3205795288086],
    [0.0, 0.0, 0.0, 1.0]
],
  "dcmmeta_reorient_transform": [
    [0.0, -1.0, 0.0, 103.0],
    [1.0, 0.0, 0.0, 0.0],
    [0.0, 0.0, 1.0, 0.0],
    [0.0, 0.0, 0.0, 1.0]
],
  "dcmmeta_shape": [104, 104, 60, 190],
  "dcmmeta_slice_dim": 2,
  "dcmmeta_version": 0.6,
  "global": {
    "const": {
      "AcquisitionMatrix": [104, 0, 0, 104],
      "AngioFlag": "N",
      "BitsAllocated": 16,
      "BitsStored": 16,
      "BodyPartExamined": "BRAIN",
      "Columns": 832,
      "EchoNumbers": 1,
      "EchoTime": 37.0,
      "EchoTrainLength": 104,
      "FlipAngle": 52.0,
      "HighBit": 15,
      "ImageOrientationPatient": [0.99900771903025, 0.02827152959615, 0.03441363003637, -0.0183098564055, 0.96508119429533, -0.2613102324363],
      "ImagePositionPatient": [-818.34626397483, -850.65046221888, 146.69005586885],
      "ImageType": [
        "ORIGINAL",
        "PRIMARY",
        "M",
        "MB",
        "ND",
        "MOSAIC"
],
      "ImagedNucleus": "1H",
      "ImagingFrequency": 123.258904,
      "InPlanePhaseEncodingDirection": "COL",
      "MRAcquisitionType": "2D",
      "MagneticFieldStrength": 3.0,
      "Manufacturer": "SIEMENS",
      "ManufacturerModelName": "Prisma_fit",
      "Modality": "MR",
      "NumberOfAverages": 1.0,
      "NumberOfPhaseEncodingSteps": 104,
      "PercentPhaseFieldOfView": 100.0,
      "PercentSampling": 100.0,
      "PerformedProcedureStepStartTime": "131826.057000",
      "PhotometricInterpretation": "MONOCHROME2",
      "PixelBandwidth": 2290.0,
      "PixelRepresentation": 0,
      "PixelSpacing": [2.0, 2.0],
      "ProtocolName": "func_task-things_run-4",
      "RepetitionTime": 1490.0,
      "Rows": 832,
      "SAR": 0.04397739894659,
      "SamplesPerPixel": 1,
      "ScanOptions": "FS",
      "ScanningSequence": "EP",
      "SequenceName": "epfid2d1_104",
      "SequenceVariant": [
        "SK",
        "SS"
],
      "SeriesDescription": "func_task-things_run-4",
      "SeriesNumber": 19,
      "SeriesTime": "134149.988000",
      "SliceLocation": -46.799306473317,
      "SliceThickness": 2.0,
      "SmallestImagePixelValue": 0,
      "SoftwareVersions": "syngo MR E11",
      "SpacingBetweenSlices": 2.0000000143568,
      "SpecificCharacterSet": "ISO_IR 100",
      "StudyID": "1",
      "StudyTime": "131825.952000",
      "TransmitCoilName": "Body",
      "VariableFlipAngleFlag": "N",
      "WindowCenterWidthExplanation": "Algo1",
      "dBdt": 0.0},
    "slices": {}
  },
  "time": {
    "samples": {
      "AcquisitionNumber": [1, 2, 3, 4, 5, 6, 7, 8, 9, 10, 11, 12, 13, 14, 15, 16, 17, 18, 19, 20, 21, 22, 23, 24, 25, 26, 27, 28, 29, 30, 31, 32, 33, 34, 35, 36, 37, 38, 39, 40, 41, 42, 43, 44, 45, 46, 47, 48, 49, 50, 51, 52, 53, 54, 55, 56, 57, 58, 59, 60, 61, 62, 63, 64, 65, 66, 67, 68, 69, 70, 71, 72, 73, 74, 75, 76, 77, 78, 79, 80, 81, 82, 83, 84, 85, 86, 87, 88, 89, 90, 91, 92, 93, 94, 95, 96, 97, 98, 99, 100, 101, 102, 103, 104, 105, 106, 107, 108, 109, 110, 111, 112, 113, 114, 115, 116, 117, 118, 119, 120, 121, 122, 123, 124, 125, 126, 127, 128, 129, 130, 131, 132, 133, 134, 135, 136, 137, 138, 139, 140, 141, 142, 143, 144, 145, 146, 147, 148, 149, 150, 151, 152, 153, 154, 155, 156, 157, 158, 159, 160, 161, 162, 163, 164, 165, 166, 167, 168, 169, 170, 171, 172, 173, 174, 175, 176, 177, 178, 179, 180, 181, 182, 183, 184, 185, 186, 187, 188, 189, 190],
      "AcquisitionTime": ["134023.705000", "134025.195000", "134026.685000", "134028.175000", "134029.665000", "134031.155000", "134032.645000", "134034.135000", "134035.625000", "134037.115000", "134038.605000", "134040.095000", "134041.585000", "134043.075000", "134044.565000", "134046.055000", "134047.545000", "134049.035000", "134050.525000", "134052.015000", "134053.505000", "134054.995000", "134056.485000", "134057.975000", "134059.465000", "134100.955000", "134102.445000", "134103.935000", "134105.425000", "134106.915000", "134108.405000", "134109.895000", "134111.385000", "134112.875000", "134114.365000", "134115.855000", "134117.345000", "134118.835000", "134120.325000", "134121.815000", "134123.305000", "134124.795000", "134126.285000", "134127.775000", "134129.265000", "134130.755000", "134132.245000", "134133.735000", "134135.225000", "134136.715000", "134138.205000", "134139.695000", "134141.185000", "134142.675000", "134144.165000", "134145.655000", "134147.145000", "134148.635000", "134150.125000", "134151.615000", "134153.105000", "134154.595000", "134156.085000", "134157.575000", "134159.065000", "134200.555000", "134202.045000", "134203.535000", "134205.025000", "134206.515000", "134208.005000", "134209.495000", "134210.985000", "134212.475000", "134213.965000", "134215.455000", "134216.945000", "134218.435000", "134219.925000", "134221.415000", "134222.905000", "134224.395000", "134225.885000", "134227.375000", "134228.865000", "134230.355000", "134231.845000", "134233.335000", "134234.825000", "134236.315000", "134237.805000", "134239.295000", "134240.785000", "134242.275000", "134243.765000", "134245.255000", "134246.745000", "134248.235000", "134249.725000", "134251.215000", "134252.705000", "134254.195000", "134255.685000", "134257.175000", "134258.665000", "134300.155000", "134301.645000", "134303.135000", "134304.625000", "134306.115000", "134307.605000", "134309.095000", "134310.585000", "134312.075000", "134313.565000", "134315.055000", "134316.545000", "134318.035000", "134319.525000", "134321.015000", "134322.505000", "134323.995000", "134325.485000", "134326.975000", "134328.465000", "134329.955000", "134331.445000", "134332.935000", "134334.425000", "134335.915000", "134337.405000", "134338.895000", "134340.385000", "134341.875000", "134343.365000", "134344.855000", "134346.345000", "134347.835000", "134349.325000", "134350.815000", "134352.305000", "134353.795000", "134355.285000", "134356.775000", "134358.265000", "134359.755000", "134401.245000", "134402.735000", "134404.225000", "134405.715000", "134407.205000", "134408.695000", "134410.185000", "134411.675000", "134413.165000", "134414.655000", "134416.145000", "134417.635000", "134419.125000", "134420.615000", "134422.105000", "134423.595000", "134425.085000", "134426.575000", "134428.065000", "134429.555000", "134431.045000", "134432.535000", "134434.025000", "134435.515000", "134437.005000", "134438.495000", "134439.985000", "134441.475000", "134442.965000", "134444.455000", "134445.945000", "134447.435000", "134448.925000", "134450.415000", "134451.905000", "134453.395000", "134454.885000", "134456.375000", "134457.865000", "134459.355000", "134500.845000", "134502.335000", "134503.825000", "134505.315000"],
      "ContentTime": ["134149.991000", "134149.995000", "134149.998000", "134150.009000", "134150.013000", "134150.016000", "134150.019000", "134150.023000", "134150.026000", "134150.029000", "134150.033000", "134150.036000", "134150.039000", "134150.042000", "134150.046000", "134150.049000", "134150.052000", "134150.056000", "134150.059000", "134150.062000", "134150.066000", "134150.069000", "134150.072000", "134150.076000", "134150.079000", "134150.082000", "134150.085000", "134150.089000", "134150.092000", "134150.095000", "134150.098000", "134150.102000", "134209.955000", "134209.959000", "134209.962000", "134209.965000", "134209.969000", "134209.972000", "134209.975000", "134209.979000", "134209.982000", "134209.986000", "134209.989000", "134209.992000", "134209.995000", "134209.999000", "134210.002000", "134210.020000", "134210.027000", "134210.030000", "134210.033000", "134210.037000", "134210.040000", "134229.955000", "134229.959000", "134229.962000", "134229.965000", "134229.969000", "134229.972000", "134229.975000", "134229.979000", "134229.982000", "134229.985000", "134229.988000", "134229.992000", "134229.995000", "134229.998000", "134230.003000", "134230.006000", "134230.010000", "134230.013000", "134230.016000", "134230.019000", "134249.954000", "134249.958000", "134249.961000", "134249.964000", "134249.968000", "134249.971000", "134249.974000", "134249.978000", "134249.981000", "134249.984000", "134249.988000", "134249.991000", "134249.995000", "134249.998000", "134250.001000", "134250.005000", "134250.008000", "134250.011000", "134250.014000", "134250.018000", "134329.957000", "134329.960000", "134329.963000", "134329.967000", "134329.970000", "134329.973000", "134329.977000", "134329.980000", "134329.983000", "134329.987000", "134329.990000", "134329.994000", "134329.997000", "134330.000000", "134330.004000", "134330.007000", "134330.010000", "134330.013000", "134330.017000", "134330.020000", "134330.023000", "134330.027000", "134330.030000", "134330.033000", "134330.036000", "134330.040000", "134330.043000", "134330.046000", "134330.050000", "134330.053000", "134330.056000", "134409.955000", "134409.959000", "134409.963000", "134409.966000", "134409.970000", "134409.973000", "134409.976000", "134409.980000", "134409.983000", "134409.986000", "134409.990000", "134409.993000", "134409.996000", "134410.001000", "134410.004000", "134410.007000", "134410.011000", "134410.014000", "134410.017000", "134410.021000", "134410.024000", "134410.027000", "134410.030000", "134410.034000", "134410.037000", "134410.041000", "134410.044000", "134449.955000", "134449.959000", "134449.962000", "134449.966000", "134449.969000", "134449.972000", "134449.975000", "134449.979000", "134449.982000", "134449.986000", "134449.989000", "134449.992000", "134449.996000", "134450.000000", "134450.003000", "134450.007000", "134450.010000", "134450.013000", "134450.017000", "134450.020000", "134450.023000", "134450.027000", "134450.030000", "134450.034000", "134450.037000", "134450.040000", "134450.043000", "134507.220000", "134507.224000", "134507.227000", "134507.230000", "134507.234000", "134507.247000", "134507.250000", "134507.254000", "134507.257000", "134507.261000", "134507.264000", "134507.267000"],
      "InstanceCreationTime": ["134149.991000", "134149.995000", "134149.998000", "134150.009000", "134150.013000", "134150.016000", "134150.019000", "134150.023000", "134150.026000", "134150.029000", "134150.033000", "134150.036000", "134150.039000", "134150.042000", "134150.046000", "134150.049000", "134150.052000", "134150.056000", "134150.059000", "134150.062000", "134150.066000", "134150.069000", "134150.072000", "134150.076000", "134150.079000", "134150.082000", "134150.085000", "134150.089000", "134150.092000", "134150.095000", "134150.098000", "134150.102000", "134209.955000", "134209.959000", "134209.962000", "134209.965000", "134209.969000", "134209.972000", "134209.975000", "134209.979000", "134209.982000", "134209.986000", "134209.989000", "134209.992000", "134209.995000", "134209.999000", "134210.002000", "134210.020000", "134210.027000", "134210.030000", "134210.033000", "134210.037000", "134210.040000", "134229.955000", "134229.959000", "134229.962000", "134229.965000", "134229.969000", "134229.972000", "134229.975000", "134229.979000", "134229.982000", "134229.985000", "134229.988000", "134229.992000", "134229.995000", "134229.998000", "134230.003000", "134230.006000", "134230.010000", "134230.013000", "134230.016000", "134230.019000", "134249.954000", "134249.958000", "134249.961000", "134249.964000", "134249.968000", "134249.971000", "134249.974000", "134249.978000", "134249.981000", "134249.984000", "134249.988000", "134249.991000", "134249.995000", "134249.998000", "134250.001000", "134250.005000", "134250.008000", "134250.011000", "134250.014000", "134250.018000", "134329.957000", "134329.960000", "134329.963000", "134329.967000", "134329.970000", "134329.973000", "134329.977000", "134329.980000", "134329.983000", "134329.987000", "134329.990000", "134329.994000", "134329.997000", "134330.000000", "134330.004000", "134330.007000", "134330.010000", "134330.013000", "134330.017000", "134330.020000", "134330.023000", "134330.027000", "134330.030000", "134330.033000", "134330.036000", "134330.040000", "134330.043000", "134330.046000", "134330.050000", "134330.053000", "134330.056000", "134409.955000", "134409.959000", "134409.963000", "134409.966000", "134409.970000", "134409.973000", "134409.976000", "134409.980000", "134409.983000", "134409.986000", "134409.990000", "134409.993000", "134409.996000", "134410.001000", "134410.004000", "134410.007000", "134410.011000", "134410.014000", "134410.017000", "134410.021000", "134410.024000", "134410.027000", "134410.030000", "134410.034000", "134410.037000", "134410.041000", "134410.044000", "134449.955000", "134449.959000", "134449.962000", "134449.966000", "134449.969000", "134449.972000", "134449.975000", "134449.979000", "134449.982000", "134449.986000", "134449.989000", "134449.992000", "134449.996000", "134450.000000", "134450.003000", "134450.007000", "134450.010000", "134450.013000", "134450.017000", "134450.020000", "134450.023000", "134450.027000", "134450.030000", "134450.034000", "134450.037000", "134450.040000", "134450.043000", "134507.220000", "134507.224000", "134507.227000", "134507.230000", "134507.234000", "134507.247000", "134507.250000", "134507.254000", "134507.257000", "134507.261000", "134507.264000", "134507.267000"],
      "InstanceNumber": [1, 2, 3, 4, 5, 6, 7, 8, 9, 10, 11, 12, 13, 14, 15, 16, 17, 18, 19, 20, 21, 22, 23, 24, 25, 26, 27, 28, 29, 30, 31, 32, 33, 34, 35, 36, 37, 38, 39, 40, 41, 42, 43, 44, 45, 46, 47, 48, 49, 50, 51, 52, 53, 54, 55, 56, 57, 58, 59, 60, 61, 62, 63, 64, 65, 66, 67, 68, 69, 70, 71, 72, 73, 74, 75, 76, 77, 78, 79, 80, 81, 82, 83, 84, 85, 86, 87, 88, 89, 90, 91, 92, 93, 94, 95, 96, 97, 98, 99, 100, 101, 102, 103, 104, 105, 106, 107, 108, 109, 110, 111, 112, 113, 114, 115, 116, 117, 118, 119, 120, 121, 122, 123, 124, 125, 126, 127, 128, 129, 130, 131, 132, 133, 134, 135, 136, 137, 138, 139, 140, 141, 142, 143, 144, 145, 146, 147, 148, 149, 150, 151, 152, 153, 154, 155, 156, 157, 158, 159, 160, 161, 162, 163, 164, 165, 166, 167, 168, 169, 170, 171, 172, 173, 174, 175, 176, 177, 178, 179, 180, 181, 182, 183, 184, 185, 186, 187, 188, 189, 190],
      "LargestImagePixelValue": [40153, 39568, 39202, 38460, 38036, 38035, 37892, 37727, 37630, 37599, 38110, 37728, 37729, 37812, 38002, 38175, 37545, 37896, 38117, 38148, 37882, 37695, 37292, 38106, 37853, 38051, 37469, 37672, 37877, 38101, 37912, 37579, 37746, 37560, 37881, 37723, 38116, 37823, 37493, 37968, 37973, 37558, 38022, 38027, 37699, 37714, 37809, 38148, 37647, 37773, 37825, 37404, 38091, 37620, 37553, 37752, 37897, 37617, 37666, 37395, 37860, 37750, 37976, 37814, 37735, 37297, 38237, 37840, 38097, 38362, 37954, 37988, 37979, 37952, 37850, 37991, 37788, 38009, 38071, 37875, 37796, 37599, 37338, 37432, 37597, 37746, 37972, 37918, 37856, 37405, 37990, 37841, 37557, 37808, 38019, 37585, 37771, 38457, 38139, 38011, 37647, 37783, 37408, 37898, 37812, 38100, 37705, 37935, 37892, 37277, 37861, 37656, 37798, 37504, 37766, 37515, 37688, 38040, 37734, 37585, 37974, 38012, 37435, 37684, 37781, 37365, 37403, 37669, 37701, 37796, 37672, 37734, 37791, 37714, 37788, 37918, 37838, 37657, 37496, 37459, 37599, 37784, 37568, 37792, 37775, 37817, 37689, 37574, 37780, 37828, 37726, 37986, 37615, 37987, 37808, 37404, 37794, 37630, 37941, 38021, 37837, 37595, 37691, 37808, 37247, 37725, 37689, 38233, 38005, 37486, 37737, 38125, 37802, 37653, 37412, 37640, 37643, 37813, 38419, 38383, 38041, 38065, 37799, 37384, 37442, 37363, 37858, 37907, 37762, 37193],
      "WindowCenter": [10154.0, 10108.0, 10096.0, 10100.0, 10095.0, 10083.0, 10051.0, 10039.0, 10036.0, 10046.0, 10065.0, 10067.0, 10071.0, 10065.0, 10072.0, 10064.0, 10059.0, 10070.0, 10070.0, 10070.0, 10071.0, 10073.0, 10066.0, 10056.0, 10052.0, 10052.0, 10054.0, 10061.0, 10060.0, 10061.0, 10055.0, 10058.0, 10062.0, 10056.0, 10055.0, 10062.0, 10069.0, 10064.0, 10063.0, 10054.0, 10059.0, 10063.0, 10076.0, 10072.0, 10069.0, 10062.0, 10061.0, 10062.0, 10062.0, 10062.0, 10063.0, 10072.0, 10072.0, 10066.0, 10065.0, 10066.0, 10071.0, 10073.0, 10074.0, 10059.0, 10047.0, 10052.0, 10067.0, 10071.0, 10058.0, 10043.0, 10044.0, 10045.0, 10045.0, 10051.0, 10052.0, 10054.0, 10053.0, 10048.0, 10054.0, 10055.0, 10048.0, 10047.0, 10053.0, 10063.0, 10072.0, 10074.0, 10066.0, 10052.0, 10054.0, 10055.0, 10054.0, 10063.0, 10071.0, 10065.0, 10063.0, 10063.0, 10057.0, 10055.0, 10062.0, 10057.0, 10054.0, 10053.0, 10054.0, 10061.0, 10055.0, 10050.0, 10055.0, 10057.0, 10056.0, 10055.0, 10047.0, 10062.0, 10069.0, 10052.0, 10054.0, 10056.0, 10064.0, 10073.0, 10065.0, 10057.0, 10056.0, 10061.0, 10070.0, 10067.0, 10064.0, 10063.0, 10057.0, 10065.0, 10071.0, 10060.0, 10058.0, 10064.0, 10066.0, 10064.0, 10050.0, 10048.0, 10048.0, 10056.0, 10058.0, 10057.0, 10050.0, 10054.0, 10058.0, 10058.0, 10050.0, 10040.0, 10040.0, 10046.0, 10047.0, 10046.0, 10052.0, 10049.0, 10056.0, 10049.0, 10054.0, 10062.0, 10065.0, 10067.0, 10067.0, 10060.0, 10057.0, 10064.0, 10071.0, 10064.0, 10056.0, 10050.0, 10058.0, 10064.0, 10053.0, 10051.0, 10065.0, 10080.0, 10075.0, 10067.0, 10065.0, 10063.0, 10059.0, 10066.0, 10075.0, 10084.0, 10070.0, 10052.0, 10053.0, 10055.0, 10062.0, 10074.0, 10083.0, 10077.0, 10067.0, 10052.0, 10055.0, 10065.0, 10092.0, 10104.0],
      "WindowWidth": [21637.0, 21505.0, 21467.0, 21474.0, 21459.0, 21426.0, 21357.0, 21326.0, 21319.0, 21344.0, 21386.0, 21394.0, 21397.0, 21386.0, 21401.0, 21383.0, 21376.0, 21394.0, 21393.0, 21394.0, 21399.0, 21403.0, 21389.0, 21363.0, 21352.0, 21354.0, 21361.0, 21377.0, 21373.0, 21373.0, 21362.0, 21370.0, 21378.0, 21367.0, 21364.0, 21377.0, 21393.0, 21385.0, 21380.0, 21358.0, 21367.0, 21379.0, 21407.0, 21401.0, 21393.0, 21377.0, 21376.0, 21380.0, 21379.0, 21376.0, 21382.0, 21402.0, 21405.0, 21393.0, 21389.0, 21392.0, 21398.0, 21403.0, 21405.0, 21372.0, 21343.0, 21351.0, 21385.0, 21397.0, 21372.0, 21337.0, 21335.0, 21338.0, 21339.0, 21350.0, 21355.0, 21359.0, 21355.0, 21345.0, 21358.0, 21360.0, 21347.0, 21344.0, 21355.0, 21381.0, 21403.0, 21409.0, 21390.0, 21360.0, 21360.0, 21362.0, 21360.0, 21381.0, 21399.0, 21389.0, 21381.0, 21381.0, 21369.0, 21362.0, 21374.0, 21367.0, 21359.0, 21354.0, 21358.0, 21373.0, 21361.0, 21353.0, 21361.0, 21369.0, 21368.0, 21360.0, 21346.0, 21378.0, 21393.0, 21359.0, 21359.0, 21365.0, 21385.0, 21404.0, 21385.0, 21366.0, 21362.0, 21374.0, 21396.0, 21392.0, 21382.0, 21379.0, 21369.0, 21387.0, 21399.0, 21377.0, 21373.0, 21384.0, 21390.0, 21384.0, 21352.0, 21345.0, 21347.0, 21364.0, 21369.0, 21366.0, 21351.0, 21358.0, 21370.0, 21370.0, 21352.0, 21329.0, 21329.0, 21342.0, 21343.0, 21339.0, 21354.0, 21351.0, 21364.0, 21350.0, 21358.0, 21376.0, 21384.0, 21391.0, 21391.0, 21375.0, 21365.0, 21380.0, 21395.0, 21379.0, 21362.0, 21353.0, 21369.0, 21384.0, 21361.0, 21355.0, 21385.0, 21417.0, 21408.0, 21389.0, 21383.0, 21379.0, 21374.0, 21388.0, 21410.0, 21431.0, 21398.0, 21354.0, 21355.0, 21360.0, 21377.0, 21407.0, 21425.0, 21414.0, 21390.0, 21355.0, 21361.0, 21387.0, 21447.0, 21477.0]
    },
    "slices": {}
  }
}