{
  "AcquisitionMatrixPE": 104,
  "AcquisitionNumber": 1,
  "AcquisitionTime": "13:40:23.705000",
  "BandwidthPerPixelPhaseEncode": 17.17,
  "BaseResolution": 104,
  "BodyPartExamined": "BRAIN",
  "CoilCombinationMethod": "Sum of Squares",
  "ConsistencyInfo": "N4_VE11C_LATEST_20160120",
  "ConversionSoftware": "dcm2niix",
  "ConversionSoftwareVersion": "v1.0.20211006",
  "DerivedVendorReportedEchoSpacing": 0.000560011,
  "DeviceSerialNumber": "167006",
  "DwellTime": 2.1e-06,
  "EchoTime": 0.037,
  "EchoTime1": 0.037,
  "EchoTime2": 0.001,
  "EchoTrainLength": 104,
  "EffectiveEchoSpacing": 0.000560011,
  "FlipAngle": 52,
  "HeudiconvVersion": "0.10.0",
  "ImageComments": "Unaliased MB4/PE3/LB",
  "ImageOrientationPatientDICOM": [0.999008, 0.0282715, 0.0344136, -0.0183099, 0.965081, -0.26131],
  "ImageOrientationText": "Tra>Cor(-15.1)>Sag(2.3)",
  "ImageType": [
    "ORIGINAL",
    "PRIMARY",
    "P",
    "MB",
    "ND",
    "MOSAIC",
    "PHASE"
],
  "ImagingFrequency": 123.259,
  "InPlanePhaseEncodingDirectionDICOM": "COL",
  "InstitutionAddress": "Chemin Queen-Mary 4565,Montreal,District,CA,H3W 1W5",
  "InstitutionName": "IUGM",
  "InstitutionalDepartmentName": "Department",
  "MRAcquisitionType": "2D",
  "MagneticFieldStrength": 3,
  "Manufacturer": "Siemens",
  "ManufacturersModelName": "Prisma_fit",
  "MatrixCoilMode": "SENSE",
  "Modality": "MR",
  "MultibandAccelerationFactor": 4,
  "PartialFourier": 1,
  "PatientPosition": "HFS",
  "PercentPhaseFOV": 100,
  "PercentSampling": 100,
  "PhaseEncodingDirection": "j",
  "PhaseEncodingSteps": 104,
  "PhaseResolution": 1,
  "PixelBandwidth": 2290,
  "ProcedureStepDescription": "memory^things",
  "ProtocolName": "func_task-things_run-4",
  "PulseSequenceDetails": "%CustomerSeq%\\cmrr_mbep2d_bold",
  "ReceiveCoilActiveElements": "HC1-7;NC1,2",
  "ReceiveCoilName": "HeadNeck_64",
  "ReconMatrixPE": 104,
  "RepetitionTime": 1.49,
  "SAR": 0.0439774,
  "ScanOptions": "FS",
  "ScanningSequence": "EP",
  "SequenceName": "epfid2d1_104",
  "SequenceVariant": "SK\\SS",
  "SeriesDescription": "func_task-things_run-4",
  "SeriesNumber": 20,
  "ShimSetting": [641, -7207, -8814, 720, 57, 11, 71, -13],
  "SliceThickness": 2,
  "SliceTiming": [0, 0.785, 0.1, 0.8825, 0.1975, 0.98, 0.295, 1.08, 0.3925, 1.1775, 0.49, 1.275, 0.59, 1.3725, 0.6875, 0, 0.785, 0.1, 0.8825, 0.1975, 0.98, 0.295, 1.08, 0.3925, 1.1775, 0.49, 1.275, 0.59, 1.3725, 0.6875, 0, 0.785, 0.1, 0.8825, 0.1975, 0.98, 0.295, 1.08, 0.3925, 1.1775, 0.49, 1.275, 0.59, 1.3725, 0.6875, 0, 0.785, 0.1, 0.8825, 0.1975, 0.98, 0.295, 1.08, 0.3925, 1.1775, 0.49, 1.275, 0.59, 1.3725, 0.6875],
  "SoftwareVersions": "syngo MR E11",
  "SpacingBetweenSlices": 2,
  "StationName": "MRC35049",
  "TaskName": "things",
  "TotalReadoutTime": 0.0576811,
  "TxRefAmp": 222.806,
  "WipMemBlock": "f996bc34-7bca-4b78-8aec-67d32480ee39||Sequence: R016 ve11c/master r/e634e98; Dec 19 2017 11:00:25 by eja",
  "dcmmeta_affine": [
    [-1.9980154037475586, -0.03661971166729927, 0.08119917660951614, 108.17005157470703],
    [-0.05654305964708328, 1.9301624298095703, -0.520841658115387, -71.31704711914062],
    [0.06882725656032562, 0.522620439529419, 1.9292824268341064, -72.3205795288086],
    [0.0, 0.0, 0.0, 1.0]
],
  "dcmmeta_reorient_transform": [
    [0.0, -1.0, 0.0, 103.0],
    [1.0, 0.0, 0.0, 0.0],
    [0.0, 0.0, 1.0, 0.0],
    [0.0, 0.0, 0.0, 1.0]
],
  "dcmmeta_shape": [104, 104, 60, 190],
  "dcmmeta_slice_dim": 2,
  "dcmmeta_version": 0.6,
  "global": {
    "const": {
      "AcquisitionMatrix": [104, 0, 0, 104],
      "AngioFlag": "N",
      "BitsAllocated": 16,
      "BitsStored": 16,
      "BodyPartExamined": "BRAIN",
      "Columns": 832,
      "EchoNumbers": 1,
      "EchoTime": 37.0,
      "EchoTrainLength": 104,
      "FlipAngle": 52.0,
      "HighBit": 15,
      "ImageOrientationPatient": [0.99900771903025, 0.02827152959615, 0.03441363003637, -0.0183098564055, 0.96508119429533, -0.2613102324363],
      "ImagePositionPatient": [-818.34626397483, -850.65046221888, 146.69005586885],
      "ImageType": [
        "ORIGINAL",
        "PRIMARY",
        "P",
        "MB",
        "ND",
        "MOSAIC"
],
      "ImagedNucleus": "1H",
      "ImagingFrequency": 123.258904,
      "InPlanePhaseEncodingDirection": "COL",
      "LargestImagePixelValue": 4095,
      "MRAcquisitionType": "2D",
      "MagneticFieldStrength": 3.0,
      "Manufacturer": "SIEMENS",
      "ManufacturerModelName": "Prisma_fit",
      "Modality": "MR",
      "NumberOfAverages": 1.0,
      "NumberOfPhaseEncodingSteps": 104,
      "PercentPhaseFieldOfView": 100.0,
      "PercentSampling": 100.0,
      "PerformedProcedureStepStartTime": "131826.057000",
      "PhotometricInterpretation": "MONOCHROME2",
      "PixelBandwidth": 2290.0,
      "PixelRepresentation": 0,
      "PixelSpacing": [2.0, 2.0],
      "ProtocolName": "func_task-things_run-4",
      "RepetitionTime": 1490.0,
      "RescaleIntercept": -4096.0,
      "RescaleSlope": 2.0,
      "RescaleType": "US",
      "Rows": 832,
      "SAR": 0.04397739894659,
      "SamplesPerPixel": 1,
      "ScanOptions": "FS",
      "ScanningSequence": "EP",
      "SequenceName": "epfid2d1_104",
      "SequenceVariant": [
        "SK",
        "SS"
],
      "SeriesDescription": "func_task-things_run-4",
      "SeriesNumber": 20,
      "SeriesTime": "134150.153000",
      "SliceLocation": -46.799306473317,
      "SliceThickness": 2.0,
      "SmallestImagePixelValue": 0,
      "SoftwareVersions": "syngo MR E11",
      "SpacingBetweenSlices": 2.0000000143568,
      "SpecificCharacterSet": "ISO_IR 100",
      "StudyID": "1",
      "StudyTime": "131825.952000",
      "TransmitCoilName": "Body",
      "VariableFlipAngleFlag": "N",
      "WindowCenterWidthExplanation": "Algo1",
      "dBdt": 0.0},
    "slices": {}
  },
  "time": {
    "samples": {
      "AcquisitionNumber": [1, 2, 3, 4, 5, 6, 7, 8, 9, 10, 11, 12, 13, 14, 15, 16, 17, 18, 19, 20, 21, 22, 23, 24, 25, 26, 27, 28, 29, 30, 31, 32, 33, 34, 35, 36, 37, 38, 39, 40, 41, 42, 43, 44, 45, 46, 47, 48, 49, 50, 51, 52, 53, 54, 55, 56, 57, 58, 59, 60, 61, 62, 63, 64, 65, 66, 67, 68, 69, 70, 71, 72, 73, 74, 75, 76, 77, 78, 79, 80, 81, 82, 83, 84, 85, 86, 87, 88, 89, 90, 91, 92, 93, 94, 95, 96, 97, 98, 99, 100, 101, 102, 103, 104, 105, 106, 107, 108, 109, 110, 111, 112, 113, 114, 115, 116, 117, 118, 119, 120, 121, 122, 123, 124, 125, 126, 127, 128, 129, 130, 131, 132, 133, 134, 135, 136, 137, 138, 139, 140, 141, 142, 143, 144, 145, 146, 147, 148, 149, 150, 151, 152, 153, 154, 155, 156, 157, 158, 159, 160, 161, 162, 163, 164, 165, 166, 167, 168, 169, 170, 171, 172, 173, 174, 175, 176, 177, 178, 179, 180, 181, 182, 183, 184, 185, 186, 187, 188, 189, 190],
      "AcquisitionTime": ["134023.705000", "134025.195000", "134026.685000", "134028.175000", "134029.665000", "134031.155000", "134032.645000", "134034.135000", "134035.625000", "134037.115000", "134038.605000", "134040.095000", "134041.585000", "134043.075000", "134044.565000", "134046.055000", "134047.545000", "134049.035000", "134050.525000", "134052.015000", "134053.505000", "134054.995000", "134056.485000", "134057.975000", "134059.465000", "134100.955000", "134102.445000", "134103.935000", "134105.425000", "134106.915000", "134108.405000", "134109.895000", "134111.385000", "134112.875000", "134114.365000", "134115.855000", "134117.345000", "134118.835000", "134120.325000", "134121.815000", "134123.305000", "134124.795000", "134126.285000", "134127.775000", "134129.265000", "134130.755000", "134132.245000", "134133.735000", "134135.225000", "134136.715000", "134138.205000", "134139.695000", "134141.185000", "134142.675000", "134144.165000", "134145.655000", "134147.145000", "134148.635000", "134150.125000", "134151.615000", "134153.105000", "134154.595000", "134156.085000", "134157.575000", "134159.065000", "134200.555000", "134202.045000", "134203.535000", "134205.025000", "134206.515000", "134208.005000", "134209.495000", "134210.985000", "134212.475000", "134213.965000", "134215.455000", "134216.945000", "134218.435000", "134219.925000", "134221.415000", "134222.905000", "134224.395000", "134225.885000", "134227.375000", "134228.865000", "134230.355000", "134231.845000", "134233.335000", "134234.825000", "134236.315000", "134237.805000", "134239.295000", "134240.785000", "134242.275000", "134243.765000", "134245.255000", "134246.745000", "134248.235000", "134249.725000", "134251.215000", "134252.705000", "134254.195000", "134255.685000", "134257.175000", "134258.665000", "134300.155000", "134301.645000", "134303.135000", "134304.625000", "134306.115000", "134307.605000", "134309.095000", "134310.585000", "134312.075000", "134313.565000", "134315.055000", "134316.545000", "134318.035000", "134319.525000", "134321.015000", "134322.505000", "134323.995000", "134325.485000", "134326.975000", "134328.465000", "134329.955000", "134331.445000", "134332.935000", "134334.425000", "134335.915000", "134337.405000", "134338.895000", "134340.385000", "134341.875000", "134343.365000", "134344.855000", "134346.345000", "134347.835000", "134349.325000", "134350.815000", "134352.305000", "134353.795000", "134355.285000", "134356.775000", "134358.265000", "134359.755000", "134401.245000", "134402.735000", "134404.225000", "134405.715000", "134407.205000", "134408.695000", "134410.185000", "134411.675000", "134413.165000", "134414.655000", "134416.145000", "134417.635000", "134419.125000", "134420.615000", "134422.105000", "134423.595000", "134425.085000", "134426.575000", "134428.065000", "134429.555000", "134431.045000", "134432.535000", "134434.025000", "134435.515000", "134437.005000", "134438.495000", "134439.985000", "134441.475000", "134442.965000", "134444.455000", "134445.945000", "134447.435000", "134448.925000", "134450.415000", "134451.905000", "134453.395000", "134454.885000", "134456.375000", "134457.865000", "134459.355000", "134500.845000", "134502.335000", "134503.825000", "134505.315000"],
      "ContentTime": ["134150.155000", "134150.158000", "134150.160000", "134150.163000", "134150.165000", "134150.168000", "134150.170000", "134150.173000", "134150.175000", "134150.181000", "134150.184000", "134150.186000", "134150.188000", "134150.191000", "134150.193000", "134150.196000", "134150.198000", "134150.201000", "134150.203000", "134150.206000", "134150.208000", "134150.211000", "134150.213000", "134150.218000", "134150.220000", "134150.223000", "134150.225000", "134150.228000", "134150.230000", "134150.232000", "134150.235000", "134150.237000", "134210.078000", "134210.080000", "134210.083000", "134210.085000", "134210.088000", "134210.090000", "134210.093000", "134210.095000", "134210.098000", "134210.100000", "134210.103000", "134210.105000", "134210.108000", "134210.110000", "134210.113000", "134210.115000", "134210.118000", "134210.120000", "134210.123000", "134210.125000", "134210.138000", "134230.077000", "134230.080000", "134230.082000", "134230.085000", "134230.087000", "134230.090000", "134230.092000", "134230.095000", "134230.097000", "134230.100000", "134230.102000", "134230.105000", "134230.107000", "134230.110000", "134230.112000", "134230.115000", "134230.117000", "134230.120000", "134230.122000", "134230.125000", "134250.064000", "134250.067000", "134250.069000", "134250.072000", "134250.074000", "134250.077000", "134250.079000", "134250.082000", "134250.084000", "134250.087000", "134250.089000", "134250.092000", "134250.094000", "134250.096000", "134250.099000", "134250.102000", "134250.104000", "134250.106000", "134250.109000", "134250.111000", "134330.113000", "134330.116000", "134330.118000", "134330.121000", "134330.123000", "134330.126000", "134330.128000", "134330.131000", "134330.134000", "134330.136000", "134330.139000", "134330.141000", "134330.144000", "134330.146000", "134330.149000", "134330.151000", "134330.154000", "134330.156000", "134330.159000", "134330.161000", "134330.164000", "134330.166000", "134330.169000", "134330.172000", "134330.175000", "134330.178000", "134330.180000", "134330.183000", "134330.185000", "134330.188000", "134330.190000", "134410.109000", "134410.112000", "134410.114000", "134410.117000", "134410.119000", "134410.122000", "134410.124000", "134410.127000", "134410.129000", "134410.132000", "134410.134000", "134410.137000", "134410.139000", "134410.142000", "134410.144000", "134410.147000", "134410.149000", "134410.152000", "134410.154000", "134410.157000", "134410.227000", "134410.229000", "134410.232000", "134410.234000", "134410.237000", "134410.239000", "134410.242000", "134450.105000", "134450.108000", "134450.110000", "134450.113000", "134450.115000", "134450.118000", "134450.120000", "134450.123000", "134450.125000", "134450.128000", "134450.130000", "134450.133000", "134450.135000", "134450.138000", "134450.140000", "134450.143000", "134450.145000", "134450.148000", "134450.150000", "134450.153000", "134450.155000", "134450.158000", "134450.206000", "134450.208000", "134450.211000", "134450.213000", "134450.216000", "134507.310000", "134507.313000", "134507.315000", "134507.318000", "134507.320000", "134507.332000", "134507.334000", "134507.337000", "134507.339000", "134507.342000", "134507.344000", "134507.347000"],
      "InstanceCreationTime": ["134150.155000", "134150.158000", "134150.160000", "134150.163000", "134150.165000", "134150.168000", "134150.170000", "134150.173000", "134150.175000", "134150.181000", "134150.184000", "134150.186000", "134150.188000", "134150.191000", "134150.193000", "134150.196000", "134150.198000", "134150.201000", "134150.203000", "134150.206000", "134150.208000", "134150.211000", "134150.213000", "134150.218000", "134150.220000", "134150.223000", "134150.225000", "134150.228000", "134150.230000", "134150.232000", "134150.235000", "134150.237000", "134210.078000", "134210.080000", "134210.083000", "134210.085000", "134210.088000", "134210.090000", "134210.093000", "134210.095000", "134210.098000", "134210.100000", "134210.103000", "134210.105000", "134210.108000", "134210.110000", "134210.113000", "134210.115000", "134210.118000", "134210.120000", "134210.123000", "134210.125000", "134210.138000", "134230.077000", "134230.080000", "134230.082000", "134230.085000", "134230.087000", "134230.090000", "134230.092000", "134230.095000", "134230.097000", "134230.100000", "134230.102000", "134230.105000", "134230.107000", "134230.110000", "134230.112000", "134230.115000", "134230.117000", "134230.120000", "134230.122000", "134230.125000", "134250.064000", "134250.067000", "134250.069000", "134250.072000", "134250.074000", "134250.077000", "134250.079000", "134250.082000", "134250.084000", "134250.087000", "134250.089000", "134250.092000", "134250.094000", "134250.096000", "134250.099000", "134250.102000", "134250.104000", "134250.106000", "134250.109000", "134250.111000", "134330.113000", "134330.116000", "134330.118000", "134330.121000", "134330.123000", "134330.126000", "134330.128000", "134330.131000", "134330.134000", "134330.136000", "134330.139000", "134330.141000", "134330.144000", "134330.146000", "134330.149000", "134330.151000", "134330.154000", "134330.156000", "134330.159000", "134330.161000", "134330.164000", "134330.166000", "134330.169000", "134330.172000", "134330.175000", "134330.178000", "134330.180000", "134330.183000", "134330.185000", "134330.188000", "134330.190000", "134410.109000", "134410.112000", "134410.114000", "134410.117000", "134410.119000", "134410.122000", "134410.124000", "134410.127000", "134410.129000", "134410.132000", "134410.134000", "134410.137000", "134410.139000", "134410.142000", "134410.144000", "134410.147000", "134410.149000", "134410.152000", "134410.154000", "134410.157000", "134410.227000", "134410.229000", "134410.232000", "134410.234000", "134410.237000", "134410.239000", "134410.242000", "134450.105000", "134450.108000", "134450.110000", "134450.113000", "134450.115000", "134450.118000", "134450.120000", "134450.123000", "134450.125000", "134450.128000", "134450.130000", "134450.133000", "134450.135000", "134450.138000", "134450.140000", "134450.143000", "134450.145000", "134450.148000", "134450.150000", "134450.153000", "134450.155000", "134450.158000", "134450.206000", "134450.208000", "134450.211000", "134450.213000", "134450.216000", "134507.310000", "134507.313000", "134507.315000", "134507.318000", "134507.320000", "134507.332000", "134507.334000", "134507.337000", "134507.339000", "134507.342000", "134507.344000", "134507.347000"],
      "InstanceNumber": [1, 2, 3, 4, 5, 6, 7, 8, 9, 10, 11, 12, 13, 14, 15, 16, 17, 18, 19, 20, 21, 22, 23, 24, 25, 26, 27, 28, 29, 30, 31, 32, 33, 34, 35, 36, 37, 38, 39, 40, 41, 42, 43, 44, 45, 46, 47, 48, 49, 50, 51, 52, 53, 54, 55, 56, 57, 58, 59, 60, 61, 62, 63, 64, 65, 66, 67, 68, 69, 70, 71, 72, 73, 74, 75, 76, 77, 78, 79, 80, 81, 82, 83, 84, 85, 86, 87, 88, 89, 90, 91, 92, 93, 94, 95, 96, 97, 98, 99, 100, 101, 102, 103, 104, 105, 106, 107, 108, 109, 110, 111, 112, 113, 114, 115, 116, 117, 118, 119, 120, 121, 122, 123, 124, 125, 126, 127, 128, 129, 130, 131, 132, 133, 134, 135, 136, 137, 138, 139, 140, 141, 142, 143, 144, 145, 146, 147, 148, 149, 150, 151, 152, 153, 154, 155, 156, 157, 158, 159, 160, 161, 162, 163, 164, 165, 166, 167, 168, 169, 170, 171, 172, 173, 174, 175, 176, 177, 178, 179, 180, 181, 182, 183, 184, 185, 186, 187, 188, 189, 190],
      "WindowCenter": [4860.0, 4862.0, 4836.0, 4836.0, 4860.0, 4858.0, 4860.0, 4862.0, 4860.0, 4856.0, 4860.0, 4858.0, 4858.0, 4860.0, 4858.0, 4856.0, 4858.0, 4856.0, 4860.0, 4860.0, 4860.0, 4856.0, 4836.0, 4858.0, 4858.0, 4858.0, 4856.0, 4856.0, 4860.0, 4860.0, 4858.0, 4858.0, 4858.0, 4838.0, 4858.0, 4860.0, 4834.0, 4858.0, 4836.0, 4856.0, 4860.0, 4856.0, 4858.0, 4858.0, 4862.0, 4858.0, 4858.0, 4860.0, 4856.0, 4858.0, 4858.0, 4858.0, 4856.0, 4834.0, 4860.0, 4858.0, 4860.0, 4836.0, 4836.0, 4860.0, 4836.0, 4860.0, 4860.0, 4860.0, 4858.0, 4860.0, 4858.0, 4860.0, 4858.0, 4858.0, 4834.0, 4860.0, 4860.0, 4858.0, 4856.0, 4858.0, 4860.0, 4864.0, 4862.0, 4860.0, 4860.0, 4858.0, 4836.0, 4862.0, 4838.0, 4860.0, 4858.0, 4862.0, 4860.0, 4836.0, 4858.0, 4858.0, 4836.0, 4858.0, 4860.0, 4858.0, 4862.0, 4858.0, 4860.0, 4856.0, 4858.0, 4860.0, 4860.0, 4856.0, 4862.0, 4856.0, 4858.0, 4856.0, 4858.0, 4864.0, 4860.0, 4858.0, 4858.0, 4856.0, 4858.0, 4860.0, 4862.0, 4858.0, 4860.0, 4856.0, 4860.0, 4858.0, 4860.0, 4834.0, 4858.0, 4860.0, 4858.0, 4856.0, 4860.0, 4858.0, 4858.0, 4860.0, 4856.0, 4860.0, 4858.0, 4858.0, 4858.0, 4860.0, 4860.0, 4860.0, 4858.0, 4858.0, 4858.0, 4834.0, 4858.0, 4858.0, 4860.0, 4862.0, 4858.0, 4858.0, 4858.0, 4858.0, 4834.0, 4860.0, 4860.0, 4838.0, 4860.0, 4858.0, 4836.0, 4860.0, 4858.0, 4860.0, 4858.0, 4860.0, 4860.0, 4858.0, 4858.0, 4858.0, 4860.0, 4860.0, 4858.0, 4834.0, 4860.0, 4862.0, 4860.0, 4858.0, 4836.0, 4858.0, 4860.0, 4856.0, 4858.0, 4860.0, 4864.0, 4834.0, 4860.0, 4856.0, 4858.0, 4860.0, 4860.0, 4858.0],
      "WindowWidth": [18606.0, 18608.0, 18576.0, 18576.0, 18608.0, 18602.0, 18604.0, 18606.0, 18606.0, 18608.0, 18600.0, 18604.0, 18606.0, 18608.0, 18604.0, 18608.0, 18608.0, 18602.0, 18600.0, 18606.0, 18604.0, 18602.0, 18572.0, 18600.0, 18606.0, 18604.0, 18604.0, 18602.0, 18604.0, 18602.0, 18602.0, 18602.0, 18604.0, 18568.0, 18602.0, 18608.0, 18574.0, 18602.0, 18574.0, 18600.0, 18608.0, 18600.0, 18608.0, 18604.0, 18604.0, 18598.0, 18604.0, 18600.0, 18606.0, 18604.0, 18606.0, 18606.0, 18604.0, 18570.0, 18604.0, 18604.0, 18604.0, 18576.0, 18578.0, 18604.0, 18572.0, 18604.0, 18600.0, 18606.0, 18608.0, 18602.0, 18604.0, 18600.0, 18606.0, 18604.0, 18566.0, 18604.0, 18610.0, 18602.0, 18602.0, 18604.0, 18606.0, 18608.0, 18608.0, 18606.0, 18604.0, 18600.0, 18566.0, 18606.0, 18578.0, 18602.0, 18602.0, 18602.0, 18606.0, 18570.0, 18606.0, 18604.0, 18574.0, 18604.0, 18606.0, 18604.0, 18602.0, 18604.0, 18608.0, 18602.0, 18604.0, 18606.0, 18610.0, 18602.0, 18608.0, 18602.0, 18608.0, 18602.0, 18606.0, 18604.0, 18606.0, 18606.0, 18606.0, 18600.0, 18602.0, 18604.0, 18608.0, 18600.0, 18604.0, 18606.0, 18606.0, 18606.0, 18602.0, 18572.0, 18606.0, 18606.0, 18604.0, 18598.0, 18606.0, 18608.0, 18600.0, 18606.0, 18608.0, 18604.0, 18604.0, 18602.0, 18606.0, 18606.0, 18608.0, 18602.0, 18604.0, 18604.0, 18606.0, 18574.0, 18604.0, 18604.0, 18606.0, 18608.0, 18606.0, 18600.0, 18606.0, 18602.0, 18574.0, 18604.0, 18604.0, 18568.0, 18608.0, 18604.0, 18574.0, 18602.0, 18606.0, 18610.0, 18598.0, 18604.0, 18606.0, 18602.0, 18604.0, 18602.0, 18606.0, 18602.0, 18608.0, 18574.0, 18608.0, 18604.0, 18604.0, 18602.0, 18578.0, 18604.0, 18608.0, 18598.0, 18604.0, 18602.0, 18608.0, 18572.0, 18604.0, 18606.0, 18608.0, 18604.0, 18610.0, 18606.0]
    },
    "slices": {}
  }
}