{
  "AcquisitionMatrixPE": 104,
  "AcquisitionNumber": 1,
  "AcquisitionTime": "15:29:1.672500",
  "BandwidthPerPixelPhaseEncode": 17.17,
  "BaseResolution": 104,
  "BodyPartExamined": "BRAIN",
  "CoilString": "HC1-7;NC1_2",
  "ConsistencyInfo": "N4_VE11C_LATEST_20160120",
  "ConversionSoftware": "dcm2niix",
  "ConversionSoftwareVersion": "v1.0.20190902",
  "DerivedVendorReportedEchoSpacing": 0.000560011,
  "DeviceSerialNumber": "167006",
  "DwellTime": 2.1e-06,
  "EchoTime": 0.037,
  "EchoTrainLength": 104,
  "EffectiveEchoSpacing": 0.000560011,
  "FlipAngle": 52,
  "ImageComments": "Unaliased_MB4_PE3_LB",
  "ImageOrientationPatientDICOM": [0.998389, -0.052509, 0.0214888, 0.0565178, 0.953633, -0.295618],
  "ImageType": [
    "ORIGINAL",
    "PRIMARY",
    "P",
    "MB",
    "ND",
    "MOSAIC"
],
  "ImagingFrequency": 123.259,
  "InPlanePhaseEncodingDirectionDICOM": "COL",
  "InstitutionAddress": "Chemin_Queen-Mary_4565_Montreal_District_CA_H3W_1W5",
  "InstitutionName": "IUGM",
  "InstitutionalDepartmentName": "Department",
  "MRAcquisitionType": "2D",
  "MagneticFieldStrength": 3,
  "Manufacturer": "Siemens",
  "ManufacturersModelName": "Prisma_fit",
  "Modality": "MR",
  "MultibandAccelerationFactor": 4,
  "PartialFourier": 1,
  "PatientPosition": "HFS",
  "PercentPhaseFOV": 100,
  "PhaseEncodingDirection": "j",
  "PhaseEncodingSteps": 104,
  "PhaseResolution": 1,
  "PixelBandwidth": 2290,
  "ProcedureStepDescription": "memory_things",
  "ProtocolName": "func_task-things_run-1",
  "PulseSequenceDetails": "%CustomerSeq%_cmrr_mbep2d_bold",
  "ReceiveCoilActiveElements": "HC1-7;NC1,2",
  "ReceiveCoilName": "HeadNeck_64",
  "ReconMatrixPE": 104,
  "RepetitionTime": 1.49,
  "SAR": 0.0353052,
  "ScanOptions": "FS",
  "ScanningSequence": "EP",
  "SequenceName": "epfid2d1_104",
  "SequenceVariant": "SK_SS",
  "SeriesDescription": "func_task-things_run-1",
  "SeriesNumber": 11,
  "ShimSetting": [635, -7246, -8797, 619, 22, -179, -49, -7],
  "SliceThickness": 2,
  "SliceTiming": [0, 0.7825, 0.0975, 0.8825, 0.195, 0.98, 0.2925, 1.0775, 0.3925, 1.175, 0.49, 1.2725, 0.5875, 1.3725, 0.685, 0, 0.7825, 0.0975, 0.8825, 0.195, 0.98, 0.2925, 1.0775, 0.3925, 1.175, 0.49, 1.2725, 0.5875, 1.3725, 0.685, 0, 0.7825, 0.0975, 0.8825, 0.195, 0.98, 0.2925, 1.0775, 0.3925, 1.175, 0.49, 1.2725, 0.5875, 1.3725, 0.685, 0, 0.7825, 0.0975, 0.8825, 0.195, 0.98, 0.2925, 1.0775, 0.3925, 1.175, 0.49, 1.2725, 0.5875, 1.3725, 0.685],
  "SoftwareVersions": "syngo_MR_E11",
  "SpacingBetweenSlices": 2,
  "StationName": "MRC35049",
  "TaskName": "things",
  "TotalReadoutTime": 0.0576811,
  "TxRefAmp": 239.595,
  "WipMemBlock": "02a3a96f-ae0a-4a34-9c16-3013e836a21d||Sequence: R016 ve11c/master r/e634e98; Dec 19 2017 11:00:25 by eja",
  "dcmmeta_affine": [
    [-1.9967784881591797, 0.11303558945655823, 0.00993979163467884, 101.69925689697266],
    [0.10501791536808014, 1.9072661399841309, -0.5927117466926575, -72.25675201416016],
    [0.042977675795555115, 0.5912351012229919, 1.9101293087005615, -59.04114532470703],
    [0.0, 0.0, 0.0, 1.0]
],
  "dcmmeta_reorient_transform": [
    [0.0, -1.0, 0.0, 103.0],
    [1.0, 0.0, 0.0, 0.0],
    [0.0, 0.0, 1.0, 0.0],
    [0.0, 0.0, 0.0, 1.0]
],
  "dcmmeta_shape": [104, 104, 60, 190],
  "dcmmeta_slice_dim": 2,
  "dcmmeta_version": 0.6,
  "global": {
    "const": {
      "AcquisitionMatrix": [104, 0, 0, 104],
      "AngioFlag": "N",
      "BitsAllocated": 16,
      "BitsStored": 16,
      "BodyPartExamined": "BRAIN",
      "Columns": 832,
      "EchoNumbers": 1,
      "EchoTime": 37.0,
      "EchoTrainLength": 104,
      "FlipAngle": 52.0,
      "HighBit": 15,
      "ImageOrientationPatient": [0.99838922230124, -0.0525089577957, 0.02148883765892, 0.05651779299657, 0.95363305314175, -0.2956175553487],
      "ImagePositionPatient": [-881.314230432, -780.2100016614, 201.42177852746],
      "ImageType": [
        "ORIGINAL",
        "PRIMARY",
        "P",
        "MB",
        "ND",
        "MOSAIC"
],
      "ImagedNucleus": "1H",
      "ImagingFrequency": 123.258889,
      "InPlanePhaseEncodingDirection": "COL",
      "LargestImagePixelValue": 4095,
      "MRAcquisitionType": "2D",
      "MagneticFieldStrength": 3.0,
      "Manufacturer": "SIEMENS",
      "ManufacturerModelName": "Prisma_fit",
      "Modality": "MR",
      "NumberOfAverages": 1.0,
      "NumberOfPhaseEncodingSteps": 104,
      "PercentPhaseFieldOfView": 100.0,
      "PercentSampling": 100.0,
      "PerformedProcedureStepStartTime": "150548.435000",
      "PhotometricInterpretation": "MONOCHROME2",
      "PixelBandwidth": 2290.0,
      "PixelRepresentation": 0,
      "PixelSpacing": [2.0, 2.0],
      "ProtocolName": "func_task-things_run-1",
      "RepetitionTime": 1490.0,
      "RescaleIntercept": -4096.0,
      "RescaleSlope": 2.0,
      "RescaleType": "US",
      "Rows": 832,
      "SAR": 0.03530518334629,
      "SamplesPerPixel": 1,
      "ScanOptions": "FS",
      "ScanningSequence": "EP",
      "SequenceName": "epfid2d1_104",
      "SequenceVariant": [
        "SK",
        "SS"
],
      "SeriesDescription": "func_task-things_run-1",
      "SeriesNumber": 11,
      "SeriesTime": "153033.632000",
      "SliceLocation": -34.468962724489,
      "SliceThickness": 2.0,
      "SmallestImagePixelValue": 0,
      "SoftwareVersions": "syngo MR E11",
      "SpacingBetweenSlices": 1.9999999596241,
      "SpecificCharacterSet": "ISO_IR 100",
      "StudyID": "1",
      "StudyTime": "150548.348000",
      "TransmitCoilName": "Body",
      "VariableFlipAngleFlag": "N",
      "WindowCenterWidthExplanation": "Algo1",
      "dBdt": 0.0},
    "slices": {}
  },
  "time": {
    "samples": {
      "AcquisitionNumber": [1, 2, 3, 4, 5, 6, 7, 8, 9, 10, 11, 12, 13, 14, 15, 16, 17, 18, 19, 20, 21, 22, 23, 24, 25, 26, 27, 28, 29, 30, 31, 32, 33, 34, 35, 36, 37, 38, 39, 40, 41, 42, 43, 44, 45, 46, 47, 48, 49, 50, 51, 52, 53, 54, 55, 56, 57, 58, 59, 60, 61, 62, 63, 64, 65, 66, 67, 68, 69, 70, 71, 72, 73, 74, 75, 76, 77, 78, 79, 80, 81, 82, 83, 84, 85, 86, 87, 88, 89, 90, 91, 92, 93, 94, 95, 96, 97, 98, 99, 100, 101, 102, 103, 104, 105, 106, 107, 108, 109, 110, 111, 112, 113, 114, 115, 116, 117, 118, 119, 120, 121, 122, 123, 124, 125, 126, 127, 128, 129, 130, 131, 132, 133, 134, 135, 136, 137, 138, 139, 140, 141, 142, 143, 144, 145, 146, 147, 148, 149, 150, 151, 152, 153, 154, 155, 156, 157, 158, 159, 160, 161, 162, 163, 164, 165, 166, 167, 168, 169, 170, 171, 172, 173, 174, 175, 176, 177, 178, 179, 180, 181, 182, 183, 184, 185, 186, 187, 188, 189, 190],
      "AcquisitionTime": ["152901.672500", "152903.162500", "152904.652500", "152906.142500", "152907.632500", "152909.122500", "152910.612500", "152912.102500", "152913.592500", "152915.082500", "152916.572500", "152918.062500", "152919.552500", "152921.042500", "152922.532500", "152924.022500", "152925.512500", "152927.002500", "152928.492500", "152929.982500", "152931.472500", "152932.962500", "152934.452500", "152935.942500", "152937.432500", "152938.922500", "152940.412500", "152941.902500", "152943.392500", "152944.882500", "152946.372500", "152947.862500", "152949.352500", "152950.842500", "152952.332500", "152953.822500", "152955.312500", "152956.802500", "152958.292500", "152959.782500", "153001.272500", "153002.762500", "153004.252500", "153005.742500", "153007.232500", "153008.722500", "153010.212500", "153011.702500", "153013.192500", "153014.682500", "153016.172500", "153017.662500", "153019.152500", "153020.642500", "153022.132500", "153023.622500", "153025.112500", "153026.602500", "153028.092500", "153029.582500", "153031.072500", "153032.562500", "153034.052500", "153035.542500", "153037.032500", "153038.522500", "153040.012500", "153041.502500", "153042.992500", "153044.482500", "153045.972500", "153047.462500", "153048.952500", "153050.442500", "153051.932500", "153053.422500", "153054.912500", "153056.402500", "153057.892500", "153059.382500", "153100.872500", "153102.362500", "153103.852500", "153105.342500", "153106.832500", "153108.322500", "153109.812500", "153111.302500", "153112.792500", "153114.282500", "153115.772500", "153117.262500", "153118.752500", "153120.242500", "153121.732500", "153123.222500", "153124.712500", "153126.202500", "153127.692500", "153129.182500", "153130.672500", "153132.162500", "153133.652500", "153135.142500", "153136.632500", "153138.122500", "153139.612500", "153141.102500", "153142.592500", "153144.082500", "153145.572500", "153147.062500", "153148.552500", "153150.042500", "153151.532500", "153153.022500", "153154.512500", "153156.002500", "153157.492500", "153158.982500", "153200.472500", "153201.962500", "153203.452500", "153204.942500", "153206.432500", "153207.922500", "153209.412500", "153210.902500", "153212.392500", "153213.882500", "153215.372500", "153216.862500", "153218.352500", "153219.842500", "153221.332500", "153222.822500", "153224.312500", "153225.802500", "153227.292500", "153228.782500", "153230.272500", "153231.762500", "153233.252500", "153234.742500", "153236.232500", "153237.722500", "153239.212500", "153240.702500", "153242.192500", "153243.682500", "153245.172500", "153246.662500", "153248.152500", "153249.642500", "153251.132500", "153252.622500", "153254.112500", "153255.602500", "153257.092500", "153258.582500", "153300.072500", "153301.562500", "153303.052500", "153304.542500", "153306.032500", "153307.522500", "153309.012500", "153310.502500", "153311.992500", "153313.482500", "153314.972500", "153316.462500", "153317.952500", "153319.442500", "153320.932500", "153322.422500", "153323.912500", "153325.402500", "153326.892500", "153328.382500", "153329.872500", "153331.362500", "153332.852500", "153334.342500", "153335.832500", "153337.322500", "153338.812500", "153340.302500", "153341.792500", "153343.282500"],
      "ContentTime": ["153033.634000", "153033.637000", "153033.639000", "153033.642000", "153033.648000", "153033.651000", "153033.653000", "153033.656000", "153033.658000", "153033.661000", "153033.663000", "153033.665000", "153033.668000", "153033.670000", "153033.673000", "153033.675000", "153033.678000", "153033.680000", "153033.683000", "153033.685000", "153033.688000", "153033.690000", "153033.693000", "153033.696000", "153033.698000", "153033.701000", "153033.703000", "153033.705000", "153033.708000", "153033.710000", "153033.713000", "153033.715000", "153033.718000", "153033.720000", "153033.723000", "153033.725000", "153053.511000", "153053.513000", "153053.516000", "153053.519000", "153053.521000", "153053.523000", "153053.526000", "153053.528000", "153053.531000", "153053.533000", "153053.536000", "153053.538000", "153053.541000", "153053.543000", "153053.546000", "153053.548000", "153053.551000", "153053.553000", "153053.556000", "153053.558000", "153113.515000", "153113.518000", "153113.521000", "153113.523000", "153113.525000", "153113.528000", "153113.530000", "153113.533000", "153113.535000", "153113.538000", "153113.540000", "153113.543000", "153113.546000", "153113.548000", "153113.551000", "153113.562000", "153113.564000", "153113.567000", "153113.570000", "153113.572000", "153133.503000", "153133.505000", "153133.508000", "153133.510000", "153133.513000", "153133.515000", "153133.518000", "153133.520000", "153133.523000", "153133.525000", "153133.528000", "153133.530000", "153133.533000", "153133.535000", "153133.538000", "153133.540000", "153133.543000", "153133.545000", "153133.548000", "153133.550000", "153213.587000", "153213.589000", "153213.592000", "153213.594000", "153213.597000", "153213.599000", "153213.602000", "153213.604000", "153213.607000", "153213.609000", "153213.612000", "153213.614000", "153213.617000", "153213.619000", "153213.622000", "153213.624000", "153213.627000", "153213.629000", "153213.632000", "153213.634000", "153213.637000", "153213.639000", "153213.642000", "153213.644000", "153213.647000", "153213.649000", "153213.652000", "153213.654000", "153213.657000", "153213.659000", "153213.661000", "153213.664000", "153253.559000", "153253.562000", "153253.565000", "153253.567000", "153253.570000", "153253.572000", "153253.575000", "153253.578000", "153253.580000", "153253.583000", "153253.585000", "153253.588000", "153253.590000", "153253.593000", "153253.596000", "153253.598000", "153253.601000", "153253.603000", "153253.606000", "153253.609000", "153253.611000", "153253.614000", "153253.616000", "153253.619000", "153253.621000", "153253.624000", "153253.627000", "153333.538000", "153333.541000", "153333.543000", "153333.546000", "153333.549000", "153333.553000", "153333.556000", "153333.560000", "153333.563000", "153333.565000", "153333.568000", "153333.571000", "153333.573000", "153333.576000", "153333.579000", "153333.581000", "153333.584000", "153333.586000", "153333.589000", "153333.591000", "153333.594000", "153333.596000", "153333.599000", "153333.601000", "153333.604000", "153333.606000", "153345.621000", "153345.624000", "153345.627000", "153345.630000", "153345.632000", "153345.635000", "153345.637000", "153345.640000", "153345.642000"],
      "InstanceCreationTime": ["153033.634000", "153033.637000", "153033.639000", "153033.642000", "153033.648000", "153033.651000", "153033.653000", "153033.656000", "153033.658000", "153033.661000", "153033.663000", "153033.665000", "153033.668000", "153033.670000", "153033.673000", "153033.675000", "153033.678000", "153033.680000", "153033.683000", "153033.685000", "153033.688000", "153033.690000", "153033.693000", "153033.696000", "153033.698000", "153033.701000", "153033.703000", "153033.705000", "153033.708000", "153033.710000", "153033.713000", "153033.715000", "153033.718000", "153033.720000", "153033.723000", "153033.725000", "153053.511000", "153053.513000", "153053.516000", "153053.519000", "153053.521000", "153053.523000", "153053.526000", "153053.528000", "153053.531000", "153053.533000", "153053.536000", "153053.538000", "153053.541000", "153053.543000", "153053.546000", "153053.548000", "153053.551000", "153053.553000", "153053.556000", "153053.558000", "153113.515000", "153113.518000", "153113.521000", "153113.523000", "153113.525000", "153113.528000", "153113.530000", "153113.533000", "153113.535000", "153113.538000", "153113.540000", "153113.543000", "153113.546000", "153113.548000", "153113.551000", "153113.562000", "153113.564000", "153113.567000", "153113.570000", "153113.572000", "153133.503000", "153133.505000", "153133.508000", "153133.510000", "153133.513000", "153133.515000", "153133.518000", "153133.520000", "153133.523000", "153133.525000", "153133.528000", "153133.530000", "153133.533000", "153133.535000", "153133.538000", "153133.540000", "153133.543000", "153133.545000", "153133.548000", "153133.550000", "153213.587000", "153213.589000", "153213.592000", "153213.594000", "153213.597000", "153213.599000", "153213.602000", "153213.604000", "153213.607000", "153213.609000", "153213.612000", "153213.614000", "153213.617000", "153213.619000", "153213.622000", "153213.624000", "153213.627000", "153213.629000", "153213.632000", "153213.634000", "153213.637000", "153213.639000", "153213.642000", "153213.644000", "153213.647000", "153213.649000", "153213.652000", "153213.654000", "153213.657000", "153213.659000", "153213.661000", "153213.664000", "153253.559000", "153253.562000", "153253.565000", "153253.567000", "153253.570000", "153253.572000", "153253.575000", "153253.578000", "153253.580000", "153253.583000", "153253.585000", "153253.588000", "153253.590000", "153253.593000", "153253.596000", "153253.598000", "153253.601000", "153253.603000", "153253.606000", "153253.609000", "153253.611000", "153253.614000", "153253.616000", "153253.619000", "153253.621000", "153253.624000", "153253.627000", "153333.538000", "153333.541000", "153333.543000", "153333.546000", "153333.549000", "153333.553000", "153333.556000", "153333.560000", "153333.563000", "153333.565000", "153333.568000", "153333.571000", "153333.573000", "153333.576000", "153333.579000", "153333.581000", "153333.584000", "153333.586000", "153333.589000", "153333.591000", "153333.594000", "153333.596000", "153333.599000", "153333.601000", "153333.604000", "153333.606000", "153345.621000", "153345.624000", "153345.627000", "153345.630000", "153345.632000", "153345.635000", "153345.637000", "153345.640000", "153345.642000"],
      "InstanceNumber": [1, 2, 3, 4, 5, 6, 7, 8, 9, 10, 11, 12, 13, 14, 15, 16, 17, 18, 19, 20, 21, 22, 23, 24, 25, 26, 27, 28, 29, 30, 31, 32, 33, 34, 35, 36, 37, 38, 39, 40, 41, 42, 43, 44, 45, 46, 47, 48, 49, 50, 51, 52, 53, 54, 55, 56, 57, 58, 59, 60, 61, 62, 63, 64, 65, 66, 67, 68, 69, 70, 71, 72, 73, 74, 75, 76, 77, 78, 79, 80, 81, 82, 83, 84, 85, 86, 87, 88, 89, 90, 91, 92, 93, 94, 95, 96, 97, 98, 99, 100, 101, 102, 103, 104, 105, 106, 107, 108, 109, 110, 111, 112, 113, 114, 115, 116, 117, 118, 119, 120, 121, 122, 123, 124, 125, 126, 127, 128, 129, 130, 131, 132, 133, 134, 135, 136, 137, 138, 139, 140, 141, 142, 143, 144, 145, 146, 147, 148, 149, 150, 151, 152, 153, 154, 155, 156, 157, 158, 159, 160, 161, 162, 163, 164, 165, 166, 167, 168, 169, 170, 171, 172, 173, 174, 175, 176, 177, 178, 179, 180, 181, 182, 183, 184, 185, 186, 187, 188, 189, 190],
      "WindowCenter": [4836.0, 4834.0, 4836.0, 4814.0, 4814.0, 4836.0, 4836.0, 4816.0, 4810.0, 4834.0, 4834.0, 4836.0, 4836.0, 4834.0, 4836.0, 4838.0, 4832.0, 4810.0, 4836.0, 4836.0, 4838.0, 4836.0, 4838.0, 4836.0, 4834.0, 4836.0, 4812.0, 4812.0, 4836.0, 4834.0, 4812.0, 4836.0, 4836.0, 4834.0, 4838.0, 4810.0, 4834.0, 4810.0, 4836.0, 4834.0, 4836.0, 4832.0, 4812.0, 4816.0, 4810.0, 4836.0, 4814.0, 4836.0, 4836.0, 4834.0, 4834.0, 4816.0, 4814.0, 4832.0, 4836.0, 4834.0, 4838.0, 4834.0, 4812.0, 4834.0, 4812.0, 4810.0, 4834.0, 4834.0, 4812.0, 4832.0, 4836.0, 4814.0, 4810.0, 4834.0, 4834.0, 4834.0, 4836.0, 4836.0, 4834.0, 4812.0, 4810.0, 4836.0, 4834.0, 4834.0, 4834.0, 4814.0, 4834.0, 4814.0, 4836.0, 4814.0, 4832.0, 4810.0, 4812.0, 4814.0, 4834.0, 4810.0, 4832.0, 4834.0, 4810.0, 4810.0, 4810.0, 4814.0, 4810.0, 4810.0, 4810.0, 4810.0, 4814.0, 4814.0, 4808.0, 4812.0, 4812.0, 4838.0, 4810.0, 4836.0, 4834.0, 4836.0, 4816.0, 4810.0, 4810.0, 4808.0, 4834.0, 4814.0, 4812.0, 4808.0, 4810.0, 4812.0, 4836.0, 4810.0, 4834.0, 4818.0, 4812.0, 4810.0, 4814.0, 4810.0, 4834.0, 4810.0, 4834.0, 4836.0, 4834.0, 4812.0, 4812.0, 4814.0, 4810.0, 4834.0, 4814.0, 4834.0, 4812.0, 4834.0, 4814.0, 4814.0, 4838.0, 4810.0, 4836.0, 4836.0, 4836.0, 4834.0, 4834.0, 4808.0, 4810.0, 4808.0, 4810.0, 4812.0, 4836.0, 4834.0, 4814.0, 4836.0, 4834.0, 4836.0, 4812.0, 4810.0, 4810.0, 4810.0, 4810.0, 4810.0, 4814.0, 4814.0, 4834.0, 4834.0, 4834.0, 4812.0, 4812.0, 4812.0, 4838.0, 4814.0, 4812.0, 4810.0, 4812.0, 4812.0, 4812.0, 4814.0, 4830.0, 4812.0, 4810.0, 4810.0],
      "WindowWidth": [18648.0, 18646.0, 18650.0, 18616.0, 18618.0, 18652.0, 18652.0, 18624.0, 18620.0, 18650.0, 18646.0, 18654.0, 18648.0, 18648.0, 18650.0, 18652.0, 18650.0, 18618.0, 18652.0, 18646.0, 18648.0, 18650.0, 18650.0, 18652.0, 18644.0, 18650.0, 18612.0, 18608.0, 18652.0, 18642.0, 18602.0, 18646.0, 18646.0, 18652.0, 18652.0, 18620.0, 18652.0, 18622.0, 18646.0, 18650.0, 18650.0, 18650.0, 18620.0, 18622.0, 18620.0, 18650.0, 18618.0, 18652.0, 18652.0, 18648.0, 18650.0, 18620.0, 18620.0, 18650.0, 18652.0, 18654.0, 18650.0, 18650.0, 18616.0, 18650.0, 18622.0, 18616.0, 18648.0, 18650.0, 18618.0, 18650.0, 18650.0, 18614.0, 18610.0, 18648.0, 18638.0, 18642.0, 18650.0, 18650.0, 18648.0, 18618.0, 18618.0, 18648.0, 18654.0, 18650.0, 18652.0, 18618.0, 18650.0, 18616.0, 18650.0, 18618.0, 18646.0, 18616.0, 18620.0, 18622.0, 18652.0, 18616.0, 18648.0, 18650.0, 18616.0, 18618.0, 18620.0, 18620.0, 18612.0, 18620.0, 18612.0, 18614.0, 18620.0, 18622.0, 18616.0, 18618.0, 18614.0, 18650.0, 18616.0, 18650.0, 18648.0, 18648.0, 18622.0, 18614.0, 18616.0, 18614.0, 18652.0, 18616.0, 18622.0, 18616.0, 18620.0, 18618.0, 18652.0, 18620.0, 18648.0, 18622.0, 18618.0, 18620.0, 18612.0, 18618.0, 18650.0, 18618.0, 18648.0, 18650.0, 18652.0, 18620.0, 18616.0, 18618.0, 18614.0, 18652.0, 18620.0, 18650.0, 18620.0, 18650.0, 18608.0, 18596.0, 18650.0, 18618.0, 18646.0, 18650.0, 18648.0, 18648.0, 18650.0, 18618.0, 18618.0, 18620.0, 18614.0, 18610.0, 18652.0, 18642.0, 18620.0, 18650.0, 18644.0, 18654.0, 18620.0, 18614.0, 18624.0, 18620.0, 18618.0, 18620.0, 18618.0, 18624.0, 18648.0, 18644.0, 18646.0, 18616.0, 18616.0, 18616.0, 18656.0, 18620.0, 18616.0, 18618.0, 18618.0, 18616.0, 18616.0, 18622.0, 18650.0, 18620.0, 18618.0, 18614.0]
    },
    "slices": {}
  }
}