{
  "AcquisitionMatrixPE": 104,
  "AcquisitionNumber": 1,
  "AcquisitionTime": "15:47:49.570000",
  "BandwidthPerPixelPhaseEncode": 17.17,
  "BaseResolution": 104,
  "BodyPartExamined": "BRAIN",
  "CoilString": "HC1-7;NC1_2",
  "ConsistencyInfo": "N4_VE11C_LATEST_20160120",
  "ConversionSoftware": "dcm2niix",
  "ConversionSoftwareVersion": "v1.0.20190902",
  "DerivedVendorReportedEchoSpacing": 0.000560011,
  "DeviceSerialNumber": "167006",
  "DwellTime": 2.1e-06,
  "EchoTime": 0.037,
  "EchoTrainLength": 104,
  "EffectiveEchoSpacing": 0.000560011,
  "FlipAngle": 52,
  "ImageComments": "Unaliased_MB4_PE3_LB",
  "ImageOrientationPatientDICOM": [0.998389, -0.052509, 0.0214888, 0.0565178, 0.953633, -0.295618],
  "ImageType": [
    "ORIGINAL",
    "PRIMARY",
    "P",
    "MB",
    "ND",
    "MOSAIC"
],
  "ImagingFrequency": 123.259,
  "InPlanePhaseEncodingDirectionDICOM": "COL",
  "InstitutionAddress": "Chemin_Queen-Mary_4565_Montreal_District_CA_H3W_1W5",
  "InstitutionName": "IUGM",
  "InstitutionalDepartmentName": "Department",
  "MRAcquisitionType": "2D",
  "MagneticFieldStrength": 3,
  "Manufacturer": "Siemens",
  "ManufacturersModelName": "Prisma_fit",
  "Modality": "MR",
  "MultibandAccelerationFactor": 4,
  "PartialFourier": 1,
  "PatientPosition": "HFS",
  "PercentPhaseFOV": 100,
  "PhaseEncodingDirection": "j",
  "PhaseEncodingSteps": 104,
  "PhaseResolution": 1,
  "PixelBandwidth": 2290,
  "ProcedureStepDescription": "memory_things",
  "ProtocolName": "func_task-things_run-4",
  "PulseSequenceDetails": "%CustomerSeq%_cmrr_mbep2d_bold",
  "ReceiveCoilActiveElements": "HC1-7;NC1,2",
  "ReceiveCoilName": "HeadNeck_64",
  "ReconMatrixPE": 104,
  "RepetitionTime": 1.49,
  "SAR": 0.0353052,
  "ScanOptions": "FS",
  "ScanningSequence": "EP",
  "SequenceName": "epfid2d1_104",
  "SequenceVariant": "SK_SS",
  "SeriesDescription": "func_task-things_run-4",
  "SeriesNumber": 20,
  "ShimSetting": [635, -7246, -8797, 619, 22, -179, -49, -7],
  "SliceThickness": 2,
  "SliceTiming": [0, 0.785, 0.0975, 0.8825, 0.195, 0.98, 0.295, 1.0775, 0.3925, 1.175, 0.49, 1.275, 0.5875, 1.3725, 0.685, 0, 0.785, 0.0975, 0.8825, 0.195, 0.98, 0.295, 1.0775, 0.3925, 1.175, 0.49, 1.275, 0.5875, 1.3725, 0.685, 0, 0.785, 0.0975, 0.8825, 0.195, 0.98, 0.295, 1.0775, 0.3925, 1.175, 0.49, 1.275, 0.5875, 1.3725, 0.685, 0, 0.785, 0.0975, 0.8825, 0.195, 0.98, 0.295, 1.0775, 0.3925, 1.175, 0.49, 1.275, 0.5875, 1.3725, 0.685],
  "SoftwareVersions": "syngo_MR_E11",
  "SpacingBetweenSlices": 2,
  "StationName": "MRC35049",
  "TaskName": "things",
  "TotalReadoutTime": 0.0576811,
  "TxRefAmp": 239.595,
  "WipMemBlock": "ee71bd84-90de-47b2-9b22-3bf704eadf5d||Sequence: R016 ve11c/master r/e634e98; Dec 19 2017 11:00:25 by eja",
  "dcmmeta_affine": [
    [-1.9967784881591797, 0.11303558945655823, 0.00993979163467884, 101.69925689697266],
    [0.10501791536808014, 1.9072661399841309, -0.5927117466926575, -72.25675201416016],
    [0.042977675795555115, 0.5912351012229919, 1.9101293087005615, -59.04114532470703],
    [0.0, 0.0, 0.0, 1.0]
],
  "dcmmeta_reorient_transform": [
    [0.0, -1.0, 0.0, 103.0],
    [1.0, 0.0, 0.0, 0.0],
    [0.0, 0.0, 1.0, 0.0],
    [0.0, 0.0, 0.0, 1.0]
],
  "dcmmeta_shape": [104, 104, 60, 190],
  "dcmmeta_slice_dim": 2,
  "dcmmeta_version": 0.6,
  "global": {
    "const": {
      "AcquisitionMatrix": [104, 0, 0, 104],
      "AngioFlag": "N",
      "BitsAllocated": 16,
      "BitsStored": 16,
      "BodyPartExamined": "BRAIN",
      "Columns": 832,
      "EchoNumbers": 1,
      "EchoTime": 37.0,
      "EchoTrainLength": 104,
      "FlipAngle": 52.0,
      "HighBit": 15,
      "ImageOrientationPatient": [0.99838922230124, -0.0525089577957, 0.02148883765892, 0.05651779299657, 0.95363305314175, -0.2956175553487],
      "ImagePositionPatient": [-881.314230432, -780.2100016614, 201.42177852746],
      "ImageType": [
        "ORIGINAL",
        "PRIMARY",
        "P",
        "MB",
        "ND",
        "MOSAIC"
],
      "ImagedNucleus": "1H",
      "ImagingFrequency": 123.258902,
      "InPlanePhaseEncodingDirection": "COL",
      "LargestImagePixelValue": 4095,
      "MRAcquisitionType": "2D",
      "MagneticFieldStrength": 3.0,
      "Manufacturer": "SIEMENS",
      "ManufacturerModelName": "Prisma_fit",
      "Modality": "MR",
      "NumberOfAverages": 1.0,
      "NumberOfPhaseEncodingSteps": 104,
      "PercentPhaseFieldOfView": 100.0,
      "PercentSampling": 100.0,
      "PerformedProcedureStepStartTime": "150548.435000",
      "PhotometricInterpretation": "MONOCHROME2",
      "PixelBandwidth": 2290.0,
      "PixelRepresentation": 0,
      "PixelSpacing": [2.0, 2.0],
      "ProtocolName": "func_task-things_run-4",
      "RepetitionTime": 1490.0,
      "RescaleIntercept": -4096.0,
      "RescaleSlope": 2.0,
      "RescaleType": "US",
      "Rows": 832,
      "SAR": 0.03530518334629,
      "SamplesPerPixel": 1,
      "ScanOptions": "FS",
      "ScanningSequence": "EP",
      "SequenceName": "epfid2d1_104",
      "SequenceVariant": [
        "SK",
        "SS"
],
      "SeriesDescription": "func_task-things_run-4",
      "SeriesNumber": 20,
      "SeriesTime": "154913.577000",
      "SliceLocation": -34.468962724489,
      "SliceThickness": 2.0,
      "SmallestImagePixelValue": 0,
      "SoftwareVersions": "syngo MR E11",
      "SpacingBetweenSlices": 1.9999999596241,
      "SpecificCharacterSet": "ISO_IR 100",
      "StudyID": "1",
      "StudyTime": "150548.348000",
      "TransmitCoilName": "Body",
      "VariableFlipAngleFlag": "N",
      "WindowCenterWidthExplanation": "Algo1",
      "dBdt": 0.0},
    "slices": {}
  },
  "time": {
    "samples": {
      "AcquisitionNumber": [1, 2, 3, 4, 5, 6, 7, 8, 9, 10, 11, 12, 13, 14, 15, 16, 17, 18, 19, 20, 21, 22, 23, 24, 25, 26, 27, 28, 29, 30, 31, 32, 33, 34, 35, 36, 37, 38, 39, 40, 41, 42, 43, 44, 45, 46, 47, 48, 49, 50, 51, 52, 53, 54, 55, 56, 57, 58, 59, 60, 61, 62, 63, 64, 65, 66, 67, 68, 69, 70, 71, 72, 73, 74, 75, 76, 77, 78, 79, 80, 81, 82, 83, 84, 85, 86, 87, 88, 89, 90, 91, 92, 93, 94, 95, 96, 97, 98, 99, 100, 101, 102, 103, 104, 105, 106, 107, 108, 109, 110, 111, 112, 113, 114, 115, 116, 117, 118, 119, 120, 121, 122, 123, 124, 125, 126, 127, 128, 129, 130, 131, 132, 133, 134, 135, 136, 137, 138, 139, 140, 141, 142, 143, 144, 145, 146, 147, 148, 149, 150, 151, 152, 153, 154, 155, 156, 157, 158, 159, 160, 161, 162, 163, 164, 165, 166, 167, 168, 169, 170, 171, 172, 173, 174, 175, 176, 177, 178, 179, 180, 181, 182, 183, 184, 185, 186, 187, 188, 189, 190],
      "AcquisitionTime": ["154749.570000", "154751.060000", "154752.550000", "154754.040000", "154755.530000", "154757.020000", "154758.510000", "154800.000000", "154801.490000", "154802.980000", "154804.470000", "154805.960000", "154807.450000", "154808.940000", "154810.430000", "154811.920000", "154813.410000", "154814.900000", "154816.390000", "154817.880000", "154819.370000", "154820.860000", "154822.350000", "154823.840000", "154825.330000", "154826.820000", "154828.310000", "154829.800000", "154831.290000", "154832.780000", "154834.270000", "154835.760000", "154837.250000", "154838.740000", "154840.230000", "154841.720000", "154843.210000", "154844.700000", "154846.190000", "154847.680000", "154849.170000", "154850.660000", "154852.150000", "154853.640000", "154855.130000", "154856.620000", "154858.110000", "154859.600000", "154901.090000", "154902.580000", "154904.070000", "154905.560000", "154907.050000", "154908.540000", "154910.030000", "154911.520000", "154913.010000", "154914.500000", "154915.990000", "154917.480000", "154918.970000", "154920.460000", "154921.950000", "154923.440000", "154924.930000", "154926.420000", "154927.910000", "154929.400000", "154930.890000", "154932.380000", "154933.870000", "154935.360000", "154936.850000", "154938.340000", "154939.830000", "154941.320000", "154942.810000", "154944.300000", "154945.790000", "154947.280000", "154948.770000", "154950.260000", "154951.750000", "154953.240000", "154954.730000", "154956.220000", "154957.710000", "154959.200000", "155000.690000", "155002.180000", "155003.670000", "155005.160000", "155006.650000", "155008.140000", "155009.630000", "155011.120000", "155012.610000", "155014.100000", "155015.590000", "155017.080000", "155018.570000", "155020.060000", "155021.550000", "155023.040000", "155024.530000", "155026.020000", "155027.510000", "155029.000000", "155030.490000", "155031.980000", "155033.470000", "155034.960000", "155036.450000", "155037.940000", "155039.430000", "155040.920000", "155042.410000", "155043.900000", "155045.390000", "155046.880000", "155048.370000", "155049.860000", "155051.350000", "155052.840000", "155054.330000", "155055.820000", "155057.310000", "155058.800000", "155100.290000", "155101.780000", "155103.270000", "155104.760000", "155106.250000", "155107.740000", "155109.230000", "155110.720000", "155112.210000", "155113.700000", "155115.190000", "155116.680000", "155118.170000", "155119.660000", "155121.150000", "155122.640000", "155124.130000", "155125.620000", "155127.110000", "155128.600000", "155130.090000", "155131.580000", "155133.070000", "155134.560000", "155136.050000", "155137.540000", "155139.030000", "155140.520000", "155142.010000", "155143.500000", "155144.990000", "155146.480000", "155147.970000", "155149.460000", "155150.950000", "155152.440000", "155153.930000", "155155.420000", "155156.910000", "155158.400000", "155159.890000", "155201.380000", "155202.870000", "155204.360000", "155205.850000", "155207.340000", "155208.830000", "155210.320000", "155211.810000", "155213.300000", "155214.790000", "155216.280000", "155217.770000", "155219.260000", "155220.750000", "155222.240000", "155223.730000", "155225.220000", "155226.710000", "155228.200000", "155229.690000", "155231.180000"],
      "ContentTime": ["154913.579000", "154913.582000", "154913.584000", "154913.587000", "154913.589000", "154913.592000", "154913.594000", "154913.597000", "154913.599000", "154913.602000", "154913.604000", "154913.607000", "154913.609000", "154913.612000", "154913.614000", "154913.616000", "154913.619000", "154913.621000", "154913.624000", "154913.626000", "154913.629000", "154913.631000", "154913.634000", "154913.636000", "154913.639000", "154913.641000", "154913.644000", "154913.646000", "154933.513000", "154933.516000", "154933.518000", "154933.521000", "154933.523000", "154933.526000", "154933.528000", "154933.531000", "154933.533000", "154933.536000", "154933.539000", "154933.542000", "154933.546000", "154933.548000", "154933.551000", "154933.554000", "154933.558000", "154933.561000", "154933.564000", "154933.567000", "154953.529000", "154953.532000", "154953.534000", "154953.537000", "154953.539000", "154953.542000", "154953.544000", "154953.547000", "154953.549000", "154953.552000", "154953.554000", "154953.557000", "154953.564000", "154953.566000", "154953.569000", "154953.572000", "154953.575000", "154953.577000", "154953.580000", "154953.582000", "155013.515000", "155013.518000", "155013.520000", "155013.529000", "155013.538000", "155013.540000", "155013.543000", "155013.545000", "155013.548000", "155013.550000", "155013.553000", "155013.555000", "155013.558000", "155013.560000", "155013.563000", "155013.565000", "155013.568000", "155013.570000", "155013.573000", "155013.575000", "155033.537000", "155033.540000", "155033.542000", "155033.545000", "155033.548000", "155033.550000", "155033.553000", "155033.555000", "155033.558000", "155033.560000", "155033.563000", "155033.566000", "155033.568000", "155033.571000", "155033.573000", "155033.576000", "155033.578000", "155033.581000", "155033.583000", "155033.586000", "155033.589000", "155053.496000", "155053.498000", "155053.501000", "155053.504000", "155053.506000", "155053.509000", "155053.511000", "155053.514000", "155053.516000", "155053.519000", "155053.521000", "155053.524000", "155053.526000", "155133.549000", "155133.552000", "155133.554000", "155133.557000", "155133.559000", "155133.562000", "155133.565000", "155133.568000", "155133.571000", "155133.573000", "155133.576000", "155133.578000", "155133.581000", "155133.584000", "155133.586000", "155133.589000", "155133.591000", "155133.594000", "155133.596000", "155133.599000", "155133.601000", "155133.604000", "155133.607000", "155133.609000", "155133.612000", "155133.614000", "155133.617000", "155213.551000", "155213.554000", "155213.557000", "155213.559000", "155213.562000", "155213.564000", "155213.567000", "155213.570000", "155213.572000", "155213.575000", "155213.577000", "155213.580000", "155213.582000", "155213.585000", "155213.588000", "155213.590000", "155213.593000", "155213.595000", "155213.598000", "155213.600000", "155213.603000", "155213.606000", "155213.608000", "155213.611000", "155213.613000", "155213.616000", "155213.618000", "155233.485000", "155233.489000", "155233.492000", "155233.495000", "155233.497000", "155233.500000", "155233.502000", "155233.505000", "155233.507000", "155233.510000", "155233.512000", "155233.515000", "155233.517000", "155233.520000"],
      "InstanceCreationTime": ["154913.579000", "154913.582000", "154913.584000", "154913.587000", "154913.589000", "154913.592000", "154913.594000", "154913.597000", "154913.599000", "154913.602000", "154913.604000", "154913.607000", "154913.609000", "154913.612000", "154913.614000", "154913.616000", "154913.619000", "154913.621000", "154913.624000", "154913.626000", "154913.629000", "154913.631000", "154913.634000", "154913.636000", "154913.639000", "154913.641000", "154913.644000", "154913.646000", "154933.513000", "154933.516000", "154933.518000", "154933.521000", "154933.523000", "154933.526000", "154933.528000", "154933.531000", "154933.533000", "154933.536000", "154933.539000", "154933.542000", "154933.546000", "154933.548000", "154933.551000", "154933.554000", "154933.558000", "154933.561000", "154933.564000", "154933.567000", "154953.529000", "154953.532000", "154953.534000", "154953.537000", "154953.539000", "154953.542000", "154953.544000", "154953.547000", "154953.549000", "154953.552000", "154953.554000", "154953.557000", "154953.564000", "154953.566000", "154953.569000", "154953.572000", "154953.575000", "154953.577000", "154953.580000", "154953.582000", "155013.515000", "155013.518000", "155013.520000", "155013.529000", "155013.538000", "155013.540000", "155013.543000", "155013.545000", "155013.548000", "155013.550000", "155013.553000", "155013.555000", "155013.558000", "155013.560000", "155013.563000", "155013.565000", "155013.568000", "155013.570000", "155013.573000", "155013.575000", "155033.537000", "155033.540000", "155033.542000", "155033.545000", "155033.548000", "155033.550000", "155033.553000", "155033.555000", "155033.558000", "155033.560000", "155033.563000", "155033.566000", "155033.568000", "155033.571000", "155033.573000", "155033.576000", "155033.578000", "155033.581000", "155033.583000", "155033.586000", "155033.589000", "155053.496000", "155053.498000", "155053.501000", "155053.504000", "155053.506000", "155053.509000", "155053.511000", "155053.514000", "155053.516000", "155053.519000", "155053.521000", "155053.524000", "155053.526000", "155133.549000", "155133.552000", "155133.554000", "155133.557000", "155133.559000", "155133.562000", "155133.565000", "155133.568000", "155133.571000", "155133.573000", "155133.576000", "155133.578000", "155133.581000", "155133.584000", "155133.586000", "155133.589000", "155133.591000", "155133.594000", "155133.596000", "155133.599000", "155133.601000", "155133.604000", "155133.607000", "155133.609000", "155133.612000", "155133.614000", "155133.617000", "155213.551000", "155213.554000", "155213.557000", "155213.559000", "155213.562000", "155213.564000", "155213.567000", "155213.570000", "155213.572000", "155213.575000", "155213.577000", "155213.580000", "155213.582000", "155213.585000", "155213.588000", "155213.590000", "155213.593000", "155213.595000", "155213.598000", "155213.600000", "155213.603000", "155213.606000", "155213.608000", "155213.611000", "155213.613000", "155213.616000", "155213.618000", "155233.485000", "155233.489000", "155233.492000", "155233.495000", "155233.497000", "155233.500000", "155233.502000", "155233.505000", "155233.507000", "155233.510000", "155233.512000", "155233.515000", "155233.517000", "155233.520000"],
      "InstanceNumber": [1, 2, 3, 4, 5, 6, 7, 8, 9, 10, 11, 12, 13, 14, 15, 16, 17, 18, 19, 20, 21, 22, 23, 24, 25, 26, 27, 28, 29, 30, 31, 32, 33, 34, 35, 36, 37, 38, 39, 40, 41, 42, 43, 44, 45, 46, 47, 48, 49, 50, 51, 52, 53, 54, 55, 56, 57, 58, 59, 60, 61, 62, 63, 64, 65, 66, 67, 68, 69, 70, 71, 72, 73, 74, 75, 76, 77, 78, 79, 80, 81, 82, 83, 84, 85, 86, 87, 88, 89, 90, 91, 92, 93, 94, 95, 96, 97, 98, 99, 100, 101, 102, 103, 104, 105, 106, 107, 108, 109, 110, 111, 112, 113, 114, 115, 116, 117, 118, 119, 120, 121, 122, 123, 124, 125, 126, 127, 128, 129, 130, 131, 132, 133, 134, 135, 136, 137, 138, 139, 140, 141, 142, 143, 144, 145, 146, 147, 148, 149, 150, 151, 152, 153, 154, 155, 156, 157, 158, 159, 160, 161, 162, 163, 164, 165, 166, 167, 168, 169, 170, 171, 172, 173, 174, 175, 176, 177, 178, 179, 180, 181, 182, 183, 184, 185, 186, 187, 188, 189, 190],
      "WindowCenter": [4836.0, 4832.0, 4808.0, 4810.0, 4802.0, 4836.0, 4872.0, 4834.0, 4842.0, 4840.0, 4804.0, 4806.0, 4808.0, 4806.0, 4804.0, 4806.0, 4838.0, 4842.0, 4838.0, 4800.0, 4810.0, 4808.0, 4836.0, 4874.0, 4874.0, 4832.0, 4828.0, 4834.0, 4828.0, 4806.0, 4812.0, 4802.0, 4836.0, 4870.0, 4864.0, 4830.0, 4834.0, 4832.0, 4830.0, 4828.0, 4808.0, 4804.0, 4830.0, 4832.0, 4830.0, 4842.0, 4832.0, 4806.0, 4804.0, 4808.0, 4812.0, 4810.0, 4804.0, 4866.0, 4874.0, 4872.0, 4842.0, 4834.0, 4808.0, 4806.0, 4804.0, 4806.0, 4804.0, 4806.0, 4802.0, 4868.0, 4874.0, 4838.0, 4866.0, 4828.0, 4806.0, 4804.0, 4804.0, 4812.0, 4804.0, 4836.0, 4834.0, 4866.0, 4806.0, 4814.0, 4808.0, 4834.0, 4846.0, 4872.0, 4840.0, 4836.0, 4830.0, 4830.0, 4828.0, 4808.0, 4806.0, 4832.0, 4842.0, 4844.0, 4806.0, 4806.0, 4832.0, 4806.0, 4808.0, 4804.0, 4832.0, 4840.0, 4830.0, 4832.0, 4836.0, 4832.0, 4804.0, 4806.0, 4828.0, 4808.0, 4828.0, 4828.0, 4808.0, 4802.0, 4834.0, 4840.0, 4802.0, 4834.0, 4832.0, 4828.0, 4806.0, 4810.0, 4804.0, 4808.0, 4802.0, 4838.0, 4834.0, 4804.0, 4806.0, 4832.0, 4828.0, 4830.0, 4804.0, 4804.0, 4804.0, 4830.0, 4802.0, 4806.0, 4826.0, 4804.0, 4828.0, 4830.0, 4808.0, 4804.0, 4836.0, 4832.0, 4828.0, 4830.0, 4804.0, 4828.0, 4804.0, 4812.0, 4802.0, 4832.0, 4842.0, 4834.0, 4806.0, 4808.0, 4802.0, 4866.0, 4842.0, 4842.0, 4806.0, 4802.0, 4806.0, 4804.0, 4802.0, 4828.0, 4830.0, 4828.0, 4804.0, 4812.0, 4810.0, 4802.0, 4862.0, 4886.0, 4908.0, 4878.0, 4806.0, 4806.0, 4812.0, 4808.0, 4810.0, 4812.0, 4804.0, 4836.0, 4884.0, 4880.0, 4882.0, 4840.0],
      "WindowWidth": [18624.0, 18624.0, 18602.0, 18618.0, 18600.0, 18634.0, 18676.0, 18626.0, 18636.0, 18632.0, 18596.0, 18602.0, 18596.0, 18594.0, 18602.0, 18588.0, 18632.0, 18634.0, 18630.0, 18594.0, 18620.0, 18608.0, 18626.0, 18674.0, 18674.0, 18622.0, 18622.0, 18630.0, 18622.0, 18606.0, 18622.0, 18600.0, 18628.0, 18666.0, 18668.0, 18622.0, 18630.0, 18628.0, 18632.0, 18624.0, 18614.0, 18606.0, 18622.0, 18620.0, 18620.0, 18632.0, 18626.0, 18596.0, 18590.0, 18594.0, 18614.0, 18618.0, 18596.0, 18668.0, 18678.0, 18674.0, 18636.0, 18626.0, 18592.0, 18600.0, 18596.0, 18596.0, 18610.0, 18610.0, 18592.0, 18670.0, 18680.0, 18634.0, 18666.0, 18622.0, 18600.0, 18598.0, 18594.0, 18616.0, 18596.0, 18630.0, 18628.0, 18670.0, 18596.0, 18622.0, 18606.0, 18626.0, 18634.0, 18668.0, 18634.0, 18628.0, 18626.0, 18628.0, 18628.0, 18614.0, 18598.0, 18626.0, 18630.0, 18634.0, 18592.0, 18596.0, 18626.0, 18596.0, 18618.0, 18608.0, 18626.0, 18630.0, 18622.0, 18624.0, 18630.0, 18622.0, 18596.0, 18596.0, 18624.0, 18596.0, 18626.0, 18626.0, 18608.0, 18598.0, 18628.0, 18634.0, 18586.0, 18630.0, 18624.0, 18620.0, 18598.0, 18616.0, 18598.0, 18594.0, 18590.0, 18632.0, 18630.0, 18594.0, 18592.0, 18628.0, 18622.0, 18626.0, 18590.0, 18592.0, 18594.0, 18628.0, 18592.0, 18600.0, 18618.0, 18594.0, 18622.0, 18620.0, 18608.0, 18600.0, 18626.0, 18630.0, 18620.0, 18624.0, 18594.0, 18626.0, 18594.0, 18618.0, 18604.0, 18626.0, 18636.0, 18626.0, 18608.0, 18614.0, 18594.0, 18668.0, 18640.0, 18638.0, 18588.0, 18596.0, 18606.0, 18606.0, 18602.0, 18628.0, 18630.0, 18626.0, 18614.0, 18618.0, 18618.0, 18614.0, 18674.0, 18676.0, 18712.0, 18682.0, 18588.0, 18614.0, 18620.0, 18614.0, 18622.0, 18622.0, 18606.0, 18636.0, 18688.0, 18684.0, 18686.0, 18628.0]
    },
    "slices": {}
  }
}