{
  "AcquisitionMatrixPE": 104,
  "AcquisitionNumber": 1,
  "AcquisitionTime": "15:35:7.852500",
  "BandwidthPerPixelPhaseEncode": 17.17,
  "BaseResolution": 104,
  "BodyPartExamined": "BRAIN",
  "CoilString": "HC1-7;NC1_2",
  "ConsistencyInfo": "N4_VE11C_LATEST_20160120",
  "ConversionSoftware": "dcm2niix",
  "ConversionSoftwareVersion": "v1.0.20190902",
  "DerivedVendorReportedEchoSpacing": 0.000560011,
  "DeviceSerialNumber": "167006",
  "DwellTime": 2.1e-06,
  "EchoTime": 0.037,
  "EchoTrainLength": 104,
  "EffectiveEchoSpacing": 0.000560011,
  "FlipAngle": 52,
  "ImageComments": "Unaliased_MB4_PE3_LB",
  "ImageOrientationPatientDICOM": [0.998389, -0.052509, 0.0214888, 0.0565178, 0.953633, -0.295618],
  "ImageType": [
    "ORIGINAL",
    "PRIMARY",
    "M",
    "MB",
    "ND",
    "MOSAIC"
],
  "ImagingFrequency": 123.259,
  "InPlanePhaseEncodingDirectionDICOM": "COL",
  "InstitutionAddress": "Chemin_Queen-Mary_4565_Montreal_District_CA_H3W_1W5",
  "InstitutionName": "IUGM",
  "InstitutionalDepartmentName": "Department",
  "MRAcquisitionType": "2D",
  "MagneticFieldStrength": 3,
  "Manufacturer": "Siemens",
  "ManufacturersModelName": "Prisma_fit",
  "Modality": "MR",
  "MultibandAccelerationFactor": 4,
  "PartialFourier": 1,
  "PatientPosition": "HFS",
  "PercentPhaseFOV": 100,
  "PhaseEncodingDirection": "j",
  "PhaseEncodingSteps": 104,
  "PhaseResolution": 1,
  "PixelBandwidth": 2290,
  "ProcedureStepDescription": "memory_things",
  "ProtocolName": "func_task-things_run-2",
  "PulseSequenceDetails": "%CustomerSeq%_cmrr_mbep2d_bold",
  "ReceiveCoilActiveElements": "HC1-7;NC1,2",
  "ReceiveCoilName": "HeadNeck_64",
  "ReconMatrixPE": 104,
  "RepetitionTime": 1.49,
  "SAR": 0.0353052,
  "ScanOptions": "FS",
  "ScanningSequence": "EP",
  "SequenceName": "epfid2d1_104",
  "SequenceVariant": "SK_SS",
  "SeriesDescription": "func_task-things_run-2",
  "SeriesNumber": 13,
  "ShimSetting": [635, -7246, -8797, 619, 22, -179, -49, -7],
  "SliceThickness": 2,
  "SliceTiming": [0, 0.7825, 0.0975, 0.8825, 0.195, 0.98, 0.2925, 1.0775, 0.3925, 1.175, 0.49, 1.2725, 0.5875, 1.3725, 0.685, 0, 0.7825, 0.0975, 0.8825, 0.195, 0.98, 0.2925, 1.0775, 0.3925, 1.175, 0.49, 1.2725, 0.5875, 1.3725, 0.685, 0, 0.7825, 0.0975, 0.8825, 0.195, 0.98, 0.2925, 1.0775, 0.3925, 1.175, 0.49, 1.2725, 0.5875, 1.3725, 0.685, 0, 0.7825, 0.0975, 0.8825, 0.195, 0.98, 0.2925, 1.0775, 0.3925, 1.175, 0.49, 1.2725, 0.5875, 1.3725, 0.685],
  "SoftwareVersions": "syngo_MR_E11",
  "SpacingBetweenSlices": 2,
  "StationName": "MRC35049",
  "TaskName": "things",
  "TotalReadoutTime": 0.0576811,
  "TxRefAmp": 239.595,
  "WipMemBlock": "069282d0-cd49-46b9-9e83-ec10de0fa175||Sequence: R016 ve11c/master r/e634e98; Dec 19 2017 11:00:25 by eja",
  "dcmmeta_affine": [
    [-1.9967784881591797, 0.11303558945655823, 0.00993979163467884, 101.69925689697266],
    [0.10501791536808014, 1.9072661399841309, -0.5927117466926575, -72.25675201416016],
    [0.042977675795555115, 0.5912351012229919, 1.9101293087005615, -59.04114532470703],
    [0.0, 0.0, 0.0, 1.0]
],
  "dcmmeta_reorient_transform": [
    [0.0, -1.0, 0.0, 103.0],
    [1.0, 0.0, 0.0, 0.0],
    [0.0, 0.0, 1.0, 0.0],
    [0.0, 0.0, 0.0, 1.0]
],
  "dcmmeta_shape": [104, 104, 60, 190],
  "dcmmeta_slice_dim": 2,
  "dcmmeta_version": 0.6,
  "global": {
    "const": {
      "AcquisitionMatrix": [104, 0, 0, 104],
      "AngioFlag": "N",
      "BitsAllocated": 16,
      "BitsStored": 16,
      "BodyPartExamined": "BRAIN",
      "Columns": 832,
      "EchoNumbers": 1,
      "EchoTime": 37.0,
      "EchoTrainLength": 104,
      "FlipAngle": 52.0,
      "HighBit": 15,
      "ImageOrientationPatient": [0.99838922230124, -0.0525089577957, 0.02148883765892, 0.05651779299657, 0.95363305314175, -0.2956175553487],
      "ImagePositionPatient": [-881.314230432, -780.2100016614, 201.42177852746],
      "ImageType": [
        "ORIGINAL",
        "PRIMARY",
        "M",
        "MB",
        "ND",
        "MOSAIC"
],
      "ImagedNucleus": "1H",
      "ImagingFrequency": 123.258894,
      "InPlanePhaseEncodingDirection": "COL",
      "MRAcquisitionType": "2D",
      "MagneticFieldStrength": 3.0,
      "Manufacturer": "SIEMENS",
      "ManufacturerModelName": "Prisma_fit",
      "Modality": "MR",
      "NumberOfAverages": 1.0,
      "NumberOfPhaseEncodingSteps": 104,
      "PercentPhaseFieldOfView": 100.0,
      "PercentSampling": 100.0,
      "PerformedProcedureStepStartTime": "150548.435000",
      "PhotometricInterpretation": "MONOCHROME2",
      "PixelBandwidth": 2290.0,
      "PixelRepresentation": 0,
      "PixelSpacing": [2.0, 2.0],
      "ProtocolName": "func_task-things_run-2",
      "RepetitionTime": 1490.0,
      "Rows": 832,
      "SAR": 0.03530518334629,
      "SamplesPerPixel": 1,
      "ScanOptions": "FS",
      "ScanningSequence": "EP",
      "SequenceName": "epfid2d1_104",
      "SequenceVariant": [
        "SK",
        "SS"
],
      "SeriesDescription": "func_task-things_run-2",
      "SeriesNumber": 13,
      "SeriesTime": "153623.785000",
      "SliceLocation": -34.468962724489,
      "SliceThickness": 2.0,
      "SmallestImagePixelValue": 0,
      "SoftwareVersions": "syngo MR E11",
      "SpacingBetweenSlices": 1.9999999596241,
      "SpecificCharacterSet": "ISO_IR 100",
      "StudyID": "1",
      "StudyTime": "150548.348000",
      "TransmitCoilName": "Body",
      "VariableFlipAngleFlag": "N",
      "WindowCenterWidthExplanation": "Algo1",
      "dBdt": 0.0},
    "slices": {}
  },
  "time": {
    "samples": {
      "AcquisitionNumber": [1, 2, 3, 4, 5, 6, 7, 8, 9, 10, 11, 12, 13, 14, 15, 16, 17, 18, 19, 20, 21, 22, 23, 24, 25, 26, 27, 28, 29, 30, 31, 32, 33, 34, 35, 36, 37, 38, 39, 40, 41, 42, 43, 44, 45, 46, 47, 48, 49, 50, 51, 52, 53, 54, 55, 56, 57, 58, 59, 60, 61, 62, 63, 64, 65, 66, 67, 68, 69, 70, 71, 72, 73, 74, 75, 76, 77, 78, 79, 80, 81, 82, 83, 84, 85, 86, 87, 88, 89, 90, 91, 92, 93, 94, 95, 96, 97, 98, 99, 100, 101, 102, 103, 104, 105, 106, 107, 108, 109, 110, 111, 112, 113, 114, 115, 116, 117, 118, 119, 120, 121, 122, 123, 124, 125, 126, 127, 128, 129, 130, 131, 132, 133, 134, 135, 136, 137, 138, 139, 140, 141, 142, 143, 144, 145, 146, 147, 148, 149, 150, 151, 152, 153, 154, 155, 156, 157, 158, 159, 160, 161, 162, 163, 164, 165, 166, 167, 168, 169, 170, 171, 172, 173, 174, 175, 176, 177, 178, 179, 180, 181, 182, 183, 184, 185, 186, 187, 188, 189, 190],
      "AcquisitionTime": ["153507.852500", "153509.342500", "153510.832500", "153512.322500", "153513.812500", "153515.302500", "153516.792500", "153518.282500", "153519.772500", "153521.262500", "153522.752500", "153524.242500", "153525.732500", "153527.222500", "153528.712500", "153530.202500", "153531.692500", "153533.182500", "153534.672500", "153536.162500", "153537.652500", "153539.142500", "153540.632500", "153542.122500", "153543.612500", "153545.102500", "153546.592500", "153548.082500", "153549.572500", "153551.062500", "153552.552500", "153554.042500", "153555.532500", "153557.022500", "153558.512500", "153600.002500", "153601.492500", "153602.982500", "153604.472500", "153605.962500", "153607.452500", "153608.942500", "153610.432500", "153611.922500", "153613.412500", "153614.902500", "153616.392500", "153617.882500", "153619.372500", "153620.862500", "153622.352500", "153623.842500", "153625.332500", "153626.822500", "153628.312500", "153629.802500", "153631.292500", "153632.782500", "153634.272500", "153635.762500", "153637.252500", "153638.742500", "153640.232500", "153641.722500", "153643.212500", "153644.702500", "153646.192500", "153647.682500", "153649.172500", "153650.662500", "153652.152500", "153653.642500", "153655.132500", "153656.622500", "153658.112500", "153659.602500", "153701.092500", "153702.582500", "153704.072500", "153705.562500", "153707.052500", "153708.542500", "153710.032500", "153711.522500", "153713.012500", "153714.502500", "153715.992500", "153717.482500", "153718.972500", "153720.462500", "153721.952500", "153723.442500", "153724.932500", "153726.422500", "153727.912500", "153729.402500", "153730.892500", "153732.382500", "153733.872500", "153735.362500", "153736.852500", "153738.342500", "153739.832500", "153741.322500", "153742.812500", "153744.302500", "153745.792500", "153747.282500", "153748.772500", "153750.262500", "153751.752500", "153753.242500", "153754.732500", "153756.222500", "153757.712500", "153759.202500", "153800.692500", "153802.182500", "153803.672500", "153805.162500", "153806.652500", "153808.142500", "153809.632500", "153811.122500", "153812.612500", "153814.102500", "153815.592500", "153817.082500", "153818.572500", "153820.062500", "153821.552500", "153823.042500", "153824.532500", "153826.022500", "153827.512500", "153829.002500", "153830.492500", "153831.982500", "153833.472500", "153834.962500", "153836.452500", "153837.942500", "153839.432500", "153840.922500", "153842.412500", "153843.902500", "153845.392500", "153846.882500", "153848.372500", "153849.862500", "153851.352500", "153852.842500", "153854.332500", "153855.822500", "153857.312500", "153858.802500", "153900.292500", "153901.782500", "153903.272500", "153904.762500", "153906.252500", "153907.742500", "153909.232500", "153910.722500", "153912.212500", "153913.702500", "153915.192500", "153916.682500", "153918.172500", "153919.662500", "153921.152500", "153922.642500", "153924.132500", "153925.622500", "153927.112500", "153928.602500", "153930.092500", "153931.582500", "153933.072500", "153934.562500", "153936.052500", "153937.542500", "153939.032500", "153940.522500", "153942.012500", "153943.502500", "153944.992500", "153946.482500", "153947.972500", "153949.462500"],
      "ContentTime": ["153623.788000", "153623.792000", "153623.795000", "153623.799000", "153623.802000", "153623.806000", "153623.809000", "153623.812000", "153623.815000", "153623.824000", "153623.828000", "153623.831000", "153623.834000", "153623.838000", "153623.841000", "153623.844000", "153623.847000", "153623.851000", "153623.854000", "153623.857000", "153623.861000", "153643.755000", "153643.759000", "153643.762000", "153643.765000", "153643.769000", "153643.787000", "153643.791000", "153643.794000", "153643.797000", "153643.801000", "153643.804000", "153643.807000", "153643.810000", "153643.814000", "153643.817000", "153643.820000", "153643.824000", "153643.827000", "153643.830000", "153643.834000", "153703.755000", "153703.759000", "153703.762000", "153703.765000", "153703.769000", "153703.772000", "153703.775000", "153703.779000", "153703.782000", "153703.785000", "153703.789000", "153703.792000", "153703.795000", "153703.799000", "153703.802000", "153703.805000", "153703.808000", "153703.812000", "153703.815000", "153703.818000", "153723.755000", "153723.759000", "153723.762000", "153723.765000", "153723.769000", "153723.772000", "153723.776000", "153723.779000", "153723.782000", "153723.786000", "153723.789000", "153723.792000", "153723.795000", "153723.799000", "153723.802000", "153723.805000", "153723.809000", "153723.812000", "153723.815000", "153723.819000", "153743.755000", "153743.759000", "153743.762000", "153743.765000", "153743.769000", "153743.772000", "153743.776000", "153743.779000", "153743.782000", "153743.786000", "153743.789000", "153743.792000", "153743.795000", "153743.799000", "153743.802000", "153743.805000", "153743.809000", "153743.812000", "153743.815000", "153743.818000", "153743.822000", "153823.755000", "153823.759000", "153823.762000", "153823.766000", "153823.770000", "153823.773000", "153823.777000", "153823.780000", "153823.783000", "153823.786000", "153823.790000", "153823.802000", "153823.806000", "153823.809000", "153823.812000", "153823.815000", "153823.819000", "153823.822000", "153823.826000", "153823.829000", "153823.843000", "153823.846000", "153823.849000", "153823.853000", "153823.856000", "153823.860000", "153823.863000", "153823.866000", "153903.755000", "153903.759000", "153903.762000", "153903.765000", "153903.769000", "153903.772000", "153903.775000", "153903.779000", "153903.793000", "153903.797000", "153903.800000", "153903.803000", "153903.807000", "153903.810000", "153903.813000", "153903.817000", "153903.820000", "153903.823000", "153903.827000", "153903.830000", "153903.833000", "153903.836000", "153903.840000", "153903.843000", "153903.846000", "153903.850000", "153903.853000", "153943.755000", "153943.759000", "153943.762000", "153943.766000", "153943.769000", "153943.772000", "153943.776000", "153943.779000", "153943.782000", "153943.786000", "153943.789000", "153943.793000", "153943.796000", "153943.799000", "153943.803000", "153943.806000", "153943.809000", "153943.813000", "153943.816000", "153943.819000", "153943.823000", "153943.826000", "153943.829000", "153943.832000", "153943.836000", "153943.839000", "153943.843000", "153951.877000", "153951.881000", "153951.884000", "153951.888000", "153951.891000", "153951.894000"],
      "InstanceCreationTime": ["153623.788000", "153623.792000", "153623.795000", "153623.799000", "153623.802000", "153623.806000", "153623.809000", "153623.812000", "153623.815000", "153623.824000", "153623.828000", "153623.831000", "153623.834000", "153623.838000", "153623.841000", "153623.844000", "153623.847000", "153623.851000", "153623.854000", "153623.857000", "153623.861000", "153643.755000", "153643.759000", "153643.762000", "153643.765000", "153643.769000", "153643.787000", "153643.791000", "153643.794000", "153643.797000", "153643.801000", "153643.804000", "153643.807000", "153643.810000", "153643.814000", "153643.817000", "153643.820000", "153643.824000", "153643.827000", "153643.830000", "153643.834000", "153703.755000", "153703.759000", "153703.762000", "153703.765000", "153703.769000", "153703.772000", "153703.775000", "153703.779000", "153703.782000", "153703.785000", "153703.789000", "153703.792000", "153703.795000", "153703.799000", "153703.802000", "153703.805000", "153703.808000", "153703.812000", "153703.815000", "153703.818000", "153723.755000", "153723.759000", "153723.762000", "153723.765000", "153723.769000", "153723.772000", "153723.776000", "153723.779000", "153723.782000", "153723.786000", "153723.789000", "153723.792000", "153723.795000", "153723.799000", "153723.802000", "153723.805000", "153723.809000", "153723.812000", "153723.815000", "153723.819000", "153743.755000", "153743.759000", "153743.762000", "153743.765000", "153743.769000", "153743.772000", "153743.776000", "153743.779000", "153743.782000", "153743.786000", "153743.789000", "153743.792000", "153743.795000", "153743.799000", "153743.802000", "153743.805000", "153743.809000", "153743.812000", "153743.815000", "153743.818000", "153743.822000", "153823.755000", "153823.759000", "153823.762000", "153823.766000", "153823.770000", "153823.773000", "153823.777000", "153823.780000", "153823.783000", "153823.786000", "153823.790000", "153823.802000", "153823.806000", "153823.809000", "153823.812000", "153823.815000", "153823.819000", "153823.822000", "153823.826000", "153823.829000", "153823.843000", "153823.846000", "153823.849000", "153823.853000", "153823.856000", "153823.860000", "153823.863000", "153823.866000", "153903.755000", "153903.759000", "153903.762000", "153903.765000", "153903.769000", "153903.772000", "153903.775000", "153903.779000", "153903.793000", "153903.797000", "153903.800000", "153903.803000", "153903.807000", "153903.810000", "153903.813000", "153903.817000", "153903.820000", "153903.823000", "153903.827000", "153903.830000", "153903.833000", "153903.836000", "153903.840000", "153903.843000", "153903.846000", "153903.850000", "153903.853000", "153943.755000", "153943.759000", "153943.762000", "153943.766000", "153943.769000", "153943.772000", "153943.776000", "153943.779000", "153943.782000", "153943.786000", "153943.789000", "153943.793000", "153943.796000", "153943.799000", "153943.803000", "153943.806000", "153943.809000", "153943.813000", "153943.816000", "153943.819000", "153943.823000", "153943.826000", "153943.829000", "153943.832000", "153943.836000", "153943.839000", "153943.843000", "153951.877000", "153951.881000", "153951.884000", "153951.888000", "153951.891000", "153951.894000"],
      "InstanceNumber": [1, 2, 3, 4, 5, 6, 7, 8, 9, 10, 11, 12, 13, 14, 15, 16, 17, 18, 19, 20, 21, 22, 23, 24, 25, 26, 27, 28, 29, 30, 31, 32, 33, 34, 35, 36, 37, 38, 39, 40, 41, 42, 43, 44, 45, 46, 47, 48, 49, 50, 51, 52, 53, 54, 55, 56, 57, 58, 59, 60, 61, 62, 63, 64, 65, 66, 67, 68, 69, 70, 71, 72, 73, 74, 75, 76, 77, 78, 79, 80, 81, 82, 83, 84, 85, 86, 87, 88, 89, 90, 91, 92, 93, 94, 95, 96, 97, 98, 99, 100, 101, 102, 103, 104, 105, 106, 107, 108, 109, 110, 111, 112, 113, 114, 115, 116, 117, 118, 119, 120, 121, 122, 123, 124, 125, 126, 127, 128, 129, 130, 131, 132, 133, 134, 135, 136, 137, 138, 139, 140, 141, 142, 143, 144, 145, 146, 147, 148, 149, 150, 151, 152, 153, 154, 155, 156, 157, 158, 159, 160, 161, 162, 163, 164, 165, 166, 167, 168, 169, 170, 171, 172, 173, 174, 175, 176, 177, 178, 179, 180, 181, 182, 183, 184, 185, 186, 187, 188, 189, 190],
      "LargestImagePixelValue": [47008, 45408, 44660, 44304, 44355, 44211, 44191, 44041, 43469, 43726, 43977, 43859, 43734, 43678, 43701, 43536, 44133, 44219, 44160, 44138, 44611, 44657, 44384, 44399, 44592, 44424, 44676, 44590, 44352, 44585, 44621, 44527, 44359, 45072, 44516, 44431, 44211, 44768, 44689, 44523, 44204, 44446, 44555, 44348, 44691, 44275, 44413, 45048, 44535, 44342, 44621, 44939, 44181, 44109, 44383, 44595, 44476, 44037, 44368, 44721, 44765, 44191, 44266, 44629, 44504, 44947, 44495, 44242, 44353, 44319, 44244, 44242, 44528, 44611, 44104, 44234, 44511, 44534, 44718, 44193, 44237, 44687, 44490, 44346, 44311, 43678, 44708, 44760, 44204, 43601, 43667, 43911, 44382, 44073, 44121, 44803, 44072, 44140, 44380, 44635, 44112, 44707, 44937, 44565, 44260, 44045, 44825, 44418, 44331, 44580, 44398, 44986, 44422, 44473, 44415, 44315, 44746, 44106, 44402, 44059, 44559, 44150, 44626, 44693, 44614, 44532, 44263, 44262, 44429, 44451, 44210, 44684, 44957, 44422, 44877, 44353, 44535, 44244, 44597, 44093, 43944, 43762, 45008, 44393, 44179, 44506, 44515, 44270, 44226, 44330, 44895, 44630, 44535, 44383, 44538, 44652, 44481, 44811, 44463, 45158, 44571, 44041, 44277, 44530, 44901, 44296, 44578, 44163, 44399, 44253, 44176, 43981, 44692, 44469, 43756, 44824, 44565, 44529, 44719, 44141, 44599, 43785, 44379, 44654, 44685, 44376, 44433, 44381, 44423, 44463],
      "WindowCenter": [10598.0, 10534.0, 10506.0, 10496.0, 10508.0, 10492.0, 10471.0, 10466.0, 10461.0, 10457.0, 10456.0, 10453.0, 10451.0, 10451.0, 10451.0, 10452.0, 10463.0, 10472.0, 10495.0, 10506.0, 10499.0, 10481.0, 10458.0, 10455.0, 10468.0, 10471.0, 10472.0, 10467.0, 10464.0, 10451.0, 10449.0, 10462.0, 10477.0, 10493.0, 10482.0, 10460.0, 10451.0, 10468.0, 10478.0, 10480.0, 10468.0, 10472.0, 10465.0, 10470.0, 10469.0, 10472.0, 10481.0, 10498.0, 10490.0, 10473.0, 10457.0, 10454.0, 10456.0, 10457.0, 10462.0, 10458.0, 10457.0, 10452.0, 10457.0, 10456.0, 10447.0, 10456.0, 10482.0, 10482.0, 10460.0, 10456.0, 10463.0, 10464.0, 10470.0, 10468.0, 10473.0, 10474.0, 10475.0, 10465.0, 10457.0, 10464.0, 10479.0, 10488.0, 10480.0, 10460.0, 10460.0, 10465.0, 10464.0, 10474.0, 10482.0, 10464.0, 10463.0, 10477.0, 10488.0, 10473.0, 10459.0, 10453.0, 10447.0, 10458.0, 10430.0, 10408.0, 10393.0, 10402.0, 10439.0, 10471.0, 10474.0, 10473.0, 10477.0, 10481.0, 10476.0, 10483.0, 10495.0, 10484.0, 10469.0, 10459.0, 10474.0, 10487.0, 10467.0, 10458.0, 10480.0, 10505.0, 10497.0, 10462.0, 10449.0, 10451.0, 10479.0, 10491.0, 10498.0, 10491.0, 10479.0, 10461.0, 10436.0, 10419.0, 10444.0, 10471.0, 10467.0, 10479.0, 10486.0, 10475.0, 10458.0, 10443.0, 10446.0, 10458.0, 10465.0, 10445.0, 10431.0, 10437.0, 10475.0, 10488.0, 10476.0, 10465.0, 10458.0, 10458.0, 10473.0, 10490.0, 10490.0, 10469.0, 10458.0, 10465.0, 10471.0, 10470.0, 10469.0, 10471.0, 10465.0, 10482.0, 10480.0, 10466.0, 10454.0, 10469.0, 10484.0, 10468.0, 10448.0, 10441.0, 10454.0, 10457.0, 10450.0, 10437.0, 10446.0, 10446.0, 10441.0, 10472.0, 10499.0, 10496.0, 10480.0, 10467.0, 10458.0, 10451.0, 10456.0, 10448.0, 10432.0, 10417.0, 10424.0, 10437.0, 10448.0, 10455.0],
      "WindowWidth": [23051.0, 22863.0, 22771.0, 22735.0, 22750.0, 22710.0, 22658.0, 22642.0, 22631.0, 22620.0, 22614.0, 22611.0, 22606.0, 22605.0, 22609.0, 22613.0, 22635.0, 22656.0, 22708.0, 22739.0, 22721.0, 22677.0, 22625.0, 22617.0, 22644.0, 22653.0, 22654.0, 22644.0, 22634.0, 22610.0, 22605.0, 22631.0, 22666.0, 22702.0, 22679.0, 22630.0, 22609.0, 22644.0, 22668.0, 22672.0, 22649.0, 22656.0, 22640.0, 22653.0, 22651.0, 22658.0, 22678.0, 22715.0, 22702.0, 22660.0, 22624.0, 22614.0, 22621.0, 22622.0, 22634.0, 22626.0, 22624.0, 22615.0, 22625.0, 22622.0, 22598.0, 22620.0, 22682.0, 22681.0, 22630.0, 22617.0, 22636.0, 22640.0, 22651.0, 22649.0, 22659.0, 22665.0, 22665.0, 22642.0, 22623.0, 22639.0, 22672.0, 22693.0, 22675.0, 22632.0, 22631.0, 22643.0, 22643.0, 22664.0, 22683.0, 22646.0, 22637.0, 22671.0, 22700.0, 22668.0, 22634.0, 22615.0, 22599.0, 22625.0, 22564.0, 22507.0, 22474.0, 22500.0, 22584.0, 22660.0, 22669.0, 22663.0, 22670.0, 22680.0, 22669.0, 22684.0, 22709.0, 22684.0, 22651.0, 22629.0, 22663.0, 22690.0, 22646.0, 22627.0, 22681.0, 22741.0, 22721.0, 22640.0, 22606.0, 22609.0, 22673.0, 22702.0, 22716.0, 22705.0, 22678.0, 22639.0, 22581.0, 22541.0, 22593.0, 22656.0, 22650.0, 22672.0, 22691.0, 22669.0, 22631.0, 22593.0, 22599.0, 22628.0, 22645.0, 22601.0, 22568.0, 22582.0, 22666.0, 22699.0, 22674.0, 22644.0, 22629.0, 22629.0, 22662.0, 22703.0, 22701.0, 22652.0, 22628.0, 22645.0, 22658.0, 22658.0, 22656.0, 22658.0, 22645.0, 22680.0, 22679.0, 22647.0, 22624.0, 22654.0, 22687.0, 22653.0, 22606.0, 22590.0, 22621.0, 22627.0, 22611.0, 22579.0, 22597.0, 22600.0, 22596.0, 22666.0, 22724.0, 22720.0, 22680.0, 22650.0, 22629.0, 22615.0, 22625.0, 22606.0, 22568.0, 22536.0, 22550.0, 22581.0, 22609.0, 22625.0]
    },
    "slices": {}
  }
}