{
  "AcquisitionMatrixPE": 104,
  "AcquisitionNumber": 1,
  "AcquisitionTime": "15:35:7.852500",
  "BandwidthPerPixelPhaseEncode": 17.17,
  "BaseResolution": 104,
  "BodyPartExamined": "BRAIN",
  "CoilString": "HC1-7;NC1_2",
  "ConsistencyInfo": "N4_VE11C_LATEST_20160120",
  "ConversionSoftware": "dcm2niix",
  "ConversionSoftwareVersion": "v1.0.20190902",
  "DerivedVendorReportedEchoSpacing": 0.000560011,
  "DeviceSerialNumber": "167006",
  "DwellTime": 2.1e-06,
  "EchoTime": 0.037,
  "EchoTrainLength": 104,
  "EffectiveEchoSpacing": 0.000560011,
  "FlipAngle": 52,
  "ImageComments": "Unaliased_MB4_PE3_LB",
  "ImageOrientationPatientDICOM": [0.998389, -0.052509, 0.0214888, 0.0565178, 0.953633, -0.295618],
  "ImageType": [
    "ORIGINAL",
    "PRIMARY",
    "P",
    "MB",
    "ND",
    "MOSAIC"
],
  "ImagingFrequency": 123.259,
  "InPlanePhaseEncodingDirectionDICOM": "COL",
  "InstitutionAddress": "Chemin_Queen-Mary_4565_Montreal_District_CA_H3W_1W5",
  "InstitutionName": "IUGM",
  "InstitutionalDepartmentName": "Department",
  "MRAcquisitionType": "2D",
  "MagneticFieldStrength": 3,
  "Manufacturer": "Siemens",
  "ManufacturersModelName": "Prisma_fit",
  "Modality": "MR",
  "MultibandAccelerationFactor": 4,
  "PartialFourier": 1,
  "PatientPosition": "HFS",
  "PercentPhaseFOV": 100,
  "PhaseEncodingDirection": "j",
  "PhaseEncodingSteps": 104,
  "PhaseResolution": 1,
  "PixelBandwidth": 2290,
  "ProcedureStepDescription": "memory_things",
  "ProtocolName": "func_task-things_run-2",
  "PulseSequenceDetails": "%CustomerSeq%_cmrr_mbep2d_bold",
  "ReceiveCoilActiveElements": "HC1-7;NC1,2",
  "ReceiveCoilName": "HeadNeck_64",
  "ReconMatrixPE": 104,
  "RepetitionTime": 1.49,
  "SAR": 0.0353052,
  "ScanOptions": "FS",
  "ScanningSequence": "EP",
  "SequenceName": "epfid2d1_104",
  "SequenceVariant": "SK_SS",
  "SeriesDescription": "func_task-things_run-2",
  "SeriesNumber": 14,
  "ShimSetting": [635, -7246, -8797, 619, 22, -179, -49, -7],
  "SliceThickness": 2,
  "SliceTiming": [0, 0.7825, 0.0975, 0.8825, 0.195, 0.98, 0.2925, 1.0775, 0.3925, 1.175, 0.49, 1.2725, 0.5875, 1.3725, 0.685, 0, 0.7825, 0.0975, 0.8825, 0.195, 0.98, 0.2925, 1.0775, 0.3925, 1.175, 0.49, 1.2725, 0.5875, 1.3725, 0.685, 0, 0.7825, 0.0975, 0.8825, 0.195, 0.98, 0.2925, 1.0775, 0.3925, 1.175, 0.49, 1.2725, 0.5875, 1.3725, 0.685, 0, 0.7825, 0.0975, 0.8825, 0.195, 0.98, 0.2925, 1.0775, 0.3925, 1.175, 0.49, 1.2725, 0.5875, 1.3725, 0.685],
  "SoftwareVersions": "syngo_MR_E11",
  "SpacingBetweenSlices": 2,
  "StationName": "MRC35049",
  "TaskName": "things",
  "TotalReadoutTime": 0.0576811,
  "TxRefAmp": 239.595,
  "WipMemBlock": "069282d0-cd49-46b9-9e83-ec10de0fa175||Sequence: R016 ve11c/master r/e634e98; Dec 19 2017 11:00:25 by eja",
  "dcmmeta_affine": [
    [-1.9967784881591797, 0.11303558945655823, 0.00993979163467884, 101.69925689697266],
    [0.10501791536808014, 1.9072661399841309, -0.5927117466926575, -72.25675201416016],
    [0.042977675795555115, 0.5912351012229919, 1.9101293087005615, -59.04114532470703],
    [0.0, 0.0, 0.0, 1.0]
],
  "dcmmeta_reorient_transform": [
    [0.0, -1.0, 0.0, 103.0],
    [1.0, 0.0, 0.0, 0.0],
    [0.0, 0.0, 1.0, 0.0],
    [0.0, 0.0, 0.0, 1.0]
],
  "dcmmeta_shape": [104, 104, 60, 190],
  "dcmmeta_slice_dim": 2,
  "dcmmeta_version": 0.6,
  "global": {
    "const": {
      "AcquisitionMatrix": [104, 0, 0, 104],
      "AngioFlag": "N",
      "BitsAllocated": 16,
      "BitsStored": 16,
      "BodyPartExamined": "BRAIN",
      "Columns": 832,
      "EchoNumbers": 1,
      "EchoTime": 37.0,
      "EchoTrainLength": 104,
      "FlipAngle": 52.0,
      "HighBit": 15,
      "ImageOrientationPatient": [0.99838922230124, -0.0525089577957, 0.02148883765892, 0.05651779299657, 0.95363305314175, -0.2956175553487],
      "ImagePositionPatient": [-881.314230432, -780.2100016614, 201.42177852746],
      "ImageType": [
        "ORIGINAL",
        "PRIMARY",
        "P",
        "MB",
        "ND",
        "MOSAIC"
],
      "ImagedNucleus": "1H",
      "ImagingFrequency": 123.258894,
      "InPlanePhaseEncodingDirection": "COL",
      "LargestImagePixelValue": 4095,
      "MRAcquisitionType": "2D",
      "MagneticFieldStrength": 3.0,
      "Manufacturer": "SIEMENS",
      "ManufacturerModelName": "Prisma_fit",
      "Modality": "MR",
      "NumberOfAverages": 1.0,
      "NumberOfPhaseEncodingSteps": 104,
      "PercentPhaseFieldOfView": 100.0,
      "PercentSampling": 100.0,
      "PerformedProcedureStepStartTime": "150548.435000",
      "PhotometricInterpretation": "MONOCHROME2",
      "PixelBandwidth": 2290.0,
      "PixelRepresentation": 0,
      "PixelSpacing": [2.0, 2.0],
      "ProtocolName": "func_task-things_run-2",
      "RepetitionTime": 1490.0,
      "RescaleIntercept": -4096.0,
      "RescaleSlope": 2.0,
      "RescaleType": "US",
      "Rows": 832,
      "SAR": 0.03530518334629,
      "SamplesPerPixel": 1,
      "ScanOptions": "FS",
      "ScanningSequence": "EP",
      "SequenceName": "epfid2d1_104",
      "SequenceVariant": [
        "SK",
        "SS"
],
      "SeriesDescription": "func_task-things_run-2",
      "SeriesNumber": 14,
      "SeriesTime": "153623.914000",
      "SliceLocation": -34.468962724489,
      "SliceThickness": 2.0,
      "SmallestImagePixelValue": 0,
      "SoftwareVersions": "syngo MR E11",
      "SpacingBetweenSlices": 1.9999999596241,
      "SpecificCharacterSet": "ISO_IR 100",
      "StudyID": "1",
      "StudyTime": "150548.348000",
      "TransmitCoilName": "Body",
      "VariableFlipAngleFlag": "N",
      "WindowCenterWidthExplanation": "Algo1",
      "dBdt": 0.0},
    "slices": {}
  },
  "time": {
    "samples": {
      "AcquisitionNumber": [1, 2, 3, 4, 5, 6, 7, 8, 9, 10, 11, 12, 13, 14, 15, 16, 17, 18, 19, 20, 21, 22, 23, 24, 25, 26, 27, 28, 29, 30, 31, 32, 33, 34, 35, 36, 37, 38, 39, 40, 41, 42, 43, 44, 45, 46, 47, 48, 49, 50, 51, 52, 53, 54, 55, 56, 57, 58, 59, 60, 61, 62, 63, 64, 65, 66, 67, 68, 69, 70, 71, 72, 73, 74, 75, 76, 77, 78, 79, 80, 81, 82, 83, 84, 85, 86, 87, 88, 89, 90, 91, 92, 93, 94, 95, 96, 97, 98, 99, 100, 101, 102, 103, 104, 105, 106, 107, 108, 109, 110, 111, 112, 113, 114, 115, 116, 117, 118, 119, 120, 121, 122, 123, 124, 125, 126, 127, 128, 129, 130, 131, 132, 133, 134, 135, 136, 137, 138, 139, 140, 141, 142, 143, 144, 145, 146, 147, 148, 149, 150, 151, 152, 153, 154, 155, 156, 157, 158, 159, 160, 161, 162, 163, 164, 165, 166, 167, 168, 169, 170, 171, 172, 173, 174, 175, 176, 177, 178, 179, 180, 181, 182, 183, 184, 185, 186, 187, 188, 189, 190],
      "AcquisitionTime": ["153507.852500", "153509.342500", "153510.832500", "153512.322500", "153513.812500", "153515.302500", "153516.792500", "153518.282500", "153519.772500", "153521.262500", "153522.752500", "153524.242500", "153525.732500", "153527.222500", "153528.712500", "153530.202500", "153531.692500", "153533.182500", "153534.672500", "153536.162500", "153537.652500", "153539.142500", "153540.632500", "153542.122500", "153543.612500", "153545.102500", "153546.592500", "153548.082500", "153549.572500", "153551.062500", "153552.552500", "153554.042500", "153555.532500", "153557.022500", "153558.512500", "153600.002500", "153601.492500", "153602.982500", "153604.472500", "153605.962500", "153607.452500", "153608.942500", "153610.432500", "153611.922500", "153613.412500", "153614.902500", "153616.392500", "153617.882500", "153619.372500", "153620.862500", "153622.352500", "153623.842500", "153625.332500", "153626.822500", "153628.312500", "153629.802500", "153631.292500", "153632.782500", "153634.272500", "153635.762500", "153637.252500", "153638.742500", "153640.232500", "153641.722500", "153643.212500", "153644.702500", "153646.192500", "153647.682500", "153649.172500", "153650.662500", "153652.152500", "153653.642500", "153655.132500", "153656.622500", "153658.112500", "153659.602500", "153701.092500", "153702.582500", "153704.072500", "153705.562500", "153707.052500", "153708.542500", "153710.032500", "153711.522500", "153713.012500", "153714.502500", "153715.992500", "153717.482500", "153718.972500", "153720.462500", "153721.952500", "153723.442500", "153724.932500", "153726.422500", "153727.912500", "153729.402500", "153730.892500", "153732.382500", "153733.872500", "153735.362500", "153736.852500", "153738.342500", "153739.832500", "153741.322500", "153742.812500", "153744.302500", "153745.792500", "153747.282500", "153748.772500", "153750.262500", "153751.752500", "153753.242500", "153754.732500", "153756.222500", "153757.712500", "153759.202500", "153800.692500", "153802.182500", "153803.672500", "153805.162500", "153806.652500", "153808.142500", "153809.632500", "153811.122500", "153812.612500", "153814.102500", "153815.592500", "153817.082500", "153818.572500", "153820.062500", "153821.552500", "153823.042500", "153824.532500", "153826.022500", "153827.512500", "153829.002500", "153830.492500", "153831.982500", "153833.472500", "153834.962500", "153836.452500", "153837.942500", "153839.432500", "153840.922500", "153842.412500", "153843.902500", "153845.392500", "153846.882500", "153848.372500", "153849.862500", "153851.352500", "153852.842500", "153854.332500", "153855.822500", "153857.312500", "153858.802500", "153900.292500", "153901.782500", "153903.272500", "153904.762500", "153906.252500", "153907.742500", "153909.232500", "153910.722500", "153912.212500", "153913.702500", "153915.192500", "153916.682500", "153918.172500", "153919.662500", "153921.152500", "153922.642500", "153924.132500", "153925.622500", "153927.112500", "153928.602500", "153930.092500", "153931.582500", "153933.072500", "153934.562500", "153936.052500", "153937.542500", "153939.032500", "153940.522500", "153942.012500", "153943.502500", "153944.992500", "153946.482500", "153947.972500", "153949.462500"],
      "ContentTime": ["153623.916000", "153623.918000", "153623.921000", "153623.924000", "153623.926000", "153623.929000", "153623.931000", "153623.934000", "153623.936000", "153623.939000", "153623.941000", "153623.943000", "153623.946000", "153623.948000", "153623.951000", "153623.953000", "153623.956000", "153623.958000", "153623.961000", "153623.964000", "153623.966000", "153643.879000", "153643.881000", "153643.884000", "153643.886000", "153643.889000", "153643.891000", "153643.894000", "153643.896000", "153643.899000", "153643.901000", "153643.904000", "153643.906000", "153643.909000", "153643.911000", "153643.914000", "153643.916000", "153643.919000", "153643.921000", "153643.924000", "153643.926000", "153703.860000", "153703.863000", "153703.865000", "153703.868000", "153703.870000", "153703.873000", "153703.875000", "153703.878000", "153703.881000", "153703.883000", "153703.886000", "153703.888000", "153703.891000", "153703.893000", "153703.895000", "153703.898000", "153703.900000", "153703.903000", "153703.905000", "153703.908000", "153723.865000", "153723.868000", "153723.870000", "153723.873000", "153723.875000", "153723.878000", "153723.880000", "153723.883000", "153723.885000", "153723.888000", "153723.890000", "153723.893000", "153723.895000", "153723.898000", "153723.900000", "153723.903000", "153723.906000", "153723.909000", "153723.913000", "153723.917000", "153743.887000", "153743.890000", "153743.892000", "153743.895000", "153743.897000", "153743.900000", "153743.902000", "153743.905000", "153743.907000", "153743.910000", "153743.912000", "153743.915000", "153743.917000", "153743.920000", "153743.922000", "153743.925000", "153743.927000", "153743.930000", "153743.932000", "153743.935000", "153824.415000", "153824.417000", "153824.420000", "153824.422000", "153824.425000", "153824.427000", "153824.430000", "153824.433000", "153824.435000", "153824.438000", "153824.440000", "153824.443000", "153824.445000", "153824.448000", "153824.450000", "153824.453000", "153824.455000", "153824.458000", "153824.460000", "153824.463000", "153824.465000", "153824.468000", "153824.470000", "153824.473000", "153824.475000", "153824.478000", "153824.480000", "153824.483000", "153824.485000", "153903.903000", "153903.906000", "153903.908000", "153903.911000", "153903.913000", "153903.916000", "153903.918000", "153903.920000", "153903.923000", "153903.926000", "153903.928000", "153903.930000", "153903.933000", "153903.935000", "153903.938000", "153903.940000", "153903.943000", "153903.945000", "153903.948000", "153903.950000", "153903.953000", "153903.955000", "153903.958000", "153903.960000", "153903.963000", "153903.966000", "153903.968000", "153943.921000", "153943.924000", "153943.926000", "153943.929000", "153943.931000", "153943.934000", "153943.936000", "153943.939000", "153943.941000", "153943.944000", "153943.946000", "153943.948000", "153943.951000", "153943.960000", "153943.962000", "153943.965000", "153943.967000", "153943.970000", "153943.972000", "153943.975000", "153943.977000", "153943.980000", "153943.982000", "153943.985000", "153943.987000", "153943.990000", "153943.992000", "153951.924000", "153951.926000", "153951.929000", "153951.932000", "153951.934000", "153951.937000"],
      "InstanceCreationTime": ["153623.916000", "153623.918000", "153623.921000", "153623.924000", "153623.926000", "153623.929000", "153623.931000", "153623.934000", "153623.936000", "153623.939000", "153623.941000", "153623.943000", "153623.946000", "153623.948000", "153623.951000", "153623.953000", "153623.956000", "153623.958000", "153623.961000", "153623.964000", "153623.966000", "153643.879000", "153643.881000", "153643.884000", "153643.886000", "153643.889000", "153643.891000", "153643.894000", "153643.896000", "153643.899000", "153643.901000", "153643.904000", "153643.906000", "153643.909000", "153643.911000", "153643.914000", "153643.916000", "153643.919000", "153643.921000", "153643.924000", "153643.926000", "153703.860000", "153703.863000", "153703.865000", "153703.868000", "153703.870000", "153703.873000", "153703.875000", "153703.878000", "153703.881000", "153703.883000", "153703.886000", "153703.888000", "153703.891000", "153703.893000", "153703.895000", "153703.898000", "153703.900000", "153703.903000", "153703.905000", "153703.908000", "153723.865000", "153723.868000", "153723.870000", "153723.873000", "153723.875000", "153723.878000", "153723.880000", "153723.883000", "153723.885000", "153723.888000", "153723.890000", "153723.893000", "153723.895000", "153723.898000", "153723.900000", "153723.903000", "153723.906000", "153723.909000", "153723.913000", "153723.917000", "153743.887000", "153743.890000", "153743.892000", "153743.895000", "153743.897000", "153743.900000", "153743.902000", "153743.905000", "153743.907000", "153743.910000", "153743.912000", "153743.915000", "153743.917000", "153743.920000", "153743.922000", "153743.925000", "153743.927000", "153743.930000", "153743.932000", "153743.935000", "153824.415000", "153824.417000", "153824.420000", "153824.422000", "153824.425000", "153824.427000", "153824.430000", "153824.433000", "153824.435000", "153824.438000", "153824.440000", "153824.443000", "153824.445000", "153824.448000", "153824.450000", "153824.453000", "153824.455000", "153824.458000", "153824.460000", "153824.463000", "153824.465000", "153824.468000", "153824.470000", "153824.473000", "153824.475000", "153824.478000", "153824.480000", "153824.483000", "153824.485000", "153903.903000", "153903.906000", "153903.908000", "153903.911000", "153903.913000", "153903.916000", "153903.918000", "153903.920000", "153903.923000", "153903.926000", "153903.928000", "153903.930000", "153903.933000", "153903.935000", "153903.938000", "153903.940000", "153903.943000", "153903.945000", "153903.948000", "153903.950000", "153903.953000", "153903.955000", "153903.958000", "153903.960000", "153903.963000", "153903.966000", "153903.968000", "153943.921000", "153943.924000", "153943.926000", "153943.929000", "153943.931000", "153943.934000", "153943.936000", "153943.939000", "153943.941000", "153943.944000", "153943.946000", "153943.948000", "153943.951000", "153943.960000", "153943.962000", "153943.965000", "153943.967000", "153943.970000", "153943.972000", "153943.975000", "153943.977000", "153943.980000", "153943.982000", "153943.985000", "153943.987000", "153943.990000", "153943.992000", "153951.924000", "153951.926000", "153951.929000", "153951.932000", "153951.934000", "153951.937000"],
      "InstanceNumber": [1, 2, 3, 4, 5, 6, 7, 8, 9, 10, 11, 12, 13, 14, 15, 16, 17, 18, 19, 20, 21, 22, 23, 24, 25, 26, 27, 28, 29, 30, 31, 32, 33, 34, 35, 36, 37, 38, 39, 40, 41, 42, 43, 44, 45, 46, 47, 48, 49, 50, 51, 52, 53, 54, 55, 56, 57, 58, 59, 60, 61, 62, 63, 64, 65, 66, 67, 68, 69, 70, 71, 72, 73, 74, 75, 76, 77, 78, 79, 80, 81, 82, 83, 84, 85, 86, 87, 88, 89, 90, 91, 92, 93, 94, 95, 96, 97, 98, 99, 100, 101, 102, 103, 104, 105, 106, 107, 108, 109, 110, 111, 112, 113, 114, 115, 116, 117, 118, 119, 120, 121, 122, 123, 124, 125, 126, 127, 128, 129, 130, 131, 132, 133, 134, 135, 136, 137, 138, 139, 140, 141, 142, 143, 144, 145, 146, 147, 148, 149, 150, 151, 152, 153, 154, 155, 156, 157, 158, 159, 160, 161, 162, 163, 164, 165, 166, 167, 168, 169, 170, 171, 172, 173, 174, 175, 176, 177, 178, 179, 180, 181, 182, 183, 184, 185, 186, 187, 188, 189, 190],
      "WindowCenter": [4812.0, 4832.0, 4836.0, 4812.0, 4812.0, 4814.0, 4836.0, 4808.0, 4816.0, 4814.0, 4810.0, 4816.0, 4812.0, 4810.0, 4836.0, 4834.0, 4810.0, 4808.0, 4832.0, 4816.0, 4812.0, 4810.0, 4834.0, 4810.0, 4806.0, 4812.0, 4812.0, 4810.0, 4812.0, 4810.0, 4832.0, 4814.0, 4816.0, 4808.0, 4832.0, 4836.0, 4810.0, 4814.0, 4814.0, 4812.0, 4836.0, 4812.0, 4812.0, 4812.0, 4834.0, 4810.0, 4838.0, 4812.0, 4812.0, 4808.0, 4834.0, 4834.0, 4814.0, 4812.0, 4810.0, 4812.0, 4810.0, 4814.0, 4832.0, 4834.0, 4810.0, 4814.0, 4812.0, 4808.0, 4836.0, 4812.0, 4838.0, 4814.0, 4810.0, 4832.0, 4814.0, 4810.0, 4836.0, 4812.0, 4806.0, 4810.0, 4812.0, 4808.0, 4834.0, 4808.0, 4834.0, 4812.0, 4812.0, 4812.0, 4814.0, 4834.0, 4810.0, 4814.0, 4814.0, 4808.0, 4828.0, 4834.0, 4832.0, 4808.0, 4832.0, 4812.0, 4810.0, 4812.0, 4810.0, 4806.0, 4814.0, 4812.0, 4806.0, 4830.0, 4808.0, 4814.0, 4812.0, 4812.0, 4810.0, 4812.0, 4810.0, 4832.0, 4812.0, 4812.0, 4814.0, 4810.0, 4806.0, 4806.0, 4806.0, 4810.0, 4810.0, 4812.0, 4812.0, 4812.0, 4808.0, 4808.0, 4834.0, 4814.0, 4810.0, 4808.0, 4814.0, 4812.0, 4812.0, 4810.0, 4808.0, 4808.0, 4812.0, 4812.0, 4808.0, 4810.0, 4812.0, 4810.0, 4814.0, 4808.0, 4806.0, 4830.0, 4830.0, 4810.0, 4812.0, 4812.0, 4810.0, 4808.0, 4812.0, 4810.0, 4810.0, 4814.0, 4834.0, 4812.0, 4812.0, 4810.0, 4810.0, 4834.0, 4814.0, 4812.0, 4808.0, 4808.0, 4808.0, 4812.0, 4808.0, 4834.0, 4810.0, 4808.0, 4812.0, 4810.0, 4810.0, 4810.0, 4816.0, 4806.0, 4804.0, 4808.0, 4808.0, 4812.0, 4810.0, 4808.0, 4810.0, 4806.0, 4806.0, 4810.0, 4810.0, 4812.0],
      "WindowWidth": [18620.0, 18644.0, 18652.0, 18620.0, 18614.0, 18620.0, 18646.0, 18606.0, 18614.0, 18610.0, 18614.0, 18618.0, 18616.0, 18620.0, 18654.0, 18640.0, 18610.0, 18608.0, 18646.0, 18616.0, 18622.0, 18608.0, 18642.0, 18610.0, 18602.0, 18618.0, 18618.0, 18616.0, 18618.0, 18616.0, 18646.0, 18620.0, 18622.0, 18616.0, 18640.0, 18650.0, 18612.0, 18614.0, 18620.0, 18616.0, 18648.0, 18616.0, 18616.0, 18616.0, 18644.0, 18610.0, 18654.0, 18618.0, 18614.0, 18606.0, 18648.0, 18640.0, 18618.0, 18614.0, 18616.0, 18618.0, 18616.0, 18622.0, 18646.0, 18636.0, 18610.0, 18622.0, 18618.0, 18616.0, 18652.0, 18616.0, 18650.0, 18618.0, 18610.0, 18648.0, 18620.0, 18616.0, 18648.0, 18618.0, 18608.0, 18614.0, 18620.0, 18610.0, 18648.0, 18614.0, 18644.0, 18620.0, 18616.0, 18616.0, 18618.0, 18648.0, 18620.0, 18604.0, 18612.0, 18618.0, 18622.0, 18624.0, 18620.0, 18606.0, 18644.0, 18620.0, 18618.0, 18616.0, 18610.0, 18614.0, 18618.0, 18616.0, 18602.0, 18628.0, 18604.0, 18618.0, 18620.0, 18616.0, 18618.0, 18620.0, 18614.0, 18646.0, 18616.0, 18620.0, 18620.0, 18616.0, 18604.0, 18600.0, 18598.0, 18612.0, 18618.0, 18620.0, 18620.0, 18618.0, 18616.0, 18616.0, 18640.0, 18618.0, 18606.0, 18608.0, 18622.0, 18608.0, 18616.0, 18616.0, 18606.0, 18608.0, 18616.0, 18608.0, 18610.0, 18612.0, 18616.0, 18616.0, 18612.0, 18618.0, 18606.0, 18634.0, 18628.0, 18608.0, 18618.0, 18614.0, 18616.0, 18616.0, 18616.0, 18620.0, 18620.0, 18622.0, 18644.0, 18612.0, 18622.0, 18608.0, 18612.0, 18648.0, 18614.0, 18616.0, 18616.0, 18608.0, 18604.0, 18614.0, 18612.0, 18650.0, 18616.0, 18618.0, 18618.0, 18618.0, 18614.0, 18604.0, 18622.0, 18604.0, 18592.0, 18598.0, 18604.0, 18618.0, 18616.0, 18616.0, 18620.0, 18620.0, 18618.0, 18618.0, 18612.0, 18614.0]
    },
    "slices": {}
  }
}