{
  "AcquisitionMatrixPE": 104,
  "AcquisitionNumber": 1,
  "AcquisitionTime": "15:41:19.642500",
  "BandwidthPerPixelPhaseEncode": 17.17,
  "BaseResolution": 104,
  "BodyPartExamined": "BRAIN",
  "CoilString": "HC1-7;NC1_2",
  "ConsistencyInfo": "N4_VE11C_LATEST_20160120",
  "ConversionSoftware": "dcm2niix",
  "ConversionSoftwareVersion": "v1.0.20190902",
  "DerivedVendorReportedEchoSpacing": 0.000560011,
  "DeviceSerialNumber": "167006",
  "DwellTime": 2.1e-06,
  "EchoTime": 0.037,
  "EchoTrainLength": 104,
  "EffectiveEchoSpacing": 0.000560011,
  "FlipAngle": 52,
  "ImageComments": "Unaliased_MB4_PE3_LB",
  "ImageOrientationPatientDICOM": [0.998389, -0.052509, 0.0214888, 0.0565178, 0.953633, -0.295618],
  "ImageType": [
    "ORIGINAL",
    "PRIMARY",
    "P",
    "MB",
    "ND",
    "MOSAIC"
],
  "ImagingFrequency": 123.259,
  "InPlanePhaseEncodingDirectionDICOM": "COL",
  "InstitutionAddress": "Chemin_Queen-Mary_4565_Montreal_District_CA_H3W_1W5",
  "InstitutionName": "IUGM",
  "InstitutionalDepartmentName": "Department",
  "MRAcquisitionType": "2D",
  "MagneticFieldStrength": 3,
  "Manufacturer": "Siemens",
  "ManufacturersModelName": "Prisma_fit",
  "Modality": "MR",
  "MultibandAccelerationFactor": 4,
  "PartialFourier": 1,
  "PatientPosition": "HFS",
  "PercentPhaseFOV": 100,
  "PhaseEncodingDirection": "j",
  "PhaseEncodingSteps": 104,
  "PhaseResolution": 1,
  "PixelBandwidth": 2290,
  "ProcedureStepDescription": "memory_things",
  "ProtocolName": "func_task-things_run-3",
  "PulseSequenceDetails": "%CustomerSeq%_cmrr_mbep2d_bold",
  "ReceiveCoilActiveElements": "HC1-7;NC1,2",
  "ReceiveCoilName": "HeadNeck_64",
  "ReconMatrixPE": 104,
  "RepetitionTime": 1.49,
  "SAR": 0.0353052,
  "ScanOptions": "FS",
  "ScanningSequence": "EP",
  "SequenceName": "epfid2d1_104",
  "SequenceVariant": "SK_SS",
  "SeriesDescription": "func_task-things_run-3",
  "SeriesNumber": 17,
  "ShimSetting": [635, -7246, -8797, 619, 22, -179, -49, -7],
  "SliceThickness": 2,
  "SliceTiming": [0, 0.7825, 0.0975, 0.88, 0.195, 0.9775, 0.2925, 1.0775, 0.39, 1.175, 0.49, 1.2725, 0.5875, 1.37, 0.685, 0, 0.7825, 0.0975, 0.88, 0.195, 0.9775, 0.2925, 1.0775, 0.39, 1.175, 0.49, 1.2725, 0.5875, 1.37, 0.685, 0, 0.7825, 0.0975, 0.88, 0.195, 0.9775, 0.2925, 1.0775, 0.39, 1.175, 0.49, 1.2725, 0.5875, 1.37, 0.685, 0, 0.7825, 0.0975, 0.88, 0.195, 0.9775, 0.2925, 1.0775, 0.39, 1.175, 0.49, 1.2725, 0.5875, 1.37, 0.685],
  "SoftwareVersions": "syngo_MR_E11",
  "SpacingBetweenSlices": 2,
  "StationName": "MRC35049",
  "TaskName": "things",
  "TotalReadoutTime": 0.0576811,
  "TxRefAmp": 239.595,
  "WipMemBlock": "77547e73-316b-43d9-bbd4-cf69f5668fad||Sequence: R016 ve11c/master r/e634e98; Dec 19 2017 11:00:25 by eja",
  "dcmmeta_affine": [
    [-1.9967784881591797, 0.11303558945655823, 0.00993979163467884, 101.69925689697266],
    [0.10501791536808014, 1.9072661399841309, -0.5927117466926575, -72.25675201416016],
    [0.042977675795555115, 0.5912351012229919, 1.9101293087005615, -59.04114532470703],
    [0.0, 0.0, 0.0, 1.0]
],
  "dcmmeta_reorient_transform": [
    [0.0, -1.0, 0.0, 103.0],
    [1.0, 0.0, 0.0, 0.0],
    [0.0, 0.0, 1.0, 0.0],
    [0.0, 0.0, 0.0, 1.0]
],
  "dcmmeta_shape": [104, 104, 60, 190],
  "dcmmeta_slice_dim": 2,
  "dcmmeta_version": 0.6,
  "global": {
    "const": {
      "AcquisitionMatrix": [104, 0, 0, 104],
      "AngioFlag": "N",
      "BitsAllocated": 16,
      "BitsStored": 16,
      "BodyPartExamined": "BRAIN",
      "Columns": 832,
      "EchoNumbers": 1,
      "EchoTime": 37.0,
      "EchoTrainLength": 104,
      "FlipAngle": 52.0,
      "HighBit": 15,
      "ImageOrientationPatient": [0.99838922230124, -0.0525089577957, 0.02148883765892, 0.05651779299657, 0.95363305314175, -0.2956175553487],
      "ImagePositionPatient": [-881.314230432, -780.2100016614, 201.42177852746],
      "ImageType": [
        "ORIGINAL",
        "PRIMARY",
        "P",
        "MB",
        "ND",
        "MOSAIC"
],
      "ImagedNucleus": "1H",
      "ImagingFrequency": 123.2589,
      "InPlanePhaseEncodingDirection": "COL",
      "LargestImagePixelValue": 4095,
      "MRAcquisitionType": "2D",
      "MagneticFieldStrength": 3.0,
      "Manufacturer": "SIEMENS",
      "ManufacturerModelName": "Prisma_fit",
      "Modality": "MR",
      "NumberOfAverages": 1.0,
      "NumberOfPhaseEncodingSteps": 104,
      "PercentPhaseFieldOfView": 100.0,
      "PercentSampling": 100.0,
      "PerformedProcedureStepStartTime": "150548.435000",
      "PhotometricInterpretation": "MONOCHROME2",
      "PixelBandwidth": 2290.0,
      "PixelRepresentation": 0,
      "PixelSpacing": [2.0, 2.0],
      "ProtocolName": "func_task-things_run-3",
      "RepetitionTime": 1490.0,
      "RescaleIntercept": -4096.0,
      "RescaleSlope": 2.0,
      "RescaleType": "US",
      "Rows": 832,
      "SAR": 0.03530518334629,
      "SamplesPerPixel": 1,
      "ScanOptions": "FS",
      "ScanningSequence": "EP",
      "SequenceName": "epfid2d1_104",
      "SequenceVariant": [
        "SK",
        "SS"
],
      "SeriesDescription": "func_task-things_run-3",
      "SeriesNumber": 17,
      "SeriesTime": "154227.003000",
      "SliceLocation": -34.468962724489,
      "SliceThickness": 2.0,
      "SmallestImagePixelValue": 0,
      "SoftwareVersions": "syngo MR E11",
      "SpacingBetweenSlices": 1.9999999596241,
      "SpecificCharacterSet": "ISO_IR 100",
      "StudyID": "1",
      "StudyTime": "150548.348000",
      "TransmitCoilName": "Body",
      "VariableFlipAngleFlag": "N",
      "WindowCenterWidthExplanation": "Algo1",
      "dBdt": 0.0},
    "slices": {}
  },
  "time": {
    "samples": {
      "AcquisitionNumber": [1, 2, 3, 4, 5, 6, 7, 8, 9, 10, 11, 12, 13, 14, 15, 16, 17, 18, 19, 20, 21, 22, 23, 24, 25, 26, 27, 28, 29, 30, 31, 32, 33, 34, 35, 36, 37, 38, 39, 40, 41, 42, 43, 44, 45, 46, 47, 48, 49, 50, 51, 52, 53, 54, 55, 56, 57, 58, 59, 60, 61, 62, 63, 64, 65, 66, 67, 68, 69, 70, 71, 72, 73, 74, 75, 76, 77, 78, 79, 80, 81, 82, 83, 84, 85, 86, 87, 88, 89, 90, 91, 92, 93, 94, 95, 96, 97, 98, 99, 100, 101, 102, 103, 104, 105, 106, 107, 108, 109, 110, 111, 112, 113, 114, 115, 116, 117, 118, 119, 120, 121, 122, 123, 124, 125, 126, 127, 128, 129, 130, 131, 132, 133, 134, 135, 136, 137, 138, 139, 140, 141, 142, 143, 144, 145, 146, 147, 148, 149, 150, 151, 152, 153, 154, 155, 156, 157, 158, 159, 160, 161, 162, 163, 164, 165, 166, 167, 168, 169, 170, 171, 172, 173, 174, 175, 176, 177, 178, 179, 180, 181, 182, 183, 184, 185, 186, 187, 188, 189, 190],
      "AcquisitionTime": ["154119.642500", "154121.132500", "154122.622500", "154124.112500", "154125.602500", "154127.092500", "154128.582500", "154130.072500", "154131.562500", "154133.052500", "154134.542500", "154136.032500", "154137.522500", "154139.012500", "154140.502500", "154141.992500", "154143.482500", "154144.972500", "154146.462500", "154147.952500", "154149.442500", "154150.932500", "154152.422500", "154153.912500", "154155.402500", "154156.892500", "154158.382500", "154159.872500", "154201.362500", "154202.852500", "154204.342500", "154205.832500", "154207.322500", "154208.812500", "154210.302500", "154211.792500", "154213.282500", "154214.772500", "154216.262500", "154217.752500", "154219.242500", "154220.732500", "154222.222500", "154223.712500", "154225.202500", "154226.692500", "154228.182500", "154229.672500", "154231.162500", "154232.652500", "154234.142500", "154235.632500", "154237.122500", "154238.612500", "154240.102500", "154241.592500", "154243.082500", "154244.572500", "154246.062500", "154247.552500", "154249.042500", "154250.532500", "154252.022500", "154253.512500", "154255.002500", "154256.492500", "154257.982500", "154259.472500", "154300.962500", "154302.452500", "154303.942500", "154305.432500", "154306.922500", "154308.412500", "154309.902500", "154311.392500", "154312.882500", "154314.372500", "154315.862500", "154317.352500", "154318.842500", "154320.332500", "154321.822500", "154323.312500", "154324.802500", "154326.292500", "154327.782500", "154329.272500", "154330.762500", "154332.252500", "154333.742500", "154335.232500", "154336.722500", "154338.212500", "154339.702500", "154341.192500", "154342.682500", "154344.172500", "154345.662500", "154347.152500", "154348.642500", "154350.132500", "154351.622500", "154353.112500", "154354.602500", "154356.092500", "154357.582500", "154359.072500", "154400.562500", "154402.052500", "154403.542500", "154405.032500", "154406.522500", "154408.012500", "154409.502500", "154410.992500", "154412.482500", "154413.972500", "154415.462500", "154416.952500", "154418.442500", "154419.932500", "154421.422500", "154422.912500", "154424.402500", "154425.892500", "154427.382500", "154428.872500", "154430.362500", "154431.852500", "154433.342500", "154434.832500", "154436.322500", "154437.812500", "154439.302500", "154440.792500", "154442.282500", "154443.772500", "154445.262500", "154446.752500", "154448.242500", "154449.732500", "154451.222500", "154452.712500", "154454.202500", "154455.692500", "154457.182500", "154458.672500", "154500.162500", "154501.652500", "154503.142500", "154504.632500", "154506.122500", "154507.612500", "154509.102500", "154510.592500", "154512.082500", "154513.572500", "154515.062500", "154516.552500", "154518.042500", "154519.532500", "154521.022500", "154522.512500", "154524.002500", "154525.492500", "154526.982500", "154528.472500", "154529.962500", "154531.452500", "154532.942500", "154534.432500", "154535.922500", "154537.412500", "154538.902500", "154540.392500", "154541.882500", "154543.372500", "154544.862500", "154546.352500", "154547.842500", "154549.332500", "154550.822500", "154552.312500", "154553.802500", "154555.292500", "154556.782500", "154558.272500", "154559.762500", "154601.252500"],
      "ContentTime": ["154227.005000", "154227.008000", "154227.010000", "154227.013000", "154227.015000", "154227.018000", "154227.020000", "154227.023000", "154227.025000", "154227.028000", "154227.030000", "154227.033000", "154247.045000", "154247.048000", "154247.051000", "154247.053000", "154247.056000", "154247.058000", "154247.061000", "154247.063000", "154247.066000", "154247.068000", "154247.071000", "154247.073000", "154247.075000", "154247.078000", "154247.081000", "154247.083000", "154247.086000", "154247.088000", "154247.091000", "154247.093000", "154306.987000", "154306.990000", "154306.993000", "154306.995000", "154306.998000", "154307.001000", "154307.004000", "154307.006000", "154307.008000", "154307.011000", "154307.013000", "154307.016000", "154307.018000", "154307.021000", "154307.023000", "154307.026000", "154307.028000", "154307.031000", "154307.033000", "154307.036000", "154307.038000", "154326.986000", "154326.989000", "154326.991000", "154326.994000", "154326.996000", "154327.000000", "154327.002000", "154327.005000", "154327.007000", "154327.010000", "154327.012000", "154327.015000", "154327.017000", "154327.020000", "154327.022000", "154327.025000", "154327.027000", "154327.030000", "154327.032000", "154327.035000", "154346.985000", "154346.988000", "154346.990000", "154346.993000", "154346.995000", "154346.998000", "154347.001000", "154347.004000", "154347.006000", "154347.009000", "154347.012000", "154347.014000", "154347.017000", "154347.019000", "154347.022000", "154347.024000", "154347.027000", "154347.029000", "154347.031000", "154347.034000", "154427.051000", "154427.054000", "154427.057000", "154427.059000", "154427.062000", "154427.065000", "154427.076000", "154427.078000", "154427.081000", "154427.083000", "154427.086000", "154427.088000", "154427.091000", "154427.093000", "154427.096000", "154427.098000", "154427.101000", "154427.104000", "154427.106000", "154427.109000", "154427.111000", "154427.114000", "154427.116000", "154427.119000", "154427.121000", "154427.124000", "154427.126000", "154427.129000", "154427.131000", "154427.134000", "154427.136000", "154507.026000", "154507.029000", "154507.031000", "154507.034000", "154507.036000", "154507.039000", "154507.042000", "154507.044000", "154507.047000", "154507.049000", "154507.052000", "154507.054000", "154507.057000", "154507.059000", "154507.062000", "154507.064000", "154507.067000", "154507.069000", "154507.072000", "154507.074000", "154507.077000", "154507.080000", "154507.082000", "154507.085000", "154507.087000", "154507.090000", "154507.093000", "154547.057000", "154547.060000", "154547.062000", "154547.065000", "154547.067000", "154547.070000", "154547.072000", "154547.075000", "154547.077000", "154547.080000", "154547.082000", "154547.085000", "154547.087000", "154547.090000", "154547.092000", "154547.095000", "154547.097000", "154547.100000", "154547.102000", "154547.105000", "154547.107000", "154547.110000", "154547.112000", "154547.115000", "154547.117000", "154547.120000", "154547.122000", "154604.004000", "154604.007000", "154604.010000", "154604.012000", "154604.015000", "154604.017000", "154604.020000", "154604.023000", "154604.025000", "154604.028000", "154604.030000", "154604.033000"],
      "InstanceCreationTime": ["154227.005000", "154227.008000", "154227.010000", "154227.013000", "154227.015000", "154227.018000", "154227.020000", "154227.023000", "154227.025000", "154227.028000", "154227.030000", "154227.033000", "154247.045000", "154247.048000", "154247.051000", "154247.053000", "154247.056000", "154247.058000", "154247.061000", "154247.063000", "154247.066000", "154247.068000", "154247.071000", "154247.073000", "154247.075000", "154247.078000", "154247.081000", "154247.083000", "154247.086000", "154247.088000", "154247.091000", "154247.093000", "154306.987000", "154306.990000", "154306.993000", "154306.995000", "154306.998000", "154307.001000", "154307.004000", "154307.006000", "154307.008000", "154307.011000", "154307.013000", "154307.016000", "154307.018000", "154307.021000", "154307.023000", "154307.026000", "154307.028000", "154307.031000", "154307.033000", "154307.036000", "154307.038000", "154326.986000", "154326.989000", "154326.991000", "154326.994000", "154326.996000", "154327.000000", "154327.002000", "154327.005000", "154327.007000", "154327.010000", "154327.012000", "154327.015000", "154327.017000", "154327.020000", "154327.022000", "154327.025000", "154327.027000", "154327.030000", "154327.032000", "154327.035000", "154346.985000", "154346.988000", "154346.990000", "154346.993000", "154346.995000", "154346.998000", "154347.001000", "154347.004000", "154347.006000", "154347.009000", "154347.012000", "154347.014000", "154347.017000", "154347.019000", "154347.022000", "154347.024000", "154347.027000", "154347.029000", "154347.031000", "154347.034000", "154427.051000", "154427.054000", "154427.057000", "154427.059000", "154427.062000", "154427.065000", "154427.076000", "154427.078000", "154427.081000", "154427.083000", "154427.086000", "154427.088000", "154427.091000", "154427.093000", "154427.096000", "154427.098000", "154427.101000", "154427.104000", "154427.106000", "154427.109000", "154427.111000", "154427.114000", "154427.116000", "154427.119000", "154427.121000", "154427.124000", "154427.126000", "154427.129000", "154427.131000", "154427.134000", "154427.136000", "154507.026000", "154507.029000", "154507.031000", "154507.034000", "154507.036000", "154507.039000", "154507.042000", "154507.044000", "154507.047000", "154507.049000", "154507.052000", "154507.054000", "154507.057000", "154507.059000", "154507.062000", "154507.064000", "154507.067000", "154507.069000", "154507.072000", "154507.074000", "154507.077000", "154507.080000", "154507.082000", "154507.085000", "154507.087000", "154507.090000", "154507.093000", "154547.057000", "154547.060000", "154547.062000", "154547.065000", "154547.067000", "154547.070000", "154547.072000", "154547.075000", "154547.077000", "154547.080000", "154547.082000", "154547.085000", "154547.087000", "154547.090000", "154547.092000", "154547.095000", "154547.097000", "154547.100000", "154547.102000", "154547.105000", "154547.107000", "154547.110000", "154547.112000", "154547.115000", "154547.117000", "154547.120000", "154547.122000", "154604.004000", "154604.007000", "154604.010000", "154604.012000", "154604.015000", "154604.017000", "154604.020000", "154604.023000", "154604.025000", "154604.028000", "154604.030000", "154604.033000"],
      "InstanceNumber": [1, 2, 3, 4, 5, 6, 7, 8, 9, 10, 11, 12, 13, 14, 15, 16, 17, 18, 19, 20, 21, 22, 23, 24, 25, 26, 27, 28, 29, 30, 31, 32, 33, 34, 35, 36, 37, 38, 39, 40, 41, 42, 43, 44, 45, 46, 47, 48, 49, 50, 51, 52, 53, 54, 55, 56, 57, 58, 59, 60, 61, 62, 63, 64, 65, 66, 67, 68, 69, 70, 71, 72, 73, 74, 75, 76, 77, 78, 79, 80, 81, 82, 83, 84, 85, 86, 87, 88, 89, 90, 91, 92, 93, 94, 95, 96, 97, 98, 99, 100, 101, 102, 103, 104, 105, 106, 107, 108, 109, 110, 111, 112, 113, 114, 115, 116, 117, 118, 119, 120, 121, 122, 123, 124, 125, 126, 127, 128, 129, 130, 131, 132, 133, 134, 135, 136, 137, 138, 139, 140, 141, 142, 143, 144, 145, 146, 147, 148, 149, 150, 151, 152, 153, 154, 155, 156, 157, 158, 159, 160, 161, 162, 163, 164, 165, 166, 167, 168, 169, 170, 171, 172, 173, 174, 175, 176, 177, 178, 179, 180, 181, 182, 183, 184, 185, 186, 187, 188, 189, 190],
      "WindowCenter": [4804.0, 4816.0, 4808.0, 4832.0, 4808.0, 4832.0, 4806.0, 4806.0, 4806.0, 4832.0, 4810.0, 4810.0, 4830.0, 4806.0, 4830.0, 4806.0, 4806.0, 4804.0, 4830.0, 4814.0, 4810.0, 4828.0, 4828.0, 4806.0, 4832.0, 4808.0, 4808.0, 4828.0, 4808.0, 4810.0, 4834.0, 4806.0, 4830.0, 4828.0, 4808.0, 4832.0, 4828.0, 4810.0, 4808.0, 4806.0, 4806.0, 4806.0, 4806.0, 4814.0, 4808.0, 4804.0, 4830.0, 4806.0, 4830.0, 4808.0, 4806.0, 4808.0, 4808.0, 4808.0, 4832.0, 4812.0, 4808.0, 4806.0, 4830.0, 4828.0, 4832.0, 4808.0, 4828.0, 4808.0, 4810.0, 4832.0, 4828.0, 4808.0, 4810.0, 4828.0, 4806.0, 4830.0, 4804.0, 4806.0, 4808.0, 4808.0, 4808.0, 4810.0, 4810.0, 4810.0, 4830.0, 4806.0, 4808.0, 4830.0, 4806.0, 4810.0, 4808.0, 4802.0, 4804.0, 4806.0, 4806.0, 4810.0, 4806.0, 4808.0, 4810.0, 4804.0, 4806.0, 4810.0, 4808.0, 4830.0, 4806.0, 4808.0, 4806.0, 4810.0, 4808.0, 4832.0, 4804.0, 4830.0, 4806.0, 4810.0, 4806.0, 4806.0, 4814.0, 4810.0, 4806.0, 4806.0, 4804.0, 4834.0, 4802.0, 4808.0, 4808.0, 4810.0, 4808.0, 4810.0, 4810.0, 4808.0, 4812.0, 4802.0, 4804.0, 4826.0, 4828.0, 4832.0, 4810.0, 4810.0, 4808.0, 4810.0, 4814.0, 4810.0, 4828.0, 4838.0, 4842.0, 4836.0, 4806.0, 4804.0, 4808.0, 4810.0, 4806.0, 4832.0, 4832.0, 4810.0, 4826.0, 4830.0, 4836.0, 4806.0, 4810.0, 4812.0, 4810.0, 4806.0, 4806.0, 4828.0, 4808.0, 4804.0, 4808.0, 4816.0, 4804.0, 4802.0, 4830.0, 4828.0, 4828.0, 4814.0, 4808.0, 4808.0, 4828.0, 4828.0, 4832.0, 4826.0, 4804.0, 4806.0, 4808.0, 4830.0, 4810.0, 4810.0, 4806.0, 4828.0, 4830.0, 4830.0, 4830.0, 4804.0, 4812.0, 4814.0],
      "WindowWidth": [18600.0, 18622.0, 18600.0, 18626.0, 18590.0, 18624.0, 18588.0, 18606.0, 18604.0, 18638.0, 18616.0, 18606.0, 18632.0, 18600.0, 18626.0, 18592.0, 18608.0, 18596.0, 18626.0, 18620.0, 18610.0, 18626.0, 18632.0, 18600.0, 18628.0, 18598.0, 18606.0, 18628.0, 18600.0, 18606.0, 18650.0, 18606.0, 18624.0, 18624.0, 18600.0, 18630.0, 18628.0, 18608.0, 18608.0, 18596.0, 18604.0, 18600.0, 18604.0, 18620.0, 18608.0, 18590.0, 18620.0, 18596.0, 18628.0, 18602.0, 18604.0, 18608.0, 18606.0, 18606.0, 18640.0, 18622.0, 18608.0, 18592.0, 18624.0, 18624.0, 18622.0, 18600.0, 18630.0, 18604.0, 18618.0, 18636.0, 18634.0, 18612.0, 18604.0, 18628.0, 18604.0, 18624.0, 18598.0, 18604.0, 18596.0, 18604.0, 18610.0, 18602.0, 18608.0, 18612.0, 18630.0, 18598.0, 18600.0, 18628.0, 18602.0, 18608.0, 18608.0, 18592.0, 18606.0, 18604.0, 18598.0, 18614.0, 18610.0, 18598.0, 18610.0, 18594.0, 18600.0, 18612.0, 18608.0, 18626.0, 18604.0, 18604.0, 18592.0, 18604.0, 18612.0, 18632.0, 18592.0, 18626.0, 18598.0, 18608.0, 18602.0, 18610.0, 18622.0, 18618.0, 18608.0, 18600.0, 18592.0, 18630.0, 18584.0, 18600.0, 18606.0, 18610.0, 18618.0, 18620.0, 18604.0, 18614.0, 18620.0, 18600.0, 18592.0, 18616.0, 18620.0, 18624.0, 18610.0, 18616.0, 18612.0, 18618.0, 18616.0, 18620.0, 18622.0, 18626.0, 18636.0, 18628.0, 18604.0, 18606.0, 18616.0, 18618.0, 18616.0, 18642.0, 18646.0, 18616.0, 18628.0, 18620.0, 18624.0, 18602.0, 18616.0, 18622.0, 18620.0, 18604.0, 18602.0, 18630.0, 18612.0, 18610.0, 18610.0, 18622.0, 18614.0, 18598.0, 18626.0, 18624.0, 18626.0, 18618.0, 18614.0, 18612.0, 18626.0, 18626.0, 18628.0, 18624.0, 18596.0, 18604.0, 18608.0, 18646.0, 18614.0, 18622.0, 18598.0, 18624.0, 18626.0, 18628.0, 18624.0, 18600.0, 18622.0, 18608.0]
    },
    "slices": {}
  }
}