{
  "AcquisitionMatrixPE": 104,
  "AcquisitionNumber": 1,
  "AcquisitionTime": "16:01:48.737500",
  "BandwidthPerPixelPhaseEncode": 17.17,
  "BaseResolution": 104,
  "BodyPartExamined": "BRAIN",
  "CoilString": "HC1-7;NC1_2",
  "ConsistencyInfo": "N4_VE11C_LATEST_20160120",
  "ConversionSoftware": "dcm2niix",
  "ConversionSoftwareVersion": "v1.0.20190902",
  "DerivedVendorReportedEchoSpacing": 0.000560011,
  "DeviceSerialNumber": "167006",
  "DwellTime": 2.1e-06,
  "EchoTime": 0.037,
  "EchoTrainLength": 104,
  "EffectiveEchoSpacing": 0.000560011,
  "FlipAngle": 52,
  "ImageComments": "Unaliased_MB4_PE3_LB",
  "ImageOrientationPatientDICOM": [0.998389, -0.052509, 0.0214888, 0.0565178, 0.953633, -0.295618],
  "ImageType": [
    "ORIGINAL",
    "PRIMARY",
    "M",
    "MB",
    "ND",
    "MOSAIC"
],
  "ImagingFrequency": 123.259,
  "InPlanePhaseEncodingDirectionDICOM": "COL",
  "InstitutionAddress": "Chemin_Queen-Mary_4565_Montreal_District_CA_H3W_1W5",
  "InstitutionName": "IUGM",
  "InstitutionalDepartmentName": "Department",
  "MRAcquisitionType": "2D",
  "MagneticFieldStrength": 3,
  "Manufacturer": "Siemens",
  "ManufacturersModelName": "Prisma_fit",
  "Modality": "MR",
  "MultibandAccelerationFactor": 4,
  "PartialFourier": 1,
  "PatientPosition": "HFS",
  "PercentPhaseFOV": 100,
  "PhaseEncodingDirection": "j",
  "PhaseEncodingSteps": 104,
  "PhaseResolution": 1,
  "PixelBandwidth": 2290,
  "ProcedureStepDescription": "memory_things",
  "ProtocolName": "func_task-things_run-6",
  "PulseSequenceDetails": "%CustomerSeq%_cmrr_mbep2d_bold",
  "ReceiveCoilActiveElements": "HC1-7;NC1,2",
  "ReceiveCoilName": "HeadNeck_64",
  "ReconMatrixPE": 104,
  "RepetitionTime": 1.49,
  "SAR": 0.0353052,
  "ScanOptions": "FS",
  "ScanningSequence": "EP",
  "SequenceName": "epfid2d1_104",
  "SequenceVariant": "SK_SS",
  "SeriesDescription": "func_task-things_run-6",
  "SeriesNumber": 25,
  "ShimSetting": [635, -7246, -8797, 619, 22, -179, -49, -7],
  "SliceThickness": 2,
  "SliceTiming": [0, 0.785, 0.0975, 0.8825, 0.1975, 0.98, 0.295, 1.0775, 0.3925, 1.1775, 0.49, 1.275, 0.5875, 1.3725, 0.6875, 0, 0.785, 0.0975, 0.8825, 0.1975, 0.98, 0.295, 1.0775, 0.3925, 1.1775, 0.49, 1.275, 0.5875, 1.3725, 0.6875, 0, 0.785, 0.0975, 0.8825, 0.1975, 0.98, 0.295, 1.0775, 0.3925, 1.1775, 0.49, 1.275, 0.5875, 1.3725, 0.6875, 0, 0.785, 0.0975, 0.8825, 0.1975, 0.98, 0.295, 1.0775, 0.3925, 1.1775, 0.49, 1.275, 0.5875, 1.3725, 0.6875],
  "SoftwareVersions": "syngo_MR_E11",
  "SpacingBetweenSlices": 2,
  "StationName": "MRC35049",
  "TaskName": "things",
  "TotalReadoutTime": 0.0576811,
  "TxRefAmp": 239.595,
  "WipMemBlock": "84eab9c2-95f5-45df-b1e9-00c731adfc1f||Sequence: R016 ve11c/master r/e634e98; Dec 19 2017 11:00:25 by eja",
  "dcmmeta_affine": [
    [-1.9967784881591797, 0.11303558945655823, 0.00993979163467884, 101.69925689697266],
    [0.10501791536808014, 1.9072661399841309, -0.5927117466926575, -72.25675201416016],
    [0.042977675795555115, 0.5912351012229919, 1.9101293087005615, -59.04114532470703],
    [0.0, 0.0, 0.0, 1.0]
],
  "dcmmeta_reorient_transform": [
    [0.0, -1.0, 0.0, 103.0],
    [1.0, 0.0, 0.0, 0.0],
    [0.0, 0.0, 1.0, 0.0],
    [0.0, 0.0, 0.0, 1.0]
],
  "dcmmeta_shape": [104, 104, 60, 190],
  "dcmmeta_slice_dim": 2,
  "dcmmeta_version": 0.6,
  "global": {
    "const": {
      "AcquisitionMatrix": [104, 0, 0, 104],
      "AngioFlag": "N",
      "BitsAllocated": 16,
      "BitsStored": 16,
      "BodyPartExamined": "BRAIN",
      "Columns": 832,
      "EchoNumbers": 1,
      "EchoTime": 37.0,
      "EchoTrainLength": 104,
      "FlipAngle": 52.0,
      "HighBit": 15,
      "ImageOrientationPatient": [0.99838922230124, -0.0525089577957, 0.02148883765892, 0.05651779299657, 0.95363305314175, -0.2956175553487],
      "ImagePositionPatient": [-881.314230432, -780.2100016614, 201.42177852746],
      "ImageType": [
        "ORIGINAL",
        "PRIMARY",
        "M",
        "MB",
        "ND",
        "MOSAIC"
],
      "ImagedNucleus": "1H",
      "ImagingFrequency": 123.258902,
      "InPlanePhaseEncodingDirection": "COL",
      "MRAcquisitionType": "2D",
      "MagneticFieldStrength": 3.0,
      "Manufacturer": "SIEMENS",
      "ManufacturerModelName": "Prisma_fit",
      "Modality": "MR",
      "NumberOfAverages": 1.0,
      "NumberOfPhaseEncodingSteps": 104,
      "PercentPhaseFieldOfView": 100.0,
      "PercentSampling": 100.0,
      "PerformedProcedureStepStartTime": "150548.435000",
      "PhotometricInterpretation": "MONOCHROME2",
      "PixelBandwidth": 2290.0,
      "PixelRepresentation": 0,
      "PixelSpacing": [2.0, 2.0],
      "ProtocolName": "func_task-things_run-6",
      "RepetitionTime": 1490.0,
      "Rows": 832,
      "SAR": 0.03530518334629,
      "SamplesPerPixel": 1,
      "ScanOptions": "FS",
      "ScanningSequence": "EP",
      "SequenceName": "epfid2d1_104",
      "SequenceVariant": [
        "SK",
        "SS"
],
      "SeriesDescription": "func_task-things_run-6",
      "SeriesNumber": 25,
      "SeriesTime": "160246.926000",
      "SliceLocation": -34.468962724489,
      "SliceThickness": 2.0,
      "SmallestImagePixelValue": 0,
      "SoftwareVersions": "syngo MR E11",
      "SpacingBetweenSlices": 1.9999999596241,
      "SpecificCharacterSet": "ISO_IR 100",
      "StudyID": "1",
      "StudyTime": "150548.348000",
      "TransmitCoilName": "Body",
      "VariableFlipAngleFlag": "N",
      "WindowCenterWidthExplanation": "Algo1",
      "dBdt": 0.0},
    "slices": {}
  },
  "time": {
    "samples": {
      "AcquisitionNumber": [1, 2, 3, 4, 5, 6, 7, 8, 9, 10, 11, 12, 13, 14, 15, 16, 17, 18, 19, 20, 21, 22, 23, 24, 25, 26, 27, 28, 29, 30, 31, 32, 33, 34, 35, 36, 37, 38, 39, 40, 41, 42, 43, 44, 45, 46, 47, 48, 49, 50, 51, 52, 53, 54, 55, 56, 57, 58, 59, 60, 61, 62, 63, 64, 65, 66, 67, 68, 69, 70, 71, 72, 73, 74, 75, 76, 77, 78, 79, 80, 81, 82, 83, 84, 85, 86, 87, 88, 89, 90, 91, 92, 93, 94, 95, 96, 97, 98, 99, 100, 101, 102, 103, 104, 105, 106, 107, 108, 109, 110, 111, 112, 113, 114, 115, 116, 117, 118, 119, 120, 121, 122, 123, 124, 125, 126, 127, 128, 129, 130, 131, 132, 133, 134, 135, 136, 137, 138, 139, 140, 141, 142, 143, 144, 145, 146, 147, 148, 149, 150, 151, 152, 153, 154, 155, 156, 157, 158, 159, 160, 161, 162, 163, 164, 165, 166, 167, 168, 169, 170, 171, 172, 173, 174, 175, 176, 177, 178, 179, 180, 181, 182, 183, 184, 185, 186, 187, 188, 189, 190],
      "AcquisitionTime": ["160148.737500", "160150.227500", "160151.717500", "160153.207500", "160154.697500", "160156.187500", "160157.677500", "160159.167500", "160200.657500", "160202.147500", "160203.637500", "160205.127500", "160206.617500", "160208.107500", "160209.597500", "160211.087500", "160212.577500", "160214.067500", "160215.557500", "160217.047500", "160218.537500", "160220.027500", "160221.517500", "160223.007500", "160224.497500", "160225.987500", "160227.477500", "160228.967500", "160230.457500", "160231.947500", "160233.437500", "160234.927500", "160236.417500", "160237.907500", "160239.397500", "160240.887500", "160242.377500", "160243.867500", "160245.357500", "160246.847500", "160248.337500", "160249.827500", "160251.317500", "160252.807500", "160254.297500", "160255.787500", "160257.277500", "160258.767500", "160300.257500", "160301.747500", "160303.237500", "160304.727500", "160306.217500", "160307.707500", "160309.197500", "160310.687500", "160312.177500", "160313.667500", "160315.157500", "160316.647500", "160318.137500", "160319.627500", "160321.117500", "160322.607500", "160324.097500", "160325.587500", "160327.077500", "160328.567500", "160330.057500", "160331.547500", "160333.037500", "160334.527500", "160336.017500", "160337.507500", "160338.997500", "160340.487500", "160341.977500", "160343.467500", "160344.957500", "160346.447500", "160347.937500", "160349.427500", "160350.917500", "160352.407500", "160353.897500", "160355.387500", "160356.877500", "160358.367500", "160359.857500", "160401.347500", "160402.837500", "160404.327500", "160405.817500", "160407.307500", "160408.797500", "160410.287500", "160411.777500", "160413.267500", "160414.757500", "160416.247500", "160417.737500", "160419.227500", "160420.717500", "160422.207500", "160423.697500", "160425.187500", "160426.677500", "160428.167500", "160429.657500", "160431.147500", "160432.637500", "160434.127500", "160435.617500", "160437.107500", "160438.597500", "160440.087500", "160441.577500", "160443.067500", "160444.557500", "160446.047500", "160447.537500", "160449.027500", "160450.517500", "160452.007500", "160453.497500", "160454.987500", "160456.477500", "160457.967500", "160459.457500", "160500.947500", "160502.437500", "160503.927500", "160505.417500", "160506.907500", "160508.397500", "160509.887500", "160511.377500", "160512.867500", "160514.357500", "160515.847500", "160517.337500", "160518.827500", "160520.317500", "160521.807500", "160523.297500", "160524.787500", "160526.277500", "160527.767500", "160529.257500", "160530.747500", "160532.237500", "160533.727500", "160535.217500", "160536.707500", "160538.197500", "160539.687500", "160541.177500", "160542.667500", "160544.157500", "160545.647500", "160547.137500", "160548.627500", "160550.117500", "160551.607500", "160553.097500", "160554.587500", "160556.077500", "160557.567500", "160559.057500", "160600.547500", "160602.037500", "160603.527500", "160605.017500", "160606.507500", "160607.997500", "160609.487500", "160610.977500", "160612.467500", "160613.957500", "160615.447500", "160616.937500", "160618.427500", "160619.917500", "160621.407500", "160622.897500", "160624.387500", "160625.877500", "160627.367500", "160628.857500", "160630.347500"],
      "ContentTime": ["160246.929000", "160246.933000", "160246.936000", "160306.874000", "160306.878000", "160306.881000", "160306.884000", "160306.888000", "160306.891000", "160306.894000", "160306.904000", "160306.908000", "160306.911000", "160306.915000", "160306.918000", "160306.921000", "160306.924000", "160306.928000", "160306.931000", "160306.934000", "160306.938000", "160306.941000", "160306.954000", "160326.874000", "160326.878000", "160326.881000", "160326.885000", "160326.888000", "160326.891000", "160326.895000", "160326.898000", "160326.902000", "160326.905000", "160326.908000", "160326.912000", "160326.915000", "160326.918000", "160326.922000", "160326.925000", "160326.928000", "160326.932000", "160326.935000", "160326.939000", "160346.874000", "160346.878000", "160346.881000", "160346.885000", "160346.888000", "160346.892000", "160346.896000", "160346.901000", "160346.905000", "160346.909000", "160346.912000", "160346.916000", "160346.919000", "160346.922000", "160346.926000", "160346.929000", "160346.932000", "160346.936000", "160346.939000", "160346.942000", "160406.874000", "160406.878000", "160406.881000", "160406.885000", "160406.888000", "160406.891000", "160406.895000", "160406.898000", "160406.901000", "160406.905000", "160406.909000", "160406.912000", "160406.915000", "160406.919000", "160406.922000", "160406.925000", "160406.929000", "160406.932000", "160406.936000", "160406.939000", "160406.942000", "160426.874000", "160426.878000", "160426.881000", "160426.885000", "160426.898000", "160426.901000", "160426.904000", "160426.908000", "160426.911000", "160426.915000", "160426.918000", "160426.921000", "160426.925000", "160426.928000", "160426.931000", "160426.935000", "160426.952000", "160426.955000", "160426.959000", "160426.962000", "160506.874000", "160506.878000", "160506.881000", "160506.885000", "160506.888000", "160506.891000", "160506.895000", "160506.898000", "160506.901000", "160506.905000", "160506.908000", "160506.912000", "160506.915000", "160506.918000", "160506.922000", "160506.925000", "160506.929000", "160506.932000", "160506.935000", "160506.939000", "160506.942000", "160506.946000", "160506.949000", "160506.952000", "160506.956000", "160506.959000", "160506.962000", "160506.966000", "160546.875000", "160546.878000", "160546.881000", "160546.885000", "160546.888000", "160546.891000", "160546.895000", "160546.898000", "160546.901000", "160546.905000", "160546.908000", "160546.911000", "160546.915000", "160546.918000", "160546.921000", "160546.925000", "160546.928000", "160546.931000", "160546.935000", "160546.938000", "160546.941000", "160546.945000", "160546.948000", "160546.951000", "160546.955000", "160546.958000", "160546.961000", "160626.874000", "160626.878000", "160626.881000", "160626.885000", "160626.888000", "160626.891000", "160626.895000", "160626.898000", "160626.901000", "160626.905000", "160626.908000", "160626.911000", "160626.915000", "160626.918000", "160626.921000", "160626.925000", "160626.928000", "160626.931000", "160626.935000", "160626.938000", "160626.941000", "160626.945000", "160626.948000", "160626.951000", "160626.955000", "160626.958000", "160626.961000", "160632.412000", "160632.416000", "160632.419000", "160632.423000"],
      "InstanceCreationTime": ["160246.929000", "160246.933000", "160246.936000", "160306.874000", "160306.878000", "160306.881000", "160306.884000", "160306.888000", "160306.891000", "160306.894000", "160306.904000", "160306.908000", "160306.911000", "160306.915000", "160306.918000", "160306.921000", "160306.924000", "160306.928000", "160306.931000", "160306.934000", "160306.938000", "160306.941000", "160306.954000", "160326.874000", "160326.878000", "160326.881000", "160326.885000", "160326.888000", "160326.891000", "160326.895000", "160326.898000", "160326.902000", "160326.905000", "160326.908000", "160326.912000", "160326.915000", "160326.918000", "160326.922000", "160326.925000", "160326.928000", "160326.932000", "160326.935000", "160326.939000", "160346.874000", "160346.878000", "160346.881000", "160346.885000", "160346.888000", "160346.892000", "160346.896000", "160346.901000", "160346.905000", "160346.909000", "160346.912000", "160346.916000", "160346.919000", "160346.922000", "160346.926000", "160346.929000", "160346.932000", "160346.936000", "160346.939000", "160346.942000", "160406.874000", "160406.878000", "160406.881000", "160406.885000", "160406.888000", "160406.891000", "160406.895000", "160406.898000", "160406.901000", "160406.905000", "160406.909000", "160406.912000", "160406.915000", "160406.919000", "160406.922000", "160406.925000", "160406.929000", "160406.932000", "160406.936000", "160406.939000", "160406.942000", "160426.874000", "160426.878000", "160426.881000", "160426.885000", "160426.898000", "160426.901000", "160426.904000", "160426.908000", "160426.911000", "160426.915000", "160426.918000", "160426.921000", "160426.925000", "160426.928000", "160426.931000", "160426.935000", "160426.952000", "160426.955000", "160426.959000", "160426.962000", "160506.874000", "160506.878000", "160506.881000", "160506.885000", "160506.888000", "160506.891000", "160506.895000", "160506.898000", "160506.901000", "160506.905000", "160506.908000", "160506.912000", "160506.915000", "160506.918000", "160506.922000", "160506.925000", "160506.929000", "160506.932000", "160506.935000", "160506.939000", "160506.942000", "160506.946000", "160506.949000", "160506.952000", "160506.956000", "160506.959000", "160506.962000", "160506.966000", "160546.875000", "160546.878000", "160546.881000", "160546.885000", "160546.888000", "160546.891000", "160546.895000", "160546.898000", "160546.901000", "160546.905000", "160546.908000", "160546.911000", "160546.915000", "160546.918000", "160546.921000", "160546.925000", "160546.928000", "160546.931000", "160546.935000", "160546.938000", "160546.941000", "160546.945000", "160546.948000", "160546.951000", "160546.955000", "160546.958000", "160546.961000", "160626.874000", "160626.878000", "160626.881000", "160626.885000", "160626.888000", "160626.891000", "160626.895000", "160626.898000", "160626.901000", "160626.905000", "160626.908000", "160626.911000", "160626.915000", "160626.918000", "160626.921000", "160626.925000", "160626.928000", "160626.931000", "160626.935000", "160626.938000", "160626.941000", "160626.945000", "160626.948000", "160626.951000", "160626.955000", "160626.958000", "160626.961000", "160632.412000", "160632.416000", "160632.419000", "160632.423000"],
      "InstanceNumber": [1, 2, 3, 4, 5, 6, 7, 8, 9, 10, 11, 12, 13, 14, 15, 16, 17, 18, 19, 20, 21, 22, 23, 24, 25, 26, 27, 28, 29, 30, 31, 32, 33, 34, 35, 36, 37, 38, 39, 40, 41, 42, 43, 44, 45, 46, 47, 48, 49, 50, 51, 52, 53, 54, 55, 56, 57, 58, 59, 60, 61, 62, 63, 64, 65, 66, 67, 68, 69, 70, 71, 72, 73, 74, 75, 76, 77, 78, 79, 80, 81, 82, 83, 84, 85, 86, 87, 88, 89, 90, 91, 92, 93, 94, 95, 96, 97, 98, 99, 100, 101, 102, 103, 104, 105, 106, 107, 108, 109, 110, 111, 112, 113, 114, 115, 116, 117, 118, 119, 120, 121, 122, 123, 124, 125, 126, 127, 128, 129, 130, 131, 132, 133, 134, 135, 136, 137, 138, 139, 140, 141, 142, 143, 144, 145, 146, 147, 148, 149, 150, 151, 152, 153, 154, 155, 156, 157, 158, 159, 160, 161, 162, 163, 164, 165, 166, 167, 168, 169, 170, 171, 172, 173, 174, 175, 176, 177, 178, 179, 180, 181, 182, 183, 184, 185, 186, 187, 188, 189, 190],
      "LargestImagePixelValue": [45830, 44190, 44656, 43271, 43647, 44308, 43245, 43875, 43997, 44082, 43377, 43742, 43416, 43839, 43718, 43733, 43587, 43933, 43409, 41915, 41918, 42531, 43614, 44452, 44717, 44561, 43814, 43299, 42625, 42351, 42377, 42416, 42172, 41854, 41498, 42540, 42648, 42205, 41686, 42585, 42441, 42356, 42826, 41833, 41906, 42218, 42444, 41890, 41849, 41997, 42062, 41318, 41024, 42555, 41880, 42072, 41339, 41550, 40993, 41263, 41174, 40899, 42015, 42572, 41935, 41410, 41105, 42283, 42067, 41721, 41257, 41459, 41596, 41802, 41776, 42532, 41913, 41635, 41519, 42244, 42654, 42352, 42052, 41412, 42328, 42187, 41787, 42227, 42063, 42441, 42660, 41997, 42277, 42109, 42281, 42066, 41940, 42220, 42412, 42546, 42350, 42176, 42088, 41940, 42407, 42120, 42049, 42274, 42960, 41955, 43084, 44886, 43344, 43857, 43977, 43592, 43174, 42909, 41888, 41826, 41158, 41175, 41454, 41032, 41644, 41491, 40704, 40723, 40809, 40875, 41108, 40935, 41132, 40287, 40867, 40918, 40884, 40734, 40944, 40679, 40676, 40752, 40775, 41557, 41950, 42000, 41057, 41875, 41628, 41055, 40719, 41537, 41477, 42165, 42059, 41406, 41368, 41658, 41345, 41464, 41278, 41671, 41704, 42073, 41023, 41495, 41552, 41645, 41770, 41635, 41627, 41686, 41129, 42131, 41736, 41283, 41825, 42633, 42388, 41681, 42019, 42095, 41504, 41183, 42036, 41635, 41953, 41776, 41622, 42377],
      "WindowCenter": [10601.0, 10540.0, 10522.0, 10500.0, 10501.0, 10499.0, 10488.0, 10491.0, 10483.0, 10488.0, 10491.0, 10491.0, 10486.0, 10490.0, 10485.0, 10488.0, 10486.0, 10488.0, 10495.0, 10504.0, 10514.0, 10512.0, 10509.0, 10492.0, 10467.0, 10429.0, 10423.0, 10426.0, 10430.0, 10442.0, 10441.0, 10439.0, 10431.0, 10438.0, 10459.0, 10463.0, 10439.0, 10411.0, 10418.0, 10421.0, 10428.0, 10421.0, 10434.0, 10426.0, 10430.0, 10443.0, 10453.0, 10441.0, 10425.0, 10415.0, 10424.0, 10413.0, 10392.0, 10411.0, 10438.0, 10448.0, 10416.0, 10394.0, 10388.0, 10408.0, 10425.0, 10420.0, 10439.0, 10470.0, 10470.0, 10455.0, 10441.0, 10467.0, 10461.0, 10430.0, 10405.0, 10398.0, 10417.0, 10423.0, 10411.0, 10412.0, 10422.0, 10419.0, 10411.0, 10427.0, 10465.0, 10462.0, 10443.0, 10427.0, 10436.0, 10443.0, 10456.0, 10441.0, 10412.0, 10431.0, 10445.0, 10418.0, 10405.0, 10403.0, 10441.0, 10447.0, 10426.0, 10415.0, 10426.0, 10449.0, 10459.0, 10446.0, 10437.0, 10448.0, 10469.0, 10463.0, 10436.0, 10418.0, 10426.0, 10437.0, 10472.0, 10518.0, 10481.0, 10466.0, 10461.0, 10449.0, 10430.0, 10417.0, 10427.0, 10454.0, 10437.0, 10408.0, 10395.0, 10387.0, 10400.0, 10420.0, 10420.0, 10430.0, 10451.0, 10463.0, 10471.0, 10478.0, 10490.0, 10483.0, 10478.0, 10477.0, 10492.0, 10500.0, 10500.0, 10489.0, 10478.0, 10456.0, 10444.0, 10448.0, 10461.0, 10479.0, 10462.0, 10442.0, 10416.0, 10409.0, 10396.0, 10407.0, 10434.0, 10443.0, 10422.0, 10396.0, 10383.0, 10386.0, 10394.0, 10405.0, 10393.0, 10389.0, 10395.0, 10419.0, 10432.0, 10429.0, 10415.0, 10414.0, 10420.0, 10429.0, 10444.0, 10450.0, 10458.0, 10461.0, 10451.0, 10457.0, 10484.0, 10507.0, 10485.0, 10465.0, 10471.0, 10489.0, 10479.0, 10474.0, 10478.0, 10474.0, 10471.0, 10470.0, 10456.0, 10460.0],
      "WindowWidth": [23055.0, 22875.0, 22802.0, 22738.0, 22727.0, 22718.0, 22693.0, 22697.0, 22677.0, 22686.0, 22693.0, 22691.0, 22683.0, 22691.0, 22679.0, 22685.0, 22683.0, 22685.0, 22704.0, 22735.0, 22760.0, 22756.0, 22740.0, 22695.0, 22635.0, 22546.0, 22540.0, 22551.0, 22557.0, 22588.0, 22590.0, 22580.0, 22560.0, 22576.0, 22623.0, 22631.0, 22582.0, 22517.0, 22534.0, 22542.0, 22558.0, 22546.0, 22572.0, 22558.0, 22565.0, 22595.0, 22617.0, 22589.0, 22555.0, 22531.0, 22552.0, 22529.0, 22483.0, 22519.0, 22586.0, 22610.0, 22539.0, 22486.0, 22475.0, 22516.0, 22556.0, 22549.0, 22590.0, 22664.0, 22669.0, 22632.0, 22604.0, 22655.0, 22647.0, 22574.0, 22513.0, 22495.0, 22539.0, 22553.0, 22528.0, 22527.0, 22555.0, 22551.0, 22536.0, 22566.0, 22652.0, 22645.0, 22605.0, 22569.0, 22585.0, 22603.0, 22633.0, 22597.0, 22532.0, 22571.0, 22607.0, 22548.0, 22515.0, 22510.0, 22597.0, 22613.0, 22564.0, 22535.0, 22561.0, 22615.0, 22636.0, 22608.0, 22589.0, 22612.0, 22660.0, 22649.0, 22589.0, 22545.0, 22558.0, 22591.0, 22672.0, 22771.0, 22681.0, 22637.0, 22619.0, 22594.0, 22550.0, 22526.0, 22550.0, 22612.0, 22576.0, 22508.0, 22479.0, 22463.0, 22493.0, 22536.0, 22543.0, 22568.0, 22612.0, 22639.0, 22656.0, 22673.0, 22701.0, 22692.0, 22675.0, 22674.0, 22707.0, 22725.0, 22723.0, 22699.0, 22673.0, 22623.0, 22596.0, 22607.0, 22638.0, 22677.0, 22643.0, 22592.0, 22535.0, 22523.0, 22492.0, 22514.0, 22571.0, 22596.0, 22551.0, 22491.0, 22458.0, 22462.0, 22482.0, 22511.0, 22482.0, 22470.0, 22487.0, 22541.0, 22576.0, 22565.0, 22533.0, 22530.0, 22541.0, 22563.0, 22596.0, 22612.0, 22629.0, 22636.0, 22618.0, 22634.0, 22694.0, 22747.0, 22696.0, 22650.0, 22663.0, 22700.0, 22680.0, 22671.0, 22676.0, 22668.0, 22662.0, 22658.0, 22630.0, 22635.0]
    },
    "slices": {}
  }
}