{
  "AcquisitionMatrixPE": 104,
  "AcquisitionNumber": 1,
  "AcquisitionTime": "14:08:23.540000",
  "BandwidthPerPixelPhaseEncode": 17.17,
  "BaseResolution": 104,
  "BodyPartExamined": "BRAIN",
  "CoilString": "HC1-7;NC1_2",
  "ConsistencyInfo": "N4_VE11C_LATEST_20160120",
  "ConversionSoftware": "dcm2niix",
  "ConversionSoftwareVersion": "v1.0.20190902",
  "DerivedVendorReportedEchoSpacing": 0.000560011,
  "DeviceSerialNumber": "167006",
  "DwellTime": 2.1e-06,
  "EchoTime": 0.037,
  "EchoTrainLength": 104,
  "EffectiveEchoSpacing": 0.000560011,
  "FlipAngle": 52,
  "ImageComments": "Unaliased_MB4_PE3_LB",
  "ImageOrientationPatientDICOM": [0.999813, 0.00138331, 0.0193075, 0.00348997, 0.968216, -0.250092],
  "ImageType": [
    "ORIGINAL",
    "PRIMARY",
    "P",
    "MB",
    "ND",
    "MOSAIC"
],
  "ImagingFrequency": 123.259,
  "InPlanePhaseEncodingDirectionDICOM": "COL",
  "InstitutionAddress": "Chemin_Queen-Mary_4565_Montreal_District_CA_H3W_1W5",
  "InstitutionName": "IUGM",
  "InstitutionalDepartmentName": "Department",
  "MRAcquisitionType": "2D",
  "MagneticFieldStrength": 3,
  "Manufacturer": "Siemens",
  "ManufacturersModelName": "Prisma_fit",
  "Modality": "MR",
  "MultibandAccelerationFactor": 4,
  "PartialFourier": 1,
  "PatientPosition": "HFS",
  "PercentPhaseFOV": 100,
  "PhaseEncodingDirection": "j",
  "PhaseEncodingSteps": 104,
  "PhaseResolution": 1,
  "PixelBandwidth": 2290,
  "ProcedureStepDescription": "memory_things",
  "ProtocolName": "func_task-things_run-5",
  "PulseSequenceDetails": "%CustomerSeq%_cmrr_mbep2d_bold",
  "ReceiveCoilActiveElements": "HC1-7;NC1,2",
  "ReceiveCoilName": "HeadNeck_64",
  "ReconMatrixPE": 104,
  "RepetitionTime": 1.49,
  "SAR": 0.054461,
  "ScanOptions": "FS",
  "ScanningSequence": "EP",
  "SequenceName": "epfid2d1_104",
  "SequenceVariant": "SK_SS",
  "SeriesDescription": "func_task-things_run-5",
  "SeriesNumber": 26,
  "ShimSetting": [636, -7203, -8818, 697, 49, 6, 89, -23],
  "SliceThickness": 2,
  "SliceTiming": [0, 0.785, 0.0975, 0.8825, 0.1975, 0.98, 0.295, 1.0775, 0.3925, 1.1775, 0.49, 1.275, 0.5875, 1.3725, 0.6875, 0, 0.785, 0.0975, 0.8825, 0.1975, 0.98, 0.295, 1.0775, 0.3925, 1.1775, 0.49, 1.275, 0.5875, 1.3725, 0.6875, 0, 0.785, 0.0975, 0.8825, 0.1975, 0.98, 0.295, 1.0775, 0.3925, 1.1775, 0.49, 1.275, 0.5875, 1.3725, 0.6875, 0, 0.785, 0.0975, 0.8825, 0.1975, 0.98, 0.295, 1.0775, 0.3925, 1.1775, 0.49, 1.275, 0.5875, 1.3725, 0.6875],
  "SoftwareVersions": "syngo_MR_E11",
  "SpacingBetweenSlices": 2,
  "StationName": "MRC35049",
  "TaskName": "things",
  "TotalReadoutTime": 0.0576811,
  "TxRefAmp": 244.211,
  "WipMemBlock": "91a0e1e9-6ad3-4910-a62c-6996db89e2d6||Sequence: R016 ve11c/master r/e634e98; Dec 19 2017 11:00:25 by eja",
  "dcmmeta_affine": [
    [-1.999625325202942, 0.006979935336858034, 0.03807956725358963, 107.94873809814453],
    [-0.002766629680991173, 1.9364312887191772, -0.5002259612083435, -75.39952850341797],
    [0.03861500322818756, 0.500184953212738, 1.9360588788986206, -69.02973175048828],
    [0.0, 0.0, 0.0, 1.0]
],
  "dcmmeta_reorient_transform": [
    [0.0, -1.0, 0.0, 103.0],
    [1.0, 0.0, 0.0, 0.0],
    [0.0, 0.0, 1.0, 0.0],
    [0.0, 0.0, 0.0, 1.0]
],
  "dcmmeta_shape": [104, 104, 60, 190],
  "dcmmeta_slice_dim": 2,
  "dcmmeta_version": 0.6,
  "global": {
    "const": {
      "AcquisitionMatrix": [104, 0, 0, 104],
      "AngioFlag": "N",
      "BitsAllocated": 16,
      "BitsStored": 16,
      "BodyPartExamined": "BRAIN",
      "Columns": 832,
      "EchoNumbers": 1,
      "EchoTime": 37.0,
      "EchoTrainLength": 104,
      "FlipAngle": 52.0,
      "HighBit": 15,
      "ImageOrientationPatient": [0.99981263584414, 0.00138331481867, 0.01930750233724, 0.00348996761135, 0.96821566837262, -0.2500924621891],
      "ImagePositionPatient": [-839.07196384414, -829.92095553187, 150.50076893932],
      "ImageType": [
        "ORIGINAL",
        "PRIMARY",
        "P",
        "MB",
        "ND",
        "MOSAIC"
],
      "ImagedNucleus": "1H",
      "ImagingFrequency": 123.258998,
      "InPlanePhaseEncodingDirection": "COL",
      "LargestImagePixelValue": 4095,
      "MRAcquisitionType": "2D",
      "MagneticFieldStrength": 3.0,
      "Manufacturer": "SIEMENS",
      "ManufacturerModelName": "Prisma_fit",
      "Modality": "MR",
      "NumberOfAverages": 1.0,
      "NumberOfPhaseEncodingSteps": 104,
      "PercentPhaseFieldOfView": 100.0,
      "PercentSampling": 100.0,
      "PerformedProcedureStepStartTime": "120539.892000",
      "PhotometricInterpretation": "MONOCHROME2",
      "PixelBandwidth": 2290.0,
      "PixelRepresentation": 0,
      "PixelSpacing": [2.0, 2.0],
      "ProtocolName": "func_task-things_run-5",
      "RepetitionTime": 1490.0,
      "RescaleIntercept": -4096.0,
      "RescaleSlope": 2.0,
      "RescaleType": "US",
      "Rows": 832,
      "SAR": 0.05446099144418,
      "SamplesPerPixel": 1,
      "ScanOptions": "FS",
      "ScanningSequence": "EP",
      "SequenceName": "epfid2d1_104",
      "SequenceVariant": [
        "SK",
        "SS"
],
      "SeriesDescription": "func_task-things_run-5",
      "SeriesNumber": 26,
      "SeriesTime": "140954.951000",
      "SliceLocation": -45.909086798426,
      "SliceThickness": 2.0,
      "SmallestImagePixelValue": 0,
      "SoftwareVersions": "syngo MR E11",
      "SpacingBetweenSlices": 2.0000000163956,
      "SpecificCharacterSet": "ISO_IR 100",
      "StudyID": "1",
      "StudyTime": "120539.790000",
      "TransmitCoilName": "Body",
      "VariableFlipAngleFlag": "N",
      "WindowCenterWidthExplanation": "Algo1",
      "dBdt": 0.0},
    "slices": {}
  },
  "time": {
    "samples": {
      "AcquisitionNumber": [1, 2, 3, 4, 5, 6, 7, 8, 9, 10, 11, 12, 13, 14, 15, 16, 17, 18, 19, 20, 21, 22, 23, 24, 25, 26, 27, 28, 29, 30, 31, 32, 33, 34, 35, 36, 37, 38, 39, 40, 41, 42, 43, 44, 45, 46, 47, 48, 49, 50, 51, 52, 53, 54, 55, 56, 57, 58, 59, 60, 61, 62, 63, 64, 65, 66, 67, 68, 69, 70, 71, 72, 73, 74, 75, 76, 77, 78, 79, 80, 81, 82, 83, 84, 85, 86, 87, 88, 89, 90, 91, 92, 93, 94, 95, 96, 97, 98, 99, 100, 101, 102, 103, 104, 105, 106, 107, 108, 109, 110, 111, 112, 113, 114, 115, 116, 117, 118, 119, 120, 121, 122, 123, 124, 125, 126, 127, 128, 129, 130, 131, 132, 133, 134, 135, 136, 137, 138, 139, 140, 141, 142, 143, 144, 145, 146, 147, 148, 149, 150, 151, 152, 153, 154, 155, 156, 157, 158, 159, 160, 161, 162, 163, 164, 165, 166, 167, 168, 169, 170, 171, 172, 173, 174, 175, 176, 177, 178, 179, 180, 181, 182, 183, 184, 185, 186, 187, 188, 189, 190],
      "AcquisitionTime": ["140823.540000", "140825.030000", "140826.520000", "140828.010000", "140829.500000", "140830.990000", "140832.480000", "140833.970000", "140835.460000", "140836.950000", "140838.440000", "140839.930000", "140841.420000", "140842.910000", "140844.400000", "140845.890000", "140847.380000", "140848.870000", "140850.360000", "140851.850000", "140853.340000", "140854.830000", "140856.320000", "140857.810000", "140859.300000", "140900.790000", "140902.280000", "140903.770000", "140905.260000", "140906.750000", "140908.240000", "140909.730000", "140911.220000", "140912.710000", "140914.200000", "140915.690000", "140917.180000", "140918.670000", "140920.160000", "140921.650000", "140923.140000", "140924.630000", "140926.120000", "140927.610000", "140929.100000", "140930.590000", "140932.080000", "140933.570000", "140935.060000", "140936.550000", "140938.040000", "140939.530000", "140941.020000", "140942.510000", "140944.000000", "140945.490000", "140946.980000", "140948.470000", "140949.960000", "140951.450000", "140952.940000", "140954.430000", "140955.920000", "140957.410000", "140958.900000", "141000.390000", "141001.880000", "141003.370000", "141004.860000", "141006.350000", "141007.840000", "141009.330000", "141010.820000", "141012.310000", "141013.800000", "141015.290000", "141016.780000", "141018.270000", "141019.760000", "141021.250000", "141022.740000", "141024.230000", "141025.720000", "141027.210000", "141028.700000", "141030.190000", "141031.680000", "141033.170000", "141034.660000", "141036.150000", "141037.640000", "141039.130000", "141040.620000", "141042.110000", "141043.600000", "141045.090000", "141046.580000", "141048.070000", "141049.560000", "141051.050000", "141052.540000", "141054.030000", "141055.520000", "141057.010000", "141058.500000", "141059.990000", "141101.480000", "141102.970000", "141104.460000", "141105.950000", "141107.440000", "141108.930000", "141110.420000", "141111.910000", "141113.400000", "141114.890000", "141116.380000", "141117.870000", "141119.360000", "141120.850000", "141122.340000", "141123.830000", "141125.320000", "141126.810000", "141128.300000", "141129.790000", "141131.280000", "141132.770000", "141134.260000", "141135.750000", "141137.240000", "141138.730000", "141140.220000", "141141.710000", "141143.200000", "141144.690000", "141146.180000", "141147.670000", "141149.160000", "141150.650000", "141152.140000", "141153.630000", "141155.120000", "141156.610000", "141158.100000", "141159.590000", "141201.080000", "141202.570000", "141204.060000", "141205.550000", "141207.040000", "141208.530000", "141210.020000", "141211.510000", "141213.000000", "141214.490000", "141215.980000", "141217.470000", "141218.960000", "141220.450000", "141221.940000", "141223.430000", "141224.920000", "141226.410000", "141227.900000", "141229.390000", "141230.880000", "141232.370000", "141233.860000", "141235.350000", "141236.840000", "141238.330000", "141239.820000", "141241.310000", "141242.800000", "141244.290000", "141245.780000", "141247.270000", "141248.760000", "141250.250000", "141251.740000", "141253.230000", "141254.720000", "141256.210000", "141257.700000", "141259.190000", "141300.680000", "141302.170000", "141303.660000", "141305.150000"],
      "ContentTime": ["140954.953000", "140954.956000", "140954.958000", "140954.961000", "140954.963000", "140954.966000", "140954.968000", "140954.971000", "140954.974000", "140954.976000", "140954.979000", "140954.981000", "140954.984000", "140954.987000", "140954.989000", "140954.992000", "140954.994000", "140954.997000", "140955.005000", "140955.008000", "140955.010000", "140955.013000", "140955.015000", "140955.018000", "140955.020000", "140955.023000", "140955.025000", "140955.028000", "140955.030000", "140955.033000", "140955.036000", "140955.038000", "140955.041000", "140955.044000", "140955.047000", "140955.050000", "141014.796000", "141014.799000", "141014.802000", "141014.804000", "141014.819000", "141014.822000", "141014.824000", "141014.827000", "141014.829000", "141014.832000", "141014.834000", "141014.837000", "141014.839000", "141014.842000", "141014.844000", "141014.847000", "141014.849000", "141014.852000", "141014.854000", "141014.857000", "141034.837000", "141034.840000", "141034.842000", "141034.845000", "141034.848000", "141034.850000", "141034.853000", "141034.856000", "141034.858000", "141034.861000", "141034.863000", "141034.866000", "141034.869000", "141034.871000", "141034.874000", "141034.876000", "141034.879000", "141034.882000", "141034.884000", "141034.887000", "141034.889000", "141054.878000", "141054.971000", "141054.974000", "141054.976000", "141054.979000", "141054.981000", "141054.984000", "141054.987000", "141054.989000", "141054.992000", "141054.994000", "141054.997000", "141055.000000", "141055.003000", "141055.006000", "141055.019000", "141055.022000", "141055.024000", "141055.027000", "141055.030000", "141134.844000", "141134.846000", "141134.849000", "141134.852000", "141134.854000", "141134.857000", "141134.865000", "141134.868000", "141134.870000", "141134.873000", "141134.875000", "141134.878000", "141134.880000", "141134.883000", "141134.886000", "141134.888000", "141134.891000", "141134.893000", "141134.896000", "141134.898000", "141134.901000", "141134.903000", "141134.912000", "141134.914000", "141134.917000", "141134.919000", "141134.922000", "141134.925000", "141134.927000", "141134.930000", "141214.851000", "141214.853000", "141214.856000", "141214.858000", "141214.861000", "141214.863000", "141214.866000", "141214.869000", "141214.871000", "141214.874000", "141214.876000", "141214.879000", "141214.881000", "141214.884000", "141214.887000", "141214.889000", "141214.892000", "141214.894000", "141214.897000", "141214.899000", "141214.902000", "141214.909000", "141214.912000", "141214.915000", "141214.917000", "141214.920000", "141214.922000", "141254.819000", "141254.822000", "141254.825000", "141254.827000", "141254.830000", "141254.832000", "141254.835000", "141254.837000", "141254.840000", "141254.842000", "141254.845000", "141254.847000", "141254.850000", "141254.852000", "141254.855000", "141254.858000", "141254.866000", "141254.869000", "141254.871000", "141254.874000", "141254.877000", "141254.879000", "141254.882000", "141254.884000", "141254.887000", "141254.890000", "141254.892000", "141307.789000", "141307.792000", "141307.795000", "141307.797000", "141307.809000", "141307.812000", "141307.814000", "141307.817000", "141307.819000"],
      "InstanceCreationTime": ["140954.953000", "140954.956000", "140954.958000", "140954.961000", "140954.963000", "140954.966000", "140954.968000", "140954.971000", "140954.974000", "140954.976000", "140954.979000", "140954.981000", "140954.984000", "140954.987000", "140954.989000", "140954.992000", "140954.994000", "140954.997000", "140955.005000", "140955.008000", "140955.010000", "140955.013000", "140955.015000", "140955.018000", "140955.020000", "140955.023000", "140955.025000", "140955.028000", "140955.030000", "140955.033000", "140955.036000", "140955.038000", "140955.041000", "140955.044000", "140955.047000", "140955.050000", "141014.796000", "141014.799000", "141014.802000", "141014.804000", "141014.819000", "141014.822000", "141014.824000", "141014.827000", "141014.829000", "141014.832000", "141014.834000", "141014.837000", "141014.839000", "141014.842000", "141014.844000", "141014.847000", "141014.849000", "141014.852000", "141014.854000", "141014.857000", "141034.837000", "141034.840000", "141034.842000", "141034.845000", "141034.848000", "141034.850000", "141034.853000", "141034.856000", "141034.858000", "141034.861000", "141034.863000", "141034.866000", "141034.869000", "141034.871000", "141034.874000", "141034.876000", "141034.879000", "141034.882000", "141034.884000", "141034.887000", "141034.889000", "141054.878000", "141054.971000", "141054.974000", "141054.976000", "141054.979000", "141054.981000", "141054.984000", "141054.987000", "141054.989000", "141054.992000", "141054.994000", "141054.997000", "141055.000000", "141055.003000", "141055.006000", "141055.019000", "141055.022000", "141055.024000", "141055.027000", "141055.030000", "141134.844000", "141134.846000", "141134.849000", "141134.852000", "141134.854000", "141134.857000", "141134.865000", "141134.868000", "141134.870000", "141134.873000", "141134.875000", "141134.878000", "141134.880000", "141134.883000", "141134.886000", "141134.888000", "141134.891000", "141134.893000", "141134.896000", "141134.898000", "141134.901000", "141134.903000", "141134.912000", "141134.914000", "141134.917000", "141134.919000", "141134.922000", "141134.925000", "141134.927000", "141134.930000", "141214.851000", "141214.853000", "141214.856000", "141214.858000", "141214.861000", "141214.863000", "141214.866000", "141214.869000", "141214.871000", "141214.874000", "141214.876000", "141214.879000", "141214.881000", "141214.884000", "141214.887000", "141214.889000", "141214.892000", "141214.894000", "141214.897000", "141214.899000", "141214.902000", "141214.909000", "141214.912000", "141214.915000", "141214.917000", "141214.920000", "141214.922000", "141254.819000", "141254.822000", "141254.825000", "141254.827000", "141254.830000", "141254.832000", "141254.835000", "141254.837000", "141254.840000", "141254.842000", "141254.845000", "141254.847000", "141254.850000", "141254.852000", "141254.855000", "141254.858000", "141254.866000", "141254.869000", "141254.871000", "141254.874000", "141254.877000", "141254.879000", "141254.882000", "141254.884000", "141254.887000", "141254.890000", "141254.892000", "141307.789000", "141307.792000", "141307.795000", "141307.797000", "141307.809000", "141307.812000", "141307.814000", "141307.817000", "141307.819000"],
      "InstanceNumber": [1, 2, 3, 4, 5, 6, 7, 8, 9, 10, 11, 12, 13, 14, 15, 16, 17, 18, 19, 20, 21, 22, 23, 24, 25, 26, 27, 28, 29, 30, 31, 32, 33, 34, 35, 36, 37, 38, 39, 40, 41, 42, 43, 44, 45, 46, 47, 48, 49, 50, 51, 52, 53, 54, 55, 56, 57, 58, 59, 60, 61, 62, 63, 64, 65, 66, 67, 68, 69, 70, 71, 72, 73, 74, 75, 76, 77, 78, 79, 80, 81, 82, 83, 84, 85, 86, 87, 88, 89, 90, 91, 92, 93, 94, 95, 96, 97, 98, 99, 100, 101, 102, 103, 104, 105, 106, 107, 108, 109, 110, 111, 112, 113, 114, 115, 116, 117, 118, 119, 120, 121, 122, 123, 124, 125, 126, 127, 128, 129, 130, 131, 132, 133, 134, 135, 136, 137, 138, 139, 140, 141, 142, 143, 144, 145, 146, 147, 148, 149, 150, 151, 152, 153, 154, 155, 156, 157, 158, 159, 160, 161, 162, 163, 164, 165, 166, 167, 168, 169, 170, 171, 172, 173, 174, 175, 176, 177, 178, 179, 180, 181, 182, 183, 184, 185, 186, 187, 188, 189, 190],
      "WindowCenter": [4860.0, 4856.0, 4858.0, 4856.0, 4854.0, 4858.0, 4856.0, 4856.0, 4856.0, 4856.0, 4858.0, 4854.0, 4856.0, 4856.0, 4858.0, 4858.0, 4856.0, 4858.0, 4856.0, 4860.0, 4856.0, 4858.0, 4862.0, 4856.0, 4854.0, 4856.0, 4854.0, 4858.0, 4860.0, 4856.0, 4856.0, 4860.0, 4862.0, 4856.0, 4858.0, 4858.0, 4862.0, 4854.0, 4858.0, 4854.0, 4860.0, 4854.0, 4860.0, 4856.0, 4856.0, 4854.0, 4860.0, 4856.0, 4862.0, 4858.0, 4860.0, 4858.0, 4858.0, 4856.0, 4858.0, 4882.0, 4858.0, 4860.0, 4852.0, 4858.0, 4858.0, 4860.0, 4860.0, 4860.0, 4862.0, 4854.0, 4862.0, 4860.0, 4856.0, 4858.0, 4856.0, 4862.0, 4856.0, 4860.0, 4858.0, 4860.0, 4862.0, 4858.0, 4860.0, 4860.0, 4858.0, 4856.0, 4860.0, 4856.0, 4858.0, 4860.0, 4860.0, 4858.0, 4856.0, 4858.0, 4854.0, 4858.0, 4860.0, 4858.0, 4858.0, 4858.0, 4858.0, 4860.0, 4858.0, 4856.0, 4860.0, 4856.0, 4862.0, 4858.0, 4856.0, 4854.0, 4858.0, 4858.0, 4858.0, 4858.0, 4856.0, 4860.0, 4858.0, 4856.0, 4860.0, 4860.0, 4860.0, 4856.0, 4858.0, 4858.0, 4856.0, 4858.0, 4862.0, 4854.0, 4860.0, 4858.0, 4860.0, 4860.0, 4858.0, 4858.0, 4856.0, 4856.0, 4860.0, 4858.0, 4856.0, 4860.0, 4854.0, 4860.0, 4856.0, 4860.0, 4860.0, 4884.0, 4854.0, 4854.0, 4854.0, 4860.0, 4858.0, 4858.0, 4858.0, 4862.0, 4862.0, 4860.0, 4860.0, 4860.0, 4862.0, 4858.0, 4858.0, 4858.0, 4856.0, 4862.0, 4858.0, 4862.0, 4860.0, 4860.0, 4858.0, 4860.0, 4858.0, 4860.0, 4856.0, 4858.0, 4858.0, 4858.0, 4862.0, 4860.0, 4860.0, 4860.0, 4856.0, 4856.0, 4858.0, 4858.0, 4858.0, 4854.0, 4858.0, 4858.0, 4860.0, 4858.0, 4860.0, 4864.0, 4888.0, 4888.0],
      "WindowWidth": [18612.0, 18608.0, 18606.0, 18606.0, 18610.0, 18608.0, 18610.0, 18608.0, 18610.0, 18606.0, 18612.0, 18600.0, 18608.0, 18614.0, 18610.0, 18610.0, 18608.0, 18614.0, 18604.0, 18608.0, 18606.0, 18612.0, 18608.0, 18612.0, 18604.0, 18610.0, 18606.0, 18610.0, 18606.0, 18610.0, 18610.0, 18612.0, 18612.0, 18604.0, 18610.0, 18610.0, 18614.0, 18606.0, 18610.0, 18606.0, 18610.0, 18606.0, 18612.0, 18608.0, 18606.0, 18602.0, 18614.0, 18608.0, 18614.0, 18612.0, 18610.0, 18612.0, 18608.0, 18606.0, 18614.0, 18648.0, 18608.0, 18610.0, 18604.0, 18610.0, 18608.0, 18610.0, 18618.0, 18616.0, 18610.0, 18610.0, 18612.0, 18610.0, 18604.0, 18610.0, 18602.0, 18608.0, 18602.0, 18608.0, 18612.0, 18610.0, 18610.0, 18614.0, 18612.0, 18612.0, 18606.0, 18606.0, 18612.0, 18604.0, 18608.0, 18612.0, 18612.0, 18606.0, 18610.0, 18608.0, 18604.0, 18612.0, 18612.0, 18606.0, 18608.0, 18608.0, 18610.0, 18614.0, 18610.0, 18606.0, 18614.0, 18610.0, 18612.0, 18608.0, 18610.0, 18610.0, 18614.0, 18608.0, 18606.0, 18610.0, 18612.0, 18602.0, 18610.0, 18610.0, 18612.0, 18616.0, 18614.0, 18610.0, 18606.0, 18608.0, 18608.0, 18608.0, 18614.0, 18604.0, 18604.0, 18608.0, 18610.0, 18616.0, 18608.0, 18608.0, 18610.0, 18612.0, 18610.0, 18610.0, 18608.0, 18610.0, 18610.0, 18610.0, 18606.0, 18608.0, 18612.0, 18646.0, 18608.0, 18606.0, 18604.0, 18606.0, 18602.0, 18612.0, 18608.0, 18610.0, 18612.0, 18614.0, 18606.0, 18610.0, 18612.0, 18604.0, 18606.0, 18614.0, 18606.0, 18616.0, 18612.0, 18614.0, 18608.0, 18620.0, 18606.0, 18612.0, 18612.0, 18610.0, 18602.0, 18612.0, 18608.0, 18612.0, 18608.0, 18612.0, 18614.0, 18610.0, 18604.0, 18606.0, 18608.0, 18608.0, 18604.0, 18604.0, 18618.0, 18604.0, 18610.0, 18612.0, 18606.0, 18606.0, 18638.0, 18640.0]
    },
    "slices": {}
  }
}