{
  "AcquisitionMatrixPE": 104,
  "AcquisitionNumber": 1,
  "AcquisitionTime": "14:02:9.815000",
  "BandwidthPerPixelPhaseEncode": 17.17,
  "BaseResolution": 104,
  "BodyPartExamined": "BRAIN",
  "CoilString": "HC1-7;NC1_2",
  "ConsistencyInfo": "N4_VE11C_LATEST_20160120",
  "ConversionSoftware": "dcm2niix",
  "ConversionSoftwareVersion": "v1.0.20190902",
  "DerivedVendorReportedEchoSpacing": 0.000560011,
  "DeviceSerialNumber": "167006",
  "DwellTime": 2.1e-06,
  "EchoTime": 0.037,
  "EchoTrainLength": 104,
  "EffectiveEchoSpacing": 0.000560011,
  "FlipAngle": 52,
  "ImageComments": "Unaliased_MB4_PE3_LB",
  "ImageOrientationPatientDICOM": [0.999813, 0.00138331, 0.0193075, 0.00348997, 0.968216, -0.250092],
  "ImageType": [
    "ORIGINAL",
    "PRIMARY",
    "M",
    "MB",
    "ND",
    "MOSAIC"
],
  "ImagingFrequency": 123.259,
  "InPlanePhaseEncodingDirectionDICOM": "COL",
  "InstitutionAddress": "Chemin_Queen-Mary_4565_Montreal_District_CA_H3W_1W5",
  "InstitutionName": "IUGM",
  "InstitutionalDepartmentName": "Department",
  "MRAcquisitionType": "2D",
  "MagneticFieldStrength": 3,
  "Manufacturer": "Siemens",
  "ManufacturersModelName": "Prisma_fit",
  "Modality": "MR",
  "MultibandAccelerationFactor": 4,
  "PartialFourier": 1,
  "PatientPosition": "HFS",
  "PercentPhaseFOV": 100,
  "PhaseEncodingDirection": "j",
  "PhaseEncodingSteps": 104,
  "PhaseResolution": 1,
  "PixelBandwidth": 2290,
  "ProcedureStepDescription": "memory_things",
  "ProtocolName": "func_task-things_run-4",
  "PulseSequenceDetails": "%CustomerSeq%_cmrr_mbep2d_bold",
  "ReceiveCoilActiveElements": "HC1-7;NC1,2",
  "ReceiveCoilName": "HeadNeck_64",
  "ReconMatrixPE": 104,
  "RepetitionTime": 1.49,
  "SAR": 0.054461,
  "ScanOptions": "FS",
  "ScanningSequence": "EP",
  "SequenceName": "epfid2d1_104",
  "SequenceVariant": "SK_SS",
  "SeriesDescription": "func_task-things_run-4",
  "SeriesNumber": 22,
  "ShimSetting": [636, -7203, -8818, 697, 49, 6, 89, -23],
  "SliceThickness": 2,
  "SliceTiming": [0, 0.7825, 0.0975, 0.88, 0.195, 0.9775, 0.2925, 1.0775, 0.39, 1.175, 0.4875, 1.2725, 0.5875, 1.37, 0.685, 0, 0.7825, 0.0975, 0.88, 0.195, 0.9775, 0.2925, 1.0775, 0.39, 1.175, 0.4875, 1.2725, 0.5875, 1.37, 0.685, 0, 0.7825, 0.0975, 0.88, 0.195, 0.9775, 0.2925, 1.0775, 0.39, 1.175, 0.4875, 1.2725, 0.5875, 1.37, 0.685, 0, 0.7825, 0.0975, 0.88, 0.195, 0.9775, 0.2925, 1.0775, 0.39, 1.175, 0.4875, 1.2725, 0.5875, 1.37, 0.685],
  "SoftwareVersions": "syngo_MR_E11",
  "SpacingBetweenSlices": 2,
  "StationName": "MRC35049",
  "TaskName": "things",
  "TotalReadoutTime": 0.0576811,
  "TxRefAmp": 244.211,
  "WipMemBlock": "dd93ecd9-ea3a-488d-8308-ab84bf6d112b||Sequence: R016 ve11c/master r/e634e98; Dec 19 2017 11:00:25 by eja",
  "dcmmeta_affine": [
    [-1.999625325202942, 0.006979935336858034, 0.03807956725358963, 107.94873809814453],
    [-0.002766629680991173, 1.9364312887191772, -0.5002259612083435, -75.39952850341797],
    [0.03861500322818756, 0.500184953212738, 1.9360588788986206, -69.02973175048828],
    [0.0, 0.0, 0.0, 1.0]
],
  "dcmmeta_reorient_transform": [
    [0.0, -1.0, 0.0, 103.0],
    [1.0, 0.0, 0.0, 0.0],
    [0.0, 0.0, 1.0, 0.0],
    [0.0, 0.0, 0.0, 1.0]
],
  "dcmmeta_shape": [104, 104, 60, 190],
  "dcmmeta_slice_dim": 2,
  "dcmmeta_version": 0.6,
  "global": {
    "const": {
      "AcquisitionMatrix": [104, 0, 0, 104],
      "AngioFlag": "N",
      "BitsAllocated": 16,
      "BitsStored": 16,
      "BodyPartExamined": "BRAIN",
      "Columns": 832,
      "EchoNumbers": 1,
      "EchoTime": 37.0,
      "EchoTrainLength": 104,
      "FlipAngle": 52.0,
      "HighBit": 15,
      "ImageOrientationPatient": [0.99981263584414, 0.00138331481867, 0.01930750233724, 0.00348996761135, 0.96821566837262, -0.2500924621891],
      "ImagePositionPatient": [-839.07196384414, -829.92095553187, 150.50076893932],
      "ImageType": [
        "ORIGINAL",
        "PRIMARY",
        "M",
        "MB",
        "ND",
        "MOSAIC"
],
      "ImagedNucleus": "1H",
      "ImagingFrequency": 123.258996,
      "InPlanePhaseEncodingDirection": "COL",
      "MRAcquisitionType": "2D",
      "MagneticFieldStrength": 3.0,
      "Manufacturer": "SIEMENS",
      "ManufacturerModelName": "Prisma_fit",
      "Modality": "MR",
      "NumberOfAverages": 1.0,
      "NumberOfPhaseEncodingSteps": 104,
      "PercentPhaseFieldOfView": 100.0,
      "PercentSampling": 100.0,
      "PerformedProcedureStepStartTime": "120539.892000",
      "PhotometricInterpretation": "MONOCHROME2",
      "PixelBandwidth": 2290.0,
      "PixelRepresentation": 0,
      "PixelSpacing": [2.0, 2.0],
      "ProtocolName": "func_task-things_run-4",
      "RepetitionTime": 1490.0,
      "Rows": 832,
      "SAR": 0.05446099144418,
      "SamplesPerPixel": 1,
      "ScanOptions": "FS",
      "ScanningSequence": "EP",
      "SequenceName": "epfid2d1_104",
      "SequenceVariant": [
        "SK",
        "SS"
],
      "SeriesDescription": "func_task-things_run-4",
      "SeriesNumber": 22,
      "SeriesTime": "140341.829000",
      "SliceLocation": -45.909086798426,
      "SliceThickness": 2.0,
      "SmallestImagePixelValue": 0,
      "SoftwareVersions": "syngo MR E11",
      "SpacingBetweenSlices": 2.0000000163956,
      "SpecificCharacterSet": "ISO_IR 100",
      "StudyID": "1",
      "StudyTime": "120539.790000",
      "TransmitCoilName": "Body",
      "VariableFlipAngleFlag": "N",
      "WindowCenterWidthExplanation": "Algo1",
      "dBdt": 0.0},
    "slices": {}
  },
  "time": {
    "samples": {
      "AcquisitionNumber": [1, 2, 3, 4, 5, 6, 7, 8, 9, 10, 11, 12, 13, 14, 15, 16, 17, 18, 19, 20, 21, 22, 23, 24, 25, 26, 27, 28, 29, 30, 31, 32, 33, 34, 35, 36, 37, 38, 39, 40, 41, 42, 43, 44, 45, 46, 47, 48, 49, 50, 51, 52, 53, 54, 55, 56, 57, 58, 59, 60, 61, 62, 63, 64, 65, 66, 67, 68, 69, 70, 71, 72, 73, 74, 75, 76, 77, 78, 79, 80, 81, 82, 83, 84, 85, 86, 87, 88, 89, 90, 91, 92, 93, 94, 95, 96, 97, 98, 99, 100, 101, 102, 103, 104, 105, 106, 107, 108, 109, 110, 111, 112, 113, 114, 115, 116, 117, 118, 119, 120, 121, 122, 123, 124, 125, 126, 127, 128, 129, 130, 131, 132, 133, 134, 135, 136, 137, 138, 139, 140, 141, 142, 143, 144, 145, 146, 147, 148, 149, 150, 151, 152, 153, 154, 155, 156, 157, 158, 159, 160, 161, 162, 163, 164, 165, 166, 167, 168, 169, 170, 171, 172, 173, 174, 175, 176, 177, 178, 179, 180, 181, 182, 183, 184, 185, 186, 187, 188, 189, 190],
      "AcquisitionTime": ["140209.815000", "140211.305000", "140212.795000", "140214.285000", "140215.775000", "140217.265000", "140218.755000", "140220.245000", "140221.735000", "140223.225000", "140224.715000", "140226.205000", "140227.695000", "140229.185000", "140230.675000", "140232.165000", "140233.655000", "140235.145000", "140236.635000", "140238.125000", "140239.615000", "140241.105000", "140242.595000", "140244.085000", "140245.575000", "140247.065000", "140248.555000", "140250.045000", "140251.535000", "140253.025000", "140254.515000", "140256.005000", "140257.495000", "140258.985000", "140300.475000", "140301.965000", "140303.455000", "140304.945000", "140306.435000", "140307.925000", "140309.415000", "140310.905000", "140312.395000", "140313.885000", "140315.375000", "140316.865000", "140318.355000", "140319.845000", "140321.335000", "140322.825000", "140324.315000", "140325.805000", "140327.295000", "140328.785000", "140330.275000", "140331.765000", "140333.255000", "140334.745000", "140336.235000", "140337.725000", "140339.215000", "140340.705000", "140342.195000", "140343.685000", "140345.175000", "140346.665000", "140348.155000", "140349.645000", "140351.135000", "140352.625000", "140354.115000", "140355.605000", "140357.095000", "140358.585000", "140400.075000", "140401.565000", "140403.055000", "140404.545000", "140406.035000", "140407.525000", "140409.015000", "140410.505000", "140411.995000", "140413.485000", "140414.975000", "140416.465000", "140417.955000", "140419.445000", "140420.935000", "140422.425000", "140423.915000", "140425.405000", "140426.895000", "140428.385000", "140429.875000", "140431.365000", "140432.855000", "140434.345000", "140435.835000", "140437.325000", "140438.815000", "140440.305000", "140441.795000", "140443.285000", "140444.775000", "140446.265000", "140447.755000", "140449.245000", "140450.735000", "140452.225000", "140453.715000", "140455.205000", "140456.695000", "140458.185000", "140459.675000", "140501.165000", "140502.655000", "140504.145000", "140505.635000", "140507.125000", "140508.615000", "140510.105000", "140511.595000", "140513.085000", "140514.575000", "140516.065000", "140517.555000", "140519.045000", "140520.535000", "140522.025000", "140523.515000", "140525.005000", "140526.495000", "140527.985000", "140529.475000", "140530.965000", "140532.455000", "140533.945000", "140535.435000", "140536.925000", "140538.415000", "140539.905000", "140541.395000", "140542.885000", "140544.375000", "140545.865000", "140547.355000", "140548.845000", "140550.335000", "140551.825000", "140553.315000", "140554.805000", "140556.295000", "140557.785000", "140559.275000", "140600.765000", "140602.255000", "140603.745000", "140605.235000", "140606.725000", "140608.215000", "140609.705000", "140611.195000", "140612.685000", "140614.175000", "140615.665000", "140617.155000", "140618.645000", "140620.135000", "140621.625000", "140623.115000", "140624.605000", "140626.095000", "140627.585000", "140629.075000", "140630.565000", "140632.055000", "140633.545000", "140635.035000", "140636.525000", "140638.015000", "140639.505000", "140640.995000", "140642.485000", "140643.975000", "140645.465000", "140646.955000", "140648.445000", "140649.935000", "140651.425000"],
      "ContentTime": ["140341.832000", "140341.836000", "140341.840000", "140341.843000", "140341.846000", "140341.856000", "140341.860000", "140341.863000", "140341.867000", "140341.883000", "140341.886000", "140341.890000", "140341.893000", "140341.897000", "140341.900000", "140341.903000", "140341.907000", "140341.916000", "140341.920000", "140341.923000", "140341.926000", "140341.930000", "140341.933000", "140341.937000", "140341.940000", "140341.943000", "140341.947000", "140341.950000", "140341.953000", "140341.957000", "140341.960000", "140341.964000", "140341.967000", "140341.970000", "140341.974000", "140341.977000", "140341.981000", "140341.984000", "140341.987000", "140401.802000", "140401.806000", "140401.810000", "140401.813000", "140401.816000", "140401.820000", "140401.826000", "140401.829000", "140401.833000", "140401.836000", "140401.840000", "140401.843000", "140401.846000", "140401.850000", "140401.854000", "140401.857000", "140401.860000", "140401.872000", "140401.876000", "140401.879000", "140421.802000", "140421.806000", "140421.809000", "140421.813000", "140421.816000", "140421.820000", "140421.823000", "140421.826000", "140421.830000", "140421.833000", "140421.836000", "140421.840000", "140421.843000", "140421.847000", "140421.850000", "140421.854000", "140421.858000", "140421.863000", "140421.868000", "140421.872000", "140441.802000", "140441.806000", "140441.809000", "140441.813000", "140441.816000", "140441.820000", "140441.823000", "140441.830000", "140441.834000", "140441.837000", "140441.840000", "140441.844000", "140441.847000", "140441.851000", "140441.854000", "140441.858000", "140441.861000", "140441.864000", "140441.868000", "140441.871000", "140441.875000", "140501.803000", "140501.807000", "140501.810000", "140501.814000", "140501.817000", "140501.821000", "140501.824000", "140501.827000", "140501.831000", "140501.834000", "140501.838000", "140501.841000", "140501.845000", "140501.848000", "140541.803000", "140541.807000", "140541.810000", "140541.814000", "140541.817000", "140541.821000", "140541.824000", "140541.827000", "140541.831000", "140541.834000", "140541.838000", "140541.841000", "140541.845000", "140541.848000", "140541.851000", "140541.855000", "140541.858000", "140541.871000", "140541.874000", "140541.878000", "140541.881000", "140541.884000", "140541.888000", "140541.891000", "140541.895000", "140541.898000", "140541.901000", "140621.802000", "140621.806000", "140621.810000", "140621.813000", "140621.816000", "140621.820000", "140621.823000", "140621.827000", "140621.830000", "140621.833000", "140621.837000", "140621.840000", "140621.843000", "140621.847000", "140621.850000", "140621.854000", "140621.863000", "140621.867000", "140621.870000", "140621.874000", "140621.877000", "140621.880000", "140621.884000", "140621.887000", "140621.890000", "140621.894000", "140621.897000", "140654.087000", "140654.091000", "140654.094000", "140654.098000", "140654.101000", "140654.105000", "140654.108000", "140654.112000", "140654.116000", "140654.119000", "140654.123000", "140654.126000", "140654.130000", "140654.133000", "140654.137000", "140654.140000", "140654.144000", "140654.147000", "140654.151000", "140654.155000", "140654.158000", "140654.162000"],
      "InstanceCreationTime": ["140341.832000", "140341.836000", "140341.840000", "140341.843000", "140341.846000", "140341.856000", "140341.860000", "140341.863000", "140341.867000", "140341.883000", "140341.886000", "140341.890000", "140341.893000", "140341.897000", "140341.900000", "140341.903000", "140341.907000", "140341.916000", "140341.920000", "140341.923000", "140341.926000", "140341.930000", "140341.933000", "140341.937000", "140341.940000", "140341.943000", "140341.947000", "140341.950000", "140341.953000", "140341.957000", "140341.960000", "140341.964000", "140341.967000", "140341.970000", "140341.974000", "140341.977000", "140341.981000", "140341.984000", "140341.987000", "140401.802000", "140401.806000", "140401.810000", "140401.813000", "140401.816000", "140401.820000", "140401.826000", "140401.829000", "140401.833000", "140401.836000", "140401.840000", "140401.843000", "140401.846000", "140401.850000", "140401.854000", "140401.857000", "140401.860000", "140401.872000", "140401.876000", "140401.879000", "140421.802000", "140421.806000", "140421.809000", "140421.813000", "140421.816000", "140421.820000", "140421.823000", "140421.826000", "140421.830000", "140421.833000", "140421.836000", "140421.840000", "140421.843000", "140421.847000", "140421.850000", "140421.854000", "140421.858000", "140421.863000", "140421.868000", "140421.872000", "140441.802000", "140441.806000", "140441.809000", "140441.813000", "140441.816000", "140441.820000", "140441.823000", "140441.830000", "140441.834000", "140441.837000", "140441.840000", "140441.844000", "140441.847000", "140441.851000", "140441.854000", "140441.858000", "140441.861000", "140441.864000", "140441.868000", "140441.871000", "140441.875000", "140501.803000", "140501.807000", "140501.810000", "140501.814000", "140501.817000", "140501.821000", "140501.824000", "140501.827000", "140501.831000", "140501.834000", "140501.838000", "140501.841000", "140501.845000", "140501.848000", "140541.803000", "140541.807000", "140541.810000", "140541.814000", "140541.817000", "140541.821000", "140541.824000", "140541.827000", "140541.831000", "140541.834000", "140541.838000", "140541.841000", "140541.845000", "140541.848000", "140541.851000", "140541.855000", "140541.858000", "140541.871000", "140541.874000", "140541.878000", "140541.881000", "140541.884000", "140541.888000", "140541.891000", "140541.895000", "140541.898000", "140541.901000", "140621.802000", "140621.806000", "140621.810000", "140621.813000", "140621.816000", "140621.820000", "140621.823000", "140621.827000", "140621.830000", "140621.833000", "140621.837000", "140621.840000", "140621.843000", "140621.847000", "140621.850000", "140621.854000", "140621.863000", "140621.867000", "140621.870000", "140621.874000", "140621.877000", "140621.880000", "140621.884000", "140621.887000", "140621.890000", "140621.894000", "140621.897000", "140654.087000", "140654.091000", "140654.094000", "140654.098000", "140654.101000", "140654.105000", "140654.108000", "140654.112000", "140654.116000", "140654.119000", "140654.123000", "140654.126000", "140654.130000", "140654.133000", "140654.137000", "140654.140000", "140654.144000", "140654.147000", "140654.151000", "140654.155000", "140654.158000", "140654.162000"],
      "InstanceNumber": [1, 2, 3, 4, 5, 6, 7, 8, 9, 10, 11, 12, 13, 14, 15, 16, 17, 18, 19, 20, 21, 22, 23, 24, 25, 26, 27, 28, 29, 30, 31, 32, 33, 34, 35, 36, 37, 38, 39, 40, 41, 42, 43, 44, 45, 46, 47, 48, 49, 50, 51, 52, 53, 54, 55, 56, 57, 58, 59, 60, 61, 62, 63, 64, 65, 66, 67, 68, 69, 70, 71, 72, 73, 74, 75, 76, 77, 78, 79, 80, 81, 82, 83, 84, 85, 86, 87, 88, 89, 90, 91, 92, 93, 94, 95, 96, 97, 98, 99, 100, 101, 102, 103, 104, 105, 106, 107, 108, 109, 110, 111, 112, 113, 114, 115, 116, 117, 118, 119, 120, 121, 122, 123, 124, 125, 126, 127, 128, 129, 130, 131, 132, 133, 134, 135, 136, 137, 138, 139, 140, 141, 142, 143, 144, 145, 146, 147, 148, 149, 150, 151, 152, 153, 154, 155, 156, 157, 158, 159, 160, 161, 162, 163, 164, 165, 166, 167, 168, 169, 170, 171, 172, 173, 174, 175, 176, 177, 178, 179, 180, 181, 182, 183, 184, 185, 186, 187, 188, 189, 190],
      "LargestImagePixelValue": [41568, 39739, 39343, 39157, 38592, 38933, 38744, 38926, 38807, 38710, 39094, 38826, 38898, 39030, 38743, 38699, 38942, 38488, 38766, 38960, 38633, 38650, 38732, 38482, 39043, 39078, 38826, 38843, 38415, 38731, 38759, 38489, 38634, 39025, 38740, 38604, 38596, 39099, 38797, 38911, 38582, 38713, 38911, 38770, 38436, 38813, 38526, 38706, 38809, 38686, 38238, 38516, 38563, 38430, 38666, 38004, 38037, 38567, 38679, 38661, 38222, 38300, 38750, 38444, 38076, 38259, 37957, 38048, 37642, 37752, 37721, 37680, 37569, 37788, 37777, 37909, 37954, 37831, 37843, 37578, 37645, 37470, 37150, 37359, 37223, 37633, 37842, 37781, 37335, 37674, 37775, 37593, 37861, 37341, 37661, 37398, 37754, 37563, 37271, 37669, 38039, 37675, 38133, 37637, 37247, 37330, 37902, 37703, 37703, 37362, 37248, 37621, 37574, 37441, 37429, 37272, 37527, 37255, 37120, 37350, 37164, 36897, 37319, 37253, 37526, 37799, 37721, 37288, 37029, 37339, 37439, 37537, 37607, 37481, 37291, 37581, 37321, 37212, 37755, 37592, 37213, 37699, 36973, 37262, 37296, 37586, 37472, 37396, 37426, 37369, 37336, 37257, 37206, 37005, 37145, 37623, 37526, 37312, 37605, 36840, 37531, 37265, 37403, 37354, 36868, 37701, 37150, 37381, 37287, 37048, 37380, 37397, 37289, 37531, 37361, 37336, 37259, 36980, 37374, 37238, 37505, 37173, 37157, 37719, 37725, 37050, 37249, 36467, 37468, 37560],
      "WindowCenter": [10227.0, 10204.0, 10210.0, 10212.0, 10208.0, 10203.0, 10185.0, 10183.0, 10186.0, 10195.0, 10201.0, 10193.0, 10184.0, 10176.0, 10192.0, 10208.0, 10217.0, 10198.0, 10181.0, 10176.0, 10184.0, 10194.0, 10193.0, 10194.0, 10203.0, 10194.0, 10195.0, 10195.0, 10195.0, 10195.0, 10179.0, 10171.0, 10176.0, 10182.0, 10177.0, 10183.0, 10183.0, 10174.0, 10175.0, 10183.0, 10185.0, 10194.0, 10193.0, 10187.0, 10187.0, 10176.0, 10175.0, 10185.0, 10210.0, 10204.0, 10197.0, 10180.0, 10176.0, 10185.0, 10193.0, 10194.0, 10191.0, 10201.0, 10194.0, 10193.0, 10179.0, 10167.0, 10174.0, 10184.0, 10176.0, 10198.0, 10184.0, 10178.0, 10170.0, 10155.0, 10150.0, 10150.0, 10151.0, 10152.0, 10158.0, 10144.0, 10139.0, 10134.0, 10141.0, 10144.0, 10165.0, 10162.0, 10156.0, 10151.0, 10159.0, 10160.0, 10151.0, 10150.0, 10159.0, 10158.0, 10142.0, 10119.0, 10121.0, 10121.0, 10136.0, 10140.0, 10146.0, 10132.0, 10134.0, 10149.0, 10166.0, 10161.0, 10157.0, 10142.0, 10135.0, 10148.0, 10150.0, 10159.0, 10152.0, 10127.0, 10125.0, 10139.0, 10149.0, 10159.0, 10165.0, 10159.0, 10153.0, 10154.0, 10152.0, 10151.0, 10154.0, 10154.0, 10161.0, 10152.0, 10162.0, 10180.0, 10180.0, 10151.0, 10125.0, 10106.0, 10109.0, 10120.0, 10143.0, 10136.0, 10131.0, 10128.0, 10127.0, 10121.0, 10150.0, 10146.0, 10150.0, 10150.0, 10143.0, 10134.0, 10124.0, 10113.0, 10130.0, 10136.0, 10139.0, 10140.0, 10149.0, 10140.0, 10133.0, 10116.0, 10122.0, 10145.0, 10150.0, 10142.0, 10139.0, 10115.0, 10112.0, 10124.0, 10138.0, 10138.0, 10126.0, 10135.0, 10132.0, 10156.0, 10160.0, 10142.0, 10131.0, 10119.0, 10122.0, 10131.0, 10138.0, 10117.0, 10105.0, 10103.0, 10120.0, 10131.0, 10138.0, 10131.0, 10123.0, 10129.0, 10115.0, 10120.0, 10138.0, 10102.0, 10086.0, 10079.0],
      "WindowWidth": [21741.0, 21673.0, 21678.0, 21680.0, 21668.0, 21652.0, 21607.0, 21602.0, 21613.0, 21633.0, 21645.0, 21627.0, 21605.0, 21586.0, 21625.0, 21662.0, 21680.0, 21639.0, 21599.0, 21584.0, 21605.0, 21629.0, 21627.0, 21630.0, 21648.0, 21626.0, 21630.0, 21629.0, 21628.0, 21629.0, 21595.0, 21575.0, 21585.0, 21596.0, 21588.0, 21600.0, 21599.0, 21579.0, 21581.0, 21599.0, 21605.0, 21627.0, 21625.0, 21613.0, 21613.0, 21585.0, 21582.0, 21607.0, 21665.0, 21651.0, 21632.0, 21596.0, 21584.0, 21607.0, 21627.0, 21630.0, 21625.0, 21643.0, 21625.0, 21623.0, 21592.0, 21563.0, 21580.0, 21605.0, 21588.0, 21642.0, 21609.0, 21588.0, 21568.0, 21537.0, 21525.0, 21525.0, 21531.0, 21533.0, 21546.0, 21514.0, 21500.0, 21490.0, 21507.0, 21517.0, 21562.0, 21558.0, 21545.0, 21531.0, 21548.0, 21551.0, 21529.0, 21526.0, 21547.0, 21544.0, 21507.0, 21454.0, 21457.0, 21460.0, 21492.0, 21506.0, 21518.0, 21488.0, 21494.0, 21523.0, 21565.0, 21555.0, 21540.0, 21506.0, 21495.0, 21522.0, 21528.0, 21550.0, 21536.0, 21477.0, 21471.0, 21503.0, 21526.0, 21551.0, 21562.0, 21549.0, 21536.0, 21541.0, 21535.0, 21533.0, 21543.0, 21541.0, 21554.0, 21537.0, 21559.0, 21596.0, 21593.0, 21529.0, 21468.0, 21426.0, 21431.0, 21458.0, 21509.0, 21496.0, 21484.0, 21475.0, 21473.0, 21463.0, 21524.0, 21520.0, 21531.0, 21527.0, 21513.0, 21493.0, 21468.0, 21443.0, 21481.0, 21494.0, 21506.0, 21508.0, 21526.0, 21503.0, 21490.0, 21450.0, 21463.0, 21515.0, 21532.0, 21511.0, 21500.0, 21447.0, 21438.0, 21471.0, 21501.0, 21501.0, 21475.0, 21490.0, 21490.0, 21545.0, 21553.0, 21508.0, 21479.0, 21451.0, 21461.0, 21483.0, 21497.0, 21452.0, 21423.0, 21418.0, 21456.0, 21486.0, 21499.0, 21482.0, 21464.0, 21476.0, 21444.0, 21462.0, 21497.0, 21416.0, 21374.0, 21359.0]
    },
    "slices": {}
  }
}