{
  "AcquisitionMatrixPE": 104,
  "AcquisitionNumber": 1,
  "AcquisitionTime": "13:22:32.495000",
  "BandwidthPerPixelPhaseEncode": 17.17,
  "BaseResolution": 104,
  "BodyPartExamined": "BRAIN",
  "CoilString": "HC1-7;NC1_2",
  "ConsistencyInfo": "N4_VE11C_LATEST_20160120",
  "ConversionSoftware": "dcm2niix",
  "ConversionSoftwareVersion": "v1.0.20190902",
  "DerivedVendorReportedEchoSpacing": 0.000560011,
  "DeviceSerialNumber": "167006",
  "DwellTime": 2.1e-06,
  "EchoTime": 0.037,
  "EchoTrainLength": 104,
  "EffectiveEchoSpacing": 0.000560011,
  "FlipAngle": 52,
  "ImageComments": "Unaliased_MB4_PE3_LB",
  "ImageOrientationPatientDICOM": [0.999813, 0.00138331, 0.0193075, 0.00348997, 0.968216, -0.250092],
  "ImageType": [
    "ORIGINAL",
    "PRIMARY",
    "M",
    "MB",
    "ND",
    "MOSAIC"
],
  "ImagingFrequency": 123.259,
  "InPlanePhaseEncodingDirectionDICOM": "COL",
  "InstitutionAddress": "Chemin_Queen-Mary_4565_Montreal_District_CA_H3W_1W5",
  "InstitutionName": "IUGM",
  "InstitutionalDepartmentName": "Department",
  "MRAcquisitionType": "2D",
  "MagneticFieldStrength": 3,
  "Manufacturer": "Siemens",
  "ManufacturersModelName": "Prisma_fit",
  "Modality": "MR",
  "MultibandAccelerationFactor": 4,
  "PartialFourier": 1,
  "PatientPosition": "HFS",
  "PercentPhaseFOV": 100,
  "PhaseEncodingDirection": "j",
  "PhaseEncodingSteps": 104,
  "PhaseResolution": 1,
  "PixelBandwidth": 2290,
  "ProcedureStepDescription": "memory_things",
  "ProtocolName": "func_task-things_run-1",
  "PulseSequenceDetails": "%CustomerSeq%_cmrr_mbep2d_bold",
  "ReceiveCoilActiveElements": "HC1-7;NC1,2",
  "ReceiveCoilName": "HeadNeck_64",
  "ReconMatrixPE": 104,
  "RepetitionTime": 1.49,
  "SAR": 0.054461,
  "ScanOptions": "FS",
  "ScanningSequence": "EP",
  "SequenceName": "epfid2d1_104",
  "SequenceVariant": "SK_SS",
  "SeriesDescription": "func_task-things_run-1",
  "SeriesNumber": 10,
  "ShimSetting": [636, -7203, -8818, 697, 49, 6, 89, -23],
  "SliceThickness": 2,
  "SliceTiming": [0, 0.785, 0.1, 0.8825, 0.1975, 0.98, 0.295, 1.08, 0.3925, 1.1775, 0.49, 1.275, 0.59, 1.3725, 0.6875, 0, 0.785, 0.1, 0.8825, 0.1975, 0.98, 0.295, 1.08, 0.3925, 1.1775, 0.49, 1.275, 0.59, 1.3725, 0.6875, 0, 0.785, 0.1, 0.8825, 0.1975, 0.98, 0.295, 1.08, 0.3925, 1.1775, 0.49, 1.275, 0.59, 1.3725, 0.6875, 0, 0.785, 0.1, 0.8825, 0.1975, 0.98, 0.295, 1.08, 0.3925, 1.1775, 0.49, 1.275, 0.59, 1.3725, 0.6875],
  "SoftwareVersions": "syngo_MR_E11",
  "SpacingBetweenSlices": 2,
  "StationName": "MRC35049",
  "TaskName": "things",
  "TotalReadoutTime": 0.0576811,
  "TxRefAmp": 244.211,
  "WipMemBlock": "ea7fa89e-c99e-4c54-8f45-c8045cf08033||Sequence: R016 ve11c/master r/e634e98; Dec 19 2017 11:00:25 by eja",
  "dcmmeta_affine": [
    [-1.999625325202942, 0.006979935336858034, 0.03807956725358963, 107.94873809814453],
    [-0.002766629680991173, 1.9364312887191772, -0.5002259612083435, -75.39952850341797],
    [0.03861500322818756, 0.500184953212738, 1.9360588788986206, -69.02973175048828],
    [0.0, 0.0, 0.0, 1.0]
],
  "dcmmeta_reorient_transform": [
    [0.0, -1.0, 0.0, 103.0],
    [1.0, 0.0, 0.0, 0.0],
    [0.0, 0.0, 1.0, 0.0],
    [0.0, 0.0, 0.0, 1.0]
],
  "dcmmeta_shape": [104, 104, 60, 190],
  "dcmmeta_slice_dim": 2,
  "dcmmeta_version": 0.6,
  "global": {
    "const": {
      "AcquisitionMatrix": [104, 0, 0, 104],
      "AngioFlag": "N",
      "BitsAllocated": 16,
      "BitsStored": 16,
      "BodyPartExamined": "BRAIN",
      "Columns": 832,
      "EchoNumbers": 1,
      "EchoTime": 37.0,
      "EchoTrainLength": 104,
      "FlipAngle": 52.0,
      "HighBit": 15,
      "ImageOrientationPatient": [0.99981263584414, 0.00138331481867, 0.01930750233724, 0.00348996761135, 0.96821566837262, -0.2500924621891],
      "ImagePositionPatient": [-839.07196384414, -829.92095553187, 150.50076893932],
      "ImageType": [
        "ORIGINAL",
        "PRIMARY",
        "M",
        "MB",
        "ND",
        "MOSAIC"
],
      "ImagedNucleus": "1H",
      "ImagingFrequency": 123.258985,
      "InPlanePhaseEncodingDirection": "COL",
      "MRAcquisitionType": "2D",
      "MagneticFieldStrength": 3.0,
      "Manufacturer": "SIEMENS",
      "ManufacturerModelName": "Prisma_fit",
      "Modality": "MR",
      "NumberOfAverages": 1.0,
      "NumberOfPhaseEncodingSteps": 104,
      "PercentPhaseFieldOfView": 100.0,
      "PercentSampling": 100.0,
      "PerformedProcedureStepStartTime": "120539.892000",
      "PhotometricInterpretation": "MONOCHROME2",
      "PixelBandwidth": 2290.0,
      "PixelRepresentation": 0,
      "PixelSpacing": [2.0, 2.0],
      "ProtocolName": "func_task-things_run-1",
      "RepetitionTime": 1490.0,
      "Rows": 832,
      "SAR": 0.05446099144418,
      "SamplesPerPixel": 1,
      "ScanOptions": "FS",
      "ScanningSequence": "EP",
      "SequenceName": "epfid2d1_104",
      "SequenceVariant": [
        "SK",
        "SS"
],
      "SeriesDescription": "func_task-things_run-1",
      "SeriesNumber": 10,
      "SeriesTime": "132354.714000",
      "SliceLocation": -45.909086798426,
      "SliceThickness": 2.0,
      "SmallestImagePixelValue": 0,
      "SoftwareVersions": "syngo MR E11",
      "SpacingBetweenSlices": 2.0000000163956,
      "SpecificCharacterSet": "ISO_IR 100",
      "StudyID": "1",
      "StudyTime": "120539.790000",
      "TransmitCoilName": "Body",
      "VariableFlipAngleFlag": "N",
      "WindowCenterWidthExplanation": "Algo1",
      "dBdt": 0.0},
    "slices": {}
  },
  "time": {
    "samples": {
      "AcquisitionNumber": [1, 2, 3, 4, 5, 6, 7, 8, 9, 10, 11, 12, 13, 14, 15, 16, 17, 18, 19, 20, 21, 22, 23, 24, 25, 26, 27, 28, 29, 30, 31, 32, 33, 34, 35, 36, 37, 38, 39, 40, 41, 42, 43, 44, 45, 46, 47, 48, 49, 50, 51, 52, 53, 54, 55, 56, 57, 58, 59, 60, 61, 62, 63, 64, 65, 66, 67, 68, 69, 70, 71, 72, 73, 74, 75, 76, 77, 78, 79, 80, 81, 82, 83, 84, 85, 86, 87, 88, 89, 90, 91, 92, 93, 94, 95, 96, 97, 98, 99, 100, 101, 102, 103, 104, 105, 106, 107, 108, 109, 110, 111, 112, 113, 114, 115, 116, 117, 118, 119, 120, 121, 122, 123, 124, 125, 126, 127, 128, 129, 130, 131, 132, 133, 134, 135, 136, 137, 138, 139, 140, 141, 142, 143, 144, 145, 146, 147, 148, 149, 150, 151, 152, 153, 154, 155, 156, 157, 158, 159, 160, 161, 162, 163, 164, 165, 166, 167, 168, 169, 170, 171, 172, 173, 174, 175, 176, 177, 178, 179, 180, 181, 182, 183, 184, 185, 186, 187, 188, 189, 190],
      "AcquisitionTime": ["132232.495000", "132233.985000", "132235.475000", "132236.965000", "132238.455000", "132239.945000", "132241.435000", "132242.925000", "132244.415000", "132245.905000", "132247.395000", "132248.885000", "132250.375000", "132251.865000", "132253.355000", "132254.845000", "132256.335000", "132257.825000", "132259.315000", "132300.805000", "132302.295000", "132303.785000", "132305.275000", "132306.765000", "132308.255000", "132309.745000", "132311.235000", "132312.725000", "132314.215000", "132315.705000", "132317.195000", "132318.685000", "132320.175000", "132321.665000", "132323.155000", "132324.645000", "132326.135000", "132327.625000", "132329.115000", "132330.605000", "132332.095000", "132333.585000", "132335.075000", "132336.565000", "132338.055000", "132339.545000", "132341.035000", "132342.525000", "132344.015000", "132345.505000", "132346.995000", "132348.485000", "132349.975000", "132351.465000", "132352.955000", "132354.445000", "132355.935000", "132357.425000", "132358.915000", "132400.405000", "132401.895000", "132403.385000", "132404.875000", "132406.365000", "132407.855000", "132409.345000", "132410.835000", "132412.325000", "132413.815000", "132415.305000", "132416.795000", "132418.285000", "132419.775000", "132421.265000", "132422.755000", "132424.245000", "132425.735000", "132427.225000", "132428.715000", "132430.205000", "132431.695000", "132433.185000", "132434.675000", "132436.165000", "132437.655000", "132439.145000", "132440.635000", "132442.125000", "132443.615000", "132445.105000", "132446.595000", "132448.085000", "132449.575000", "132451.065000", "132452.555000", "132454.045000", "132455.535000", "132457.025000", "132458.515000", "132500.005000", "132501.495000", "132502.985000", "132504.475000", "132505.965000", "132507.455000", "132508.945000", "132510.435000", "132511.925000", "132513.415000", "132514.905000", "132516.395000", "132517.885000", "132519.375000", "132520.865000", "132522.355000", "132523.845000", "132525.335000", "132526.825000", "132528.315000", "132529.805000", "132531.295000", "132532.785000", "132534.275000", "132535.765000", "132537.255000", "132538.745000", "132540.235000", "132541.725000", "132543.215000", "132544.705000", "132546.195000", "132547.685000", "132549.175000", "132550.665000", "132552.155000", "132553.645000", "132555.135000", "132556.625000", "132558.115000", "132559.605000", "132601.095000", "132602.585000", "132604.075000", "132605.565000", "132607.055000", "132608.545000", "132610.035000", "132611.525000", "132613.015000", "132614.505000", "132615.995000", "132617.485000", "132618.975000", "132620.465000", "132621.955000", "132623.445000", "132624.935000", "132626.425000", "132627.915000", "132629.405000", "132630.895000", "132632.385000", "132633.875000", "132635.365000", "132636.855000", "132638.345000", "132639.835000", "132641.325000", "132642.815000", "132644.305000", "132645.795000", "132647.285000", "132648.775000", "132650.265000", "132651.755000", "132653.245000", "132654.735000", "132656.225000", "132657.715000", "132659.205000", "132700.695000", "132702.185000", "132703.675000", "132705.165000", "132706.655000", "132708.145000", "132709.635000", "132711.125000", "132712.615000", "132714.105000"],
      "ContentTime": ["132354.718000", "132354.723000", "132354.726000", "132354.730000", "132354.733000", "132354.737000", "132354.741000", "132354.744000", "132354.758000", "132354.761000", "132354.764000", "132354.773000", "132354.776000", "132354.780000", "132354.783000", "132354.787000", "132354.790000", "132354.793000", "132354.797000", "132354.800000", "132354.803000", "132354.807000", "132354.810000", "132354.813000", "132354.817000", "132354.820000", "132354.824000", "132414.674000", "132414.679000", "132414.682000", "132414.693000", "132414.697000", "132414.700000", "132414.703000", "132414.707000", "132414.710000", "132414.713000", "132414.717000", "132414.720000", "132414.724000", "132414.727000", "132414.730000", "132414.734000", "132414.737000", "132414.741000", "132414.744000", "132414.748000", "132414.751000", "132434.674000", "132434.678000", "132434.681000", "132434.685000", "132434.688000", "132434.691000", "132434.695000", "132434.698000", "132434.701000", "132434.705000", "132434.708000", "132434.711000", "132434.715000", "132434.718000", "132434.721000", "132434.725000", "132434.728000", "132434.731000", "132434.735000", "132434.738000", "132454.673000", "132454.677000", "132454.680000", "132454.684000", "132454.687000", "132454.690000", "132454.694000", "132454.697000", "132454.701000", "132454.704000", "132454.720000", "132454.723000", "132454.727000", "132454.730000", "132454.733000", "132454.737000", "132454.740000", "132454.744000", "132454.747000", "132454.750000", "132514.673000", "132514.677000", "132514.680000", "132514.684000", "132514.687000", "132514.690000", "132514.694000", "132514.697000", "132514.701000", "132514.704000", "132514.707000", "132514.711000", "132514.714000", "132514.718000", "132514.721000", "132514.724000", "132514.728000", "132514.731000", "132514.734000", "132514.738000", "132554.673000", "132554.677000", "132554.680000", "132554.684000", "132554.687000", "132554.691000", "132554.694000", "132554.698000", "132554.701000", "132554.704000", "132554.708000", "132554.711000", "132554.715000", "132554.718000", "132554.721000", "132554.725000", "132554.728000", "132554.732000", "132554.735000", "132554.738000", "132554.742000", "132554.745000", "132554.756000", "132554.759000", "132554.763000", "132554.766000", "132554.770000", "132634.674000", "132634.678000", "132634.681000", "132634.685000", "132634.688000", "132634.692000", "132634.695000", "132634.698000", "132634.702000", "132634.705000", "132634.709000", "132634.712000", "132634.716000", "132634.719000", "132634.722000", "132634.726000", "132634.729000", "132634.733000", "132634.737000", "132634.741000", "132634.744000", "132634.748000", "132634.751000", "132634.755000", "132634.758000", "132634.761000", "132714.673000", "132714.677000", "132714.680000", "132714.684000", "132714.687000", "132714.691000", "132714.694000", "132714.697000", "132714.713000", "132714.716000", "132714.720000", "132714.723000", "132714.726000", "132714.730000", "132714.733000", "132714.737000", "132714.740000", "132714.743000", "132714.747000", "132714.750000", "132714.753000", "132714.757000", "132714.760000", "132714.764000", "132714.771000", "132714.774000", "132714.777000", "132716.676000", "132716.680000"],
      "InstanceCreationTime": ["132354.718000", "132354.723000", "132354.726000", "132354.730000", "132354.733000", "132354.737000", "132354.741000", "132354.744000", "132354.758000", "132354.761000", "132354.764000", "132354.773000", "132354.776000", "132354.780000", "132354.783000", "132354.787000", "132354.790000", "132354.793000", "132354.797000", "132354.800000", "132354.803000", "132354.807000", "132354.810000", "132354.813000", "132354.817000", "132354.820000", "132354.824000", "132414.674000", "132414.679000", "132414.682000", "132414.693000", "132414.697000", "132414.700000", "132414.703000", "132414.707000", "132414.710000", "132414.713000", "132414.717000", "132414.720000", "132414.724000", "132414.727000", "132414.730000", "132414.734000", "132414.737000", "132414.741000", "132414.744000", "132414.748000", "132414.751000", "132434.674000", "132434.678000", "132434.681000", "132434.685000", "132434.688000", "132434.691000", "132434.695000", "132434.698000", "132434.701000", "132434.705000", "132434.708000", "132434.711000", "132434.715000", "132434.718000", "132434.721000", "132434.725000", "132434.728000", "132434.731000", "132434.735000", "132434.738000", "132454.673000", "132454.677000", "132454.680000", "132454.684000", "132454.687000", "132454.690000", "132454.694000", "132454.697000", "132454.701000", "132454.704000", "132454.720000", "132454.723000", "132454.727000", "132454.730000", "132454.733000", "132454.737000", "132454.740000", "132454.744000", "132454.747000", "132454.750000", "132514.673000", "132514.677000", "132514.680000", "132514.684000", "132514.687000", "132514.690000", "132514.694000", "132514.697000", "132514.701000", "132514.704000", "132514.707000", "132514.711000", "132514.714000", "132514.718000", "132514.721000", "132514.724000", "132514.728000", "132514.731000", "132514.734000", "132514.738000", "132554.673000", "132554.677000", "132554.680000", "132554.684000", "132554.687000", "132554.691000", "132554.694000", "132554.698000", "132554.701000", "132554.704000", "132554.708000", "132554.711000", "132554.715000", "132554.718000", "132554.721000", "132554.725000", "132554.728000", "132554.732000", "132554.735000", "132554.738000", "132554.742000", "132554.745000", "132554.756000", "132554.759000", "132554.763000", "132554.766000", "132554.770000", "132634.674000", "132634.678000", "132634.681000", "132634.685000", "132634.688000", "132634.692000", "132634.695000", "132634.698000", "132634.702000", "132634.705000", "132634.709000", "132634.712000", "132634.716000", "132634.719000", "132634.722000", "132634.726000", "132634.729000", "132634.733000", "132634.737000", "132634.741000", "132634.744000", "132634.748000", "132634.751000", "132634.755000", "132634.758000", "132634.761000", "132714.673000", "132714.677000", "132714.680000", "132714.684000", "132714.687000", "132714.691000", "132714.694000", "132714.697000", "132714.713000", "132714.716000", "132714.720000", "132714.723000", "132714.726000", "132714.730000", "132714.733000", "132714.737000", "132714.740000", "132714.743000", "132714.747000", "132714.750000", "132714.753000", "132714.757000", "132714.760000", "132714.764000", "132714.771000", "132714.774000", "132714.777000", "132716.676000", "132716.680000"],
      "InstanceNumber": [1, 2, 3, 4, 5, 6, 7, 8, 9, 10, 11, 12, 13, 14, 15, 16, 17, 18, 19, 20, 21, 22, 23, 24, 25, 26, 27, 28, 29, 30, 31, 32, 33, 34, 35, 36, 37, 38, 39, 40, 41, 42, 43, 44, 45, 46, 47, 48, 49, 50, 51, 52, 53, 54, 55, 56, 57, 58, 59, 60, 61, 62, 63, 64, 65, 66, 67, 68, 69, 70, 71, 72, 73, 74, 75, 76, 77, 78, 79, 80, 81, 82, 83, 84, 85, 86, 87, 88, 89, 90, 91, 92, 93, 94, 95, 96, 97, 98, 99, 100, 101, 102, 103, 104, 105, 106, 107, 108, 109, 110, 111, 112, 113, 114, 115, 116, 117, 118, 119, 120, 121, 122, 123, 124, 125, 126, 127, 128, 129, 130, 131, 132, 133, 134, 135, 136, 137, 138, 139, 140, 141, 142, 143, 144, 145, 146, 147, 148, 149, 150, 151, 152, 153, 154, 155, 156, 157, 158, 159, 160, 161, 162, 163, 164, 165, 166, 167, 168, 169, 170, 171, 172, 173, 174, 175, 176, 177, 178, 179, 180, 181, 182, 183, 184, 185, 186, 187, 188, 189, 190],
      "LargestImagePixelValue": [40892, 40237, 39362, 41394, 39983, 38680, 38747, 38388, 38500, 38059, 38432, 38056, 38261, 38318, 38395, 38577, 38376, 38177, 38372, 38146, 38168, 38664, 38313, 37997, 38450, 38197, 38227, 38363, 38102, 37916, 38161, 38376, 38074, 38064, 38343, 38049, 38355, 37816, 38002, 38015, 37825, 38087, 38181, 38051, 37591, 38201, 37707, 38172, 38247, 38506, 38124, 38436, 37751, 37813, 38120, 37812, 38219, 38487, 37911, 37867, 38121, 38060, 38086, 37804, 38400, 37548, 38241, 38157, 37637, 38553, 37909, 38154, 37517, 38260, 37959, 38072, 38409, 37617, 38401, 38198, 38475, 38143, 38359, 38178, 38483, 37961, 38967, 38114, 38225, 37979, 38215, 38204, 38412, 38378, 38046, 38148, 38608, 38036, 38544, 38560, 38626, 38030, 38311, 38401, 38194, 38563, 37679, 37750, 37769, 37913, 37735, 37533, 38219, 37972, 38648, 38129, 38143, 37951, 37893, 38046, 38244, 38028, 37883, 38542, 38153, 38159, 38051, 38484, 38099, 38995, 38361, 38187, 37980, 37926, 38079, 38051, 37791, 37712, 37794, 37999, 38089, 38084, 38277, 38250, 38668, 37705, 38314, 38057, 38048, 37651, 37921, 37761, 37568, 37762, 37321, 38531, 37824, 37811, 37497, 38330, 37876, 38258, 37717, 37732, 37931, 37770, 38095, 37920, 38385, 38200, 38225, 38194, 37796, 38486, 38434, 38456, 38654, 38302, 38646, 38528, 38152, 38348, 37979, 38102, 38430, 38731, 38844, 38952, 38515, 38243],
      "WindowCenter": [10172.0, 10150.0, 10257.0, 10374.0, 10282.0, 10234.0, 10216.0, 10206.0, 10197.0, 10214.0, 10196.0, 10208.0, 10156.0, 10184.0, 10204.0, 10223.0, 10205.0, 10208.0, 10187.0, 10185.0, 10197.0, 10230.0, 10208.0, 10202.0, 10196.0, 10187.0, 10189.0, 10222.0, 10197.0, 10193.0, 10228.0, 10196.0, 10208.0, 10200.0, 10214.0, 10179.0, 10201.0, 10182.0, 10179.0, 10191.0, 10199.0, 10207.0, 10207.0, 10184.0, 10177.0, 10185.0, 10166.0, 10163.0, 10187.0, 10187.0, 10197.0, 10160.0, 10173.0, 10154.0, 10154.0, 10140.0, 10174.0, 10174.0, 10154.0, 10175.0, 10129.0, 10146.0, 10158.0, 10172.0, 10158.0, 10150.0, 10140.0, 10129.0, 10126.0, 10162.0, 10128.0, 10136.0, 10165.0, 10115.0, 10137.0, 10154.0, 10155.0, 10139.0, 10155.0, 10138.0, 10143.0, 10128.0, 10134.0, 10157.0, 10142.0, 10127.0, 10141.0, 10135.0, 10129.0, 10140.0, 10100.0, 10107.0, 10129.0, 10135.0, 10120.0, 10120.0, 10127.0, 10100.0, 10132.0, 10141.0, 10142.0, 10148.0, 10156.0, 10114.0, 10172.0, 10151.0, 10134.0, 10156.0, 10133.0, 10132.0, 10124.0, 10111.0, 10118.0, 10136.0, 10153.0, 10121.0, 10127.0, 10156.0, 10138.0, 10167.0, 10145.0, 10102.0, 10111.0, 10132.0, 10127.0, 10153.0, 10138.0, 10120.0, 10120.0, 10174.0, 10118.0, 10130.0, 10121.0, 10119.0, 10127.0, 10134.0, 10122.0, 10120.0, 10121.0, 10102.0, 10128.0, 10111.0, 10118.0, 10110.0, 10123.0, 10127.0, 10129.0, 10094.0, 10101.0, 10108.0, 10117.0, 10110.0, 10114.0, 10093.0, 10092.0, 10117.0, 10101.0, 10109.0, 10105.0, 10109.0, 10095.0, 10109.0, 10105.0, 10110.0, 10128.0, 10120.0, 10080.0, 10081.0, 10095.0, 10106.0, 10109.0, 10118.0, 10103.0, 10098.0, 10098.0, 10088.0, 10094.0, 10097.0, 10096.0, 10099.0, 10105.0, 10100.0, 10083.0, 10080.0, 10081.0, 10087.0, 10079.0, 10085.0, 10087.0, 10089.0],
      "WindowWidth": [21657.0, 21584.0, 21833.0, 22100.0, 21878.0, 21761.0, 21712.0, 21691.0, 21669.0, 21709.0, 21666.0, 21696.0, 21568.0, 21633.0, 21685.0, 21730.0, 21687.0, 21695.0, 21645.0, 21640.0, 21668.0, 21747.0, 21696.0, 21686.0, 21666.0, 21643.0, 21651.0, 21727.0, 21670.0, 21663.0, 21745.0, 21666.0, 21695.0, 21679.0, 21710.0, 21628.0, 21680.0, 21637.0, 21627.0, 21656.0, 21677.0, 21693.0, 21693.0, 21640.0, 21624.0, 21645.0, 21600.0, 21592.0, 21647.0, 21647.0, 21669.0, 21582.0, 21613.0, 21569.0, 21569.0, 21539.0, 21617.0, 21618.0, 21569.0, 21618.0, 21509.0, 21548.0, 21581.0, 21612.0, 21576.0, 21562.0, 21534.0, 21509.0, 21502.0, 21589.0, 21512.0, 21529.0, 21597.0, 21476.0, 21530.0, 21569.0, 21574.0, 21537.0, 21572.0, 21533.0, 21543.0, 21509.0, 21522.0, 21580.0, 21540.0, 21505.0, 21536.0, 21525.0, 21511.0, 21539.0, 21443.0, 21460.0, 21513.0, 21527.0, 21490.0, 21491.0, 21509.0, 21445.0, 21519.0, 21539.0, 21543.0, 21558.0, 21576.0, 21473.0, 21613.0, 21566.0, 21524.0, 21575.0, 21524.0, 21521.0, 21502.0, 21473.0, 21487.0, 21531.0, 21567.0, 21493.0, 21507.0, 21576.0, 21535.0, 21602.0, 21550.0, 21447.0, 21470.0, 21516.0, 21508.0, 21567.0, 21534.0, 21490.0, 21491.0, 21614.0, 21487.0, 21516.0, 21493.0, 21488.0, 21506.0, 21522.0, 21496.0, 21491.0, 21495.0, 21450.0, 21508.0, 21471.0, 21486.0, 21469.0, 21497.0, 21510.0, 21513.0, 21432.0, 21445.0, 21462.0, 21485.0, 21470.0, 21481.0, 21430.0, 21428.0, 21483.0, 21450.0, 21468.0, 21461.0, 21464.0, 21436.0, 21465.0, 21461.0, 21471.0, 21512.0, 21493.0, 21395.0, 21399.0, 21432.0, 21458.0, 21468.0, 21488.0, 21455.0, 21439.0, 21439.0, 21416.0, 21427.0, 21438.0, 21435.0, 21444.0, 21456.0, 21445.0, 21406.0, 21399.0, 21399.0, 21408.0, 21390.0, 21403.0, 21411.0, 21415.0]
    },
    "slices": {}
  }
}