{
  "AcquisitionMatrixPE": 104,
  "AcquisitionNumber": 1,
  "AcquisitionTime": "14:14:37.070000",
  "BandwidthPerPixelPhaseEncode": 17.17,
  "BaseResolution": 104,
  "BodyPartExamined": "BRAIN",
  "CoilString": "HC1-7;NC1_2",
  "ConsistencyInfo": "N4_VE11C_LATEST_20160120",
  "ConversionSoftware": "dcm2niix",
  "ConversionSoftwareVersion": "v1.0.20190902",
  "DerivedVendorReportedEchoSpacing": 0.000560011,
  "DeviceSerialNumber": "167006",
  "DwellTime": 2.1e-06,
  "EchoTime": 0.037,
  "EchoTrainLength": 104,
  "EffectiveEchoSpacing": 0.000560011,
  "FlipAngle": 52,
  "ImageComments": "Unaliased_MB4_PE3_LB",
  "ImageOrientationPatientDICOM": [0.999813, 0.00138331, 0.0193075, 0.00348997, 0.968216, -0.250092],
  "ImageType": [
    "ORIGINAL",
    "PRIMARY",
    "M",
    "MB",
    "ND",
    "MOSAIC"
],
  "ImagingFrequency": 123.259,
  "InPlanePhaseEncodingDirectionDICOM": "COL",
  "InstitutionAddress": "Chemin_Queen-Mary_4565_Montreal_District_CA_H3W_1W5",
  "InstitutionName": "IUGM",
  "InstitutionalDepartmentName": "Department",
  "MRAcquisitionType": "2D",
  "MagneticFieldStrength": 3,
  "Manufacturer": "Siemens",
  "ManufacturersModelName": "Prisma_fit",
  "Modality": "MR",
  "MultibandAccelerationFactor": 4,
  "PartialFourier": 1,
  "PatientPosition": "HFS",
  "PercentPhaseFOV": 100,
  "PhaseEncodingDirection": "j",
  "PhaseEncodingSteps": 104,
  "PhaseResolution": 1,
  "PixelBandwidth": 2290,
  "ProcedureStepDescription": "memory_things",
  "ProtocolName": "func_task-things_run-6",
  "PulseSequenceDetails": "%CustomerSeq%_cmrr_mbep2d_bold",
  "ReceiveCoilActiveElements": "HC1-7;NC1,2",
  "ReceiveCoilName": "HeadNeck_64",
  "ReconMatrixPE": 104,
  "RepetitionTime": 1.49,
  "SAR": 0.054461,
  "ScanOptions": "FS",
  "ScanningSequence": "EP",
  "SequenceName": "epfid2d1_104",
  "SequenceVariant": "SK_SS",
  "SeriesDescription": "func_task-things_run-6",
  "SeriesNumber": 28,
  "ShimSetting": [636, -7203, -8818, 697, 49, 6, 89, -23],
  "SliceThickness": 2,
  "SliceTiming": [0, 0.785, 0.0975, 0.8825, 0.1975, 0.98, 0.295, 1.0775, 0.3925, 1.1775, 0.49, 1.275, 0.5875, 1.3725, 0.6875, 0, 0.785, 0.0975, 0.8825, 0.1975, 0.98, 0.295, 1.0775, 0.3925, 1.1775, 0.49, 1.275, 0.5875, 1.3725, 0.6875, 0, 0.785, 0.0975, 0.8825, 0.1975, 0.98, 0.295, 1.0775, 0.3925, 1.1775, 0.49, 1.275, 0.5875, 1.3725, 0.6875, 0, 0.785, 0.0975, 0.8825, 0.1975, 0.98, 0.295, 1.0775, 0.3925, 1.1775, 0.49, 1.275, 0.5875, 1.3725, 0.6875],
  "SoftwareVersions": "syngo_MR_E11",
  "SpacingBetweenSlices": 2,
  "StationName": "MRC35049",
  "TaskName": "things",
  "TotalReadoutTime": 0.0576811,
  "TxRefAmp": 244.211,
  "WipMemBlock": "bb7c4b4c-3b82-4227-a95c-1d7afe8cc2aa||Sequence: R016 ve11c/master r/e634e98; Dec 19 2017 11:00:25 by eja",
  "dcmmeta_affine": [
    [-1.999625325202942, 0.006979935336858034, 0.03807956725358963, 107.94873809814453],
    [-0.002766629680991173, 1.9364312887191772, -0.5002259612083435, -75.39952850341797],
    [0.03861500322818756, 0.500184953212738, 1.9360588788986206, -69.02973175048828],
    [0.0, 0.0, 0.0, 1.0]
],
  "dcmmeta_reorient_transform": [
    [0.0, -1.0, 0.0, 103.0],
    [1.0, 0.0, 0.0, 0.0],
    [0.0, 0.0, 1.0, 0.0],
    [0.0, 0.0, 0.0, 1.0]
],
  "dcmmeta_shape": [104, 104, 60, 190],
  "dcmmeta_slice_dim": 2,
  "dcmmeta_version": 0.6,
  "global": {
    "const": {
      "AcquisitionMatrix": [104, 0, 0, 104],
      "AngioFlag": "N",
      "BitsAllocated": 16,
      "BitsStored": 16,
      "BodyPartExamined": "BRAIN",
      "Columns": 832,
      "EchoNumbers": 1,
      "EchoTime": 37.0,
      "EchoTrainLength": 104,
      "FlipAngle": 52.0,
      "HighBit": 15,
      "ImageOrientationPatient": [0.99981263584414, 0.00138331481867, 0.01930750233724, 0.00348996761135, 0.96821566837262, -0.2500924621891],
      "ImagePositionPatient": [-839.07196384414, -829.92095553187, 150.50076893932],
      "ImageType": [
        "ORIGINAL",
        "PRIMARY",
        "M",
        "MB",
        "ND",
        "MOSAIC"
],
      "ImagedNucleus": "1H",
      "ImagingFrequency": 123.258999,
      "InPlanePhaseEncodingDirection": "COL",
      "MRAcquisitionType": "2D",
      "MagneticFieldStrength": 3.0,
      "Manufacturer": "SIEMENS",
      "ManufacturerModelName": "Prisma_fit",
      "Modality": "MR",
      "NumberOfAverages": 1.0,
      "NumberOfPhaseEncodingSteps": 104,
      "PercentPhaseFieldOfView": 100.0,
      "PercentSampling": 100.0,
      "PerformedProcedureStepStartTime": "120539.892000",
      "PhotometricInterpretation": "MONOCHROME2",
      "PixelBandwidth": 2290.0,
      "PixelRepresentation": 0,
      "PixelSpacing": [2.0, 2.0],
      "ProtocolName": "func_task-things_run-6",
      "RepetitionTime": 1490.0,
      "Rows": 832,
      "SAR": 0.05446099144418,
      "SamplesPerPixel": 1,
      "ScanOptions": "FS",
      "ScanningSequence": "EP",
      "SequenceName": "epfid2d1_104",
      "SequenceVariant": [
        "SK",
        "SS"
],
      "SeriesDescription": "func_task-things_run-6",
      "SeriesNumber": 28,
      "SeriesTime": "141535.929000",
      "SliceLocation": -45.909086798426,
      "SliceThickness": 2.0,
      "SmallestImagePixelValue": 0,
      "SoftwareVersions": "syngo MR E11",
      "SpacingBetweenSlices": 2.0000000163956,
      "SpecificCharacterSet": "ISO_IR 100",
      "StudyID": "1",
      "StudyTime": "120539.790000",
      "TransmitCoilName": "Body",
      "VariableFlipAngleFlag": "N",
      "WindowCenterWidthExplanation": "Algo1",
      "dBdt": 0.0},
    "slices": {}
  },
  "time": {
    "samples": {
      "AcquisitionNumber": [1, 2, 3, 4, 5, 6, 7, 8, 9, 10, 11, 12, 13, 14, 15, 16, 17, 18, 19, 20, 21, 22, 23, 24, 25, 26, 27, 28, 29, 30, 31, 32, 33, 34, 35, 36, 37, 38, 39, 40, 41, 42, 43, 44, 45, 46, 47, 48, 49, 50, 51, 52, 53, 54, 55, 56, 57, 58, 59, 60, 61, 62, 63, 64, 65, 66, 67, 68, 69, 70, 71, 72, 73, 74, 75, 76, 77, 78, 79, 80, 81, 82, 83, 84, 85, 86, 87, 88, 89, 90, 91, 92, 93, 94, 95, 96, 97, 98, 99, 100, 101, 102, 103, 104, 105, 106, 107, 108, 109, 110, 111, 112, 113, 114, 115, 116, 117, 118, 119, 120, 121, 122, 123, 124, 125, 126, 127, 128, 129, 130, 131, 132, 133, 134, 135, 136, 137, 138, 139, 140, 141, 142, 143, 144, 145, 146, 147, 148, 149, 150, 151, 152, 153, 154, 155, 156, 157, 158, 159, 160, 161, 162, 163, 164, 165, 166, 167, 168, 169, 170, 171, 172, 173, 174, 175, 176, 177, 178, 179, 180, 181, 182, 183, 184, 185, 186, 187, 188, 189, 190],
      "AcquisitionTime": ["141437.070000", "141438.560000", "141440.050000", "141441.540000", "141443.030000", "141444.520000", "141446.010000", "141447.500000", "141448.990000", "141450.480000", "141451.970000", "141453.460000", "141454.950000", "141456.440000", "141457.930000", "141459.420000", "141500.910000", "141502.400000", "141503.890000", "141505.380000", "141506.870000", "141508.360000", "141509.850000", "141511.340000", "141512.830000", "141514.320000", "141515.810000", "141517.300000", "141518.790000", "141520.280000", "141521.770000", "141523.260000", "141524.750000", "141526.240000", "141527.730000", "141529.220000", "141530.710000", "141532.200000", "141533.690000", "141535.180000", "141536.670000", "141538.160000", "141539.650000", "141541.140000", "141542.630000", "141544.120000", "141545.610000", "141547.100000", "141548.590000", "141550.080000", "141551.570000", "141553.060000", "141554.550000", "141556.040000", "141557.530000", "141559.020000", "141600.510000", "141602.000000", "141603.490000", "141604.980000", "141606.470000", "141607.960000", "141609.450000", "141610.940000", "141612.430000", "141613.920000", "141615.410000", "141616.900000", "141618.390000", "141619.880000", "141621.370000", "141622.860000", "141624.350000", "141625.840000", "141627.330000", "141628.820000", "141630.310000", "141631.800000", "141633.290000", "141634.780000", "141636.270000", "141637.760000", "141639.250000", "141640.740000", "141642.230000", "141643.720000", "141645.210000", "141646.700000", "141648.190000", "141649.680000", "141651.170000", "141652.660000", "141654.150000", "141655.640000", "141657.130000", "141658.620000", "141700.110000", "141701.600000", "141703.090000", "141704.580000", "141706.070000", "141707.560000", "141709.050000", "141710.540000", "141712.030000", "141713.520000", "141715.010000", "141716.500000", "141717.990000", "141719.480000", "141720.970000", "141722.460000", "141723.950000", "141725.440000", "141726.930000", "141728.420000", "141729.910000", "141731.400000", "141732.890000", "141734.380000", "141735.870000", "141737.360000", "141738.850000", "141740.340000", "141741.830000", "141743.320000", "141744.810000", "141746.300000", "141747.790000", "141749.280000", "141750.770000", "141752.260000", "141753.750000", "141755.240000", "141756.730000", "141758.220000", "141759.710000", "141801.200000", "141802.690000", "141804.180000", "141805.670000", "141807.160000", "141808.650000", "141810.140000", "141811.630000", "141813.120000", "141814.610000", "141816.100000", "141817.590000", "141819.080000", "141820.570000", "141822.060000", "141823.550000", "141825.040000", "141826.530000", "141828.020000", "141829.510000", "141831.000000", "141832.490000", "141833.980000", "141835.470000", "141836.960000", "141838.450000", "141839.940000", "141841.430000", "141842.920000", "141844.410000", "141845.900000", "141847.390000", "141848.880000", "141850.370000", "141851.860000", "141853.350000", "141854.840000", "141856.330000", "141857.820000", "141859.310000", "141900.800000", "141902.290000", "141903.780000", "141905.270000", "141906.760000", "141908.250000", "141909.740000", "141911.230000", "141912.720000", "141914.210000", "141915.700000", "141917.190000", "141918.680000"],
      "ContentTime": ["141535.932000", "141535.936000", "141535.945000", "141535.949000", "141555.889000", "141555.902000", "141555.906000", "141555.909000", "141555.912000", "141555.916000", "141555.919000", "141555.922000", "141555.926000", "141555.929000", "141555.933000", "141555.936000", "141555.939000", "141555.943000", "141555.946000", "141555.950000", "141555.953000", "141555.956000", "141555.967000", "141555.971000", "141615.889000", "141615.892000", "141615.896000", "141615.899000", "141615.902000", "141615.906000", "141615.909000", "141615.913000", "141615.916000", "141615.920000", "141615.923000", "141615.926000", "141615.930000", "141615.933000", "141615.937000", "141615.940000", "141615.943000", "141615.947000", "141615.950000", "141615.953000", "141635.888000", "141635.893000", "141635.897000", "141635.913000", "141635.917000", "141635.920000", "141635.923000", "141635.927000", "141635.930000", "141635.934000", "141635.937000", "141635.941000", "141635.944000", "141635.947000", "141635.951000", "141635.954000", "141635.957000", "141635.961000", "141635.964000", "141635.967000", "141635.971000", "141655.888000", "141655.892000", "141655.895000", "141655.899000", "141655.902000", "141655.905000", "141655.909000", "141655.912000", "141655.916000", "141655.919000", "141655.922000", "141655.926000", "141655.929000", "141655.933000", "141655.936000", "141655.939000", "141655.943000", "141655.946000", "141655.950000", "141655.953000", "141715.889000", "141715.893000", "141715.896000", "141715.900000", "141715.903000", "141715.922000", "141715.925000", "141715.929000", "141715.932000", "141715.935000", "141715.939000", "141715.942000", "141715.946000", "141715.949000", "141715.952000", "141715.956000", "141715.959000", "141715.963000", "141715.966000", "141715.969000", "141755.889000", "141755.893000", "141755.897000", "141755.900000", "141755.903000", "141755.907000", "141755.910000", "141755.914000", "141755.917000", "141755.927000", "141755.931000", "141755.934000", "141755.938000", "141755.941000", "141755.944000", "141755.948000", "141755.951000", "141755.954000", "141755.958000", "141755.961000", "141755.965000", "141755.968000", "141755.972000", "141755.975000", "141755.978000", "141755.982000", "141755.985000", "141755.989000", "141835.888000", "141835.892000", "141835.896000", "141835.899000", "141835.902000", "141835.906000", "141835.910000", "141835.913000", "141835.917000", "141835.920000", "141835.924000", "141835.927000", "141835.930000", "141835.934000", "141835.937000", "141835.941000", "141835.944000", "141835.947000", "141835.956000", "141835.959000", "141835.962000", "141835.966000", "141835.970000", "141835.978000", "141835.982000", "141835.985000", "141915.888000", "141915.892000", "141915.896000", "141915.899000", "141915.902000", "141915.906000", "141915.909000", "141915.913000", "141915.916000", "141915.919000", "141915.923000", "141915.926000", "141915.930000", "141915.933000", "141915.937000", "141915.940000", "141915.943000", "141915.947000", "141915.950000", "141915.954000", "141915.957000", "141915.961000", "141915.964000", "141915.967000", "141915.971000", "141915.974000", "141915.978000", "141920.816000", "141920.830000", "141920.833000", "141920.837000"],
      "InstanceCreationTime": ["141535.932000", "141535.936000", "141535.945000", "141535.949000", "141555.889000", "141555.902000", "141555.906000", "141555.909000", "141555.912000", "141555.916000", "141555.919000", "141555.922000", "141555.926000", "141555.929000", "141555.933000", "141555.936000", "141555.939000", "141555.943000", "141555.946000", "141555.950000", "141555.953000", "141555.956000", "141555.967000", "141555.971000", "141615.889000", "141615.892000", "141615.896000", "141615.899000", "141615.902000", "141615.906000", "141615.909000", "141615.913000", "141615.916000", "141615.920000", "141615.923000", "141615.926000", "141615.930000", "141615.933000", "141615.937000", "141615.940000", "141615.943000", "141615.947000", "141615.950000", "141615.953000", "141635.888000", "141635.893000", "141635.897000", "141635.913000", "141635.917000", "141635.920000", "141635.923000", "141635.927000", "141635.930000", "141635.934000", "141635.937000", "141635.941000", "141635.944000", "141635.947000", "141635.951000", "141635.954000", "141635.957000", "141635.961000", "141635.964000", "141635.967000", "141635.971000", "141655.888000", "141655.892000", "141655.895000", "141655.899000", "141655.902000", "141655.905000", "141655.909000", "141655.912000", "141655.916000", "141655.919000", "141655.922000", "141655.926000", "141655.929000", "141655.933000", "141655.936000", "141655.939000", "141655.943000", "141655.946000", "141655.950000", "141655.953000", "141715.889000", "141715.893000", "141715.896000", "141715.900000", "141715.903000", "141715.922000", "141715.925000", "141715.929000", "141715.932000", "141715.935000", "141715.939000", "141715.942000", "141715.946000", "141715.949000", "141715.952000", "141715.956000", "141715.959000", "141715.963000", "141715.966000", "141715.969000", "141755.889000", "141755.893000", "141755.897000", "141755.900000", "141755.903000", "141755.907000", "141755.910000", "141755.914000", "141755.917000", "141755.927000", "141755.931000", "141755.934000", "141755.938000", "141755.941000", "141755.944000", "141755.948000", "141755.951000", "141755.954000", "141755.958000", "141755.961000", "141755.965000", "141755.968000", "141755.972000", "141755.975000", "141755.978000", "141755.982000", "141755.985000", "141755.989000", "141835.888000", "141835.892000", "141835.896000", "141835.899000", "141835.902000", "141835.906000", "141835.910000", "141835.913000", "141835.917000", "141835.920000", "141835.924000", "141835.927000", "141835.930000", "141835.934000", "141835.937000", "141835.941000", "141835.944000", "141835.947000", "141835.956000", "141835.959000", "141835.962000", "141835.966000", "141835.970000", "141835.978000", "141835.982000", "141835.985000", "141915.888000", "141915.892000", "141915.896000", "141915.899000", "141915.902000", "141915.906000", "141915.909000", "141915.913000", "141915.916000", "141915.919000", "141915.923000", "141915.926000", "141915.930000", "141915.933000", "141915.937000", "141915.940000", "141915.943000", "141915.947000", "141915.950000", "141915.954000", "141915.957000", "141915.961000", "141915.964000", "141915.967000", "141915.971000", "141915.974000", "141915.978000", "141920.816000", "141920.830000", "141920.833000", "141920.837000"],
      "InstanceNumber": [1, 2, 3, 4, 5, 6, 7, 8, 9, 10, 11, 12, 13, 14, 15, 16, 17, 18, 19, 20, 21, 22, 23, 24, 25, 26, 27, 28, 29, 30, 31, 32, 33, 34, 35, 36, 37, 38, 39, 40, 41, 42, 43, 44, 45, 46, 47, 48, 49, 50, 51, 52, 53, 54, 55, 56, 57, 58, 59, 60, 61, 62, 63, 64, 65, 66, 67, 68, 69, 70, 71, 72, 73, 74, 75, 76, 77, 78, 79, 80, 81, 82, 83, 84, 85, 86, 87, 88, 89, 90, 91, 92, 93, 94, 95, 96, 97, 98, 99, 100, 101, 102, 103, 104, 105, 106, 107, 108, 109, 110, 111, 112, 113, 114, 115, 116, 117, 118, 119, 120, 121, 122, 123, 124, 125, 126, 127, 128, 129, 130, 131, 132, 133, 134, 135, 136, 137, 138, 139, 140, 141, 142, 143, 144, 145, 146, 147, 148, 149, 150, 151, 152, 153, 154, 155, 156, 157, 158, 159, 160, 161, 162, 163, 164, 165, 166, 167, 168, 169, 170, 171, 172, 173, 174, 175, 176, 177, 178, 179, 180, 181, 182, 183, 184, 185, 186, 187, 188, 189, 190],
      "LargestImagePixelValue": [40966, 40010, 39504, 39049, 38717, 39302, 39112, 39315, 39172, 39106, 38817, 39249, 38710, 38889, 39124, 38735, 39269, 38629, 38575, 39171, 39306, 39101, 38704, 38913, 38595, 38590, 38692, 39027, 39079, 38534, 38772, 38437, 38933, 38762, 38558, 39268, 39274, 38854, 38413, 38990, 38478, 39239, 38566, 38527, 38801, 38629, 38508, 38815, 38626, 38788, 38539, 38380, 38376, 38695, 38368, 38856, 38569, 39019, 38677, 38847, 40230, 38868, 38541, 38457, 38647, 38507, 38881, 38779, 38829, 38188, 37870, 38635, 39044, 38818, 38746, 38378, 38719, 38497, 38783, 39042, 38829, 39497, 39135, 38614, 39088, 38576, 38738, 39080, 38468, 38737, 39130, 38879, 38908, 38731, 38111, 38774, 38377, 38335, 38820, 38976, 38626, 38445, 39049, 38602, 38524, 38776, 38722, 38167, 38602, 39438, 38530, 38404, 38729, 38339, 38499, 38768, 38509, 38699, 38569, 38513, 37984, 38325, 38663, 37987, 38222, 38085, 37978, 37959, 38458, 38169, 38217, 38650, 38571, 38475, 39051, 38575, 38549, 38701, 38472, 37775, 37705, 38058, 37996, 38087, 37939, 38396, 38267, 38427, 38489, 38491, 38465, 37876, 38018, 37913, 38300, 38385, 38397, 38102, 38121, 38203, 38318, 38396, 38059, 38114, 38048, 38500, 38410, 38517, 38369, 38163, 38063, 38433, 38223, 37883, 37989, 37812, 38239, 38351, 38293, 37774, 37949, 38154, 37896, 38167, 37890, 37878, 38265, 37869, 38042, 38305],
      "WindowCenter": [10215.0, 10212.0, 10204.0, 10163.0, 10116.0, 10136.0, 10098.0, 10133.0, 10157.0, 10192.0, 10176.0, 10201.0, 10152.0, 10155.0, 10165.0, 10147.0, 10148.0, 10154.0, 10132.0, 10138.0, 10154.0, 10179.0, 10151.0, 10157.0, 10122.0, 10102.0, 10118.0, 10145.0, 10174.0, 10178.0, 10152.0, 10117.0, 10121.0, 10100.0, 10113.0, 10163.0, 10169.0, 10173.0, 10152.0, 10149.0, 10104.0, 10181.0, 10134.0, 10124.0, 10142.0, 10132.0, 10124.0, 10142.0, 10159.0, 10139.0, 10143.0, 10107.0, 10089.0, 10102.0, 10118.0, 10130.0, 10126.0, 10107.0, 10089.0, 10085.0, 10173.0, 10092.0, 10113.0, 10107.0, 10104.0, 10114.0, 10146.0, 10145.0, 10158.0, 10117.0, 10083.0, 10087.0, 10083.0, 10091.0, 10101.0, 10120.0, 10136.0, 10125.0, 10145.0, 10115.0, 10093.0, 10184.0, 10165.0, 10159.0, 10155.0, 10140.0, 10141.0, 10146.0, 10115.0, 10101.0, 10119.0, 10098.0, 10138.0, 10114.0, 10111.0, 10156.0, 10148.0, 10092.0, 10091.0, 10116.0, 10104.0, 10136.0, 10180.0, 10138.0, 10111.0, 10116.0, 10117.0, 10086.0, 10115.0, 10136.0, 10140.0, 10136.0, 10133.0, 10117.0, 10098.0, 10116.0, 10117.0, 10128.0, 10140.0, 10152.0, 10119.0, 10101.0, 10095.0, 10075.0, 10105.0, 10105.0, 10093.0, 10065.0, 10061.0, 10045.0, 10051.0, 10100.0, 10128.0, 10151.0, 10179.0, 10108.0, 10107.0, 10083.0, 10102.0, 10089.0, 10110.0, 10109.0, 10101.0, 10091.0, 10100.0, 10106.0, 10099.0, 10091.0, 10098.0, 10106.0, 10122.0, 10110.0, 10115.0, 10095.0, 10097.0, 10105.0, 10139.0, 10125.0, 10109.0, 10068.0, 10052.0, 10055.0, 10093.0, 10098.0, 10099.0, 10081.0, 10077.0, 10070.0, 10077.0, 10071.0, 10089.0, 10106.0, 10102.0, 10110.0, 10100.0, 10094.0, 10099.0, 10104.0, 10114.0, 10112.0, 10099.0, 10102.0, 10097.0, 10102.0, 10094.0, 10099.0, 10090.0, 10067.0, 10057.0, 10086.0],
      "WindowWidth": [21728.0, 21703.0, 21673.0, 21577.0, 21463.0, 21509.0, 21425.0, 21499.0, 21560.0, 21643.0, 21603.0, 21661.0, 21547.0, 21551.0, 21576.0, 21534.0, 21534.0, 21553.0, 21500.0, 21511.0, 21549.0, 21607.0, 21545.0, 21555.0, 21475.0, 21429.0, 21465.0, 21531.0, 21599.0, 21610.0, 21547.0, 21463.0, 21469.0, 21423.0, 21457.0, 21571.0, 21590.0, 21600.0, 21549.0, 21539.0, 21434.0, 21610.0, 21507.0, 21483.0, 21523.0, 21501.0, 21482.0, 21524.0, 21563.0, 21514.0, 21527.0, 21441.0, 21396.0, 21425.0, 21468.0, 21495.0, 21487.0, 21442.0, 21399.0, 21390.0, 21596.0, 21410.0, 21458.0, 21446.0, 21436.0, 21460.0, 21532.0, 21531.0, 21561.0, 21468.0, 21389.0, 21393.0, 21385.0, 21404.0, 21428.0, 21476.0, 21508.0, 21491.0, 21535.0, 21465.0, 21412.0, 21623.0, 21581.0, 21567.0, 21552.0, 21518.0, 21520.0, 21528.0, 21461.0, 21427.0, 21468.0, 21421.0, 21511.0, 21459.0, 21454.0, 21557.0, 21537.0, 21405.0, 21403.0, 21461.0, 21434.0, 21513.0, 21612.0, 21512.0, 21449.0, 21456.0, 21464.0, 21390.0, 21460.0, 21505.0, 21517.0, 21507.0, 21497.0, 21464.0, 21421.0, 21463.0, 21468.0, 21486.0, 21516.0, 21543.0, 21469.0, 21426.0, 21408.0, 21364.0, 21435.0, 21434.0, 21409.0, 21345.0, 21332.0, 21302.0, 21317.0, 21426.0, 21491.0, 21546.0, 21610.0, 21446.0, 21441.0, 21385.0, 21429.0, 21403.0, 21452.0, 21448.0, 21430.0, 21408.0, 21427.0, 21441.0, 21426.0, 21407.0, 21421.0, 21440.0, 21476.0, 21452.0, 21460.0, 21416.0, 21418.0, 21437.0, 21513.0, 21480.0, 21444.0, 21351.0, 21314.0, 21319.0, 21409.0, 21422.0, 21423.0, 21381.0, 21368.0, 21356.0, 21370.0, 21361.0, 21402.0, 21436.0, 21430.0, 21447.0, 21422.0, 21411.0, 21422.0, 21431.0, 21452.0, 21451.0, 21420.0, 21426.0, 21418.0, 21426.0, 21408.0, 21416.0, 21394.0, 21346.0, 21322.0, 21386.0]
    },
    "slices": {}
  }
}