{
  "AcquisitionMatrixPE": 104,
  "AcquisitionNumber": 1,
  "AcquisitionTime": "13:28:55.282500",
  "BandwidthPerPixelPhaseEncode": 17.17,
  "BaseResolution": 104,
  "BodyPartExamined": "BRAIN",
  "CoilString": "HC1-7;NC1_2",
  "ConsistencyInfo": "N4_VE11C_LATEST_20160120",
  "ConversionSoftware": "dcm2niix",
  "ConversionSoftwareVersion": "v1.0.20190902",
  "DerivedVendorReportedEchoSpacing": 0.000560011,
  "DeviceSerialNumber": "167006",
  "DwellTime": 2.1e-06,
  "EchoTime": 0.037,
  "EchoTrainLength": 104,
  "EffectiveEchoSpacing": 0.000560011,
  "FlipAngle": 52,
  "ImageComments": "Unaliased_MB4_PE3_LB",
  "ImageOrientationPatientDICOM": [0.999813, 0.00138331, 0.0193075, 0.00348997, 0.968216, -0.250092],
  "ImageType": [
    "ORIGINAL",
    "PRIMARY",
    "P",
    "MB",
    "ND",
    "MOSAIC"
],
  "ImagingFrequency": 123.259,
  "InPlanePhaseEncodingDirectionDICOM": "COL",
  "InstitutionAddress": "Chemin_Queen-Mary_4565_Montreal_District_CA_H3W_1W5",
  "InstitutionName": "IUGM",
  "InstitutionalDepartmentName": "Department",
  "MRAcquisitionType": "2D",
  "MagneticFieldStrength": 3,
  "Manufacturer": "Siemens",
  "ManufacturersModelName": "Prisma_fit",
  "Modality": "MR",
  "MultibandAccelerationFactor": 4,
  "PartialFourier": 1,
  "PatientPosition": "HFS",
  "PercentPhaseFOV": 100,
  "PhaseEncodingDirection": "j",
  "PhaseEncodingSteps": 104,
  "PhaseResolution": 1,
  "PixelBandwidth": 2290,
  "ProcedureStepDescription": "memory_things",
  "ProtocolName": "func_task-things_run-2",
  "PulseSequenceDetails": "%CustomerSeq%_cmrr_mbep2d_bold",
  "ReceiveCoilActiveElements": "HC1-7;NC1,2",
  "ReceiveCoilName": "HeadNeck_64",
  "ReconMatrixPE": 104,
  "RepetitionTime": 1.49,
  "SAR": 0.054461,
  "ScanOptions": "FS",
  "ScanningSequence": "EP",
  "SequenceName": "epfid2d1_104",
  "SequenceVariant": "SK_SS",
  "SeriesDescription": "func_task-things_run-2",
  "SeriesNumber": 14,
  "ShimSetting": [636, -7203, -8818, 697, 49, 6, 89, -23],
  "SliceThickness": 2,
  "SliceTiming": [0, 0.785, 0.1, 0.8825, 0.1975, 0.98, 0.295, 1.08, 0.3925, 1.1775, 0.49, 1.275, 0.59, 1.3725, 0.6875, 0, 0.785, 0.1, 0.8825, 0.1975, 0.98, 0.295, 1.08, 0.3925, 1.1775, 0.49, 1.275, 0.59, 1.3725, 0.6875, 0, 0.785, 0.1, 0.8825, 0.1975, 0.98, 0.295, 1.08, 0.3925, 1.1775, 0.49, 1.275, 0.59, 1.3725, 0.6875, 0, 0.785, 0.1, 0.8825, 0.1975, 0.98, 0.295, 1.08, 0.3925, 1.1775, 0.49, 1.275, 0.59, 1.3725, 0.6875],
  "SoftwareVersions": "syngo_MR_E11",
  "SpacingBetweenSlices": 2,
  "StationName": "MRC35049",
  "TaskName": "things",
  "TotalReadoutTime": 0.0576811,
  "TxRefAmp": 244.211,
  "WipMemBlock": "aa9fc3c7-55b8-4a62-9b94-f4013583c5da||Sequence: R016 ve11c/master r/e634e98; Dec 19 2017 11:00:25 by eja",
  "dcmmeta_affine": [
    [-1.999625325202942, 0.006979935336858034, 0.03807956725358963, 107.94873809814453],
    [-0.002766629680991173, 1.9364312887191772, -0.5002259612083435, -75.39952850341797],
    [0.03861500322818756, 0.500184953212738, 1.9360588788986206, -69.02973175048828],
    [0.0, 0.0, 0.0, 1.0]
],
  "dcmmeta_reorient_transform": [
    [0.0, -1.0, 0.0, 103.0],
    [1.0, 0.0, 0.0, 0.0],
    [0.0, 0.0, 1.0, 0.0],
    [0.0, 0.0, 0.0, 1.0]
],
  "dcmmeta_shape": [104, 104, 60, 190],
  "dcmmeta_slice_dim": 2,
  "dcmmeta_version": 0.6,
  "global": {
    "const": {
      "AcquisitionMatrix": [104, 0, 0, 104],
      "AngioFlag": "N",
      "BitsAllocated": 16,
      "BitsStored": 16,
      "BodyPartExamined": "BRAIN",
      "Columns": 832,
      "EchoNumbers": 1,
      "EchoTime": 37.0,
      "EchoTrainLength": 104,
      "FlipAngle": 52.0,
      "HighBit": 15,
      "ImageOrientationPatient": [0.99981263584414, 0.00138331481867, 0.01930750233724, 0.00348996761135, 0.96821566837262, -0.2500924621891],
      "ImagePositionPatient": [-839.07196384414, -829.92095553187, 150.50076893932],
      "ImageType": [
        "ORIGINAL",
        "PRIMARY",
        "P",
        "MB",
        "ND",
        "MOSAIC"
],
      "ImagedNucleus": "1H",
      "ImagingFrequency": 123.258991,
      "InPlanePhaseEncodingDirection": "COL",
      "LargestImagePixelValue": 4095,
      "MRAcquisitionType": "2D",
      "MagneticFieldStrength": 3.0,
      "Manufacturer": "SIEMENS",
      "ManufacturerModelName": "Prisma_fit",
      "Modality": "MR",
      "NumberOfAverages": 1.0,
      "NumberOfPhaseEncodingSteps": 104,
      "PercentPhaseFieldOfView": 100.0,
      "PercentSampling": 100.0,
      "PerformedProcedureStepStartTime": "120539.892000",
      "PhotometricInterpretation": "MONOCHROME2",
      "PixelBandwidth": 2290.0,
      "PixelRepresentation": 0,
      "PixelSpacing": [2.0, 2.0],
      "ProtocolName": "func_task-things_run-2",
      "RepetitionTime": 1490.0,
      "RescaleIntercept": -4096.0,
      "RescaleSlope": 2.0,
      "RescaleType": "US",
      "Rows": 832,
      "SAR": 0.05446099144418,
      "SamplesPerPixel": 1,
      "ScanOptions": "FS",
      "ScanningSequence": "EP",
      "SequenceName": "epfid2d1_104",
      "SequenceVariant": [
        "SK",
        "SS"
],
      "SeriesDescription": "func_task-things_run-2",
      "SeriesNumber": 14,
      "SeriesTime": "133022.022000",
      "SliceLocation": -45.909086798426,
      "SliceThickness": 2.0,
      "SmallestImagePixelValue": 0,
      "SoftwareVersions": "syngo MR E11",
      "SpacingBetweenSlices": 2.0000000163956,
      "SpecificCharacterSet": "ISO_IR 100",
      "StudyID": "1",
      "StudyTime": "120539.790000",
      "TransmitCoilName": "Body",
      "VariableFlipAngleFlag": "N",
      "WindowCenterWidthExplanation": "Algo1",
      "dBdt": 0.0},
    "slices": {}
  },
  "time": {
    "samples": {
      "AcquisitionNumber": [1, 2, 3, 4, 5, 6, 7, 8, 9, 10, 11, 12, 13, 14, 15, 16, 17, 18, 19, 20, 21, 22, 23, 24, 25, 26, 27, 28, 29, 30, 31, 32, 33, 34, 35, 36, 37, 38, 39, 40, 41, 42, 43, 44, 45, 46, 47, 48, 49, 50, 51, 52, 53, 54, 55, 56, 57, 58, 59, 60, 61, 62, 63, 64, 65, 66, 67, 68, 69, 70, 71, 72, 73, 74, 75, 76, 77, 78, 79, 80, 81, 82, 83, 84, 85, 86, 87, 88, 89, 90, 91, 92, 93, 94, 95, 96, 97, 98, 99, 100, 101, 102, 103, 104, 105, 106, 107, 108, 109, 110, 111, 112, 113, 114, 115, 116, 117, 118, 119, 120, 121, 122, 123, 124, 125, 126, 127, 128, 129, 130, 131, 132, 133, 134, 135, 136, 137, 138, 139, 140, 141, 142, 143, 144, 145, 146, 147, 148, 149, 150, 151, 152, 153, 154, 155, 156, 157, 158, 159, 160, 161, 162, 163, 164, 165, 166, 167, 168, 169, 170, 171, 172, 173, 174, 175, 176, 177, 178, 179, 180, 181, 182, 183, 184, 185, 186, 187, 188, 189, 190],
      "AcquisitionTime": ["132855.282500", "132856.772500", "132858.262500", "132859.752500", "132901.242500", "132902.732500", "132904.222500", "132905.712500", "132907.202500", "132908.692500", "132910.182500", "132911.672500", "132913.162500", "132914.652500", "132916.142500", "132917.632500", "132919.122500", "132920.612500", "132922.102500", "132923.592500", "132925.082500", "132926.572500", "132928.062500", "132929.552500", "132931.042500", "132932.532500", "132934.022500", "132935.512500", "132937.002500", "132938.492500", "132939.982500", "132941.472500", "132942.962500", "132944.452500", "132945.942500", "132947.432500", "132948.922500", "132950.412500", "132951.902500", "132953.392500", "132954.882500", "132956.372500", "132957.862500", "132959.352500", "133000.842500", "133002.332500", "133003.822500", "133005.312500", "133006.802500", "133008.292500", "133009.782500", "133011.272500", "133012.762500", "133014.252500", "133015.742500", "133017.232500", "133018.722500", "133020.212500", "133021.702500", "133023.192500", "133024.682500", "133026.172500", "133027.662500", "133029.152500", "133030.642500", "133032.132500", "133033.622500", "133035.112500", "133036.602500", "133038.092500", "133039.582500", "133041.072500", "133042.562500", "133044.052500", "133045.542500", "133047.032500", "133048.522500", "133050.012500", "133051.502500", "133052.992500", "133054.482500", "133055.972500", "133057.462500", "133058.952500", "133100.442500", "133101.932500", "133103.422500", "133104.912500", "133106.402500", "133107.892500", "133109.382500", "133110.872500", "133112.362500", "133113.852500", "133115.342500", "133116.832500", "133118.322500", "133119.812500", "133121.302500", "133122.792500", "133124.282500", "133125.772500", "133127.262500", "133128.752500", "133130.242500", "133131.732500", "133133.222500", "133134.712500", "133136.202500", "133137.692500", "133139.182500", "133140.672500", "133142.162500", "133143.652500", "133145.142500", "133146.632500", "133148.122500", "133149.612500", "133151.102500", "133152.592500", "133154.082500", "133155.572500", "133157.062500", "133158.552500", "133200.042500", "133201.532500", "133203.022500", "133204.512500", "133206.002500", "133207.492500", "133208.982500", "133210.472500", "133211.962500", "133213.452500", "133214.942500", "133216.432500", "133217.922500", "133219.412500", "133220.902500", "133222.392500", "133223.882500", "133225.372500", "133226.862500", "133228.352500", "133229.842500", "133231.332500", "133232.822500", "133234.312500", "133235.802500", "133237.292500", "133238.782500", "133240.272500", "133241.762500", "133243.252500", "133244.742500", "133246.232500", "133247.722500", "133249.212500", "133250.702500", "133252.192500", "133253.682500", "133255.172500", "133256.662500", "133258.152500", "133259.642500", "133301.132500", "133302.622500", "133304.112500", "133305.602500", "133307.092500", "133308.582500", "133310.072500", "133311.562500", "133313.052500", "133314.542500", "133316.032500", "133317.522500", "133319.012500", "133320.502500", "133321.992500", "133323.482500", "133324.972500", "133326.462500", "133327.952500", "133329.442500", "133330.932500", "133332.422500", "133333.912500", "133335.402500", "133336.892500"],
      "ContentTime": ["133022.024000", "133022.027000", "133022.030000", "133022.032000", "133022.035000", "133022.037000", "133022.040000", "133022.043000", "133022.045000", "133022.048000", "133022.050000", "133022.053000", "133022.055000", "133022.058000", "133022.060000", "133022.063000", "133022.065000", "133022.068000", "133022.071000", "133022.073000", "133022.076000", "133022.078000", "133022.081000", "133022.083000", "133022.086000", "133022.088000", "133022.091000", "133022.093000", "133022.096000", "133022.098000", "133022.101000", "133041.919000", "133041.922000", "133041.924000", "133041.927000", "133041.930000", "133041.932000", "133041.935000", "133041.937000", "133041.940000", "133041.942000", "133041.945000", "133041.947000", "133041.950000", "133041.952000", "133041.955000", "133041.958000", "133041.960000", "133041.963000", "133041.973000", "133041.976000", "133041.979000", "133101.935000", "133101.939000", "133101.942000", "133101.944000", "133101.947000", "133101.949000", "133101.952000", "133101.954000", "133101.957000", "133101.959000", "133101.962000", "133101.964000", "133101.967000", "133101.970000", "133101.972000", "133101.975000", "133101.977000", "133101.980000", "133101.982000", "133101.985000", "133121.934000", "133121.937000", "133121.940000", "133121.942000", "133121.945000", "133121.947000", "133121.950000", "133121.952000", "133121.955000", "133121.957000", "133121.960000", "133121.962000", "133121.965000", "133121.967000", "133121.970000", "133121.973000", "133121.975000", "133121.978000", "133121.980000", "133121.983000", "133201.972000", "133201.975000", "133201.978000", "133201.980000", "133201.988000", "133201.991000", "133201.993000", "133201.996000", "133202.000000", "133202.002000", "133202.005000", "133202.007000", "133202.010000", "133202.012000", "133202.015000", "133202.018000", "133202.020000", "133202.031000", "133202.034000", "133202.036000", "133202.039000", "133202.041000", "133202.044000", "133202.046000", "133202.049000", "133202.051000", "133202.054000", "133202.056000", "133202.063000", "133202.066000", "133202.069000", "133202.071000", "133241.968000", "133241.971000", "133241.973000", "133241.976000", "133241.979000", "133241.981000", "133241.984000", "133241.986000", "133241.989000", "133241.991000", "133241.994000", "133241.997000", "133242.000000", "133242.003000", "133242.005000", "133242.008000", "133242.010000", "133242.013000", "133242.015000", "133242.018000", "133242.021000", "133242.023000", "133242.026000", "133242.028000", "133242.031000", "133242.033000", "133242.036000", "133321.953000", "133321.955000", "133321.958000", "133321.960000", "133321.963000", "133321.966000", "133321.968000", "133321.971000", "133321.973000", "133321.976000", "133321.978000", "133321.981000", "133321.983000", "133321.986000", "133321.988000", "133321.991000", "133321.994000", "133321.997000", "133322.000000", "133322.003000", "133322.005000", "133322.008000", "133322.011000", "133322.013000", "133322.016000", "133322.018000", "133322.021000", "133339.110000", "133339.113000", "133339.116000", "133339.119000", "133339.121000", "133339.124000", "133339.127000", "133339.129000", "133339.132000", "133339.134000", "133339.137000", "133339.139000"],
      "InstanceCreationTime": ["133022.024000", "133022.027000", "133022.030000", "133022.032000", "133022.035000", "133022.037000", "133022.040000", "133022.043000", "133022.045000", "133022.048000", "133022.050000", "133022.053000", "133022.055000", "133022.058000", "133022.060000", "133022.063000", "133022.065000", "133022.068000", "133022.071000", "133022.073000", "133022.076000", "133022.078000", "133022.081000", "133022.083000", "133022.086000", "133022.088000", "133022.091000", "133022.093000", "133022.096000", "133022.098000", "133022.101000", "133041.919000", "133041.922000", "133041.924000", "133041.927000", "133041.930000", "133041.932000", "133041.935000", "133041.937000", "133041.940000", "133041.942000", "133041.945000", "133041.947000", "133041.950000", "133041.952000", "133041.955000", "133041.958000", "133041.960000", "133041.963000", "133041.973000", "133041.976000", "133041.979000", "133101.935000", "133101.939000", "133101.942000", "133101.944000", "133101.947000", "133101.949000", "133101.952000", "133101.954000", "133101.957000", "133101.959000", "133101.962000", "133101.964000", "133101.967000", "133101.970000", "133101.972000", "133101.975000", "133101.977000", "133101.980000", "133101.982000", "133101.985000", "133121.934000", "133121.937000", "133121.940000", "133121.942000", "133121.945000", "133121.947000", "133121.950000", "133121.952000", "133121.955000", "133121.957000", "133121.960000", "133121.962000", "133121.965000", "133121.967000", "133121.970000", "133121.973000", "133121.975000", "133121.978000", "133121.980000", "133121.983000", "133201.972000", "133201.975000", "133201.978000", "133201.980000", "133201.988000", "133201.991000", "133201.993000", "133201.996000", "133202.000000", "133202.002000", "133202.005000", "133202.007000", "133202.010000", "133202.012000", "133202.015000", "133202.018000", "133202.020000", "133202.031000", "133202.034000", "133202.036000", "133202.039000", "133202.041000", "133202.044000", "133202.046000", "133202.049000", "133202.051000", "133202.054000", "133202.056000", "133202.063000", "133202.066000", "133202.069000", "133202.071000", "133241.968000", "133241.971000", "133241.973000", "133241.976000", "133241.979000", "133241.981000", "133241.984000", "133241.986000", "133241.989000", "133241.991000", "133241.994000", "133241.997000", "133242.000000", "133242.003000", "133242.005000", "133242.008000", "133242.010000", "133242.013000", "133242.015000", "133242.018000", "133242.021000", "133242.023000", "133242.026000", "133242.028000", "133242.031000", "133242.033000", "133242.036000", "133321.953000", "133321.955000", "133321.958000", "133321.960000", "133321.963000", "133321.966000", "133321.968000", "133321.971000", "133321.973000", "133321.976000", "133321.978000", "133321.981000", "133321.983000", "133321.986000", "133321.988000", "133321.991000", "133321.994000", "133321.997000", "133322.000000", "133322.003000", "133322.005000", "133322.008000", "133322.011000", "133322.013000", "133322.016000", "133322.018000", "133322.021000", "133339.110000", "133339.113000", "133339.116000", "133339.119000", "133339.121000", "133339.124000", "133339.127000", "133339.129000", "133339.132000", "133339.134000", "133339.137000", "133339.139000"],
      "InstanceNumber": [1, 2, 3, 4, 5, 6, 7, 8, 9, 10, 11, 12, 13, 14, 15, 16, 17, 18, 19, 20, 21, 22, 23, 24, 25, 26, 27, 28, 29, 30, 31, 32, 33, 34, 35, 36, 37, 38, 39, 40, 41, 42, 43, 44, 45, 46, 47, 48, 49, 50, 51, 52, 53, 54, 55, 56, 57, 58, 59, 60, 61, 62, 63, 64, 65, 66, 67, 68, 69, 70, 71, 72, 73, 74, 75, 76, 77, 78, 79, 80, 81, 82, 83, 84, 85, 86, 87, 88, 89, 90, 91, 92, 93, 94, 95, 96, 97, 98, 99, 100, 101, 102, 103, 104, 105, 106, 107, 108, 109, 110, 111, 112, 113, 114, 115, 116, 117, 118, 119, 120, 121, 122, 123, 124, 125, 126, 127, 128, 129, 130, 131, 132, 133, 134, 135, 136, 137, 138, 139, 140, 141, 142, 143, 144, 145, 146, 147, 148, 149, 150, 151, 152, 153, 154, 155, 156, 157, 158, 159, 160, 161, 162, 163, 164, 165, 166, 167, 168, 169, 170, 171, 172, 173, 174, 175, 176, 177, 178, 179, 180, 181, 182, 183, 184, 185, 186, 187, 188, 189, 190],
      "WindowCenter": [4900.0, 4904.0, 4904.0, 4904.0, 4900.0, 4900.0, 4902.0, 4902.0, 4900.0, 4904.0, 4900.0, 4902.0, 4900.0, 4902.0, 4902.0, 4896.0, 4902.0, 4902.0, 4902.0, 4900.0, 4900.0, 4898.0, 4904.0, 4900.0, 4900.0, 4900.0, 4900.0, 4900.0, 4900.0, 4900.0, 4906.0, 4898.0, 4902.0, 4900.0, 4902.0, 4900.0, 4902.0, 4902.0, 4902.0, 4900.0, 4904.0, 4902.0, 4902.0, 4900.0, 4900.0, 4900.0, 4876.0, 4898.0, 4902.0, 4902.0, 4902.0, 4902.0, 4902.0, 4900.0, 4900.0, 4902.0, 4900.0, 4902.0, 4900.0, 4902.0, 4902.0, 4902.0, 4902.0, 4904.0, 4902.0, 4900.0, 4900.0, 4906.0, 4900.0, 4904.0, 4902.0, 4900.0, 4902.0, 4904.0, 4902.0, 4902.0, 4902.0, 4900.0, 4902.0, 4902.0, 4902.0, 4904.0, 4900.0, 4902.0, 4900.0, 4900.0, 4900.0, 4902.0, 4902.0, 4906.0, 4902.0, 4904.0, 4902.0, 4900.0, 4902.0, 4900.0, 4900.0, 4902.0, 4902.0, 4900.0, 4900.0, 4904.0, 4898.0, 4900.0, 4900.0, 4900.0, 4900.0, 4900.0, 4904.0, 4902.0, 4902.0, 4904.0, 4900.0, 4902.0, 4902.0, 4904.0, 4902.0, 4900.0, 4904.0, 4900.0, 4904.0, 4902.0, 4898.0, 4904.0, 4902.0, 4902.0, 4902.0, 4902.0, 4900.0, 4902.0, 4902.0, 4900.0, 4902.0, 4902.0, 4906.0, 4900.0, 4904.0, 4898.0, 4902.0, 4902.0, 4904.0, 4902.0, 4902.0, 4902.0, 4900.0, 4902.0, 4902.0, 4900.0, 4902.0, 4902.0, 4902.0, 4902.0, 4900.0, 4902.0, 4902.0, 4904.0, 4902.0, 4902.0, 4902.0, 4902.0, 4898.0, 4904.0, 4898.0, 4902.0, 4904.0, 4902.0, 4900.0, 4904.0, 4904.0, 4900.0, 4904.0, 4902.0, 4902.0, 4906.0, 4904.0, 4902.0, 4902.0, 4902.0, 4908.0, 4902.0, 4900.0, 4904.0, 4902.0, 4904.0, 4904.0, 4906.0, 4906.0, 4902.0, 4902.0, 4904.0],
      "WindowWidth": [18702.0, 18698.0, 18706.0, 18708.0, 18702.0, 18708.0, 18702.0, 18706.0, 18700.0, 18706.0, 18696.0, 18706.0, 18704.0, 18710.0, 18702.0, 18704.0, 18702.0, 18704.0, 18704.0, 18708.0, 18706.0, 18706.0, 18706.0, 18694.0, 18700.0, 18700.0, 18694.0, 18704.0, 18700.0, 18696.0, 18710.0, 18700.0, 18706.0, 18706.0, 18712.0, 18702.0, 18704.0, 18700.0, 18702.0, 18696.0, 18714.0, 18704.0, 18710.0, 18706.0, 18706.0, 18706.0, 18662.0, 18702.0, 18700.0, 18700.0, 18710.0, 18712.0, 18706.0, 18700.0, 18708.0, 18706.0, 18708.0, 18698.0, 18702.0, 18700.0, 18708.0, 18702.0, 18706.0, 18706.0, 18708.0, 18706.0, 18704.0, 18708.0, 18702.0, 18708.0, 18706.0, 18702.0, 18706.0, 18710.0, 18702.0, 18708.0, 18702.0, 18706.0, 18708.0, 18710.0, 18708.0, 18708.0, 18704.0, 18700.0, 18708.0, 18700.0, 18704.0, 18710.0, 18710.0, 18706.0, 18708.0, 18708.0, 18706.0, 18702.0, 18704.0, 18714.0, 18698.0, 18712.0, 18702.0, 18710.0, 18696.0, 18704.0, 18712.0, 18704.0, 18708.0, 18708.0, 18708.0, 18710.0, 18706.0, 18708.0, 18708.0, 18710.0, 18708.0, 18708.0, 18708.0, 18716.0, 18714.0, 18704.0, 18712.0, 18704.0, 18714.0, 18704.0, 18710.0, 18708.0, 18706.0, 18712.0, 18708.0, 18716.0, 18704.0, 18704.0, 18704.0, 18710.0, 18706.0, 18710.0, 18712.0, 18710.0, 18706.0, 18710.0, 18708.0, 18716.0, 18710.0, 18714.0, 18704.0, 18704.0, 18708.0, 18704.0, 18714.0, 18706.0, 18710.0, 18706.0, 18712.0, 18714.0, 18702.0, 18714.0, 18706.0, 18708.0, 18704.0, 18702.0, 18708.0, 18706.0, 18696.0, 18710.0, 18714.0, 18710.0, 18716.0, 18704.0, 18712.0, 18708.0, 18714.0, 18704.0, 18712.0, 18708.0, 18708.0, 18710.0, 18716.0, 18708.0, 18714.0, 18704.0, 18710.0, 18700.0, 18708.0, 18710.0, 18708.0, 18708.0, 18714.0, 18714.0, 18710.0, 18714.0, 18706.0, 18710.0]
    },
    "slices": {}
  }
}