{
  "AcquisitionMatrixPE": 104,
  "AcquisitionNumber": 1,
  "AcquisitionTime": "14:02:9.815000",
  "BandwidthPerPixelPhaseEncode": 17.17,
  "BaseResolution": 104,
  "BodyPartExamined": "BRAIN",
  "CoilString": "HC1-7;NC1_2",
  "ConsistencyInfo": "N4_VE11C_LATEST_20160120",
  "ConversionSoftware": "dcm2niix",
  "ConversionSoftwareVersion": "v1.0.20190902",
  "DerivedVendorReportedEchoSpacing": 0.000560011,
  "DeviceSerialNumber": "167006",
  "DwellTime": 2.1e-06,
  "EchoTime": 0.037,
  "EchoTrainLength": 104,
  "EffectiveEchoSpacing": 0.000560011,
  "FlipAngle": 52,
  "ImageComments": "Unaliased_MB4_PE3_LB",
  "ImageOrientationPatientDICOM": [0.999813, 0.00138331, 0.0193075, 0.00348997, 0.968216, -0.250092],
  "ImageType": [
    "ORIGINAL",
    "PRIMARY",
    "P",
    "MB",
    "ND",
    "MOSAIC"
],
  "ImagingFrequency": 123.259,
  "InPlanePhaseEncodingDirectionDICOM": "COL",
  "InstitutionAddress": "Chemin_Queen-Mary_4565_Montreal_District_CA_H3W_1W5",
  "InstitutionName": "IUGM",
  "InstitutionalDepartmentName": "Department",
  "MRAcquisitionType": "2D",
  "MagneticFieldStrength": 3,
  "Manufacturer": "Siemens",
  "ManufacturersModelName": "Prisma_fit",
  "Modality": "MR",
  "MultibandAccelerationFactor": 4,
  "PartialFourier": 1,
  "PatientPosition": "HFS",
  "PercentPhaseFOV": 100,
  "PhaseEncodingDirection": "j",
  "PhaseEncodingSteps": 104,
  "PhaseResolution": 1,
  "PixelBandwidth": 2290,
  "ProcedureStepDescription": "memory_things",
  "ProtocolName": "func_task-things_run-4",
  "PulseSequenceDetails": "%CustomerSeq%_cmrr_mbep2d_bold",
  "ReceiveCoilActiveElements": "HC1-7;NC1,2",
  "ReceiveCoilName": "HeadNeck_64",
  "ReconMatrixPE": 104,
  "RepetitionTime": 1.49,
  "SAR": 0.054461,
  "ScanOptions": "FS",
  "ScanningSequence": "EP",
  "SequenceName": "epfid2d1_104",
  "SequenceVariant": "SK_SS",
  "SeriesDescription": "func_task-things_run-4",
  "SeriesNumber": 23,
  "ShimSetting": [636, -7203, -8818, 697, 49, 6, 89, -23],
  "SliceThickness": 2,
  "SliceTiming": [0, 0.7825, 0.0975, 0.88, 0.195, 0.9775, 0.2925, 1.0775, 0.39, 1.175, 0.4875, 1.2725, 0.5875, 1.37, 0.685, 0, 0.7825, 0.0975, 0.88, 0.195, 0.9775, 0.2925, 1.0775, 0.39, 1.175, 0.4875, 1.2725, 0.5875, 1.37, 0.685, 0, 0.7825, 0.0975, 0.88, 0.195, 0.9775, 0.2925, 1.0775, 0.39, 1.175, 0.4875, 1.2725, 0.5875, 1.37, 0.685, 0, 0.7825, 0.0975, 0.88, 0.195, 0.9775, 0.2925, 1.0775, 0.39, 1.175, 0.4875, 1.2725, 0.5875, 1.37, 0.685],
  "SoftwareVersions": "syngo_MR_E11",
  "SpacingBetweenSlices": 2,
  "StationName": "MRC35049",
  "TaskName": "things",
  "TotalReadoutTime": 0.0576811,
  "TxRefAmp": 244.211,
  "WipMemBlock": "dd93ecd9-ea3a-488d-8308-ab84bf6d112b||Sequence: R016 ve11c/master r/e634e98; Dec 19 2017 11:00:25 by eja",
  "dcmmeta_affine": [
    [-1.999625325202942, 0.006979935336858034, 0.03807956725358963, 107.94873809814453],
    [-0.002766629680991173, 1.9364312887191772, -0.5002259612083435, -75.39952850341797],
    [0.03861500322818756, 0.500184953212738, 1.9360588788986206, -69.02973175048828],
    [0.0, 0.0, 0.0, 1.0]
],
  "dcmmeta_reorient_transform": [
    [0.0, -1.0, 0.0, 103.0],
    [1.0, 0.0, 0.0, 0.0],
    [0.0, 0.0, 1.0, 0.0],
    [0.0, 0.0, 0.0, 1.0]
],
  "dcmmeta_shape": [104, 104, 60, 190],
  "dcmmeta_slice_dim": 2,
  "dcmmeta_version": 0.6,
  "global": {
    "const": {
      "AcquisitionMatrix": [104, 0, 0, 104],
      "AngioFlag": "N",
      "BitsAllocated": 16,
      "BitsStored": 16,
      "BodyPartExamined": "BRAIN",
      "Columns": 832,
      "EchoNumbers": 1,
      "EchoTime": 37.0,
      "EchoTrainLength": 104,
      "FlipAngle": 52.0,
      "HighBit": 15,
      "ImageOrientationPatient": [0.99981263584414, 0.00138331481867, 0.01930750233724, 0.00348996761135, 0.96821566837262, -0.2500924621891],
      "ImagePositionPatient": [-839.07196384414, -829.92095553187, 150.50076893932],
      "ImageType": [
        "ORIGINAL",
        "PRIMARY",
        "P",
        "MB",
        "ND",
        "MOSAIC"
],
      "ImagedNucleus": "1H",
      "ImagingFrequency": 123.258996,
      "InPlanePhaseEncodingDirection": "COL",
      "LargestImagePixelValue": 4095,
      "MRAcquisitionType": "2D",
      "MagneticFieldStrength": 3.0,
      "Manufacturer": "SIEMENS",
      "ManufacturerModelName": "Prisma_fit",
      "Modality": "MR",
      "NumberOfAverages": 1.0,
      "NumberOfPhaseEncodingSteps": 104,
      "PercentPhaseFieldOfView": 100.0,
      "PercentSampling": 100.0,
      "PerformedProcedureStepStartTime": "120539.892000",
      "PhotometricInterpretation": "MONOCHROME2",
      "PixelBandwidth": 2290.0,
      "PixelRepresentation": 0,
      "PixelSpacing": [2.0, 2.0],
      "ProtocolName": "func_task-things_run-4",
      "RepetitionTime": 1490.0,
      "RescaleIntercept": -4096.0,
      "RescaleSlope": 2.0,
      "RescaleType": "US",
      "Rows": 832,
      "SAR": 0.05446099144418,
      "SamplesPerPixel": 1,
      "ScanOptions": "FS",
      "ScanningSequence": "EP",
      "SequenceName": "epfid2d1_104",
      "SequenceVariant": [
        "SK",
        "SS"
],
      "SeriesDescription": "func_task-things_run-4",
      "SeriesNumber": 23,
      "SeriesTime": "140342.411000",
      "SliceLocation": -45.909086798426,
      "SliceThickness": 2.0,
      "SmallestImagePixelValue": 0,
      "SoftwareVersions": "syngo MR E11",
      "SpacingBetweenSlices": 2.0000000163956,
      "SpecificCharacterSet": "ISO_IR 100",
      "StudyID": "1",
      "StudyTime": "120539.790000",
      "TransmitCoilName": "Body",
      "VariableFlipAngleFlag": "N",
      "WindowCenterWidthExplanation": "Algo1",
      "dBdt": 0.0},
    "slices": {}
  },
  "time": {
    "samples": {
      "AcquisitionNumber": [1, 2, 3, 4, 5, 6, 7, 8, 9, 10, 11, 12, 13, 14, 15, 16, 17, 18, 19, 20, 21, 22, 23, 24, 25, 26, 27, 28, 29, 30, 31, 32, 33, 34, 35, 36, 37, 38, 39, 40, 41, 42, 43, 44, 45, 46, 47, 48, 49, 50, 51, 52, 53, 54, 55, 56, 57, 58, 59, 60, 61, 62, 63, 64, 65, 66, 67, 68, 69, 70, 71, 72, 73, 74, 75, 76, 77, 78, 79, 80, 81, 82, 83, 84, 85, 86, 87, 88, 89, 90, 91, 92, 93, 94, 95, 96, 97, 98, 99, 100, 101, 102, 103, 104, 105, 106, 107, 108, 109, 110, 111, 112, 113, 114, 115, 116, 117, 118, 119, 120, 121, 122, 123, 124, 125, 126, 127, 128, 129, 130, 131, 132, 133, 134, 135, 136, 137, 138, 139, 140, 141, 142, 143, 144, 145, 146, 147, 148, 149, 150, 151, 152, 153, 154, 155, 156, 157, 158, 159, 160, 161, 162, 163, 164, 165, 166, 167, 168, 169, 170, 171, 172, 173, 174, 175, 176, 177, 178, 179, 180, 181, 182, 183, 184, 185, 186, 187, 188, 189, 190],
      "AcquisitionTime": ["140209.815000", "140211.305000", "140212.795000", "140214.285000", "140215.775000", "140217.265000", "140218.755000", "140220.245000", "140221.735000", "140223.225000", "140224.715000", "140226.205000", "140227.695000", "140229.185000", "140230.675000", "140232.165000", "140233.655000", "140235.145000", "140236.635000", "140238.125000", "140239.615000", "140241.105000", "140242.595000", "140244.085000", "140245.575000", "140247.065000", "140248.555000", "140250.045000", "140251.535000", "140253.025000", "140254.515000", "140256.005000", "140257.495000", "140258.985000", "140300.475000", "140301.965000", "140303.455000", "140304.945000", "140306.435000", "140307.925000", "140309.415000", "140310.905000", "140312.395000", "140313.885000", "140315.375000", "140316.865000", "140318.355000", "140319.845000", "140321.335000", "140322.825000", "140324.315000", "140325.805000", "140327.295000", "140328.785000", "140330.275000", "140331.765000", "140333.255000", "140334.745000", "140336.235000", "140337.725000", "140339.215000", "140340.705000", "140342.195000", "140343.685000", "140345.175000", "140346.665000", "140348.155000", "140349.645000", "140351.135000", "140352.625000", "140354.115000", "140355.605000", "140357.095000", "140358.585000", "140400.075000", "140401.565000", "140403.055000", "140404.545000", "140406.035000", "140407.525000", "140409.015000", "140410.505000", "140411.995000", "140413.485000", "140414.975000", "140416.465000", "140417.955000", "140419.445000", "140420.935000", "140422.425000", "140423.915000", "140425.405000", "140426.895000", "140428.385000", "140429.875000", "140431.365000", "140432.855000", "140434.345000", "140435.835000", "140437.325000", "140438.815000", "140440.305000", "140441.795000", "140443.285000", "140444.775000", "140446.265000", "140447.755000", "140449.245000", "140450.735000", "140452.225000", "140453.715000", "140455.205000", "140456.695000", "140458.185000", "140459.675000", "140501.165000", "140502.655000", "140504.145000", "140505.635000", "140507.125000", "140508.615000", "140510.105000", "140511.595000", "140513.085000", "140514.575000", "140516.065000", "140517.555000", "140519.045000", "140520.535000", "140522.025000", "140523.515000", "140525.005000", "140526.495000", "140527.985000", "140529.475000", "140530.965000", "140532.455000", "140533.945000", "140535.435000", "140536.925000", "140538.415000", "140539.905000", "140541.395000", "140542.885000", "140544.375000", "140545.865000", "140547.355000", "140548.845000", "140550.335000", "140551.825000", "140553.315000", "140554.805000", "140556.295000", "140557.785000", "140559.275000", "140600.765000", "140602.255000", "140603.745000", "140605.235000", "140606.725000", "140608.215000", "140609.705000", "140611.195000", "140612.685000", "140614.175000", "140615.665000", "140617.155000", "140618.645000", "140620.135000", "140621.625000", "140623.115000", "140624.605000", "140626.095000", "140627.585000", "140629.075000", "140630.565000", "140632.055000", "140633.545000", "140635.035000", "140636.525000", "140638.015000", "140639.505000", "140640.995000", "140642.485000", "140643.975000", "140645.465000", "140646.955000", "140648.445000", "140649.935000", "140651.425000"],
      "ContentTime": ["140342.414000", "140342.418000", "140342.421000", "140342.423000", "140342.426000", "140342.428000", "140342.431000", "140342.433000", "140342.436000", "140342.439000", "140342.441000", "140342.444000", "140342.446000", "140342.449000", "140342.451000", "140342.454000", "140342.456000", "140342.459000", "140342.462000", "140342.464000", "140342.467000", "140342.470000", "140342.472000", "140342.475000", "140342.477000", "140342.480000", "140342.482000", "140342.485000", "140342.487000", "140342.490000", "140342.505000", "140342.507000", "140342.510000", "140342.512000", "140342.515000", "140342.517000", "140342.520000", "140342.522000", "140342.525000", "140401.920000", "140401.923000", "140401.925000", "140401.928000", "140401.930000", "140401.933000", "140401.935000", "140401.938000", "140401.941000", "140401.943000", "140401.946000", "140401.949000", "140401.952000", "140401.955000", "140401.959000", "140401.962000", "140401.966000", "140401.969000", "140401.971000", "140401.974000", "140421.936000", "140421.939000", "140421.941000", "140421.944000", "140421.946000", "140421.949000", "140421.952000", "140421.954000", "140421.957000", "140421.959000", "140421.962000", "140421.964000", "140421.967000", "140421.969000", "140421.972000", "140421.974000", "140421.977000", "140421.979000", "140421.982000", "140421.984000", "140441.922000", "140441.925000", "140441.928000", "140441.930000", "140441.933000", "140441.935000", "140441.938000", "140441.940000", "140441.943000", "140441.946000", "140441.948000", "140441.951000", "140441.953000", "140441.956000", "140441.958000", "140441.961000", "140441.963000", "140441.966000", "140441.969000", "140441.971000", "140441.974000", "140501.881000", "140501.884000", "140501.887000", "140501.889000", "140501.892000", "140501.894000", "140501.897000", "140501.899000", "140501.902000", "140501.904000", "140501.907000", "140501.909000", "140501.912000", "140501.915000", "140541.952000", "140541.955000", "140541.957000", "140541.960000", "140541.962000", "140541.965000", "140541.967000", "140541.970000", "140541.972000", "140541.975000", "140541.978000", "140541.980000", "140541.983000", "140541.985000", "140541.988000", "140541.990000", "140541.993000", "140541.995000", "140541.998000", "140542.000000", "140542.003000", "140542.006000", "140542.008000", "140542.011000", "140542.013000", "140542.016000", "140542.018000", "140621.954000", "140621.956000", "140621.959000", "140621.962000", "140621.964000", "140621.967000", "140621.969000", "140621.972000", "140621.974000", "140621.977000", "140621.979000", "140621.982000", "140621.985000", "140621.987000", "140621.990000", "140621.992000", "140621.995000", "140621.997000", "140622.001000", "140622.003000", "140622.006000", "140622.008000", "140622.011000", "140622.014000", "140622.016000", "140622.019000", "140622.021000", "140654.222000", "140654.225000", "140654.228000", "140654.232000", "140654.235000", "140654.238000", "140654.241000", "140654.244000", "140654.246000", "140654.249000", "140654.252000", "140654.254000", "140654.257000", "140654.260000", "140654.262000", "140654.265000", "140654.268000", "140654.271000", "140654.274000", "140654.276000", "140654.279000", "140654.282000"],
      "InstanceCreationTime": ["140342.414000", "140342.418000", "140342.421000", "140342.423000", "140342.426000", "140342.428000", "140342.431000", "140342.433000", "140342.436000", "140342.439000", "140342.441000", "140342.444000", "140342.446000", "140342.449000", "140342.451000", "140342.454000", "140342.456000", "140342.459000", "140342.462000", "140342.464000", "140342.467000", "140342.470000", "140342.472000", "140342.475000", "140342.477000", "140342.480000", "140342.482000", "140342.485000", "140342.487000", "140342.490000", "140342.505000", "140342.507000", "140342.510000", "140342.512000", "140342.515000", "140342.517000", "140342.520000", "140342.522000", "140342.525000", "140401.920000", "140401.923000", "140401.925000", "140401.928000", "140401.930000", "140401.933000", "140401.935000", "140401.938000", "140401.941000", "140401.943000", "140401.946000", "140401.949000", "140401.952000", "140401.955000", "140401.959000", "140401.962000", "140401.966000", "140401.969000", "140401.971000", "140401.974000", "140421.936000", "140421.939000", "140421.941000", "140421.944000", "140421.946000", "140421.949000", "140421.952000", "140421.954000", "140421.957000", "140421.959000", "140421.962000", "140421.964000", "140421.967000", "140421.969000", "140421.972000", "140421.974000", "140421.977000", "140421.979000", "140421.982000", "140421.984000", "140441.922000", "140441.925000", "140441.928000", "140441.930000", "140441.933000", "140441.935000", "140441.938000", "140441.940000", "140441.943000", "140441.946000", "140441.948000", "140441.951000", "140441.953000", "140441.956000", "140441.958000", "140441.961000", "140441.963000", "140441.966000", "140441.969000", "140441.971000", "140441.974000", "140501.881000", "140501.884000", "140501.887000", "140501.889000", "140501.892000", "140501.894000", "140501.897000", "140501.899000", "140501.902000", "140501.904000", "140501.907000", "140501.909000", "140501.912000", "140501.915000", "140541.952000", "140541.955000", "140541.957000", "140541.960000", "140541.962000", "140541.965000", "140541.967000", "140541.970000", "140541.972000", "140541.975000", "140541.978000", "140541.980000", "140541.983000", "140541.985000", "140541.988000", "140541.990000", "140541.993000", "140541.995000", "140541.998000", "140542.000000", "140542.003000", "140542.006000", "140542.008000", "140542.011000", "140542.013000", "140542.016000", "140542.018000", "140621.954000", "140621.956000", "140621.959000", "140621.962000", "140621.964000", "140621.967000", "140621.969000", "140621.972000", "140621.974000", "140621.977000", "140621.979000", "140621.982000", "140621.985000", "140621.987000", "140621.990000", "140621.992000", "140621.995000", "140621.997000", "140622.001000", "140622.003000", "140622.006000", "140622.008000", "140622.011000", "140622.014000", "140622.016000", "140622.019000", "140622.021000", "140654.222000", "140654.225000", "140654.228000", "140654.232000", "140654.235000", "140654.238000", "140654.241000", "140654.244000", "140654.246000", "140654.249000", "140654.252000", "140654.254000", "140654.257000", "140654.260000", "140654.262000", "140654.265000", "140654.268000", "140654.271000", "140654.274000", "140654.276000", "140654.279000", "140654.282000"],
      "InstanceNumber": [1, 2, 3, 4, 5, 6, 7, 8, 9, 10, 11, 12, 13, 14, 15, 16, 17, 18, 19, 20, 21, 22, 23, 24, 25, 26, 27, 28, 29, 30, 31, 32, 33, 34, 35, 36, 37, 38, 39, 40, 41, 42, 43, 44, 45, 46, 47, 48, 49, 50, 51, 52, 53, 54, 55, 56, 57, 58, 59, 60, 61, 62, 63, 64, 65, 66, 67, 68, 69, 70, 71, 72, 73, 74, 75, 76, 77, 78, 79, 80, 81, 82, 83, 84, 85, 86, 87, 88, 89, 90, 91, 92, 93, 94, 95, 96, 97, 98, 99, 100, 101, 102, 103, 104, 105, 106, 107, 108, 109, 110, 111, 112, 113, 114, 115, 116, 117, 118, 119, 120, 121, 122, 123, 124, 125, 126, 127, 128, 129, 130, 131, 132, 133, 134, 135, 136, 137, 138, 139, 140, 141, 142, 143, 144, 145, 146, 147, 148, 149, 150, 151, 152, 153, 154, 155, 156, 157, 158, 159, 160, 161, 162, 163, 164, 165, 166, 167, 168, 169, 170, 171, 172, 173, 174, 175, 176, 177, 178, 179, 180, 181, 182, 183, 184, 185, 186, 187, 188, 189, 190],
      "WindowCenter": [4830.0, 4856.0, 4856.0, 4830.0, 4854.0, 4832.0, 4828.0, 4828.0, 4832.0, 4832.0, 4856.0, 4830.0, 4832.0, 4832.0, 4832.0, 4832.0, 4832.0, 4854.0, 4832.0, 4834.0, 4830.0, 4832.0, 4832.0, 4856.0, 4830.0, 4854.0, 4836.0, 4854.0, 4832.0, 4832.0, 4834.0, 4830.0, 4852.0, 4832.0, 4854.0, 4858.0, 4854.0, 4830.0, 4830.0, 4854.0, 4854.0, 4830.0, 4854.0, 4832.0, 4830.0, 4856.0, 4830.0, 4856.0, 4832.0, 4858.0, 4834.0, 4858.0, 4832.0, 4832.0, 4854.0, 4854.0, 4854.0, 4832.0, 4832.0, 4854.0, 4834.0, 4832.0, 4852.0, 4856.0, 4834.0, 4832.0, 4884.0, 4860.0, 4884.0, 4860.0, 4858.0, 4856.0, 4832.0, 4832.0, 4832.0, 4858.0, 4830.0, 4860.0, 4856.0, 4860.0, 4858.0, 4856.0, 4858.0, 4858.0, 4836.0, 4834.0, 4858.0, 4828.0, 4834.0, 4858.0, 4856.0, 4858.0, 4856.0, 4856.0, 4830.0, 4860.0, 4856.0, 4834.0, 4854.0, 4858.0, 4856.0, 4858.0, 4856.0, 4862.0, 4860.0, 4858.0, 4856.0, 4834.0, 4858.0, 4856.0, 4856.0, 4856.0, 4856.0, 4858.0, 4856.0, 4860.0, 4854.0, 4856.0, 4856.0, 4854.0, 4858.0, 4856.0, 4858.0, 4854.0, 4856.0, 4856.0, 4856.0, 4856.0, 4834.0, 4860.0, 4858.0, 4856.0, 4856.0, 4858.0, 4832.0, 4858.0, 4856.0, 4858.0, 4858.0, 4858.0, 4856.0, 4832.0, 4854.0, 4858.0, 4858.0, 4860.0, 4856.0, 4860.0, 4858.0, 4860.0, 4852.0, 4856.0, 4854.0, 4856.0, 4832.0, 4858.0, 4858.0, 4858.0, 4856.0, 4858.0, 4860.0, 4858.0, 4832.0, 4860.0, 4862.0, 4834.0, 4856.0, 4852.0, 4856.0, 4858.0, 4856.0, 4856.0, 4856.0, 4856.0, 4858.0, 4856.0, 4858.0, 4862.0, 4858.0, 4858.0, 4856.0, 4856.0, 4860.0, 4856.0, 4858.0, 4860.0, 4856.0, 4830.0, 4832.0, 4830.0],
      "WindowWidth": [18568.0, 18600.0, 18604.0, 18570.0, 18604.0, 18572.0, 18568.0, 18560.0, 18568.0, 18568.0, 18604.0, 18570.0, 18566.0, 18576.0, 18568.0, 18572.0, 18570.0, 18596.0, 18570.0, 18568.0, 18572.0, 18568.0, 18566.0, 18602.0, 18566.0, 18602.0, 18570.0, 18596.0, 18572.0, 18576.0, 18572.0, 18572.0, 18598.0, 18572.0, 18600.0, 18604.0, 18600.0, 18570.0, 18572.0, 18606.0, 18598.0, 18570.0, 18598.0, 18570.0, 18570.0, 18604.0, 18572.0, 18600.0, 18568.0, 18606.0, 18572.0, 18604.0, 18568.0, 18572.0, 18602.0, 18604.0, 18598.0, 18570.0, 18568.0, 18602.0, 18574.0, 18570.0, 18600.0, 18600.0, 18572.0, 18572.0, 18642.0, 18612.0, 18650.0, 18608.0, 18604.0, 18602.0, 18566.0, 18568.0, 18570.0, 18600.0, 18570.0, 18602.0, 18608.0, 18600.0, 18604.0, 18606.0, 18600.0, 18606.0, 18572.0, 18566.0, 18598.0, 18566.0, 18570.0, 18600.0, 18598.0, 18606.0, 18604.0, 18600.0, 18570.0, 18602.0, 18598.0, 18568.0, 18602.0, 18602.0, 18600.0, 18606.0, 18596.0, 18608.0, 18606.0, 18596.0, 18602.0, 18570.0, 18604.0, 18604.0, 18600.0, 18606.0, 18604.0, 18604.0, 18604.0, 18602.0, 18602.0, 18598.0, 18600.0, 18604.0, 18604.0, 18598.0, 18602.0, 18604.0, 18604.0, 18604.0, 18602.0, 18600.0, 18570.0, 18606.0, 18600.0, 18602.0, 18600.0, 18604.0, 18566.0, 18602.0, 18602.0, 18602.0, 18604.0, 18600.0, 18600.0, 18568.0, 18598.0, 18608.0, 18604.0, 18602.0, 18602.0, 18604.0, 18600.0, 18604.0, 18600.0, 18606.0, 18600.0, 18598.0, 18572.0, 18602.0, 18602.0, 18600.0, 18604.0, 18602.0, 18606.0, 18604.0, 18570.0, 18602.0, 18598.0, 18566.0, 18598.0, 18598.0, 18598.0, 18602.0, 18600.0, 18602.0, 18604.0, 18602.0, 18600.0, 18602.0, 18604.0, 18608.0, 18600.0, 18600.0, 18596.0, 18604.0, 18608.0, 18598.0, 18604.0, 18608.0, 18598.0, 18568.0, 18566.0, 18566.0]
    },
    "slices": {}
  }
}