{
  "AcquisitionMatrixPE": 104,
  "AcquisitionNumber": 1,
  "AcquisitionTime": "13:26:2.265000",
  "BandwidthPerPixelPhaseEncode": 17.17,
  "BaseResolution": 104,
  "BodyPartExamined": "BRAIN",
  "CoilCombinationMethod": "Sum of Squares",
  "ConsistencyInfo": "N4_VE11C_LATEST_20160120",
  "ConversionSoftware": "dcm2niix",
  "ConversionSoftwareVersion": "v1.0.20211006",
  "DerivedVendorReportedEchoSpacing": 0.000560011,
  "DeviceSerialNumber": "167006",
  "DwellTime": 2.1e-06,
  "EchoTime": 0.037,
  "EchoTime1": 0.037,
  "EchoTime2": 0.001,
  "EchoTrainLength": 104,
  "EffectiveEchoSpacing": 0.000560011,
  "FlipAngle": 52,
  "HeudiconvVersion": "0.10.0",
  "ImageComments": "Unaliased MB4/PE3/LB",
  "ImageOrientationPatientDICOM": [0.999556, 0.0097687, 0.0281379, -0.00244239, 0.968388, -0.249436],
  "ImageOrientationText": "Tra>Cor(-14.4)>Sag(1.7)",
  "ImageType": [
    "ORIGINAL",
    "PRIMARY",
    "P",
    "MB",
    "ND",
    "MOSAIC",
    "PHASE"
],
  "ImagingFrequency": 123.259,
  "InPlanePhaseEncodingDirectionDICOM": "COL",
  "InstitutionAddress": "Chemin Queen-Mary 4565,Montreal,District,CA,H3W 1W5",
  "InstitutionName": "IUGM",
  "InstitutionalDepartmentName": "Department",
  "MRAcquisitionType": "2D",
  "MagneticFieldStrength": 3,
  "Manufacturer": "Siemens",
  "ManufacturersModelName": "Prisma_fit",
  "MatrixCoilMode": "SENSE",
  "Modality": "MR",
  "MultibandAccelerationFactor": 4,
  "PartialFourier": 1,
  "PatientPosition": "HFS",
  "PercentPhaseFOV": 100,
  "PercentSampling": 100,
  "PhaseEncodingDirection": "j",
  "PhaseEncodingSteps": 104,
  "PhaseResolution": 1,
  "PixelBandwidth": 2290,
  "ProcedureStepDescription": "memory^things",
  "ProtocolName": "func_task-things_run-1",
  "PulseSequenceDetails": "%CustomerSeq%\\cmrr_mbep2d_bold",
  "ReceiveCoilActiveElements": "HC1-7;NC1,2",
  "ReceiveCoilName": "HeadNeck_64",
  "ReconMatrixPE": 104,
  "RepetitionTime": 1.49,
  "SAR": 0.0850042,
  "ScanOptions": "FS",
  "ScanningSequence": "EP",
  "SequenceName": "epfid2d1_104",
  "SequenceVariant": "SK\\SS",
  "SeriesDescription": "func_task-things_run-1",
  "SeriesNumber": 11,
  "ShimSetting": [627, -7218, -8803, 738, 18, -13, 74, -12],
  "SliceThickness": 2,
  "SliceTiming": [0, 0.7825, 0.0975, 0.88, 0.195, 0.9775, 0.2925, 1.0775, 0.39, 1.175, 0.49, 1.2725, 0.5875, 1.37, 0.685, 0, 0.7825, 0.0975, 0.88, 0.195, 0.9775, 0.2925, 1.0775, 0.39, 1.175, 0.49, 1.2725, 0.5875, 1.37, 0.685, 0, 0.7825, 0.0975, 0.88, 0.195, 0.9775, 0.2925, 1.0775, 0.39, 1.175, 0.49, 1.2725, 0.5875, 1.37, 0.685, 0, 0.7825, 0.0975, 0.88, 0.195, 0.9775, 0.2925, 1.0775, 0.39, 1.175, 0.49, 1.2725, 0.5875, 1.37, 0.685],
  "SoftwareVersions": "syngo MR E11",
  "SpacingBetweenSlices": 2,
  "StationName": "MRC35049",
  "TaskName": "things",
  "TotalReadoutTime": 0.0576811,
  "TxRefAmp": 310.408,
  "WipMemBlock": "2fe71dda-564b-45d6-bc2e-f7052873a1bc||Sequence: R016 ve11c/master r/e634e98; Dec 19 2017 11:00:25 by eja",
  "dcmmeta_affine": [
    [-1.999112606048584, -0.004884778056293726, 0.05937015265226364, 107.29863739013672],
    [-0.01953740604221821, 1.9367766380310059, -0.498512327671051, -73.80896759033203],
    [0.05627579987049103, 0.4988710880279541, 1.9359650611877441, -67.41148376464844],
    [0.0, 0.0, 0.0, 1.0]
],
  "dcmmeta_reorient_transform": [
    [0.0, -1.0, 0.0, 103.0],
    [1.0, 0.0, 0.0, 0.0],
    [0.0, 0.0, 1.0, 0.0],
    [0.0, 0.0, 0.0, 1.0]
],
  "dcmmeta_shape": [104, 104, 60, 190],
  "dcmmeta_slice_dim": 2,
  "dcmmeta_version": 0.6,
  "global": {
    "const": {
      "AcquisitionMatrix": [104, 0, 0, 104],
      "AngioFlag": "N",
      "BitsAllocated": 16,
      "BitsStored": 16,
      "BodyPartExamined": "BRAIN",
      "Columns": 832,
      "EchoNumbers": 1,
      "EchoTime": 37.0,
      "EchoTrainLength": 104,
      "FlipAngle": 52.0,
      "HighBit": 15,
      "ImageOrientationPatient": [0.99955631708282, 0.00976870300328, 0.02813790008968, -0.0024423890182, 0.9683883218971, -0.249435548287],
      "ImagePositionPatient": [-832.69444764414, -837.77733784761, 145.07692632014],
      "ImageType": [
        "ORIGINAL",
        "PRIMARY",
        "P",
        "MB",
        "ND",
        "MOSAIC"
],
      "ImagedNucleus": "1H",
      "ImagingFrequency": 123.258886,
      "InPlanePhaseEncodingDirection": "COL",
      "LargestImagePixelValue": 4095,
      "MRAcquisitionType": "2D",
      "MagneticFieldStrength": 3.0,
      "Manufacturer": "SIEMENS",
      "ManufacturerModelName": "Prisma_fit",
      "Modality": "MR",
      "NumberOfAverages": 1.0,
      "NumberOfPhaseEncodingSteps": 104,
      "PercentPhaseFieldOfView": 100.0,
      "PercentSampling": 100.0,
      "PerformedProcedureStepStartTime": "115310.494000",
      "PhotometricInterpretation": "MONOCHROME2",
      "PixelBandwidth": 2290.0,
      "PixelRepresentation": 0,
      "PixelSpacing": [2.0, 2.0],
      "ProtocolName": "func_task-things_run-1",
      "RepetitionTime": 1490.0,
      "RescaleIntercept": -4096.0,
      "RescaleSlope": 2.0,
      "RescaleType": "US",
      "Rows": 832,
      "SAR": 0.08500415555183,
      "SamplesPerPixel": 1,
      "ScanOptions": "FS",
      "ScanningSequence": "EP",
      "SequenceName": "epfid2d1_104",
      "SequenceVariant": [
        "SK",
        "SS"
],
      "SeriesDescription": "func_task-things_run-1",
      "SeriesNumber": 11,
      "SeriesTime": "132726.894000",
      "SliceLocation": -43.670630483352,
      "SliceThickness": 2.0,
      "SmallestImagePixelValue": 0,
      "SoftwareVersions": "syngo MR E11",
      "SpacingBetweenSlices": 2.0000000214615,
      "SpecificCharacterSet": "ISO_IR 100",
      "StudyID": "1",
      "StudyTime": "115310.413000",
      "TransmitCoilName": "Body",
      "VariableFlipAngleFlag": "N",
      "WindowCenterWidthExplanation": "Algo1",
      "dBdt": 0.0},
    "slices": {}
  },
  "time": {
    "samples": {
      "AcquisitionNumber": [1, 2, 3, 4, 5, 6, 7, 8, 9, 10, 11, 12, 13, 14, 15, 16, 17, 18, 19, 20, 21, 22, 23, 24, 25, 26, 27, 28, 29, 30, 31, 32, 33, 34, 35, 36, 37, 38, 39, 40, 41, 42, 43, 44, 45, 46, 47, 48, 49, 50, 51, 52, 53, 54, 55, 56, 57, 58, 59, 60, 61, 62, 63, 64, 65, 66, 67, 68, 69, 70, 71, 72, 73, 74, 75, 76, 77, 78, 79, 80, 81, 82, 83, 84, 85, 86, 87, 88, 89, 90, 91, 92, 93, 94, 95, 96, 97, 98, 99, 100, 101, 102, 103, 104, 105, 106, 107, 108, 109, 110, 111, 112, 113, 114, 115, 116, 117, 118, 119, 120, 121, 122, 123, 124, 125, 126, 127, 128, 129, 130, 131, 132, 133, 134, 135, 136, 137, 138, 139, 140, 141, 142, 143, 144, 145, 146, 147, 148, 149, 150, 151, 152, 153, 154, 155, 156, 157, 158, 159, 160, 161, 162, 163, 164, 165, 166, 167, 168, 169, 170, 171, 172, 173, 174, 175, 176, 177, 178, 179, 180, 181, 182, 183, 184, 185, 186, 187, 188, 189, 190],
      "AcquisitionTime": ["132602.265000", "132603.755000", "132605.245000", "132606.735000", "132608.225000", "132609.715000", "132611.205000", "132612.695000", "132614.185000", "132615.675000", "132617.165000", "132618.655000", "132620.145000", "132621.635000", "132623.125000", "132624.615000", "132626.105000", "132627.595000", "132629.085000", "132630.575000", "132632.065000", "132633.555000", "132635.045000", "132636.535000", "132638.025000", "132639.515000", "132641.005000", "132642.495000", "132643.985000", "132645.475000", "132646.965000", "132648.455000", "132649.945000", "132651.435000", "132652.925000", "132654.415000", "132655.905000", "132657.395000", "132658.885000", "132700.375000", "132701.865000", "132703.355000", "132704.845000", "132706.335000", "132707.825000", "132709.315000", "132710.805000", "132712.295000", "132713.785000", "132715.275000", "132716.765000", "132718.255000", "132719.745000", "132721.235000", "132722.725000", "132724.215000", "132725.705000", "132727.195000", "132728.685000", "132730.175000", "132731.665000", "132733.155000", "132734.645000", "132736.135000", "132737.625000", "132739.115000", "132740.605000", "132742.095000", "132743.585000", "132745.075000", "132746.565000", "132748.055000", "132749.545000", "132751.035000", "132752.525000", "132754.015000", "132755.505000", "132756.995000", "132758.485000", "132759.975000", "132801.465000", "132802.955000", "132804.445000", "132805.935000", "132807.425000", "132808.915000", "132810.405000", "132811.895000", "132813.385000", "132814.875000", "132816.365000", "132817.855000", "132819.345000", "132820.835000", "132822.325000", "132823.815000", "132825.305000", "132826.795000", "132828.285000", "132829.775000", "132831.265000", "132832.755000", "132834.245000", "132835.735000", "132837.225000", "132838.715000", "132840.205000", "132841.695000", "132843.185000", "132844.675000", "132846.165000", "132847.655000", "132849.145000", "132850.635000", "132852.125000", "132853.615000", "132855.105000", "132856.595000", "132858.085000", "132859.575000", "132901.065000", "132902.555000", "132904.045000", "132905.535000", "132907.025000", "132908.515000", "132910.005000", "132911.495000", "132912.985000", "132914.475000", "132915.965000", "132917.455000", "132918.945000", "132920.435000", "132921.925000", "132923.415000", "132924.905000", "132926.395000", "132927.885000", "132929.375000", "132930.865000", "132932.355000", "132933.845000", "132935.335000", "132936.825000", "132938.315000", "132939.805000", "132941.295000", "132942.785000", "132944.275000", "132945.765000", "132947.255000", "132948.745000", "132950.235000", "132951.725000", "132953.215000", "132954.705000", "132956.195000", "132957.685000", "132959.175000", "133000.665000", "133002.155000", "133003.645000", "133005.135000", "133006.625000", "133008.115000", "133009.605000", "133011.095000", "133012.585000", "133014.075000", "133015.565000", "133017.055000", "133018.545000", "133020.035000", "133021.525000", "133023.015000", "133024.505000", "133025.995000", "133027.485000", "133028.975000", "133030.465000", "133031.955000", "133033.445000", "133034.935000", "133036.425000", "133037.915000", "133039.405000", "133040.895000", "133042.385000", "133043.875000"],
      "ContentTime": ["132726.896000", "132726.899000", "132726.902000", "132726.904000", "132726.907000", "132726.909000", "132726.912000", "132726.914000", "132726.917000", "132726.919000", "132726.922000", "132726.924000", "132726.927000", "132726.929000", "132726.932000", "132726.934000", "132726.937000", "132726.939000", "132726.942000", "132726.944000", "132726.947000", "132726.953000", "132726.956000", "132726.958000", "132726.961000", "132726.964000", "132726.966000", "132726.969000", "132726.971000", "132726.974000", "132726.976000", "132726.979000", "132726.981000", "132746.804000", "132746.807000", "132746.810000", "132746.812000", "132746.815000", "132746.817000", "132746.820000", "132746.823000", "132746.825000", "132746.828000", "132746.830000", "132746.833000", "132746.835000", "132746.838000", "132746.840000", "132746.843000", "132746.845000", "132746.848000", "132746.850000", "132746.853000", "132806.798000", "132806.800000", "132806.803000", "132806.805000", "132806.808000", "132806.811000", "132806.813000", "132806.816000", "132806.818000", "132806.821000", "132806.823000", "132806.826000", "132806.828000", "132806.831000", "132806.833000", "132806.836000", "132806.838000", "132806.841000", "132806.844000", "132806.846000", "132826.820000", "132826.823000", "132826.826000", "132826.828000", "132826.831000", "132826.833000", "132826.836000", "132826.838000", "132826.841000", "132826.843000", "132826.846000", "132826.849000", "132826.851000", "132826.854000", "132826.856000", "132826.859000", "132826.861000", "132826.864000", "132826.866000", "132826.869000", "132906.846000", "132906.849000", "132906.851000", "132906.854000", "132906.856000", "132906.859000", "132906.861000", "132906.864000", "132906.867000", "132906.869000", "132906.872000", "132906.874000", "132906.877000", "132906.879000", "132906.882000", "132906.884000", "132906.887000", "132906.889000", "132906.892000", "132906.894000", "132906.897000", "132906.900000", "132906.902000", "132906.905000", "132906.907000", "132906.910000", "132906.912000", "132906.915000", "132906.918000", "132906.920000", "132946.819000", "132946.821000", "132946.824000", "132946.827000", "132946.829000", "132946.832000", "132946.834000", "132946.837000", "132946.839000", "132946.842000", "132946.844000", "132946.847000", "132946.849000", "132946.852000", "132946.854000", "132946.857000", "132946.860000", "132946.862000", "132946.865000", "132946.867000", "132946.870000", "132946.872000", "132946.875000", "132946.877000", "132946.880000", "132946.883000", "132946.885000", "133006.754000", "133006.757000", "133006.759000", "133006.762000", "133006.764000", "133006.767000", "133006.769000", "133006.772000", "133006.775000", "133006.777000", "133006.780000", "133006.782000", "133006.785000", "133046.074000", "133046.077000", "133046.079000", "133046.082000", "133046.085000", "133046.087000", "133046.090000", "133046.093000", "133046.110000", "133046.113000", "133046.116000", "133046.119000", "133046.122000", "133046.124000", "133046.127000", "133046.130000", "133046.132000", "133046.135000", "133046.137000", "133046.140000", "133046.143000", "133046.145000", "133046.148000", "133046.150000", "133046.153000", "133046.156000", "133046.158000"],
      "InstanceCreationTime": ["132726.896000", "132726.899000", "132726.902000", "132726.904000", "132726.907000", "132726.909000", "132726.912000", "132726.914000", "132726.917000", "132726.919000", "132726.922000", "132726.924000", "132726.927000", "132726.929000", "132726.932000", "132726.934000", "132726.937000", "132726.939000", "132726.942000", "132726.944000", "132726.947000", "132726.953000", "132726.956000", "132726.958000", "132726.961000", "132726.964000", "132726.966000", "132726.969000", "132726.971000", "132726.974000", "132726.976000", "132726.979000", "132726.981000", "132746.804000", "132746.807000", "132746.810000", "132746.812000", "132746.815000", "132746.817000", "132746.820000", "132746.823000", "132746.825000", "132746.828000", "132746.830000", "132746.833000", "132746.835000", "132746.838000", "132746.840000", "132746.843000", "132746.845000", "132746.848000", "132746.850000", "132746.853000", "132806.798000", "132806.800000", "132806.803000", "132806.805000", "132806.808000", "132806.811000", "132806.813000", "132806.816000", "132806.818000", "132806.821000", "132806.823000", "132806.826000", "132806.828000", "132806.831000", "132806.833000", "132806.836000", "132806.838000", "132806.841000", "132806.844000", "132806.846000", "132826.820000", "132826.823000", "132826.826000", "132826.828000", "132826.831000", "132826.833000", "132826.836000", "132826.838000", "132826.841000", "132826.843000", "132826.846000", "132826.849000", "132826.851000", "132826.854000", "132826.856000", "132826.859000", "132826.861000", "132826.864000", "132826.866000", "132826.869000", "132906.846000", "132906.849000", "132906.851000", "132906.854000", "132906.856000", "132906.859000", "132906.861000", "132906.864000", "132906.867000", "132906.869000", "132906.872000", "132906.874000", "132906.877000", "132906.879000", "132906.882000", "132906.884000", "132906.887000", "132906.889000", "132906.892000", "132906.894000", "132906.897000", "132906.900000", "132906.902000", "132906.905000", "132906.907000", "132906.910000", "132906.912000", "132906.915000", "132906.918000", "132906.920000", "132946.819000", "132946.821000", "132946.824000", "132946.827000", "132946.829000", "132946.832000", "132946.834000", "132946.837000", "132946.839000", "132946.842000", "132946.844000", "132946.847000", "132946.849000", "132946.852000", "132946.854000", "132946.857000", "132946.860000", "132946.862000", "132946.865000", "132946.867000", "132946.870000", "132946.872000", "132946.875000", "132946.877000", "132946.880000", "132946.883000", "132946.885000", "133006.754000", "133006.757000", "133006.759000", "133006.762000", "133006.764000", "133006.767000", "133006.769000", "133006.772000", "133006.775000", "133006.777000", "133006.780000", "133006.782000", "133006.785000", "133046.074000", "133046.077000", "133046.079000", "133046.082000", "133046.085000", "133046.087000", "133046.090000", "133046.093000", "133046.110000", "133046.113000", "133046.116000", "133046.119000", "133046.122000", "133046.124000", "133046.127000", "133046.130000", "133046.132000", "133046.135000", "133046.137000", "133046.140000", "133046.143000", "133046.145000", "133046.148000", "133046.150000", "133046.153000", "133046.156000", "133046.158000"],
      "InstanceNumber": [1, 2, 3, 4, 5, 6, 7, 8, 9, 10, 11, 12, 13, 14, 15, 16, 17, 18, 19, 20, 21, 22, 23, 24, 25, 26, 27, 28, 29, 30, 31, 32, 33, 34, 35, 36, 37, 38, 39, 40, 41, 42, 43, 44, 45, 46, 47, 48, 49, 50, 51, 52, 53, 54, 55, 56, 57, 58, 59, 60, 61, 62, 63, 64, 65, 66, 67, 68, 69, 70, 71, 72, 73, 74, 75, 76, 77, 78, 79, 80, 81, 82, 83, 84, 85, 86, 87, 88, 89, 90, 91, 92, 93, 94, 95, 96, 97, 98, 99, 100, 101, 102, 103, 104, 105, 106, 107, 108, 109, 110, 111, 112, 113, 114, 115, 116, 117, 118, 119, 120, 121, 122, 123, 124, 125, 126, 127, 128, 129, 130, 131, 132, 133, 134, 135, 136, 137, 138, 139, 140, 141, 142, 143, 144, 145, 146, 147, 148, 149, 150, 151, 152, 153, 154, 155, 156, 157, 158, 159, 160, 161, 162, 163, 164, 165, 166, 167, 168, 169, 170, 171, 172, 173, 174, 175, 176, 177, 178, 179, 180, 181, 182, 183, 184, 185, 186, 187, 188, 189, 190],
      "WindowCenter": [4792.0, 4790.0, 4788.0, 4790.0, 4792.0, 4794.0, 4792.0, 4792.0, 4768.0, 4766.0, 4764.0, 4792.0, 4788.0, 4768.0, 4768.0, 4766.0, 4788.0, 4794.0, 4788.0, 4790.0, 4766.0, 4788.0, 4788.0, 4788.0, 4790.0, 4792.0, 4792.0, 4794.0, 4792.0, 4792.0, 4766.0, 4790.0, 4788.0, 4770.0, 4790.0, 4796.0, 4792.0, 4792.0, 4792.0, 4790.0, 4790.0, 4794.0, 4792.0, 4792.0, 4788.0, 4790.0, 4792.0, 4794.0, 4792.0, 4790.0, 4794.0, 4794.0, 4788.0, 4790.0, 4790.0, 4790.0, 4790.0, 4790.0, 4794.0, 4792.0, 4794.0, 4794.0, 4792.0, 4792.0, 4788.0, 4790.0, 4794.0, 4790.0, 4792.0, 4764.0, 4792.0, 4792.0, 4790.0, 4788.0, 4794.0, 4790.0, 4796.0, 4790.0, 4796.0, 4790.0, 4798.0, 4766.0, 4792.0, 4792.0, 4794.0, 4788.0, 4794.0, 4790.0, 4792.0, 4792.0, 4796.0, 4790.0, 4770.0, 4790.0, 4792.0, 4794.0, 4792.0, 4792.0, 4792.0, 4790.0, 4790.0, 4794.0, 4796.0, 4788.0, 4794.0, 4792.0, 4768.0, 4792.0, 4792.0, 4794.0, 4792.0, 4792.0, 4792.0, 4792.0, 4768.0, 4768.0, 4792.0, 4792.0, 4790.0, 4792.0, 4790.0, 4794.0, 4790.0, 4794.0, 4794.0, 4796.0, 4766.0, 4796.0, 4788.0, 4792.0, 4790.0, 4792.0, 4790.0, 4790.0, 4792.0, 4792.0, 4790.0, 4792.0, 4790.0, 4790.0, 4790.0, 4794.0, 4792.0, 4792.0, 4792.0, 4794.0, 4794.0, 4792.0, 4790.0, 4790.0, 4792.0, 4790.0, 4794.0, 4790.0, 4794.0, 4790.0, 4794.0, 4790.0, 4794.0, 4792.0, 4794.0, 4794.0, 4794.0, 4790.0, 4794.0, 4794.0, 4792.0, 4794.0, 4792.0, 4790.0, 4794.0, 4796.0, 4790.0, 4790.0, 4766.0, 4796.0, 4794.0, 4796.0, 4792.0, 4794.0, 4792.0, 4792.0, 4788.0, 4768.0, 4790.0, 4792.0, 4792.0, 4770.0, 4792.0, 4790.0],
      "WindowWidth": [18564.0, 18572.0, 18566.0, 18560.0, 18564.0, 18566.0, 18562.0, 18564.0, 18532.0, 18532.0, 18532.0, 18562.0, 18562.0, 18530.0, 18534.0, 18530.0, 18562.0, 18566.0, 18564.0, 18562.0, 18534.0, 18564.0, 18564.0, 18558.0, 18562.0, 18560.0, 18564.0, 18562.0, 18566.0, 18562.0, 18532.0, 18560.0, 18564.0, 18530.0, 18566.0, 18562.0, 18564.0, 18562.0, 18560.0, 18564.0, 18564.0, 18564.0, 18566.0, 18564.0, 18568.0, 18562.0, 18560.0, 18564.0, 18558.0, 18562.0, 18564.0, 18566.0, 18566.0, 18564.0, 18564.0, 18562.0, 18564.0, 18562.0, 18568.0, 18558.0, 18570.0, 18560.0, 18564.0, 18566.0, 18560.0, 18556.0, 18570.0, 18560.0, 18566.0, 18530.0, 18562.0, 18566.0, 18566.0, 18562.0, 18562.0, 18566.0, 18568.0, 18564.0, 18566.0, 18564.0, 18566.0, 18530.0, 18562.0, 18564.0, 18562.0, 18564.0, 18558.0, 18562.0, 18564.0, 18564.0, 18564.0, 18566.0, 18534.0, 18564.0, 18560.0, 18564.0, 18562.0, 18562.0, 18560.0, 18568.0, 18558.0, 18562.0, 18568.0, 18564.0, 18566.0, 18566.0, 18530.0, 18568.0, 18560.0, 18564.0, 18562.0, 18562.0, 18558.0, 18562.0, 18530.0, 18532.0, 18558.0, 18560.0, 18564.0, 18566.0, 18562.0, 18568.0, 18562.0, 18564.0, 18566.0, 18568.0, 18530.0, 18568.0, 18560.0, 18562.0, 18562.0, 18562.0, 18564.0, 18562.0, 18566.0, 18564.0, 18566.0, 18564.0, 18566.0, 18564.0, 18564.0, 18564.0, 18556.0, 18558.0, 18562.0, 18564.0, 18566.0, 18564.0, 18556.0, 18560.0, 18564.0, 18564.0, 18560.0, 18562.0, 18558.0, 18562.0, 18566.0, 18566.0, 18562.0, 18564.0, 18564.0, 18566.0, 18564.0, 18560.0, 18568.0, 18566.0, 18562.0, 18566.0, 18564.0, 18564.0, 18564.0, 18572.0, 18564.0, 18560.0, 18530.0, 18562.0, 18564.0, 18560.0, 18566.0, 18560.0, 18562.0, 18560.0, 18556.0, 18532.0, 18562.0, 18562.0, 18560.0, 18530.0, 18560.0, 18558.0]
    },
    "slices": {}
  }
}