{
  "AcquisitionMatrixPE": 104,
  "AcquisitionNumber": 1,
  "AcquisitionTime": "13:38:27.412500",
  "BandwidthPerPixelPhaseEncode": 17.17,
  "BaseResolution": 104,
  "BodyPartExamined": "BRAIN",
  "CoilCombinationMethod": "Sum of Squares",
  "ConsistencyInfo": "N4_VE11C_LATEST_20160120",
  "ConversionSoftware": "dcm2niix",
  "ConversionSoftwareVersion": "v1.0.20211006",
  "DerivedVendorReportedEchoSpacing": 0.000560011,
  "DeviceSerialNumber": "167006",
  "DwellTime": 2.1e-06,
  "EchoTime": 0.037,
  "EchoTime1": 0.037,
  "EchoTime2": 0.001,
  "EchoTrainLength": 104,
  "EffectiveEchoSpacing": 0.000560011,
  "FlipAngle": 52,
  "HeudiconvVersion": "0.10.0",
  "ImageComments": "Unaliased MB4/PE3/LB",
  "ImageOrientationPatientDICOM": [0.999556, 0.0097687, 0.0281379, -0.00244239, 0.968388, -0.249436],
  "ImageOrientationText": "Tra>Cor(-14.4)>Sag(1.7)",
  "ImageType": [
    "ORIGINAL",
    "PRIMARY",
    "P",
    "MB",
    "ND",
    "MOSAIC",
    "PHASE"
],
  "ImagingFrequency": 123.259,
  "InPlanePhaseEncodingDirectionDICOM": "COL",
  "InstitutionAddress": "Chemin Queen-Mary 4565,Montreal,District,CA,H3W 1W5",
  "InstitutionName": "IUGM",
  "InstitutionalDepartmentName": "Department",
  "MRAcquisitionType": "2D",
  "MagneticFieldStrength": 3,
  "Manufacturer": "Siemens",
  "ManufacturersModelName": "Prisma_fit",
  "MatrixCoilMode": "SENSE",
  "Modality": "MR",
  "MultibandAccelerationFactor": 4,
  "PartialFourier": 1,
  "PatientPosition": "HFS",
  "PercentPhaseFOV": 100,
  "PercentSampling": 100,
  "PhaseEncodingDirection": "j",
  "PhaseEncodingSteps": 104,
  "PhaseResolution": 1,
  "PixelBandwidth": 2290,
  "ProcedureStepDescription": "memory^things",
  "ProtocolName": "func_task-things_run-3",
  "PulseSequenceDetails": "%CustomerSeq%\\cmrr_mbep2d_bold",
  "ReceiveCoilActiveElements": "HC1-7;NC1,2",
  "ReceiveCoilName": "HeadNeck_64",
  "ReconMatrixPE": 104,
  "RepetitionTime": 1.49,
  "SAR": 0.0850042,
  "ScanOptions": "FS",
  "ScanningSequence": "EP",
  "SequenceName": "epfid2d1_104",
  "SequenceVariant": "SK\\SS",
  "SeriesDescription": "func_task-things_run-3",
  "SeriesNumber": 17,
  "ShimSetting": [627, -7218, -8803, 738, 18, -13, 74, -12],
  "SliceThickness": 2,
  "SliceTiming": [0, 0.7825, 0.0975, 0.88, 0.195, 0.98, 0.2925, 1.0775, 0.39, 1.175, 0.49, 1.2725, 0.5875, 1.37, 0.685, 0, 0.7825, 0.0975, 0.88, 0.195, 0.98, 0.2925, 1.0775, 0.39, 1.175, 0.49, 1.2725, 0.5875, 1.37, 0.685, 0, 0.7825, 0.0975, 0.88, 0.195, 0.98, 0.2925, 1.0775, 0.39, 1.175, 0.49, 1.2725, 0.5875, 1.37, 0.685, 0, 0.7825, 0.0975, 0.88, 0.195, 0.98, 0.2925, 1.0775, 0.39, 1.175, 0.49, 1.2725, 0.5875, 1.37, 0.685],
  "SoftwareVersions": "syngo MR E11",
  "SpacingBetweenSlices": 2,
  "StationName": "MRC35049",
  "TaskName": "things",
  "TotalReadoutTime": 0.0576811,
  "TxRefAmp": 310.408,
  "WipMemBlock": "41c8502d-4f3f-46a4-bb67-b3a7b6f6f954||Sequence: R016 ve11c/master r/e634e98; Dec 19 2017 11:00:25 by eja",
  "dcmmeta_affine": [
    [-1.999112606048584, -0.004884778056293726, 0.05937015265226364, 107.29863739013672],
    [-0.01953740604221821, 1.9367766380310059, -0.498512327671051, -73.80896759033203],
    [0.05627579987049103, 0.4988710880279541, 1.9359650611877441, -67.41148376464844],
    [0.0, 0.0, 0.0, 1.0]
],
  "dcmmeta_reorient_transform": [
    [0.0, -1.0, 0.0, 103.0],
    [1.0, 0.0, 0.0, 0.0],
    [0.0, 0.0, 1.0, 0.0],
    [0.0, 0.0, 0.0, 1.0]
],
  "dcmmeta_shape": [104, 104, 60, 190],
  "dcmmeta_slice_dim": 2,
  "dcmmeta_version": 0.6,
  "global": {
    "const": {
      "AcquisitionMatrix": [104, 0, 0, 104],
      "AngioFlag": "N",
      "BitsAllocated": 16,
      "BitsStored": 16,
      "BodyPartExamined": "BRAIN",
      "Columns": 832,
      "EchoNumbers": 1,
      "EchoTime": 37.0,
      "EchoTrainLength": 104,
      "FlipAngle": 52.0,
      "HighBit": 15,
      "ImageOrientationPatient": [0.99955631708282, 0.00976870300328, 0.02813790008968, -0.0024423890182, 0.9683883218971, -0.249435548287],
      "ImagePositionPatient": [-832.69444764414, -837.77733784761, 145.07692632014],
      "ImageType": [
        "ORIGINAL",
        "PRIMARY",
        "P",
        "MB",
        "ND",
        "MOSAIC"
],
      "ImagedNucleus": "1H",
      "ImagingFrequency": 123.258894,
      "InPlanePhaseEncodingDirection": "COL",
      "LargestImagePixelValue": 4095,
      "MRAcquisitionType": "2D",
      "MagneticFieldStrength": 3.0,
      "Manufacturer": "SIEMENS",
      "ManufacturerModelName": "Prisma_fit",
      "Modality": "MR",
      "NumberOfAverages": 1.0,
      "NumberOfPhaseEncodingSteps": 104,
      "PercentPhaseFieldOfView": 100.0,
      "PercentSampling": 100.0,
      "PerformedProcedureStepStartTime": "115310.494000",
      "PhotometricInterpretation": "MONOCHROME2",
      "PixelBandwidth": 2290.0,
      "PixelRepresentation": 0,
      "PixelSpacing": [2.0, 2.0],
      "ProtocolName": "func_task-things_run-3",
      "RepetitionTime": 1490.0,
      "RescaleIntercept": -4096.0,
      "RescaleSlope": 2.0,
      "RescaleType": "US",
      "Rows": 832,
      "SAR": 0.08500415555183,
      "SamplesPerPixel": 1,
      "ScanOptions": "FS",
      "ScanningSequence": "EP",
      "SequenceName": "epfid2d1_104",
      "SequenceVariant": [
        "SK",
        "SS"
],
      "SeriesDescription": "func_task-things_run-3",
      "SeriesNumber": 17,
      "SeriesTime": "133951.806000",
      "SliceLocation": -43.670630483352,
      "SliceThickness": 2.0,
      "SmallestImagePixelValue": 0,
      "SoftwareVersions": "syngo MR E11",
      "SpacingBetweenSlices": 2.0000000214615,
      "SpecificCharacterSet": "ISO_IR 100",
      "StudyID": "1",
      "StudyTime": "115310.413000",
      "TransmitCoilName": "Body",
      "VariableFlipAngleFlag": "N",
      "WindowCenterWidthExplanation": "Algo1",
      "dBdt": 0.0},
    "slices": {}
  },
  "time": {
    "samples": {
      "AcquisitionNumber": [1, 2, 3, 4, 5, 6, 7, 8, 9, 10, 11, 12, 13, 14, 15, 16, 17, 18, 19, 20, 21, 22, 23, 24, 25, 26, 27, 28, 29, 30, 31, 32, 33, 34, 35, 36, 37, 38, 39, 40, 41, 42, 43, 44, 45, 46, 47, 48, 49, 50, 51, 52, 53, 54, 55, 56, 57, 58, 59, 60, 61, 62, 63, 64, 65, 66, 67, 68, 69, 70, 71, 72, 73, 74, 75, 76, 77, 78, 79, 80, 81, 82, 83, 84, 85, 86, 87, 88, 89, 90, 91, 92, 93, 94, 95, 96, 97, 98, 99, 100, 101, 102, 103, 104, 105, 106, 107, 108, 109, 110, 111, 112, 113, 114, 115, 116, 117, 118, 119, 120, 121, 122, 123, 124, 125, 126, 127, 128, 129, 130, 131, 132, 133, 134, 135, 136, 137, 138, 139, 140, 141, 142, 143, 144, 145, 146, 147, 148, 149, 150, 151, 152, 153, 154, 155, 156, 157, 158, 159, 160, 161, 162, 163, 164, 165, 166, 167, 168, 169, 170, 171, 172, 173, 174, 175, 176, 177, 178, 179, 180, 181, 182, 183, 184, 185, 186, 187, 188, 189, 190],
      "AcquisitionTime": ["133827.412500", "133828.902500", "133830.392500", "133831.882500", "133833.372500", "133834.862500", "133836.352500", "133837.842500", "133839.332500", "133840.822500", "133842.312500", "133843.802500", "133845.292500", "133846.782500", "133848.272500", "133849.762500", "133851.252500", "133852.742500", "133854.232500", "133855.722500", "133857.212500", "133858.702500", "133900.192500", "133901.682500", "133903.172500", "133904.662500", "133906.152500", "133907.642500", "133909.132500", "133910.622500", "133912.112500", "133913.602500", "133915.092500", "133916.582500", "133918.072500", "133919.562500", "133921.052500", "133922.542500", "133924.032500", "133925.522500", "133927.012500", "133928.502500", "133929.992500", "133931.482500", "133932.972500", "133934.462500", "133935.952500", "133937.442500", "133938.932500", "133940.422500", "133941.912500", "133943.402500", "133944.892500", "133946.382500", "133947.872500", "133949.362500", "133950.852500", "133952.342500", "133953.832500", "133955.322500", "133956.812500", "133958.302500", "133959.792500", "134001.282500", "134002.772500", "134004.262500", "134005.752500", "134007.242500", "134008.732500", "134010.222500", "134011.712500", "134013.202500", "134014.692500", "134016.182500", "134017.672500", "134019.162500", "134020.652500", "134022.142500", "134023.632500", "134025.122500", "134026.612500", "134028.102500", "134029.592500", "134031.082500", "134032.572500", "134034.062500", "134035.552500", "134037.042500", "134038.532500", "134040.022500", "134041.512500", "134043.002500", "134044.492500", "134045.982500", "134047.472500", "134048.962500", "134050.452500", "134051.942500", "134053.432500", "134054.922500", "134056.412500", "134057.902500", "134059.392500", "134100.882500", "134102.372500", "134103.862500", "134105.352500", "134106.842500", "134108.332500", "134109.822500", "134111.312500", "134112.802500", "134114.292500", "134115.782500", "134117.272500", "134118.762500", "134120.252500", "134121.742500", "134123.232500", "134124.722500", "134126.212500", "134127.702500", "134129.192500", "134130.682500", "134132.172500", "134133.662500", "134135.152500", "134136.642500", "134138.132500", "134139.622500", "134141.112500", "134142.602500", "134144.092500", "134145.582500", "134147.072500", "134148.562500", "134150.052500", "134151.542500", "134153.032500", "134154.522500", "134156.012500", "134157.502500", "134158.992500", "134200.482500", "134201.972500", "134203.462500", "134204.952500", "134206.442500", "134207.932500", "134209.422500", "134210.912500", "134212.402500", "134213.892500", "134215.382500", "134216.872500", "134218.362500", "134219.852500", "134221.342500", "134222.832500", "134224.322500", "134225.812500", "134227.302500", "134228.792500", "134230.282500", "134231.772500", "134233.262500", "134234.752500", "134236.242500", "134237.732500", "134239.222500", "134240.712500", "134242.202500", "134243.692500", "134245.182500", "134246.672500", "134248.162500", "134249.652500", "134251.142500", "134252.632500", "134254.122500", "134255.612500", "134257.102500", "134258.592500", "134300.082500", "134301.572500", "134303.062500", "134304.552500", "134306.042500", "134307.532500", "134309.022500"],
      "ContentTime": ["133951.808000", "133951.811000", "133951.813000", "133951.816000", "133951.819000", "133951.821000", "133951.824000", "133951.826000", "133951.829000", "133951.831000", "133951.834000", "133951.836000", "133951.839000", "133951.841000", "133951.844000", "133951.846000", "133951.849000", "133951.852000", "133951.854000", "133951.857000", "133951.859000", "133951.862000", "133951.864000", "133951.867000", "133951.869000", "133951.872000", "133951.874000", "133951.877000", "133951.879000", "133951.882000", "134011.720000", "134011.722000", "134011.725000", "134011.728000", "134011.730000", "134011.733000", "134011.735000", "134011.738000", "134011.740000", "134011.743000", "134011.745000", "134011.748000", "134011.750000", "134011.753000", "134011.756000", "134011.758000", "134011.761000", "134011.763000", "134011.766000", "134011.768000", "134031.713000", "134031.715000", "134031.718000", "134031.725000", "134031.728000", "134031.731000", "134031.733000", "134031.736000", "134031.738000", "134031.741000", "134031.743000", "134031.746000", "134031.748000", "134031.751000", "134031.753000", "134031.756000", "134031.758000", "134031.761000", "134031.763000", "134031.766000", "134051.723000", "134051.726000", "134051.728000", "134051.731000", "134051.734000", "134051.736000", "134051.739000", "134051.741000", "134051.744000", "134051.746000", "134051.749000", "134051.751000", "134051.754000", "134051.756000", "134051.759000", "134051.761000", "134051.764000", "134051.766000", "134051.856000", "134051.859000", "134111.721000", "134111.724000", "134111.726000", "134111.729000", "134111.731000", "134111.734000", "134111.737000", "134111.739000", "134111.742000", "134111.744000", "134111.747000", "134111.749000", "134111.752000", "134111.754000", "134111.757000", "134111.759000", "134111.762000", "134111.765000", "134111.767000", "134111.790000", "134151.752000", "134151.755000", "134151.759000", "134151.761000", "134151.823000", "134151.826000", "134151.829000", "134151.831000", "134151.834000", "134151.836000", "134151.839000", "134151.841000", "134151.844000", "134151.846000", "134151.849000", "134151.852000", "134151.854000", "134151.857000", "134151.859000", "134151.862000", "134151.864000", "134151.867000", "134151.870000", "134151.872000", "134151.875000", "134151.877000", "134231.749000", "134231.752000", "134231.754000", "134231.757000", "134231.759000", "134231.762000", "134231.764000", "134231.767000", "134231.843000", "134231.845000", "134231.848000", "134231.851000", "134231.854000", "134231.857000", "134231.859000", "134231.862000", "134231.865000", "134231.867000", "134231.870000", "134231.872000", "134231.875000", "134231.877000", "134231.880000", "134231.882000", "134231.885000", "134231.887000", "134231.890000", "134310.958000", "134310.962000", "134310.964000", "134310.967000", "134310.970000", "134310.972000", "134310.975000", "134310.978000", "134310.981000", "134310.983000", "134310.986000", "134310.989000", "134310.991000", "134310.994000", "134310.997000", "134311.001000", "134311.003000", "134311.006000", "134311.009000", "134311.012000", "134311.015000", "134311.017000", "134311.020000", "134311.022000", "134311.025000", "134311.028000", "134311.030000"],
      "InstanceCreationTime": ["133951.808000", "133951.811000", "133951.813000", "133951.816000", "133951.819000", "133951.821000", "133951.824000", "133951.826000", "133951.829000", "133951.831000", "133951.834000", "133951.836000", "133951.839000", "133951.841000", "133951.844000", "133951.846000", "133951.849000", "133951.852000", "133951.854000", "133951.857000", "133951.859000", "133951.862000", "133951.864000", "133951.867000", "133951.869000", "133951.872000", "133951.874000", "133951.877000", "133951.879000", "133951.882000", "134011.720000", "134011.722000", "134011.725000", "134011.728000", "134011.730000", "134011.733000", "134011.735000", "134011.738000", "134011.740000", "134011.743000", "134011.745000", "134011.748000", "134011.750000", "134011.753000", "134011.756000", "134011.758000", "134011.761000", "134011.763000", "134011.766000", "134011.768000", "134031.713000", "134031.715000", "134031.718000", "134031.725000", "134031.728000", "134031.731000", "134031.733000", "134031.736000", "134031.738000", "134031.741000", "134031.743000", "134031.746000", "134031.748000", "134031.751000", "134031.753000", "134031.756000", "134031.758000", "134031.761000", "134031.763000", "134031.766000", "134051.723000", "134051.726000", "134051.728000", "134051.731000", "134051.734000", "134051.736000", "134051.739000", "134051.741000", "134051.744000", "134051.746000", "134051.749000", "134051.751000", "134051.754000", "134051.756000", "134051.759000", "134051.761000", "134051.764000", "134051.766000", "134051.856000", "134051.859000", "134111.721000", "134111.724000", "134111.726000", "134111.729000", "134111.731000", "134111.734000", "134111.737000", "134111.739000", "134111.742000", "134111.744000", "134111.747000", "134111.749000", "134111.752000", "134111.754000", "134111.757000", "134111.759000", "134111.762000", "134111.765000", "134111.767000", "134111.790000", "134151.752000", "134151.755000", "134151.759000", "134151.761000", "134151.823000", "134151.826000", "134151.829000", "134151.831000", "134151.834000", "134151.836000", "134151.839000", "134151.841000", "134151.844000", "134151.846000", "134151.849000", "134151.852000", "134151.854000", "134151.857000", "134151.859000", "134151.862000", "134151.864000", "134151.867000", "134151.870000", "134151.872000", "134151.875000", "134151.877000", "134231.749000", "134231.752000", "134231.754000", "134231.757000", "134231.759000", "134231.762000", "134231.764000", "134231.767000", "134231.843000", "134231.845000", "134231.848000", "134231.851000", "134231.854000", "134231.857000", "134231.859000", "134231.862000", "134231.865000", "134231.867000", "134231.870000", "134231.872000", "134231.875000", "134231.877000", "134231.880000", "134231.882000", "134231.885000", "134231.887000", "134231.890000", "134310.958000", "134310.962000", "134310.964000", "134310.967000", "134310.970000", "134310.972000", "134310.975000", "134310.978000", "134310.981000", "134310.983000", "134310.986000", "134310.989000", "134310.991000", "134310.994000", "134310.997000", "134311.001000", "134311.003000", "134311.006000", "134311.009000", "134311.012000", "134311.015000", "134311.017000", "134311.020000", "134311.022000", "134311.025000", "134311.028000", "134311.030000"],
      "InstanceNumber": [1, 2, 3, 4, 5, 6, 7, 8, 9, 10, 11, 12, 13, 14, 15, 16, 17, 18, 19, 20, 21, 22, 23, 24, 25, 26, 27, 28, 29, 30, 31, 32, 33, 34, 35, 36, 37, 38, 39, 40, 41, 42, 43, 44, 45, 46, 47, 48, 49, 50, 51, 52, 53, 54, 55, 56, 57, 58, 59, 60, 61, 62, 63, 64, 65, 66, 67, 68, 69, 70, 71, 72, 73, 74, 75, 76, 77, 78, 79, 80, 81, 82, 83, 84, 85, 86, 87, 88, 89, 90, 91, 92, 93, 94, 95, 96, 97, 98, 99, 100, 101, 102, 103, 104, 105, 106, 107, 108, 109, 110, 111, 112, 113, 114, 115, 116, 117, 118, 119, 120, 121, 122, 123, 124, 125, 126, 127, 128, 129, 130, 131, 132, 133, 134, 135, 136, 137, 138, 139, 140, 141, 142, 143, 144, 145, 146, 147, 148, 149, 150, 151, 152, 153, 154, 155, 156, 157, 158, 159, 160, 161, 162, 163, 164, 165, 166, 167, 168, 169, 170, 171, 172, 173, 174, 175, 176, 177, 178, 179, 180, 181, 182, 183, 184, 185, 186, 187, 188, 189, 190],
      "WindowCenter": [4762.0, 4792.0, 4762.0, 4768.0, 4762.0, 4762.0, 4764.0, 4764.0, 4784.0, 4788.0, 4762.0, 4788.0, 4762.0, 4764.0, 4762.0, 4784.0, 4760.0, 4764.0, 4760.0, 4788.0, 4762.0, 4788.0, 4788.0, 4764.0, 4762.0, 4764.0, 4760.0, 4760.0, 4762.0, 4762.0, 4786.0, 4762.0, 4762.0, 4758.0, 4786.0, 4786.0, 4788.0, 4786.0, 4786.0, 4786.0, 4764.0, 4760.0, 4786.0, 4756.0, 4760.0, 4760.0, 4760.0, 4760.0, 4786.0, 4762.0, 4786.0, 4760.0, 4786.0, 4760.0, 4764.0, 4784.0, 4786.0, 4760.0, 4764.0, 4782.0, 4762.0, 4762.0, 4762.0, 4764.0, 4764.0, 4760.0, 4764.0, 4762.0, 4786.0, 4784.0, 4764.0, 4762.0, 4788.0, 4762.0, 4762.0, 4762.0, 4764.0, 4756.0, 4756.0, 4762.0, 4762.0, 4788.0, 4784.0, 4764.0, 4762.0, 4762.0, 4762.0, 4764.0, 4762.0, 4762.0, 4758.0, 4764.0, 4762.0, 4764.0, 4764.0, 4766.0, 4786.0, 4764.0, 4764.0, 4764.0, 4762.0, 4764.0, 4760.0, 4762.0, 4764.0, 4764.0, 4786.0, 4762.0, 4786.0, 4762.0, 4760.0, 4764.0, 4762.0, 4762.0, 4762.0, 4764.0, 4786.0, 4764.0, 4764.0, 4764.0, 4760.0, 4760.0, 4764.0, 4762.0, 4764.0, 4766.0, 4764.0, 4764.0, 4764.0, 4764.0, 4762.0, 4764.0, 4758.0, 4758.0, 4786.0, 4784.0, 4762.0, 4762.0, 4764.0, 4764.0, 4760.0, 4768.0, 4760.0, 4764.0, 4762.0, 4788.0, 4764.0, 4762.0, 4760.0, 4762.0, 4784.0, 4784.0, 4762.0, 4760.0, 4764.0, 4760.0, 4764.0, 4762.0, 4762.0, 4762.0, 4788.0, 4784.0, 4760.0, 4764.0, 4786.0, 4762.0, 4762.0, 4786.0, 4762.0, 4760.0, 4762.0, 4762.0, 4762.0, 4760.0, 4786.0, 4760.0, 4762.0, 4762.0, 4784.0, 4766.0, 4762.0, 4760.0, 4764.0, 4760.0, 4766.0, 4786.0, 4762.0, 4758.0, 4762.0, 4762.0],
      "WindowWidth": [18536.0, 18568.0, 18532.0, 18536.0, 18538.0, 18532.0, 18536.0, 18534.0, 18568.0, 18570.0, 18534.0, 18568.0, 18534.0, 18538.0, 18538.0, 18564.0, 18536.0, 18538.0, 18532.0, 18570.0, 18538.0, 18568.0, 18568.0, 18536.0, 18534.0, 18538.0, 18536.0, 18530.0, 18538.0, 18536.0, 18570.0, 18538.0, 18536.0, 18530.0, 18564.0, 18566.0, 18570.0, 18566.0, 18564.0, 18566.0, 18534.0, 18536.0, 18566.0, 18534.0, 18536.0, 18536.0, 18536.0, 18530.0, 18568.0, 18536.0, 18568.0, 18532.0, 18566.0, 18538.0, 18538.0, 18570.0, 18568.0, 18532.0, 18536.0, 18564.0, 18540.0, 18536.0, 18532.0, 18538.0, 18534.0, 18540.0, 18536.0, 18536.0, 18570.0, 18566.0, 18534.0, 18536.0, 18570.0, 18536.0, 18536.0, 18534.0, 18536.0, 18534.0, 18534.0, 18538.0, 18536.0, 18564.0, 18564.0, 18536.0, 18532.0, 18538.0, 18534.0, 18532.0, 18534.0, 18534.0, 18536.0, 18538.0, 18536.0, 18538.0, 18538.0, 18536.0, 18570.0, 18534.0, 18538.0, 18538.0, 18536.0, 18538.0, 18536.0, 18534.0, 18538.0, 18534.0, 18564.0, 18534.0, 18568.0, 18536.0, 18538.0, 18536.0, 18536.0, 18536.0, 18538.0, 18536.0, 18566.0, 18536.0, 18540.0, 18536.0, 18536.0, 18532.0, 18538.0, 18530.0, 18540.0, 18542.0, 18536.0, 18536.0, 18532.0, 18536.0, 18538.0, 18536.0, 18532.0, 18532.0, 18572.0, 18568.0, 18534.0, 18536.0, 18536.0, 18536.0, 18536.0, 18538.0, 18534.0, 18540.0, 18538.0, 18570.0, 18540.0, 18534.0, 18534.0, 18532.0, 18568.0, 18564.0, 18532.0, 18534.0, 18538.0, 18532.0, 18538.0, 18534.0, 18534.0, 18538.0, 18568.0, 18568.0, 18536.0, 18536.0, 18566.0, 18532.0, 18536.0, 18568.0, 18530.0, 18536.0, 18534.0, 18538.0, 18540.0, 18538.0, 18566.0, 18536.0, 18536.0, 18538.0, 18568.0, 18536.0, 18534.0, 18538.0, 18538.0, 18530.0, 18536.0, 18570.0, 18536.0, 18530.0, 18534.0, 18536.0]
    },
    "slices": {}
  }
}