{
  "AcquisitionMatrixPE": 104,
  "AcquisitionNumber": 1,
  "AcquisitionTime": "13:38:27.412500",
  "BandwidthPerPixelPhaseEncode": 17.17,
  "BaseResolution": 104,
  "BodyPartExamined": "BRAIN",
  "CoilCombinationMethod": "Sum of Squares",
  "ConsistencyInfo": "N4_VE11C_LATEST_20160120",
  "ConversionSoftware": "dcm2niix",
  "ConversionSoftwareVersion": "v1.0.20211006",
  "DerivedVendorReportedEchoSpacing": 0.000560011,
  "DeviceSerialNumber": "167006",
  "DwellTime": 2.1e-06,
  "EchoTime": 0.037,
  "EchoTrainLength": 104,
  "EffectiveEchoSpacing": 0.000560011,
  "FlipAngle": 52,
  "HeudiconvVersion": "0.10.0",
  "ImageComments": "Unaliased MB4/PE3/LB",
  "ImageOrientationPatientDICOM": [0.999556, 0.0097687, 0.0281379, -0.00244239, 0.968388, -0.249436],
  "ImageOrientationText": "Tra>Cor(-14.4)>Sag(1.7)",
  "ImageType": [
    "ORIGINAL",
    "PRIMARY",
    "M",
    "MB",
    "ND",
    "MOSAIC"
],
  "ImagingFrequency": 123.259,
  "InPlanePhaseEncodingDirectionDICOM": "COL",
  "InstitutionAddress": "Chemin Queen-Mary 4565,Montreal,District,CA,H3W 1W5",
  "InstitutionName": "IUGM",
  "InstitutionalDepartmentName": "Department",
  "MRAcquisitionType": "2D",
  "MagneticFieldStrength": 3,
  "Manufacturer": "Siemens",
  "ManufacturersModelName": "Prisma_fit",
  "MatrixCoilMode": "SENSE",
  "Modality": "MR",
  "MultibandAccelerationFactor": 4,
  "PartialFourier": 1,
  "PatientPosition": "HFS",
  "PercentPhaseFOV": 100,
  "PercentSampling": 100,
  "PhaseEncodingDirection": "j",
  "PhaseEncodingSteps": 104,
  "PhaseResolution": 1,
  "PixelBandwidth": 2290,
  "ProcedureStepDescription": "memory^things",
  "ProtocolName": "func_task-things_run-3",
  "PulseSequenceDetails": "%CustomerSeq%\\cmrr_mbep2d_bold",
  "ReceiveCoilActiveElements": "HC1-7;NC1,2",
  "ReceiveCoilName": "HeadNeck_64",
  "ReconMatrixPE": 104,
  "RepetitionTime": 1.49,
  "SAR": 0.0850042,
  "ScanOptions": "FS",
  "ScanningSequence": "EP",
  "SequenceName": "epfid2d1_104",
  "SequenceVariant": "SK\\SS",
  "SeriesDescription": "func_task-things_run-3",
  "SeriesNumber": 16,
  "ShimSetting": [627, -7218, -8803, 738, 18, -13, 74, -12],
  "SliceThickness": 2,
  "SliceTiming": [0, 0.7825, 0.0975, 0.88, 0.195, 0.98, 0.2925, 1.0775, 0.39, 1.175, 0.49, 1.2725, 0.5875, 1.37, 0.685, 0, 0.7825, 0.0975, 0.88, 0.195, 0.98, 0.2925, 1.0775, 0.39, 1.175, 0.49, 1.2725, 0.5875, 1.37, 0.685, 0, 0.7825, 0.0975, 0.88, 0.195, 0.98, 0.2925, 1.0775, 0.39, 1.175, 0.49, 1.2725, 0.5875, 1.37, 0.685, 0, 0.7825, 0.0975, 0.88, 0.195, 0.98, 0.2925, 1.0775, 0.39, 1.175, 0.49, 1.2725, 0.5875, 1.37, 0.685],
  "SoftwareVersions": "syngo MR E11",
  "SpacingBetweenSlices": 2,
  "StationName": "MRC35049",
  "TaskName": "things",
  "TotalReadoutTime": 0.0576811,
  "TxRefAmp": 310.408,
  "WipMemBlock": "41c8502d-4f3f-46a4-bb67-b3a7b6f6f954||Sequence: R016 ve11c/master r/e634e98; Dec 19 2017 11:00:25 by eja",
  "dcmmeta_affine": [
    [-1.999112606048584, -0.004884778056293726, 0.05937015265226364, 107.29863739013672],
    [-0.01953740604221821, 1.9367766380310059, -0.498512327671051, -73.80896759033203],
    [0.05627579987049103, 0.4988710880279541, 1.9359650611877441, -67.41148376464844],
    [0.0, 0.0, 0.0, 1.0]
],
  "dcmmeta_reorient_transform": [
    [0.0, -1.0, 0.0, 103.0],
    [1.0, 0.0, 0.0, 0.0],
    [0.0, 0.0, 1.0, 0.0],
    [0.0, 0.0, 0.0, 1.0]
],
  "dcmmeta_shape": [104, 104, 60, 190],
  "dcmmeta_slice_dim": 2,
  "dcmmeta_version": 0.6,
  "global": {
    "const": {
      "AcquisitionMatrix": [104, 0, 0, 104],
      "AngioFlag": "N",
      "BitsAllocated": 16,
      "BitsStored": 16,
      "BodyPartExamined": "BRAIN",
      "Columns": 832,
      "EchoNumbers": 1,
      "EchoTime": 37.0,
      "EchoTrainLength": 104,
      "FlipAngle": 52.0,
      "HighBit": 15,
      "ImageOrientationPatient": [0.99955631708282, 0.00976870300328, 0.02813790008968, -0.0024423890182, 0.9683883218971, -0.249435548287],
      "ImagePositionPatient": [-832.69444764414, -837.77733784761, 145.07692632014],
      "ImageType": [
        "ORIGINAL",
        "PRIMARY",
        "M",
        "MB",
        "ND",
        "MOSAIC"
],
      "ImagedNucleus": "1H",
      "ImagingFrequency": 123.258894,
      "InPlanePhaseEncodingDirection": "COL",
      "MRAcquisitionType": "2D",
      "MagneticFieldStrength": 3.0,
      "Manufacturer": "SIEMENS",
      "ManufacturerModelName": "Prisma_fit",
      "Modality": "MR",
      "NumberOfAverages": 1.0,
      "NumberOfPhaseEncodingSteps": 104,
      "PercentPhaseFieldOfView": 100.0,
      "PercentSampling": 100.0,
      "PerformedProcedureStepStartTime": "115310.494000",
      "PhotometricInterpretation": "MONOCHROME2",
      "PixelBandwidth": 2290.0,
      "PixelRepresentation": 0,
      "PixelSpacing": [2.0, 2.0],
      "ProtocolName": "func_task-things_run-3",
      "RepetitionTime": 1490.0,
      "Rows": 832,
      "SAR": 0.08500415555183,
      "SamplesPerPixel": 1,
      "ScanOptions": "FS",
      "ScanningSequence": "EP",
      "SequenceName": "epfid2d1_104",
      "SequenceVariant": [
        "SK",
        "SS"
],
      "SeriesDescription": "func_task-things_run-3",
      "SeriesNumber": 16,
      "SeriesTime": "133951.648000",
      "SliceLocation": -43.670630483352,
      "SliceThickness": 2.0,
      "SmallestImagePixelValue": 0,
      "SoftwareVersions": "syngo MR E11",
      "SpacingBetweenSlices": 2.0000000214615,
      "SpecificCharacterSet": "ISO_IR 100",
      "StudyID": "1",
      "StudyTime": "115310.413000",
      "TransmitCoilName": "Body",
      "VariableFlipAngleFlag": "N",
      "WindowCenterWidthExplanation": "Algo1",
      "dBdt": 0.0},
    "slices": {}
  },
  "time": {
    "samples": {
      "AcquisitionNumber": [1, 2, 3, 4, 5, 6, 7, 8, 9, 10, 11, 12, 13, 14, 15, 16, 17, 18, 19, 20, 21, 22, 23, 24, 25, 26, 27, 28, 29, 30, 31, 32, 33, 34, 35, 36, 37, 38, 39, 40, 41, 42, 43, 44, 45, 46, 47, 48, 49, 50, 51, 52, 53, 54, 55, 56, 57, 58, 59, 60, 61, 62, 63, 64, 65, 66, 67, 68, 69, 70, 71, 72, 73, 74, 75, 76, 77, 78, 79, 80, 81, 82, 83, 84, 85, 86, 87, 88, 89, 90, 91, 92, 93, 94, 95, 96, 97, 98, 99, 100, 101, 102, 103, 104, 105, 106, 107, 108, 109, 110, 111, 112, 113, 114, 115, 116, 117, 118, 119, 120, 121, 122, 123, 124, 125, 126, 127, 128, 129, 130, 131, 132, 133, 134, 135, 136, 137, 138, 139, 140, 141, 142, 143, 144, 145, 146, 147, 148, 149, 150, 151, 152, 153, 154, 155, 156, 157, 158, 159, 160, 161, 162, 163, 164, 165, 166, 167, 168, 169, 170, 171, 172, 173, 174, 175, 176, 177, 178, 179, 180, 181, 182, 183, 184, 185, 186, 187, 188, 189, 190],
      "AcquisitionTime": ["133827.412500", "133828.902500", "133830.392500", "133831.882500", "133833.372500", "133834.862500", "133836.352500", "133837.842500", "133839.332500", "133840.822500", "133842.312500", "133843.802500", "133845.292500", "133846.782500", "133848.272500", "133849.762500", "133851.252500", "133852.742500", "133854.232500", "133855.722500", "133857.212500", "133858.702500", "133900.192500", "133901.682500", "133903.172500", "133904.662500", "133906.152500", "133907.642500", "133909.132500", "133910.622500", "133912.112500", "133913.602500", "133915.092500", "133916.582500", "133918.072500", "133919.562500", "133921.052500", "133922.542500", "133924.032500", "133925.522500", "133927.012500", "133928.502500", "133929.992500", "133931.482500", "133932.972500", "133934.462500", "133935.952500", "133937.442500", "133938.932500", "133940.422500", "133941.912500", "133943.402500", "133944.892500", "133946.382500", "133947.872500", "133949.362500", "133950.852500", "133952.342500", "133953.832500", "133955.322500", "133956.812500", "133958.302500", "133959.792500", "134001.282500", "134002.772500", "134004.262500", "134005.752500", "134007.242500", "134008.732500", "134010.222500", "134011.712500", "134013.202500", "134014.692500", "134016.182500", "134017.672500", "134019.162500", "134020.652500", "134022.142500", "134023.632500", "134025.122500", "134026.612500", "134028.102500", "134029.592500", "134031.082500", "134032.572500", "134034.062500", "134035.552500", "134037.042500", "134038.532500", "134040.022500", "134041.512500", "134043.002500", "134044.492500", "134045.982500", "134047.472500", "134048.962500", "134050.452500", "134051.942500", "134053.432500", "134054.922500", "134056.412500", "134057.902500", "134059.392500", "134100.882500", "134102.372500", "134103.862500", "134105.352500", "134106.842500", "134108.332500", "134109.822500", "134111.312500", "134112.802500", "134114.292500", "134115.782500", "134117.272500", "134118.762500", "134120.252500", "134121.742500", "134123.232500", "134124.722500", "134126.212500", "134127.702500", "134129.192500", "134130.682500", "134132.172500", "134133.662500", "134135.152500", "134136.642500", "134138.132500", "134139.622500", "134141.112500", "134142.602500", "134144.092500", "134145.582500", "134147.072500", "134148.562500", "134150.052500", "134151.542500", "134153.032500", "134154.522500", "134156.012500", "134157.502500", "134158.992500", "134200.482500", "134201.972500", "134203.462500", "134204.952500", "134206.442500", "134207.932500", "134209.422500", "134210.912500", "134212.402500", "134213.892500", "134215.382500", "134216.872500", "134218.362500", "134219.852500", "134221.342500", "134222.832500", "134224.322500", "134225.812500", "134227.302500", "134228.792500", "134230.282500", "134231.772500", "134233.262500", "134234.752500", "134236.242500", "134237.732500", "134239.222500", "134240.712500", "134242.202500", "134243.692500", "134245.182500", "134246.672500", "134248.162500", "134249.652500", "134251.142500", "134252.632500", "134254.122500", "134255.612500", "134257.102500", "134258.592500", "134300.082500", "134301.572500", "134303.062500", "134304.552500", "134306.042500", "134307.532500", "134309.022500"],
      "ContentTime": ["133951.651000", "133951.655000", "133951.658000", "133951.662000", "133951.665000", "133951.668000", "133951.672000", "133951.675000", "133951.685000", "133951.688000", "133951.691000", "133951.695000", "133951.698000", "133951.702000", "133951.705000", "133951.708000", "133951.712000", "133951.715000", "133951.718000", "133951.722000", "133951.725000", "133951.729000", "133951.732000", "133951.735000", "133951.739000", "133951.742000", "133951.745000", "133951.749000", "133951.752000", "133951.755000", "134011.601000", "134011.605000", "134011.609000", "134011.612000", "134011.615000", "134011.619000", "134011.622000", "134011.626000", "134011.629000", "134011.632000", "134011.636000", "134011.639000", "134011.642000", "134011.646000", "134011.649000", "134011.652000", "134011.656000", "134011.659000", "134011.663000", "134011.666000", "134031.601000", "134031.605000", "134031.609000", "134031.612000", "134031.615000", "134031.619000", "134031.622000", "134031.626000", "134031.629000", "134031.633000", "134031.636000", "134031.639000", "134031.643000", "134031.646000", "134031.650000", "134031.653000", "134031.656000", "134031.660000", "134031.663000", "134031.667000", "134051.600000", "134051.604000", "134051.608000", "134051.611000", "134051.614000", "134051.618000", "134051.621000", "134051.625000", "134051.628000", "134051.631000", "134051.635000", "134051.638000", "134051.642000", "134051.645000", "134051.648000", "134051.652000", "134051.655000", "134051.658000", "134051.662000", "134051.665000", "134111.600000", "134111.604000", "134111.607000", "134111.611000", "134111.614000", "134111.618000", "134111.621000", "134111.625000", "134111.628000", "134111.631000", "134111.635000", "134111.638000", "134111.641000", "134111.645000", "134111.648000", "134111.652000", "134111.663000", "134111.666000", "134111.669000", "134111.673000", "134151.601000", "134151.605000", "134151.609000", "134151.612000", "134151.615000", "134151.619000", "134151.622000", "134151.627000", "134151.630000", "134151.634000", "134151.637000", "134151.640000", "134151.644000", "134151.647000", "134151.651000", "134151.654000", "134151.657000", "134151.661000", "134151.664000", "134151.668000", "134151.671000", "134151.674000", "134151.678000", "134151.681000", "134151.685000", "134151.688000", "134231.601000", "134231.605000", "134231.608000", "134231.612000", "134231.615000", "134231.619000", "134231.622000", "134231.626000", "134231.629000", "134231.632000", "134231.636000", "134231.639000", "134231.642000", "134231.646000", "134231.649000", "134231.653000", "134231.656000", "134231.659000", "134231.663000", "134231.666000", "134231.670000", "134231.673000", "134231.676000", "134231.680000", "134231.683000", "134231.687000", "134231.690000", "134310.805000", "134310.809000", "134310.813000", "134310.816000", "134310.820000", "134310.824000", "134310.827000", "134310.831000", "134310.835000", "134310.838000", "134310.842000", "134310.846000", "134310.849000", "134310.853000", "134310.857000", "134310.860000", "134310.864000", "134310.867000", "134310.871000", "134310.874000", "134310.878000", "134310.881000", "134310.885000", "134310.888000", "134310.891000", "134310.895000", "134310.898000"],
      "InstanceCreationTime": ["133951.651000", "133951.655000", "133951.658000", "133951.662000", "133951.665000", "133951.668000", "133951.672000", "133951.675000", "133951.685000", "133951.688000", "133951.691000", "133951.695000", "133951.698000", "133951.702000", "133951.705000", "133951.708000", "133951.712000", "133951.715000", "133951.718000", "133951.722000", "133951.725000", "133951.729000", "133951.732000", "133951.735000", "133951.739000", "133951.742000", "133951.745000", "133951.749000", "133951.752000", "133951.755000", "134011.601000", "134011.605000", "134011.609000", "134011.612000", "134011.615000", "134011.619000", "134011.622000", "134011.626000", "134011.629000", "134011.632000", "134011.636000", "134011.639000", "134011.642000", "134011.646000", "134011.649000", "134011.652000", "134011.656000", "134011.659000", "134011.663000", "134011.666000", "134031.601000", "134031.605000", "134031.609000", "134031.612000", "134031.615000", "134031.619000", "134031.622000", "134031.626000", "134031.629000", "134031.633000", "134031.636000", "134031.639000", "134031.643000", "134031.646000", "134031.650000", "134031.653000", "134031.656000", "134031.660000", "134031.663000", "134031.667000", "134051.600000", "134051.604000", "134051.608000", "134051.611000", "134051.614000", "134051.618000", "134051.621000", "134051.625000", "134051.628000", "134051.631000", "134051.635000", "134051.638000", "134051.642000", "134051.645000", "134051.648000", "134051.652000", "134051.655000", "134051.658000", "134051.662000", "134051.665000", "134111.600000", "134111.604000", "134111.607000", "134111.611000", "134111.614000", "134111.618000", "134111.621000", "134111.625000", "134111.628000", "134111.631000", "134111.635000", "134111.638000", "134111.641000", "134111.645000", "134111.648000", "134111.652000", "134111.663000", "134111.666000", "134111.669000", "134111.673000", "134151.601000", "134151.605000", "134151.609000", "134151.612000", "134151.615000", "134151.619000", "134151.622000", "134151.627000", "134151.630000", "134151.634000", "134151.637000", "134151.640000", "134151.644000", "134151.647000", "134151.651000", "134151.654000", "134151.657000", "134151.661000", "134151.664000", "134151.668000", "134151.671000", "134151.674000", "134151.678000", "134151.681000", "134151.685000", "134151.688000", "134231.601000", "134231.605000", "134231.608000", "134231.612000", "134231.615000", "134231.619000", "134231.622000", "134231.626000", "134231.629000", "134231.632000", "134231.636000", "134231.639000", "134231.642000", "134231.646000", "134231.649000", "134231.653000", "134231.656000", "134231.659000", "134231.663000", "134231.666000", "134231.670000", "134231.673000", "134231.676000", "134231.680000", "134231.683000", "134231.687000", "134231.690000", "134310.805000", "134310.809000", "134310.813000", "134310.816000", "134310.820000", "134310.824000", "134310.827000", "134310.831000", "134310.835000", "134310.838000", "134310.842000", "134310.846000", "134310.849000", "134310.853000", "134310.857000", "134310.860000", "134310.864000", "134310.867000", "134310.871000", "134310.874000", "134310.878000", "134310.881000", "134310.885000", "134310.888000", "134310.891000", "134310.895000", "134310.898000"],
      "InstanceNumber": [1, 2, 3, 4, 5, 6, 7, 8, 9, 10, 11, 12, 13, 14, 15, 16, 17, 18, 19, 20, 21, 22, 23, 24, 25, 26, 27, 28, 29, 30, 31, 32, 33, 34, 35, 36, 37, 38, 39, 40, 41, 42, 43, 44, 45, 46, 47, 48, 49, 50, 51, 52, 53, 54, 55, 56, 57, 58, 59, 60, 61, 62, 63, 64, 65, 66, 67, 68, 69, 70, 71, 72, 73, 74, 75, 76, 77, 78, 79, 80, 81, 82, 83, 84, 85, 86, 87, 88, 89, 90, 91, 92, 93, 94, 95, 96, 97, 98, 99, 100, 101, 102, 103, 104, 105, 106, 107, 108, 109, 110, 111, 112, 113, 114, 115, 116, 117, 118, 119, 120, 121, 122, 123, 124, 125, 126, 127, 128, 129, 130, 131, 132, 133, 134, 135, 136, 137, 138, 139, 140, 141, 142, 143, 144, 145, 146, 147, 148, 149, 150, 151, 152, 153, 154, 155, 156, 157, 158, 159, 160, 161, 162, 163, 164, 165, 166, 167, 168, 169, 170, 171, 172, 173, 174, 175, 176, 177, 178, 179, 180, 181, 182, 183, 184, 185, 186, 187, 188, 189, 190],
      "LargestImagePixelValue": [41088, 40194, 39090, 38477, 38938, 38252, 38704, 38802, 38689, 38657, 38904, 38484, 38869, 38299, 38580, 38609, 38820, 39172, 39074, 38800, 38613, 38574, 38531, 38587, 38842, 38770, 38410, 38883, 38891, 38661, 38777, 39038, 39167, 38905, 38733, 38666, 38538, 39176, 38858, 38938, 38767, 38583, 38926, 38424, 38671, 39059, 39124, 38924, 38847, 38521, 38987, 38857, 38866, 39256, 39074, 38366, 38708, 38870, 38757, 38368, 38237, 38601, 38704, 38753, 38315, 38671, 38377, 38778, 38795, 39239, 39041, 38892, 38850, 38774, 39075, 39233, 38825, 38283, 38420, 38504, 38632, 38564, 38652, 38696, 38809, 38680, 38099, 38358, 38608, 38450, 38243, 38694, 38591, 38153, 38735, 38994, 38786, 38687, 38476, 38264, 38427, 38306, 38348, 38499, 38336, 38310, 38456, 38258, 38577, 38083, 38272, 38499, 38211, 38380, 38130, 37949, 38225, 38553, 38637, 38863, 39063, 38364, 38344, 38517, 38752, 38702, 38549, 38380, 38374, 38478, 38738, 38443, 37888, 38338, 38188, 37989, 38671, 38318, 38225, 38326, 38602, 38265, 38537, 38053, 38391, 37980, 38328, 38445, 38365, 38110, 37959, 38059, 38490, 38564, 38629, 38594, 38572, 38297, 38346, 38442, 38819, 38591, 38339, 38022, 37905, 37981, 37964, 38760, 38470, 37966, 37956, 37765, 37977, 37783, 38202, 38301, 38204, 38398, 38272, 37847, 38625, 38255, 38579, 38503, 38186, 38307, 37898, 38176, 38113, 38397],
      "WindowCenter": [10263.0, 10252.0, 10230.0, 10214.0, 10199.0, 10192.0, 10188.0, 10208.0, 10202.0, 10199.0, 10172.0, 10175.0, 10188.0, 10200.0, 10191.0, 10190.0, 10162.0, 10185.0, 10187.0, 10188.0, 10181.0, 10180.0, 10173.0, 10181.0, 10179.0, 10180.0, 10174.0, 10188.0, 10194.0, 10183.0, 10171.0, 10153.0, 10161.0, 10159.0, 10172.0, 10171.0, 10175.0, 10160.0, 10163.0, 10145.0, 10161.0, 10162.0, 10170.0, 10150.0, 10156.0, 10144.0, 10169.0, 10172.0, 10173.0, 10142.0, 10152.0, 10153.0, 10172.0, 10177.0, 10181.0, 10166.0, 10180.0, 10180.0, 10189.0, 10185.0, 10180.0, 10174.0, 10174.0, 10164.0, 10160.0, 10166.0, 10173.0, 10162.0, 10157.0, 10169.0, 10182.0, 10180.0, 10174.0, 10158.0, 10170.0, 10178.0, 10175.0, 10160.0, 10157.0, 10150.0, 10138.0, 10153.0, 10144.0, 10162.0, 10161.0, 10172.0, 10161.0, 10166.0, 10154.0, 10156.0, 10162.0, 10167.0, 10163.0, 10142.0, 10144.0, 10161.0, 10163.0, 10172.0, 10172.0, 10189.0, 10179.0, 10174.0, 10152.0, 10159.0, 10150.0, 10168.0, 10158.0, 10159.0, 10150.0, 10149.0, 10148.0, 10150.0, 10141.0, 10150.0, 10151.0, 10151.0, 10150.0, 10149.0, 10149.0, 10164.0, 10161.0, 10156.0, 10150.0, 10158.0, 10167.0, 10167.0, 10142.0, 10140.0, 10140.0, 10162.0, 10172.0, 10183.0, 10149.0, 10142.0, 10133.0, 10133.0, 10145.0, 10148.0, 10149.0, 10154.0, 10156.0, 10165.0, 10157.0, 10169.0, 10157.0, 10152.0, 10158.0, 10165.0, 10173.0, 10176.0, 10160.0, 10159.0, 10159.0, 10157.0, 10164.0, 10180.0, 10176.0, 10159.0, 10149.0, 10148.0, 10165.0, 10192.0, 10189.0, 10162.0, 10139.0, 10124.0, 10132.0, 10147.0, 10167.0, 10177.0, 10180.0, 10162.0, 10162.0, 10156.0, 10161.0, 10166.0, 10172.0, 10162.0, 10150.0, 10147.0, 10154.0, 10173.0, 10174.0, 10161.0, 10145.0, 10140.0, 10143.0, 10142.0, 10151.0, 10164.0],
      "WindowWidth": [21863.0, 21819.0, 21761.0, 21717.0, 21672.0, 21657.0, 21645.0, 21694.0, 21680.0, 21671.0, 21605.0, 21617.0, 21646.0, 21675.0, 21650.0, 21644.0, 21580.0, 21634.0, 21640.0, 21643.0, 21626.0, 21621.0, 21607.0, 21625.0, 21620.0, 21622.0, 21610.0, 21642.0, 21655.0, 21632.0, 21600.0, 21555.0, 21574.0, 21572.0, 21603.0, 21600.0, 21613.0, 21573.0, 21582.0, 21541.0, 21577.0, 21582.0, 21597.0, 21556.0, 21566.0, 21539.0, 21596.0, 21605.0, 21608.0, 21539.0, 21557.0, 21558.0, 21605.0, 21613.0, 21625.0, 21592.0, 21621.0, 21622.0, 21643.0, 21636.0, 21626.0, 21609.0, 21609.0, 21585.0, 21580.0, 21591.0, 21605.0, 21577.0, 21566.0, 21591.0, 21626.0, 21620.0, 21608.0, 21571.0, 21597.0, 21613.0, 21613.0, 21580.0, 21570.0, 21552.0, 21525.0, 21556.0, 21538.0, 21579.0, 21577.0, 21603.0, 21582.0, 21592.0, 21562.0, 21569.0, 21581.0, 21595.0, 21582.0, 21536.0, 21536.0, 21577.0, 21582.0, 21603.0, 21605.0, 21643.0, 21619.0, 21607.0, 21560.0, 21575.0, 21555.0, 21597.0, 21572.0, 21577.0, 21553.0, 21550.0, 21548.0, 21557.0, 21535.0, 21554.0, 21558.0, 21559.0, 21556.0, 21552.0, 21553.0, 21584.0, 21576.0, 21565.0, 21555.0, 21576.0, 21594.0, 21594.0, 21535.0, 21528.0, 21528.0, 21580.0, 21605.0, 21630.0, 21555.0, 21535.0, 21514.0, 21517.0, 21540.0, 21549.0, 21552.0, 21562.0, 21567.0, 21589.0, 21572.0, 21600.0, 21570.0, 21558.0, 21571.0, 21588.0, 21606.0, 21615.0, 21576.0, 21572.0, 21574.0, 21567.0, 21584.0, 21619.0, 21614.0, 21573.0, 21549.0, 21548.0, 21591.0, 21653.0, 21646.0, 21581.0, 21531.0, 21492.0, 21512.0, 21547.0, 21596.0, 21618.0, 21626.0, 21583.0, 21584.0, 21570.0, 21582.0, 21591.0, 21605.0, 21582.0, 21553.0, 21550.0, 21558.0, 21605.0, 21607.0, 21579.0, 21541.0, 21526.0, 21540.0, 21539.0, 21559.0, 21586.0]
    },
    "slices": {}
  }
}