{
  "AcquisitionMatrixPE": 104,
  "AcquisitionNumber": 1,
  "AcquisitionTime": "13:44:46.597500",
  "BandwidthPerPixelPhaseEncode": 17.17,
  "BaseResolution": 104,
  "BodyPartExamined": "BRAIN",
  "CoilCombinationMethod": "Sum of Squares",
  "ConsistencyInfo": "N4_VE11C_LATEST_20160120",
  "ConversionSoftware": "dcm2niix",
  "ConversionSoftwareVersion": "v1.0.20211006",
  "DerivedVendorReportedEchoSpacing": 0.000560011,
  "DeviceSerialNumber": "167006",
  "DwellTime": 2.1e-06,
  "EchoTime": 0.037,
  "EchoTrainLength": 104,
  "EffectiveEchoSpacing": 0.000560011,
  "FlipAngle": 52,
  "HeudiconvVersion": "0.10.0",
  "ImageComments": "Unaliased MB4/PE3/LB",
  "ImageOrientationPatientDICOM": [0.999556, 0.0097687, 0.0281379, -0.00244239, 0.968388, -0.249436],
  "ImageOrientationText": "Tra>Cor(-14.4)>Sag(1.7)",
  "ImageType": [
    "ORIGINAL",
    "PRIMARY",
    "M",
    "MB",
    "ND",
    "MOSAIC"
],
  "ImagingFrequency": 123.259,
  "InPlanePhaseEncodingDirectionDICOM": "COL",
  "InstitutionAddress": "Chemin Queen-Mary 4565,Montreal,District,CA,H3W 1W5",
  "InstitutionName": "IUGM",
  "InstitutionalDepartmentName": "Department",
  "MRAcquisitionType": "2D",
  "MagneticFieldStrength": 3,
  "Manufacturer": "Siemens",
  "ManufacturersModelName": "Prisma_fit",
  "MatrixCoilMode": "SENSE",
  "Modality": "MR",
  "MultibandAccelerationFactor": 4,
  "PartialFourier": 1,
  "PatientPosition": "HFS",
  "PercentPhaseFOV": 100,
  "PercentSampling": 100,
  "PhaseEncodingDirection": "j",
  "PhaseEncodingSteps": 104,
  "PhaseResolution": 1,
  "PixelBandwidth": 2290,
  "ProcedureStepDescription": "memory^things",
  "ProtocolName": "func_task-things_run-4",
  "PulseSequenceDetails": "%CustomerSeq%\\cmrr_mbep2d_bold",
  "ReceiveCoilActiveElements": "HC1-7;NC1,2",
  "ReceiveCoilName": "HeadNeck_64",
  "ReconMatrixPE": 104,
  "RepetitionTime": 1.49,
  "SAR": 0.0850042,
  "ScanOptions": "FS",
  "ScanningSequence": "EP",
  "SequenceName": "epfid2d1_104",
  "SequenceVariant": "SK\\SS",
  "SeriesDescription": "func_task-things_run-4",
  "SeriesNumber": 19,
  "ShimSetting": [627, -7218, -8803, 738, 18, -13, 74, -12],
  "SliceThickness": 2,
  "SliceTiming": [0, 0.785, 0.1, 0.8825, 0.1975, 0.98, 0.295, 1.08, 0.3925, 1.1775, 0.49, 1.275, 0.59, 1.3725, 0.6875, 0, 0.785, 0.1, 0.8825, 0.1975, 0.98, 0.295, 1.08, 0.3925, 1.1775, 0.49, 1.275, 0.59, 1.3725, 0.6875, 0, 0.785, 0.1, 0.8825, 0.1975, 0.98, 0.295, 1.08, 0.3925, 1.1775, 0.49, 1.275, 0.59, 1.3725, 0.6875, 0, 0.785, 0.1, 0.8825, 0.1975, 0.98, 0.295, 1.08, 0.3925, 1.1775, 0.49, 1.275, 0.59, 1.3725, 0.6875],
  "SoftwareVersions": "syngo MR E11",
  "SpacingBetweenSlices": 2,
  "StationName": "MRC35049",
  "TaskName": "things",
  "TotalReadoutTime": 0.0576811,
  "TxRefAmp": 310.408,
  "WipMemBlock": "2dd8792a-a2b9-4514-8787-65294d62e77b||Sequence: R016 ve11c/master r/e634e98; Dec 19 2017 11:00:25 by eja",
  "dcmmeta_affine": [
    [-1.999112606048584, -0.004884778056293726, 0.05937015265226364, 107.29863739013672],
    [-0.01953740604221821, 1.9367766380310059, -0.498512327671051, -73.80896759033203],
    [0.05627579987049103, 0.4988710880279541, 1.9359650611877441, -67.41148376464844],
    [0.0, 0.0, 0.0, 1.0]
],
  "dcmmeta_reorient_transform": [
    [0.0, -1.0, 0.0, 103.0],
    [1.0, 0.0, 0.0, 0.0],
    [0.0, 0.0, 1.0, 0.0],
    [0.0, 0.0, 0.0, 1.0]
],
  "dcmmeta_shape": [104, 104, 60, 190],
  "dcmmeta_slice_dim": 2,
  "dcmmeta_version": 0.6,
  "global": {
    "const": {
      "AcquisitionMatrix": [104, 0, 0, 104],
      "AngioFlag": "N",
      "BitsAllocated": 16,
      "BitsStored": 16,
      "BodyPartExamined": "BRAIN",
      "Columns": 832,
      "EchoNumbers": 1,
      "EchoTime": 37.0,
      "EchoTrainLength": 104,
      "FlipAngle": 52.0,
      "HighBit": 15,
      "ImageOrientationPatient": [0.99955631708282, 0.00976870300328, 0.02813790008968, -0.0024423890182, 0.9683883218971, -0.249435548287],
      "ImagePositionPatient": [-832.69444764414, -837.77733784761, 145.07692632014],
      "ImageType": [
        "ORIGINAL",
        "PRIMARY",
        "M",
        "MB",
        "ND",
        "MOSAIC"
],
      "ImagedNucleus": "1H",
      "ImagingFrequency": 123.258897,
      "InPlanePhaseEncodingDirection": "COL",
      "MRAcquisitionType": "2D",
      "MagneticFieldStrength": 3.0,
      "Manufacturer": "SIEMENS",
      "ManufacturerModelName": "Prisma_fit",
      "Modality": "MR",
      "NumberOfAverages": 1.0,
      "NumberOfPhaseEncodingSteps": 104,
      "PercentPhaseFieldOfView": 100.0,
      "PercentSampling": 100.0,
      "PerformedProcedureStepStartTime": "115310.494000",
      "PhotometricInterpretation": "MONOCHROME2",
      "PixelBandwidth": 2290.0,
      "PixelRepresentation": 0,
      "PixelSpacing": [2.0, 2.0],
      "ProtocolName": "func_task-things_run-4",
      "RepetitionTime": 1490.0,
      "Rows": 832,
      "SAR": 0.08500415555183,
      "SamplesPerPixel": 1,
      "ScanOptions": "FS",
      "ScanningSequence": "EP",
      "SequenceName": "epfid2d1_104",
      "SequenceVariant": [
        "SK",
        "SS"
],
      "SeriesDescription": "func_task-things_run-4",
      "SeriesNumber": 19,
      "SeriesTime": "134606.713000",
      "SliceLocation": -43.670630483352,
      "SliceThickness": 2.0,
      "SmallestImagePixelValue": 0,
      "SoftwareVersions": "syngo MR E11",
      "SpacingBetweenSlices": 2.0000000214615,
      "SpecificCharacterSet": "ISO_IR 100",
      "StudyID": "1",
      "StudyTime": "115310.413000",
      "TransmitCoilName": "Body",
      "VariableFlipAngleFlag": "N",
      "WindowCenterWidthExplanation": "Algo1",
      "dBdt": 0.0},
    "slices": {}
  },
  "time": {
    "samples": {
      "AcquisitionNumber": [1, 2, 3, 4, 5, 6, 7, 8, 9, 10, 11, 12, 13, 14, 15, 16, 17, 18, 19, 20, 21, 22, 23, 24, 25, 26, 27, 28, 29, 30, 31, 32, 33, 34, 35, 36, 37, 38, 39, 40, 41, 42, 43, 44, 45, 46, 47, 48, 49, 50, 51, 52, 53, 54, 55, 56, 57, 58, 59, 60, 61, 62, 63, 64, 65, 66, 67, 68, 69, 70, 71, 72, 73, 74, 75, 76, 77, 78, 79, 80, 81, 82, 83, 84, 85, 86, 87, 88, 89, 90, 91, 92, 93, 94, 95, 96, 97, 98, 99, 100, 101, 102, 103, 104, 105, 106, 107, 108, 109, 110, 111, 112, 113, 114, 115, 116, 117, 118, 119, 120, 121, 122, 123, 124, 125, 126, 127, 128, 129, 130, 131, 132, 133, 134, 135, 136, 137, 138, 139, 140, 141, 142, 143, 144, 145, 146, 147, 148, 149, 150, 151, 152, 153, 154, 155, 156, 157, 158, 159, 160, 161, 162, 163, 164, 165, 166, 167, 168, 169, 170, 171, 172, 173, 174, 175, 176, 177, 178, 179, 180, 181, 182, 183, 184, 185, 186, 187, 188, 189, 190],
      "AcquisitionTime": ["134446.597500", "134448.087500", "134449.577500", "134451.067500", "134452.557500", "134454.047500", "134455.537500", "134457.027500", "134458.517500", "134500.007500", "134501.497500", "134502.987500", "134504.477500", "134505.967500", "134507.457500", "134508.947500", "134510.437500", "134511.927500", "134513.417500", "134514.907500", "134516.397500", "134517.887500", "134519.377500", "134520.867500", "134522.357500", "134523.847500", "134525.337500", "134526.827500", "134528.317500", "134529.807500", "134531.297500", "134532.787500", "134534.277500", "134535.767500", "134537.257500", "134538.747500", "134540.237500", "134541.727500", "134543.217500", "134544.707500", "134546.197500", "134547.687500", "134549.177500", "134550.667500", "134552.157500", "134553.647500", "134555.137500", "134556.627500", "134558.117500", "134559.607500", "134601.097500", "134602.587500", "134604.077500", "134605.567500", "134607.057500", "134608.547500", "134610.037500", "134611.527500", "134613.017500", "134614.507500", "134615.997500", "134617.487500", "134618.977500", "134620.467500", "134621.957500", "134623.447500", "134624.937500", "134626.427500", "134627.917500", "134629.407500", "134630.897500", "134632.387500", "134633.877500", "134635.367500", "134636.857500", "134638.347500", "134639.837500", "134641.327500", "134642.817500", "134644.307500", "134645.797500", "134647.287500", "134648.777500", "134650.267500", "134651.757500", "134653.247500", "134654.737500", "134656.227500", "134657.717500", "134659.207500", "134700.697500", "134702.187500", "134703.677500", "134705.167500", "134706.657500", "134708.147500", "134709.637500", "134711.127500", "134712.617500", "134714.107500", "134715.597500", "134717.087500", "134718.577500", "134720.067500", "134721.557500", "134723.047500", "134724.537500", "134726.027500", "134727.517500", "134729.007500", "134730.497500", "134731.987500", "134733.477500", "134734.967500", "134736.457500", "134737.947500", "134739.437500", "134740.927500", "134742.417500", "134743.907500", "134745.397500", "134746.887500", "134748.377500", "134749.867500", "134751.357500", "134752.847500", "134754.337500", "134755.827500", "134757.317500", "134758.807500", "134800.297500", "134801.787500", "134803.277500", "134804.767500", "134806.257500", "134807.747500", "134809.237500", "134810.727500", "134812.217500", "134813.707500", "134815.197500", "134816.687500", "134818.177500", "134819.667500", "134821.157500", "134822.647500", "134824.137500", "134825.627500", "134827.117500", "134828.607500", "134830.097500", "134831.587500", "134833.077500", "134834.567500", "134836.057500", "134837.547500", "134839.037500", "134840.527500", "134842.017500", "134843.507500", "134844.997500", "134846.487500", "134847.977500", "134849.467500", "134850.957500", "134852.447500", "134853.937500", "134855.427500", "134856.917500", "134858.407500", "134859.897500", "134901.387500", "134902.877500", "134904.367500", "134905.857500", "134907.347500", "134908.837500", "134910.327500", "134911.817500", "134913.307500", "134914.797500", "134916.287500", "134917.777500", "134919.267500", "134920.757500", "134922.247500", "134923.737500", "134925.227500", "134926.717500", "134928.207500"],
      "ContentTime": ["134606.716000", "134606.720000", "134606.723000", "134606.726000", "134606.730000", "134606.733000", "134606.737000", "134606.740000", "134606.743000", "134606.747000", "134606.750000", "134606.753000", "134606.757000", "134606.760000", "134606.763000", "134606.767000", "134606.779000", "134606.783000", "134606.786000", "134606.789000", "134606.793000", "134606.796000", "134606.800000", "134606.803000", "134606.806000", "134606.810000", "134626.682000", "134626.686000", "134626.689000", "134626.693000", "134626.696000", "134626.699000", "134626.703000", "134626.706000", "134626.710000", "134626.713000", "134626.716000", "134626.720000", "134626.723000", "134626.727000", "134626.730000", "134626.733000", "134626.737000", "134626.740000", "134626.744000", "134626.747000", "134646.681000", "134646.685000", "134646.688000", "134646.692000", "134646.695000", "134646.698000", "134646.702000", "134646.705000", "134646.709000", "134646.712000", "134646.716000", "134646.728000", "134646.732000", "134646.735000", "134646.739000", "134646.743000", "134646.746000", "134646.750000", "134646.753000", "134646.756000", "134706.682000", "134706.686000", "134706.689000", "134706.693000", "134706.696000", "134706.699000", "134706.703000", "134706.706000", "134706.710000", "134706.713000", "134706.716000", "134706.720000", "134706.723000", "134706.726000", "134706.730000", "134706.733000", "134706.736000", "134706.740000", "134706.743000", "134706.746000", "134706.750000", "134746.682000", "134746.686000", "134746.689000", "134746.703000", "134746.707000", "134746.721000", "134746.724000", "134746.728000", "134746.731000", "134746.736000", "134746.739000", "134746.743000", "134746.746000", "134746.750000", "134746.753000", "134746.756000", "134746.760000", "134746.763000", "134746.767000", "134746.770000", "134746.774000", "134746.777000", "134746.781000", "134746.784000", "134746.787000", "134746.791000", "134746.794000", "134746.798000", "134746.801000", "134746.805000", "134746.808000", "134746.811000", "134746.815000", "134826.682000", "134826.687000", "134826.691000", "134826.695000", "134826.698000", "134826.702000", "134826.706000", "134826.709000", "134826.713000", "134826.717000", "134826.721000", "134826.725000", "134826.728000", "134826.732000", "134826.736000", "134826.740000", "134826.745000", "134826.749000", "134826.753000", "134826.757000", "134826.760000", "134826.764000", "134826.767000", "134826.771000", "134826.775000", "134826.778000", "134826.782000", "134906.681000", "134906.685000", "134906.688000", "134906.692000", "134906.695000", "134906.699000", "134906.702000", "134906.706000", "134906.709000", "134906.712000", "134906.716000", "134906.719000", "134906.722000", "134906.726000", "134906.729000", "134906.733000", "134906.736000", "134906.740000", "134906.743000", "134906.746000", "134906.750000", "134906.753000", "134906.756000", "134906.760000", "134906.763000", "134906.767000", "134906.770000", "134930.476000", "134930.480000", "134930.483000", "134930.487000", "134930.490000", "134930.494000", "134930.498000", "134930.501000", "134930.505000", "134930.508000", "134930.512000", "134930.515000", "134930.519000", "134930.522000", "134930.525000", "134930.547000"],
      "InstanceCreationTime": ["134606.716000", "134606.720000", "134606.723000", "134606.726000", "134606.730000", "134606.733000", "134606.737000", "134606.740000", "134606.743000", "134606.747000", "134606.750000", "134606.753000", "134606.757000", "134606.760000", "134606.763000", "134606.767000", "134606.779000", "134606.783000", "134606.786000", "134606.789000", "134606.793000", "134606.796000", "134606.800000", "134606.803000", "134606.806000", "134606.810000", "134626.682000", "134626.686000", "134626.689000", "134626.693000", "134626.696000", "134626.699000", "134626.703000", "134626.706000", "134626.710000", "134626.713000", "134626.716000", "134626.720000", "134626.723000", "134626.727000", "134626.730000", "134626.733000", "134626.737000", "134626.740000", "134626.744000", "134626.747000", "134646.681000", "134646.685000", "134646.688000", "134646.692000", "134646.695000", "134646.698000", "134646.702000", "134646.705000", "134646.709000", "134646.712000", "134646.716000", "134646.728000", "134646.732000", "134646.735000", "134646.739000", "134646.743000", "134646.746000", "134646.750000", "134646.753000", "134646.756000", "134706.682000", "134706.686000", "134706.689000", "134706.693000", "134706.696000", "134706.699000", "134706.703000", "134706.706000", "134706.710000", "134706.713000", "134706.716000", "134706.720000", "134706.723000", "134706.726000", "134706.730000", "134706.733000", "134706.736000", "134706.740000", "134706.743000", "134706.746000", "134706.750000", "134746.682000", "134746.686000", "134746.689000", "134746.703000", "134746.707000", "134746.721000", "134746.724000", "134746.728000", "134746.731000", "134746.736000", "134746.739000", "134746.743000", "134746.746000", "134746.750000", "134746.753000", "134746.756000", "134746.760000", "134746.763000", "134746.767000", "134746.770000", "134746.774000", "134746.777000", "134746.781000", "134746.784000", "134746.787000", "134746.791000", "134746.794000", "134746.798000", "134746.801000", "134746.805000", "134746.808000", "134746.811000", "134746.815000", "134826.682000", "134826.687000", "134826.691000", "134826.695000", "134826.698000", "134826.702000", "134826.706000", "134826.709000", "134826.713000", "134826.717000", "134826.721000", "134826.725000", "134826.728000", "134826.732000", "134826.736000", "134826.740000", "134826.745000", "134826.749000", "134826.753000", "134826.757000", "134826.760000", "134826.764000", "134826.767000", "134826.771000", "134826.775000", "134826.778000", "134826.782000", "134906.681000", "134906.685000", "134906.688000", "134906.692000", "134906.695000", "134906.699000", "134906.702000", "134906.706000", "134906.709000", "134906.712000", "134906.716000", "134906.719000", "134906.722000", "134906.726000", "134906.729000", "134906.733000", "134906.736000", "134906.740000", "134906.743000", "134906.746000", "134906.750000", "134906.753000", "134906.756000", "134906.760000", "134906.763000", "134906.767000", "134906.770000", "134930.476000", "134930.480000", "134930.483000", "134930.487000", "134930.490000", "134930.494000", "134930.498000", "134930.501000", "134930.505000", "134930.508000", "134930.512000", "134930.515000", "134930.519000", "134930.522000", "134930.525000", "134930.547000"],
      "InstanceNumber": [1, 2, 3, 4, 5, 6, 7, 8, 9, 10, 11, 12, 13, 14, 15, 16, 17, 18, 19, 20, 21, 22, 23, 24, 25, 26, 27, 28, 29, 30, 31, 32, 33, 34, 35, 36, 37, 38, 39, 40, 41, 42, 43, 44, 45, 46, 47, 48, 49, 50, 51, 52, 53, 54, 55, 56, 57, 58, 59, 60, 61, 62, 63, 64, 65, 66, 67, 68, 69, 70, 71, 72, 73, 74, 75, 76, 77, 78, 79, 80, 81, 82, 83, 84, 85, 86, 87, 88, 89, 90, 91, 92, 93, 94, 95, 96, 97, 98, 99, 100, 101, 102, 103, 104, 105, 106, 107, 108, 109, 110, 111, 112, 113, 114, 115, 116, 117, 118, 119, 120, 121, 122, 123, 124, 125, 126, 127, 128, 129, 130, 131, 132, 133, 134, 135, 136, 137, 138, 139, 140, 141, 142, 143, 144, 145, 146, 147, 148, 149, 150, 151, 152, 153, 154, 155, 156, 157, 158, 159, 160, 161, 162, 163, 164, 165, 166, 167, 168, 169, 170, 171, 172, 173, 174, 175, 176, 177, 178, 179, 180, 181, 182, 183, 184, 185, 186, 187, 188, 189, 190],
      "LargestImagePixelValue": [41578, 40400, 39872, 38847, 38776, 38616, 38944, 38668, 38683, 38682, 38340, 38664, 39271, 38801, 39204, 38601, 38782, 38332, 39210, 38496, 39205, 38712, 38540, 38532, 38817, 38791, 38687, 38498, 38632, 39124, 39363, 38988, 38627, 38602, 38918, 39051, 38502, 38697, 39068, 39024, 38748, 38813, 38937, 38665, 39047, 38837, 38370, 38564, 38779, 39133, 38649, 38401, 38307, 38440, 38660, 38613, 38421, 38681, 38623, 38256, 38366, 38311, 38878, 38649, 38513, 38197, 38638, 38584, 38462, 38745, 38612, 38199, 38319, 38218, 38381, 38264, 38313, 38632, 38474, 38266, 38122, 38424, 38382, 38776, 38221, 37981, 37998, 37930, 38513, 38791, 38388, 38116, 38462, 38591, 38479, 38548, 38171, 38224, 38787, 38659, 38959, 39255, 38603, 38782, 38766, 38904, 38548, 38643, 38728, 38356, 38629, 38762, 38184, 38530, 38483, 38427, 38163, 38359, 38408, 38244, 38614, 38171, 38547, 38350, 38791, 38246, 38397, 37782, 38274, 38387, 38897, 38340, 38482, 38527, 38511, 38691, 38758, 38877, 38721, 38143, 38554, 39158, 38625, 38615, 38698, 38458, 38658, 38352, 38614, 38882, 38841, 38173, 38139, 38554, 38670, 38806, 38969, 39044, 39211, 39146, 38644, 38506, 38474, 38658, 38613, 38636, 38553, 38638, 38534, 38735, 38415, 38396, 38544, 38301, 38498, 38445, 38201, 38304, 38297, 38440, 38600, 38314, 37991, 38190, 38250, 37957, 38445, 38094, 37858, 37846],
      "WindowCenter": [10256.0, 10238.0, 10226.0, 10208.0, 10172.0, 10161.0, 10166.0, 10184.0, 10193.0, 10201.0, 10184.0, 10192.0, 10199.0, 10193.0, 10200.0, 10196.0, 10176.0, 10176.0, 10180.0, 10177.0, 10181.0, 10174.0, 10176.0, 10184.0, 10195.0, 10185.0, 10178.0, 10162.0, 10165.0, 10171.0, 10187.0, 10175.0, 10177.0, 10168.0, 10181.0, 10173.0, 10167.0, 10166.0, 10181.0, 10173.0, 10158.0, 10155.0, 10155.0, 10170.0, 10188.0, 10185.0, 10169.0, 10173.0, 10167.0, 10180.0, 10185.0, 10179.0, 10168.0, 10161.0, 10150.0, 10155.0, 10159.0, 10185.0, 10177.0, 10181.0, 10161.0, 10169.0, 10178.0, 10193.0, 10175.0, 10179.0, 10167.0, 10168.0, 10155.0, 10160.0, 10167.0, 10163.0, 10159.0, 10150.0, 10159.0, 10160.0, 10168.0, 10169.0, 10172.0, 10161.0, 10147.0, 10145.0, 10167.0, 10191.0, 10187.0, 10174.0, 10165.0, 10164.0, 10169.0, 10184.0, 10163.0, 10144.0, 10127.0, 10146.0, 10151.0, 10159.0, 10151.0, 10160.0, 10167.0, 10178.0, 10179.0, 10182.0, 10168.0, 10177.0, 10180.0, 10188.0, 10162.0, 10167.0, 10167.0, 10183.0, 10176.0, 10177.0, 10161.0, 10184.0, 10177.0, 10179.0, 10163.0, 10177.0, 10170.0, 10186.0, 10177.0, 10173.0, 10167.0, 10176.0, 10175.0, 10197.0, 10179.0, 10156.0, 10135.0, 10150.0, 10171.0, 10186.0, 10179.0, 10152.0, 10144.0, 10163.0, 10173.0, 10169.0, 10158.0, 10146.0, 10151.0, 10156.0, 10176.0, 10177.0, 10176.0, 10154.0, 10152.0, 10149.0, 10193.0, 10219.0, 10193.0, 10147.0, 10127.0, 10116.0, 10114.0, 10113.0, 10128.0, 10126.0, 10167.0, 10164.0, 10151.0, 10125.0, 10115.0, 10129.0, 10141.0, 10141.0, 10133.0, 10157.0, 10167.0, 10170.0, 10144.0, 10143.0, 10138.0, 10168.0, 10184.0, 10177.0, 10171.0, 10179.0, 10155.0, 10162.0, 10175.0, 10177.0, 10169.0, 10161.0, 10152.0, 10166.0, 10182.0, 10200.0, 10186.0, 10162.0],
      "WindowWidth": [21844.0, 21785.0, 21745.0, 21701.0, 21614.0, 21586.0, 21595.0, 21639.0, 21657.0, 21674.0, 21635.0, 21653.0, 21667.0, 21657.0, 21671.0, 21663.0, 21615.0, 21613.0, 21620.0, 21617.0, 21624.0, 21609.0, 21616.0, 21636.0, 21665.0, 21638.0, 21620.0, 21585.0, 21588.0, 21600.0, 21637.0, 21612.0, 21617.0, 21597.0, 21623.0, 21607.0, 21595.0, 21593.0, 21624.0, 21605.0, 21572.0, 21564.0, 21562.0, 21599.0, 21640.0, 21637.0, 21600.0, 21606.0, 21595.0, 21623.0, 21637.0, 21624.0, 21598.0, 21580.0, 21554.0, 21566.0, 21578.0, 21640.0, 21620.0, 21629.0, 21580.0, 21600.0, 21621.0, 21656.0, 21612.0, 21622.0, 21592.0, 21593.0, 21567.0, 21578.0, 21593.0, 21585.0, 21574.0, 21555.0, 21576.0, 21581.0, 21601.0, 21604.0, 21610.0, 21579.0, 21550.0, 21545.0, 21596.0, 21649.0, 21641.0, 21613.0, 21593.0, 21591.0, 21601.0, 21633.0, 21587.0, 21540.0, 21502.0, 21542.0, 21557.0, 21575.0, 21559.0, 21579.0, 21595.0, 21624.0, 21629.0, 21629.0, 21595.0, 21616.0, 21626.0, 21642.0, 21582.0, 21593.0, 21594.0, 21631.0, 21614.0, 21618.0, 21583.0, 21635.0, 21620.0, 21620.0, 21585.0, 21615.0, 21600.0, 21635.0, 21616.0, 21610.0, 21594.0, 21616.0, 21615.0, 21666.0, 21621.0, 21569.0, 21518.0, 21554.0, 21603.0, 21641.0, 21621.0, 21559.0, 21543.0, 21583.0, 21607.0, 21599.0, 21573.0, 21546.0, 21558.0, 21567.0, 21617.0, 21619.0, 21614.0, 21566.0, 21560.0, 21551.0, 21658.0, 21719.0, 21655.0, 21546.0, 21499.0, 21472.0, 21469.0, 21467.0, 21501.0, 21495.0, 21590.0, 21586.0, 21556.0, 21496.0, 21471.0, 21503.0, 21535.0, 21535.0, 21518.0, 21572.0, 21597.0, 21603.0, 21540.0, 21540.0, 21528.0, 21598.0, 21633.0, 21617.0, 21604.0, 21622.0, 21568.0, 21586.0, 21614.0, 21617.0, 21598.0, 21582.0, 21560.0, 21590.0, 21629.0, 21670.0, 21635.0, 21579.0]
    },
    "slices": {}
  }
}