{
  "AcquisitionMatrixPE": 104,
  "AcquisitionNumber": 1,
  "AcquisitionTime": "13:51:1.777500",
  "BandwidthPerPixelPhaseEncode": 17.17,
  "BaseResolution": 104,
  "BodyPartExamined": "BRAIN",
  "CoilCombinationMethod": "Sum of Squares",
  "ConsistencyInfo": "N4_VE11C_LATEST_20160120",
  "ConversionSoftware": "dcm2niix",
  "ConversionSoftwareVersion": "v1.0.20211006",
  "DerivedVendorReportedEchoSpacing": 0.000560011,
  "DeviceSerialNumber": "167006",
  "DwellTime": 2.1e-06,
  "EchoTime": 0.037,
  "EchoTrainLength": 104,
  "EffectiveEchoSpacing": 0.000560011,
  "FlipAngle": 52,
  "HeudiconvVersion": "0.10.0",
  "ImageComments": "Unaliased MB4/PE3/LB",
  "ImageOrientationPatientDICOM": [0.999556, 0.0097687, 0.0281379, -0.00244239, 0.968388, -0.249436],
  "ImageOrientationText": "Tra>Cor(-14.4)>Sag(1.7)",
  "ImageType": [
    "ORIGINAL",
    "PRIMARY",
    "M",
    "MB",
    "ND",
    "MOSAIC"
],
  "ImagingFrequency": 123.259,
  "InPlanePhaseEncodingDirectionDICOM": "COL",
  "InstitutionAddress": "Chemin Queen-Mary 4565,Montreal,District,CA,H3W 1W5",
  "InstitutionName": "IUGM",
  "InstitutionalDepartmentName": "Department",
  "MRAcquisitionType": "2D",
  "MagneticFieldStrength": 3,
  "Manufacturer": "Siemens",
  "ManufacturersModelName": "Prisma_fit",
  "MatrixCoilMode": "SENSE",
  "Modality": "MR",
  "MultibandAccelerationFactor": 4,
  "PartialFourier": 1,
  "PatientPosition": "HFS",
  "PercentPhaseFOV": 100,
  "PercentSampling": 100,
  "PhaseEncodingDirection": "j",
  "PhaseEncodingSteps": 104,
  "PhaseResolution": 1,
  "PixelBandwidth": 2290,
  "ProcedureStepDescription": "memory^things",
  "ProtocolName": "func_task-things_run-5",
  "PulseSequenceDetails": "%CustomerSeq%\\cmrr_mbep2d_bold",
  "ReceiveCoilActiveElements": "HC1-7;NC1,2",
  "ReceiveCoilName": "HeadNeck_64",
  "ReconMatrixPE": 104,
  "RepetitionTime": 1.49,
  "SAR": 0.0850042,
  "ScanOptions": "FS",
  "ScanningSequence": "EP",
  "SequenceName": "epfid2d1_104",
  "SequenceVariant": "SK\\SS",
  "SeriesDescription": "func_task-things_run-5",
  "SeriesNumber": 22,
  "ShimSetting": [627, -7218, -8803, 738, 18, -13, 74, -12],
  "SliceThickness": 2,
  "SliceTiming": [0, 0.7825, 0.0975, 0.88, 0.195, 0.98, 0.2925, 1.0775, 0.39, 1.175, 0.49, 1.2725, 0.5875, 1.37, 0.685, 0, 0.7825, 0.0975, 0.88, 0.195, 0.98, 0.2925, 1.0775, 0.39, 1.175, 0.49, 1.2725, 0.5875, 1.37, 0.685, 0, 0.7825, 0.0975, 0.88, 0.195, 0.98, 0.2925, 1.0775, 0.39, 1.175, 0.49, 1.2725, 0.5875, 1.37, 0.685, 0, 0.7825, 0.0975, 0.88, 0.195, 0.98, 0.2925, 1.0775, 0.39, 1.175, 0.49, 1.2725, 0.5875, 1.37, 0.685],
  "SoftwareVersions": "syngo MR E11",
  "SpacingBetweenSlices": 2,
  "StationName": "MRC35049",
  "TaskName": "things",
  "TotalReadoutTime": 0.0576811,
  "TxRefAmp": 310.408,
  "WipMemBlock": "d753580a-ebb2-4571-b89c-3e64ccd21f22||Sequence: R016 ve11c/master r/e634e98; Dec 19 2017 11:00:25 by eja",
  "dcmmeta_affine": [
    [-1.999112606048584, -0.004884778056293726, 0.05937015265226364, 107.29863739013672],
    [-0.01953740604221821, 1.9367766380310059, -0.498512327671051, -73.80896759033203],
    [0.05627579987049103, 0.4988710880279541, 1.9359650611877441, -67.41148376464844],
    [0.0, 0.0, 0.0, 1.0]
],
  "dcmmeta_reorient_transform": [
    [0.0, -1.0, 0.0, 103.0],
    [1.0, 0.0, 0.0, 0.0],
    [0.0, 0.0, 1.0, 0.0],
    [0.0, 0.0, 0.0, 1.0]
],
  "dcmmeta_shape": [104, 104, 60, 190],
  "dcmmeta_slice_dim": 2,
  "dcmmeta_version": 0.6,
  "global": {
    "const": {
      "AcquisitionMatrix": [104, 0, 0, 104],
      "AngioFlag": "N",
      "BitsAllocated": 16,
      "BitsStored": 16,
      "BodyPartExamined": "BRAIN",
      "Columns": 832,
      "EchoNumbers": 1,
      "EchoTime": 37.0,
      "EchoTrainLength": 104,
      "FlipAngle": 52.0,
      "HighBit": 15,
      "ImageOrientationPatient": [0.99955631708282, 0.00976870300328, 0.02813790008968, -0.0024423890182, 0.9683883218971, -0.249435548287],
      "ImagePositionPatient": [-832.69444764414, -837.77733784761, 145.07692632014],
      "ImageType": [
        "ORIGINAL",
        "PRIMARY",
        "M",
        "MB",
        "ND",
        "MOSAIC"
],
      "ImagedNucleus": "1H",
      "ImagingFrequency": 123.258899,
      "InPlanePhaseEncodingDirection": "COL",
      "MRAcquisitionType": "2D",
      "MagneticFieldStrength": 3.0,
      "Manufacturer": "SIEMENS",
      "ManufacturerModelName": "Prisma_fit",
      "Modality": "MR",
      "NumberOfAverages": 1.0,
      "NumberOfPhaseEncodingSteps": 104,
      "PercentPhaseFieldOfView": 100.0,
      "PercentSampling": 100.0,
      "PerformedProcedureStepStartTime": "115310.494000",
      "PhotometricInterpretation": "MONOCHROME2",
      "PixelBandwidth": 2290.0,
      "PixelRepresentation": 0,
      "PixelSpacing": [2.0, 2.0],
      "ProtocolName": "func_task-things_run-5",
      "RepetitionTime": 1490.0,
      "Rows": 832,
      "SAR": 0.08500415555183,
      "SamplesPerPixel": 1,
      "ScanOptions": "FS",
      "ScanningSequence": "EP",
      "SequenceName": "epfid2d1_104",
      "SequenceVariant": [
        "SK",
        "SS"
],
      "SeriesDescription": "func_task-things_run-5",
      "SeriesNumber": 22,
      "SeriesTime": "135213.139000",
      "SliceLocation": -43.670630483352,
      "SliceThickness": 2.0,
      "SmallestImagePixelValue": 0,
      "SoftwareVersions": "syngo MR E11",
      "SpacingBetweenSlices": 2.0000000214615,
      "SpecificCharacterSet": "ISO_IR 100",
      "StudyID": "1",
      "StudyTime": "115310.413000",
      "TransmitCoilName": "Body",
      "VariableFlipAngleFlag": "N",
      "WindowCenterWidthExplanation": "Algo1",
      "dBdt": 0.0},
    "slices": {}
  },
  "time": {
    "samples": {
      "AcquisitionNumber": [1, 2, 3, 4, 5, 6, 7, 8, 9, 10, 11, 12, 13, 14, 15, 16, 17, 18, 19, 20, 21, 22, 23, 24, 25, 26, 27, 28, 29, 30, 31, 32, 33, 34, 35, 36, 37, 38, 39, 40, 41, 42, 43, 44, 45, 46, 47, 48, 49, 50, 51, 52, 53, 54, 55, 56, 57, 58, 59, 60, 61, 62, 63, 64, 65, 66, 67, 68, 69, 70, 71, 72, 73, 74, 75, 76, 77, 78, 79, 80, 81, 82, 83, 84, 85, 86, 87, 88, 89, 90, 91, 92, 93, 94, 95, 96, 97, 98, 99, 100, 101, 102, 103, 104, 105, 106, 107, 108, 109, 110, 111, 112, 113, 114, 115, 116, 117, 118, 119, 120, 121, 122, 123, 124, 125, 126, 127, 128, 129, 130, 131, 132, 133, 134, 135, 136, 137, 138, 139, 140, 141, 142, 143, 144, 145, 146, 147, 148, 149, 150, 151, 152, 153, 154, 155, 156, 157, 158, 159, 160, 161, 162, 163, 164, 165, 166, 167, 168, 169, 170, 171, 172, 173, 174, 175, 176, 177, 178, 179, 180, 181, 182, 183, 184, 185, 186, 187, 188, 189, 190],
      "AcquisitionTime": ["135101.777500", "135103.267500", "135104.757500", "135106.247500", "135107.737500", "135109.227500", "135110.717500", "135112.207500", "135113.697500", "135115.187500", "135116.677500", "135118.167500", "135119.657500", "135121.147500", "135122.637500", "135124.127500", "135125.617500", "135127.107500", "135128.597500", "135130.087500", "135131.577500", "135133.067500", "135134.557500", "135136.047500", "135137.537500", "135139.027500", "135140.517500", "135142.007500", "135143.497500", "135144.987500", "135146.477500", "135147.967500", "135149.457500", "135150.947500", "135152.437500", "135153.927500", "135155.417500", "135156.907500", "135158.397500", "135159.887500", "135201.377500", "135202.867500", "135204.357500", "135205.847500", "135207.337500", "135208.827500", "135210.317500", "135211.807500", "135213.297500", "135214.787500", "135216.277500", "135217.767500", "135219.257500", "135220.747500", "135222.237500", "135223.727500", "135225.217500", "135226.707500", "135228.197500", "135229.687500", "135231.177500", "135232.667500", "135234.157500", "135235.647500", "135237.137500", "135238.627500", "135240.117500", "135241.607500", "135243.097500", "135244.587500", "135246.077500", "135247.567500", "135249.057500", "135250.547500", "135252.037500", "135253.527500", "135255.017500", "135256.507500", "135257.997500", "135259.487500", "135300.977500", "135302.467500", "135303.957500", "135305.447500", "135306.937500", "135308.427500", "135309.917500", "135311.407500", "135312.897500", "135314.387500", "135315.877500", "135317.367500", "135318.857500", "135320.347500", "135321.837500", "135323.327500", "135324.817500", "135326.307500", "135327.797500", "135329.287500", "135330.777500", "135332.267500", "135333.757500", "135335.247500", "135336.737500", "135338.227500", "135339.717500", "135341.207500", "135342.697500", "135344.187500", "135345.677500", "135347.167500", "135348.657500", "135350.147500", "135351.637500", "135353.127500", "135354.617500", "135356.107500", "135357.597500", "135359.087500", "135400.577500", "135402.067500", "135403.557500", "135405.047500", "135406.537500", "135408.027500", "135409.517500", "135411.007500", "135412.497500", "135413.987500", "135415.477500", "135416.967500", "135418.457500", "135419.947500", "135421.437500", "135422.927500", "135424.417500", "135425.907500", "135427.397500", "135428.887500", "135430.377500", "135431.867500", "135433.357500", "135434.847500", "135436.337500", "135437.827500", "135439.317500", "135440.807500", "135442.297500", "135443.787500", "135445.277500", "135446.767500", "135448.257500", "135449.747500", "135451.237500", "135452.727500", "135454.217500", "135455.707500", "135457.197500", "135458.687500", "135500.177500", "135501.667500", "135503.157500", "135504.647500", "135506.137500", "135507.627500", "135509.117500", "135510.607500", "135512.097500", "135513.587500", "135515.077500", "135516.567500", "135518.057500", "135519.547500", "135521.037500", "135522.527500", "135524.017500", "135525.507500", "135526.997500", "135528.487500", "135529.977500", "135531.467500", "135532.957500", "135534.447500", "135535.937500", "135537.427500", "135538.917500", "135540.407500", "135541.897500", "135543.387500"],
      "ContentTime": ["135213.142000", "135213.146000", "135213.149000", "135213.153000", "135213.157000", "135213.160000", "135213.164000", "135213.167000", "135213.170000", "135213.174000", "135213.177000", "135213.180000", "135213.184000", "135233.111000", "135233.115000", "135233.118000", "135233.122000", "135233.125000", "135233.128000", "135233.132000", "135233.135000", "135233.139000", "135233.142000", "135233.145000", "135233.149000", "135233.152000", "135233.160000", "135233.163000", "135233.167000", "135233.170000", "135233.173000", "135233.177000", "135233.180000", "135233.184000", "135253.111000", "135253.114000", "135253.118000", "135253.121000", "135253.125000", "135253.128000", "135253.131000", "135253.135000", "135253.138000", "135253.142000", "135253.145000", "135253.149000", "135253.152000", "135253.155000", "135253.159000", "135253.162000", "135253.165000", "135253.169000", "135253.172000", "135253.176000", "135313.111000", "135313.115000", "135313.118000", "135313.122000", "135313.125000", "135313.129000", "135313.132000", "135313.135000", "135313.139000", "135313.142000", "135313.146000", "135313.149000", "135313.153000", "135313.156000", "135313.159000", "135313.163000", "135313.166000", "135313.170000", "135313.173000", "135313.176000", "135333.112000", "135333.115000", "135333.119000", "135333.122000", "135333.126000", "135333.129000", "135333.133000", "135333.136000", "135333.139000", "135333.143000", "135333.146000", "135333.150000", "135333.153000", "135333.160000", "135333.164000", "135333.167000", "135333.171000", "135333.174000", "135333.189000", "135333.192000", "135353.111000", "135353.115000", "135353.119000", "135353.122000", "135353.125000", "135353.129000", "135353.132000", "135353.136000", "135353.139000", "135353.143000", "135353.146000", "135353.150000", "135353.153000", "135353.157000", "135353.160000", "135353.163000", "135353.167000", "135353.170000", "135353.174000", "135353.177000", "135433.111000", "135433.115000", "135433.119000", "135433.122000", "135433.125000", "135433.129000", "135433.132000", "135433.136000", "135433.139000", "135433.142000", "135433.146000", "135433.149000", "135433.153000", "135433.156000", "135433.159000", "135433.163000", "135433.166000", "135433.170000", "135433.173000", "135433.176000", "135433.180000", "135433.183000", "135433.187000", "135433.190000", "135433.193000", "135433.197000", "135433.200000", "135513.110000", "135513.114000", "135513.118000", "135513.121000", "135513.124000", "135513.128000", "135513.131000", "135513.135000", "135513.138000", "135513.142000", "135513.145000", "135513.148000", "135513.152000", "135513.155000", "135513.159000", "135513.162000", "135513.165000", "135513.169000", "135513.172000", "135513.176000", "135513.179000", "135513.182000", "135513.186000", "135513.189000", "135513.192000", "135513.196000", "135513.199000", "135545.388000", "135545.400000", "135545.403000", "135545.407000", "135545.410000", "135545.414000", "135545.418000", "135545.421000", "135545.425000", "135545.429000", "135545.432000", "135545.435000", "135545.439000", "135545.442000", "135545.446000", "135545.449000", "135545.453000", "135545.456000", "135545.460000", "135545.463000", "135545.467000", "135545.470000"],
      "InstanceCreationTime": ["135213.142000", "135213.146000", "135213.149000", "135213.153000", "135213.157000", "135213.160000", "135213.164000", "135213.167000", "135213.170000", "135213.174000", "135213.177000", "135213.180000", "135213.184000", "135233.111000", "135233.115000", "135233.118000", "135233.122000", "135233.125000", "135233.128000", "135233.132000", "135233.135000", "135233.139000", "135233.142000", "135233.145000", "135233.149000", "135233.152000", "135233.160000", "135233.163000", "135233.167000", "135233.170000", "135233.173000", "135233.177000", "135233.180000", "135233.184000", "135253.111000", "135253.114000", "135253.118000", "135253.121000", "135253.125000", "135253.128000", "135253.131000", "135253.135000", "135253.138000", "135253.142000", "135253.145000", "135253.149000", "135253.152000", "135253.155000", "135253.159000", "135253.162000", "135253.165000", "135253.169000", "135253.172000", "135253.176000", "135313.111000", "135313.115000", "135313.118000", "135313.122000", "135313.125000", "135313.129000", "135313.132000", "135313.135000", "135313.139000", "135313.142000", "135313.146000", "135313.149000", "135313.153000", "135313.156000", "135313.159000", "135313.163000", "135313.166000", "135313.170000", "135313.173000", "135313.176000", "135333.112000", "135333.115000", "135333.119000", "135333.122000", "135333.126000", "135333.129000", "135333.133000", "135333.136000", "135333.139000", "135333.143000", "135333.146000", "135333.150000", "135333.153000", "135333.160000", "135333.164000", "135333.167000", "135333.171000", "135333.174000", "135333.189000", "135333.192000", "135353.111000", "135353.115000", "135353.119000", "135353.122000", "135353.125000", "135353.129000", "135353.132000", "135353.136000", "135353.139000", "135353.143000", "135353.146000", "135353.150000", "135353.153000", "135353.157000", "135353.160000", "135353.163000", "135353.167000", "135353.170000", "135353.174000", "135353.177000", "135433.111000", "135433.115000", "135433.119000", "135433.122000", "135433.125000", "135433.129000", "135433.132000", "135433.136000", "135433.139000", "135433.142000", "135433.146000", "135433.149000", "135433.153000", "135433.156000", "135433.159000", "135433.163000", "135433.166000", "135433.170000", "135433.173000", "135433.176000", "135433.180000", "135433.183000", "135433.187000", "135433.190000", "135433.193000", "135433.197000", "135433.200000", "135513.110000", "135513.114000", "135513.118000", "135513.121000", "135513.124000", "135513.128000", "135513.131000", "135513.135000", "135513.138000", "135513.142000", "135513.145000", "135513.148000", "135513.152000", "135513.155000", "135513.159000", "135513.162000", "135513.165000", "135513.169000", "135513.172000", "135513.176000", "135513.179000", "135513.182000", "135513.186000", "135513.189000", "135513.192000", "135513.196000", "135513.199000", "135545.388000", "135545.400000", "135545.403000", "135545.407000", "135545.410000", "135545.414000", "135545.418000", "135545.421000", "135545.425000", "135545.429000", "135545.432000", "135545.435000", "135545.439000", "135545.442000", "135545.446000", "135545.449000", "135545.453000", "135545.456000", "135545.460000", "135545.463000", "135545.467000", "135545.470000"],
      "InstanceNumber": [1, 2, 3, 4, 5, 6, 7, 8, 9, 10, 11, 12, 13, 14, 15, 16, 17, 18, 19, 20, 21, 22, 23, 24, 25, 26, 27, 28, 29, 30, 31, 32, 33, 34, 35, 36, 37, 38, 39, 40, 41, 42, 43, 44, 45, 46, 47, 48, 49, 50, 51, 52, 53, 54, 55, 56, 57, 58, 59, 60, 61, 62, 63, 64, 65, 66, 67, 68, 69, 70, 71, 72, 73, 74, 75, 76, 77, 78, 79, 80, 81, 82, 83, 84, 85, 86, 87, 88, 89, 90, 91, 92, 93, 94, 95, 96, 97, 98, 99, 100, 101, 102, 103, 104, 105, 106, 107, 108, 109, 110, 111, 112, 113, 114, 115, 116, 117, 118, 119, 120, 121, 122, 123, 124, 125, 126, 127, 128, 129, 130, 131, 132, 133, 134, 135, 136, 137, 138, 139, 140, 141, 142, 143, 144, 145, 146, 147, 148, 149, 150, 151, 152, 153, 154, 155, 156, 157, 158, 159, 160, 161, 162, 163, 164, 165, 166, 167, 168, 169, 170, 171, 172, 173, 174, 175, 176, 177, 178, 179, 180, 181, 182, 183, 184, 185, 186, 187, 188, 189, 190],
      "LargestImagePixelValue": [42163, 40873, 40210, 40398, 39662, 39275, 38755, 39419, 39451, 39728, 39482, 39525, 39244, 39381, 39486, 39606, 39025, 38469, 38765, 38910, 39428, 39323, 39105, 39346, 38919, 39032, 38883, 39199, 38933, 39281, 39353, 39192, 39370, 39251, 39426, 39330, 39641, 39190, 39534, 39333, 39750, 39899, 39562, 39272, 39139, 39350, 39368, 39253, 39201, 39311, 39445, 39509, 38925, 38641, 39146, 39512, 39293, 39265, 39141, 38827, 39448, 39463, 38763, 39164, 38530, 38719, 39064, 39187, 38943, 39378, 39095, 39362, 39784, 39394, 38963, 39235, 39503, 39187, 39142, 39334, 39048, 39581, 38913, 38937, 39376, 39021, 39056, 39137, 38933, 38600, 39072, 39092, 39371, 39533, 39307, 39064, 38928, 39143, 38769, 39566, 39096, 39108, 39116, 39041, 39046, 39255, 39040, 38951, 38834, 39270, 39193, 39441, 39167, 39213, 38961, 39141, 39044, 39503, 38742, 39294, 38714, 39306, 38985, 38890, 38972, 38987, 39401, 39538, 39311, 39016, 39005, 39167, 39222, 39478, 38987, 39199, 39381, 39223, 39182, 39129, 38805, 39409, 38798, 38938, 39234, 38895, 38970, 39348, 38707, 38584, 38897, 39197, 39219, 39253, 39268, 38864, 39040, 38892, 39229, 38970, 38929, 38956, 39034, 39109, 38582, 38952, 38671, 39441, 38983, 38762, 38916, 38799, 38355, 38660, 38964, 38989, 38842, 38576, 38855, 38705, 39057, 39342, 39086, 38793, 38775, 39142, 38662, 38478, 38643, 38556],
      "WindowCenter": [10238.0, 10209.0, 10207.0, 10199.0, 10218.0, 10194.0, 10178.0, 10164.0, 10172.0, 10162.0, 10174.0, 10179.0, 10182.0, 10174.0, 10183.0, 10181.0, 10182.0, 10176.0, 10191.0, 10200.0, 10200.0, 10202.0, 10184.0, 10184.0, 10192.0, 10201.0, 10184.0, 10182.0, 10159.0, 10164.0, 10171.0, 10173.0, 10163.0, 10163.0, 10153.0, 10162.0, 10156.0, 10156.0, 10152.0, 10164.0, 10160.0, 10176.0, 10164.0, 10162.0, 10156.0, 10165.0, 10163.0, 10163.0, 10155.0, 10155.0, 10166.0, 10186.0, 10183.0, 10168.0, 10172.0, 10155.0, 10179.0, 10172.0, 10167.0, 10150.0, 10161.0, 10163.0, 10166.0, 10157.0, 10143.0, 10139.0, 10163.0, 10164.0, 10166.0, 10149.0, 10130.0, 10144.0, 10167.0, 10177.0, 10173.0, 10168.0, 10152.0, 10156.0, 10148.0, 10153.0, 10156.0, 10168.0, 10172.0, 10183.0, 10179.0, 10172.0, 10175.0, 10183.0, 10194.0, 10179.0, 10144.0, 10122.0, 10126.0, 10150.0, 10169.0, 10183.0, 10183.0, 10155.0, 10150.0, 10170.0, 10180.0, 10183.0, 10175.0, 10166.0, 10165.0, 10165.0, 10166.0, 10165.0, 10160.0, 10145.0, 10165.0, 10163.0, 10166.0, 10161.0, 10164.0, 10157.0, 10174.0, 10175.0, 10152.0, 10148.0, 10149.0, 10161.0, 10167.0, 10165.0, 10158.0, 10155.0, 10170.0, 10177.0, 10189.0, 10167.0, 10149.0, 10132.0, 10137.0, 10154.0, 10173.0, 10182.0, 10183.0, 10192.0, 10185.0, 10167.0, 10158.0, 10162.0, 10150.0, 10156.0, 10150.0, 10148.0, 10163.0, 10179.0, 10168.0, 10160.0, 10149.0, 10155.0, 10161.0, 10181.0, 10171.0, 10164.0, 10149.0, 10148.0, 10145.0, 10156.0, 10154.0, 10172.0, 10174.0, 10156.0, 10139.0, 10136.0, 10131.0, 10161.0, 10171.0, 10182.0, 10182.0, 10176.0, 10160.0, 10152.0, 10155.0, 10183.0, 10193.0, 10188.0, 10151.0, 10135.0, 10120.0, 10143.0, 10146.0, 10158.0, 10156.0, 10181.0, 10192.0, 10194.0, 10160.0, 10134.0],
      "WindowWidth": [21799.0, 21710.0, 21695.0, 21671.0, 21714.0, 21658.0, 21621.0, 21584.0, 21601.0, 21578.0, 21610.0, 21618.0, 21625.0, 21607.0, 21628.0, 21622.0, 21627.0, 21617.0, 21648.0, 21669.0, 21667.0, 21670.0, 21631.0, 21631.0, 21651.0, 21670.0, 21632.0, 21625.0, 21572.0, 21583.0, 21597.0, 21605.0, 21579.0, 21578.0, 21557.0, 21578.0, 21564.0, 21566.0, 21554.0, 21586.0, 21571.0, 21609.0, 21582.0, 21576.0, 21566.0, 21586.0, 21580.0, 21581.0, 21564.0, 21564.0, 21591.0, 21633.0, 21629.0, 21595.0, 21603.0, 21564.0, 21616.0, 21600.0, 21588.0, 21553.0, 21573.0, 21578.0, 21590.0, 21568.0, 21538.0, 21527.0, 21580.0, 21583.0, 21590.0, 21548.0, 21506.0, 21536.0, 21588.0, 21614.0, 21606.0, 21595.0, 21554.0, 21566.0, 21548.0, 21555.0, 21566.0, 21590.0, 21604.0, 21630.0, 21617.0, 21602.0, 21613.0, 21629.0, 21654.0, 21618.0, 21538.0, 21486.0, 21491.0, 21549.0, 21595.0, 21632.0, 21628.0, 21561.0, 21552.0, 21597.0, 21622.0, 21630.0, 21612.0, 21587.0, 21586.0, 21586.0, 21588.0, 21586.0, 21577.0, 21538.0, 21588.0, 21582.0, 21588.0, 21575.0, 21583.0, 21571.0, 21609.0, 21610.0, 21558.0, 21545.0, 21550.0, 21574.0, 21594.0, 21587.0, 21571.0, 21563.0, 21596.0, 21613.0, 21643.0, 21590.0, 21548.0, 21507.0, 21518.0, 21561.0, 21606.0, 21629.0, 21629.0, 21647.0, 21633.0, 21590.0, 21569.0, 21575.0, 21550.0, 21563.0, 21547.0, 21548.0, 21582.0, 21620.0, 21597.0, 21576.0, 21549.0, 21562.0, 21575.0, 21626.0, 21600.0, 21588.0, 21548.0, 21547.0, 21540.0, 21566.0, 21558.0, 21602.0, 21607.0, 21562.0, 21527.0, 21517.0, 21511.0, 21577.0, 21602.0, 21630.0, 21628.0, 21613.0, 21575.0, 21560.0, 21565.0, 21632.0, 21654.0, 21641.0, 21553.0, 21516.0, 21481.0, 21533.0, 21545.0, 21573.0, 21565.0, 21622.0, 21649.0, 21650.0, 21573.0, 21513.0]
    },
    "slices": {}
  }
}