{
  "AcquisitionMatrixPE": 104,
  "AcquisitionNumber": 1,
  "AcquisitionTime": "13:57:15.600000",
  "BandwidthPerPixelPhaseEncode": 17.17,
  "BaseResolution": 104,
  "BodyPartExamined": "BRAIN",
  "CoilCombinationMethod": "Sum of Squares",
  "ConsistencyInfo": "N4_VE11C_LATEST_20160120",
  "ConversionSoftware": "dcm2niix",
  "ConversionSoftwareVersion": "v1.0.20211006",
  "DerivedVendorReportedEchoSpacing": 0.000560011,
  "DeviceSerialNumber": "167006",
  "DwellTime": 2.1e-06,
  "EchoTime": 0.037,
  "EchoTrainLength": 104,
  "EffectiveEchoSpacing": 0.000560011,
  "FlipAngle": 52,
  "HeudiconvVersion": "0.10.0",
  "ImageComments": "Unaliased MB4/PE3/LB",
  "ImageOrientationPatientDICOM": [0.999556, 0.0097687, 0.0281379, -0.00244239, 0.968388, -0.249436],
  "ImageOrientationText": "Tra>Cor(-14.4)>Sag(1.7)",
  "ImageType": [
    "ORIGINAL",
    "PRIMARY",
    "M",
    "MB",
    "ND",
    "MOSAIC"
],
  "ImagingFrequency": 123.259,
  "InPlanePhaseEncodingDirectionDICOM": "COL",
  "InstitutionAddress": "Chemin Queen-Mary 4565,Montreal,District,CA,H3W 1W5",
  "InstitutionName": "IUGM",
  "InstitutionalDepartmentName": "Department",
  "MRAcquisitionType": "2D",
  "MagneticFieldStrength": 3,
  "Manufacturer": "Siemens",
  "ManufacturersModelName": "Prisma_fit",
  "MatrixCoilMode": "SENSE",
  "Modality": "MR",
  "MultibandAccelerationFactor": 4,
  "PartialFourier": 1,
  "PatientPosition": "HFS",
  "PercentPhaseFOV": 100,
  "PercentSampling": 100,
  "PhaseEncodingDirection": "j",
  "PhaseEncodingSteps": 104,
  "PhaseResolution": 1,
  "PixelBandwidth": 2290,
  "ProcedureStepDescription": "memory^things",
  "ProtocolName": "func_task-things_run-6",
  "PulseSequenceDetails": "%CustomerSeq%\\cmrr_mbep2d_bold",
  "ReceiveCoilActiveElements": "HC1-7;NC1,2",
  "ReceiveCoilName": "HeadNeck_64",
  "ReconMatrixPE": 104,
  "RepetitionTime": 1.49,
  "SAR": 0.0850042,
  "ScanOptions": "FS",
  "ScanningSequence": "EP",
  "SequenceName": "epfid2d1_104",
  "SequenceVariant": "SK\\SS",
  "SeriesDescription": "func_task-things_run-6",
  "SeriesNumber": 25,
  "ShimSetting": [627, -7218, -8803, 738, 18, -13, 74, -12],
  "SliceThickness": 2,
  "SliceTiming": [0, 0.7825, 0.0975, 0.8825, 0.195, 0.98, 0.2925, 1.0775, 0.3925, 1.175, 0.49, 1.2725, 0.5875, 1.3725, 0.685, 0, 0.7825, 0.0975, 0.8825, 0.195, 0.98, 0.2925, 1.0775, 0.3925, 1.175, 0.49, 1.2725, 0.5875, 1.3725, 0.685, 0, 0.7825, 0.0975, 0.8825, 0.195, 0.98, 0.2925, 1.0775, 0.3925, 1.175, 0.49, 1.2725, 0.5875, 1.3725, 0.685, 0, 0.7825, 0.0975, 0.8825, 0.195, 0.98, 0.2925, 1.0775, 0.3925, 1.175, 0.49, 1.2725, 0.5875, 1.3725, 0.685],
  "SoftwareVersions": "syngo MR E11",
  "SpacingBetweenSlices": 2,
  "StationName": "MRC35049",
  "TaskName": "things",
  "TotalReadoutTime": 0.0576811,
  "TxRefAmp": 310.408,
  "WipMemBlock": "905515f0-628b-4dee-ae8f-8c64d4fb5a30||Sequence: R016 ve11c/master r/e634e98; Dec 19 2017 11:00:25 by eja",
  "dcmmeta_affine": [
    [-1.999112606048584, -0.004884778056293726, 0.05937015265226364, 107.29863739013672],
    [-0.01953740604221821, 1.9367766380310059, -0.498512327671051, -73.80896759033203],
    [0.05627579987049103, 0.4988710880279541, 1.9359650611877441, -67.41148376464844],
    [0.0, 0.0, 0.0, 1.0]
],
  "dcmmeta_reorient_transform": [
    [0.0, -1.0, 0.0, 103.0],
    [1.0, 0.0, 0.0, 0.0],
    [0.0, 0.0, 1.0, 0.0],
    [0.0, 0.0, 0.0, 1.0]
],
  "dcmmeta_shape": [104, 104, 60, 190],
  "dcmmeta_slice_dim": 2,
  "dcmmeta_version": 0.6,
  "global": {
    "const": {
      "AcquisitionMatrix": [104, 0, 0, 104],
      "AngioFlag": "N",
      "BitsAllocated": 16,
      "BitsStored": 16,
      "BodyPartExamined": "BRAIN",
      "Columns": 832,
      "EchoNumbers": 1,
      "EchoTime": 37.0,
      "EchoTrainLength": 104,
      "FlipAngle": 52.0,
      "HighBit": 15,
      "ImageOrientationPatient": [0.99955631708282, 0.00976870300328, 0.02813790008968, -0.0024423890182, 0.9683883218971, -0.249435548287],
      "ImagePositionPatient": [-832.69444764414, -837.77733784761, 145.07692632014],
      "ImageType": [
        "ORIGINAL",
        "PRIMARY",
        "M",
        "MB",
        "ND",
        "MOSAIC"
],
      "ImagedNucleus": "1H",
      "ImagingFrequency": 123.258901,
      "InPlanePhaseEncodingDirection": "COL",
      "MRAcquisitionType": "2D",
      "MagneticFieldStrength": 3.0,
      "Manufacturer": "SIEMENS",
      "ManufacturerModelName": "Prisma_fit",
      "Modality": "MR",
      "NumberOfAverages": 1.0,
      "NumberOfPhaseEncodingSteps": 104,
      "PercentPhaseFieldOfView": 100.0,
      "PercentSampling": 100.0,
      "PerformedProcedureStepStartTime": "115310.494000",
      "PhotometricInterpretation": "MONOCHROME2",
      "PixelBandwidth": 2290.0,
      "PixelRepresentation": 0,
      "PixelSpacing": [2.0, 2.0],
      "ProtocolName": "func_task-things_run-6",
      "RepetitionTime": 1490.0,
      "Rows": 832,
      "SAR": 0.08500415555183,
      "SamplesPerPixel": 1,
      "ScanOptions": "FS",
      "ScanningSequence": "EP",
      "SequenceName": "epfid2d1_104",
      "SequenceVariant": [
        "SK",
        "SS"
],
      "SeriesDescription": "func_task-things_run-6",
      "SeriesNumber": 25,
      "SeriesTime": "135831.639000",
      "SliceLocation": -43.670630483352,
      "SliceThickness": 2.0,
      "SmallestImagePixelValue": 0,
      "SoftwareVersions": "syngo MR E11",
      "SpacingBetweenSlices": 2.0000000214615,
      "SpecificCharacterSet": "ISO_IR 100",
      "StudyID": "1",
      "StudyTime": "115310.413000",
      "TransmitCoilName": "Body",
      "VariableFlipAngleFlag": "N",
      "WindowCenterWidthExplanation": "Algo1",
      "dBdt": 0.0},
    "slices": {}
  },
  "time": {
    "samples": {
      "AcquisitionNumber": [1, 2, 3, 4, 5, 6, 7, 8, 9, 10, 11, 12, 13, 14, 15, 16, 17, 18, 19, 20, 21, 22, 23, 24, 25, 26, 27, 28, 29, 30, 31, 32, 33, 34, 35, 36, 37, 38, 39, 40, 41, 42, 43, 44, 45, 46, 47, 48, 49, 50, 51, 52, 53, 54, 55, 56, 57, 58, 59, 60, 61, 62, 63, 64, 65, 66, 67, 68, 69, 70, 71, 72, 73, 74, 75, 76, 77, 78, 79, 80, 81, 82, 83, 84, 85, 86, 87, 88, 89, 90, 91, 92, 93, 94, 95, 96, 97, 98, 99, 100, 101, 102, 103, 104, 105, 106, 107, 108, 109, 110, 111, 112, 113, 114, 115, 116, 117, 118, 119, 120, 121, 122, 123, 124, 125, 126, 127, 128, 129, 130, 131, 132, 133, 134, 135, 136, 137, 138, 139, 140, 141, 142, 143, 144, 145, 146, 147, 148, 149, 150, 151, 152, 153, 154, 155, 156, 157, 158, 159, 160, 161, 162, 163, 164, 165, 166, 167, 168, 169, 170, 171, 172, 173, 174, 175, 176, 177, 178, 179, 180, 181, 182, 183, 184, 185, 186, 187, 188, 189, 190],
      "AcquisitionTime": ["135715.600000", "135717.090000", "135718.580000", "135720.070000", "135721.560000", "135723.050000", "135724.540000", "135726.030000", "135727.520000", "135729.010000", "135730.500000", "135731.990000", "135733.480000", "135734.970000", "135736.460000", "135737.950000", "135739.440000", "135740.930000", "135742.420000", "135743.910000", "135745.400000", "135746.890000", "135748.380000", "135749.870000", "135751.360000", "135752.850000", "135754.340000", "135755.830000", "135757.320000", "135758.810000", "135800.300000", "135801.790000", "135803.280000", "135804.770000", "135806.260000", "135807.750000", "135809.240000", "135810.730000", "135812.220000", "135813.710000", "135815.200000", "135816.690000", "135818.180000", "135819.670000", "135821.160000", "135822.650000", "135824.140000", "135825.630000", "135827.120000", "135828.610000", "135830.100000", "135831.590000", "135833.080000", "135834.570000", "135836.060000", "135837.550000", "135839.040000", "135840.530000", "135842.020000", "135843.510000", "135845.000000", "135846.490000", "135847.980000", "135849.470000", "135850.960000", "135852.450000", "135853.940000", "135855.430000", "135856.920000", "135858.410000", "135859.900000", "135901.390000", "135902.880000", "135904.370000", "135905.860000", "135907.350000", "135908.840000", "135910.330000", "135911.820000", "135913.310000", "135914.800000", "135916.290000", "135917.780000", "135919.270000", "135920.760000", "135922.250000", "135923.740000", "135925.230000", "135926.720000", "135928.210000", "135929.700000", "135931.190000", "135932.680000", "135934.170000", "135935.660000", "135937.150000", "135938.640000", "135940.130000", "135941.620000", "135943.110000", "135944.600000", "135946.090000", "135947.580000", "135949.070000", "135950.560000", "135952.050000", "135953.540000", "135955.030000", "135956.520000", "135958.010000", "135959.500000", "140000.990000", "140002.480000", "140003.970000", "140005.460000", "140006.950000", "140008.440000", "140009.930000", "140011.420000", "140012.910000", "140014.400000", "140015.890000", "140017.380000", "140018.870000", "140020.360000", "140021.850000", "140023.340000", "140024.830000", "140026.320000", "140027.810000", "140029.300000", "140030.790000", "140032.280000", "140033.770000", "140035.260000", "140036.750000", "140038.240000", "140039.730000", "140041.220000", "140042.710000", "140044.200000", "140045.690000", "140047.180000", "140048.670000", "140050.160000", "140051.650000", "140053.140000", "140054.630000", "140056.120000", "140057.610000", "140059.100000", "140100.590000", "140102.080000", "140103.570000", "140105.060000", "140106.550000", "140108.040000", "140109.530000", "140111.020000", "140112.510000", "140114.000000", "140115.490000", "140116.980000", "140118.470000", "140119.960000", "140121.450000", "140122.940000", "140124.430000", "140125.920000", "140127.410000", "140128.900000", "140130.390000", "140131.880000", "140133.370000", "140134.860000", "140136.350000", "140137.840000", "140139.330000", "140140.820000", "140142.310000", "140143.800000", "140145.290000", "140146.780000", "140148.270000", "140149.760000", "140151.250000", "140152.740000", "140154.230000", "140155.720000", "140157.210000"],
      "ContentTime": ["135831.642000", "135831.646000", "135831.649000", "135831.652000", "135831.656000", "135831.659000", "135831.662000", "135831.666000", "135831.675000", "135831.678000", "135831.682000", "135831.685000", "135831.688000", "135831.692000", "135831.695000", "135831.699000", "135831.702000", "135831.706000", "135831.709000", "135831.712000", "135851.601000", "135851.605000", "135851.608000", "135851.616000", "135851.620000", "135851.623000", "135851.626000", "135851.630000", "135851.633000", "135851.636000", "135851.640000", "135851.643000", "135851.646000", "135851.650000", "135851.653000", "135851.657000", "135851.660000", "135851.663000", "135851.667000", "135851.670000", "135911.600000", "135911.604000", "135911.607000", "135911.611000", "135911.614000", "135911.618000", "135911.621000", "135911.637000", "135911.641000", "135911.644000", "135911.648000", "135911.651000", "135911.654000", "135911.658000", "135911.661000", "135911.664000", "135911.668000", "135911.672000", "135911.676000", "135911.679000", "135931.600000", "135931.604000", "135931.607000", "135931.611000", "135931.614000", "135931.618000", "135931.621000", "135931.625000", "135931.629000", "135931.633000", "135931.638000", "135931.643000", "135931.646000", "135931.650000", "135931.654000", "135931.657000", "135931.661000", "135931.664000", "135931.667000", "135931.671000", "135951.600000", "135951.604000", "135951.607000", "135951.625000", "135951.629000", "135951.632000", "135951.635000", "135951.644000", "135951.647000", "135951.651000", "135951.654000", "135951.658000", "135951.661000", "135951.664000", "135951.668000", "135951.671000", "135951.675000", "135951.678000", "135951.681000", "135951.685000", "135951.688000", "140011.601000", "140011.605000", "140011.609000", "140011.612000", "140011.615000", "140011.619000", "140011.622000", "140011.625000", "140011.629000", "140011.632000", "140011.635000", "140011.639000", "140011.642000", "140011.646000", "140011.649000", "140011.653000", "140051.601000", "140051.605000", "140051.608000", "140051.612000", "140051.615000", "140051.619000", "140051.622000", "140051.626000", "140051.629000", "140051.632000", "140051.636000", "140051.639000", "140051.643000", "140051.646000", "140051.649000", "140051.653000", "140051.656000", "140051.659000", "140051.663000", "140051.666000", "140051.670000", "140051.673000", "140051.676000", "140051.680000", "140051.683000", "140051.686000", "140051.690000", "140131.600000", "140131.604000", "140131.608000", "140131.611000", "140131.614000", "140131.619000", "140131.622000", "140131.626000", "140131.629000", "140131.632000", "140131.636000", "140131.639000", "140131.643000", "140131.646000", "140131.650000", "140131.653000", "140131.656000", "140131.660000", "140131.663000", "140131.666000", "140131.670000", "140131.673000", "140131.677000", "140131.680000", "140131.683000", "140131.687000", "140131.690000", "140159.080000", "140159.084000", "140159.088000", "140159.091000", "140159.094000", "140159.098000", "140159.101000", "140159.105000", "140159.108000", "140159.111000", "140159.115000", "140159.134000", "140159.138000", "140159.141000", "140159.144000", "140159.148000", "140159.151000", "140159.154000", "140159.158000"],
      "InstanceCreationTime": ["135831.642000", "135831.646000", "135831.649000", "135831.652000", "135831.656000", "135831.659000", "135831.662000", "135831.666000", "135831.675000", "135831.678000", "135831.682000", "135831.685000", "135831.688000", "135831.692000", "135831.695000", "135831.699000", "135831.702000", "135831.706000", "135831.709000", "135831.712000", "135851.601000", "135851.605000", "135851.608000", "135851.616000", "135851.620000", "135851.623000", "135851.626000", "135851.630000", "135851.633000", "135851.636000", "135851.640000", "135851.643000", "135851.646000", "135851.650000", "135851.653000", "135851.657000", "135851.660000", "135851.663000", "135851.667000", "135851.670000", "135911.600000", "135911.604000", "135911.607000", "135911.611000", "135911.614000", "135911.618000", "135911.621000", "135911.637000", "135911.641000", "135911.644000", "135911.648000", "135911.651000", "135911.654000", "135911.658000", "135911.661000", "135911.664000", "135911.668000", "135911.672000", "135911.676000", "135911.679000", "135931.600000", "135931.604000", "135931.607000", "135931.611000", "135931.614000", "135931.618000", "135931.621000", "135931.625000", "135931.629000", "135931.633000", "135931.638000", "135931.643000", "135931.646000", "135931.650000", "135931.654000", "135931.657000", "135931.661000", "135931.664000", "135931.667000", "135931.671000", "135951.600000", "135951.604000", "135951.607000", "135951.625000", "135951.629000", "135951.632000", "135951.635000", "135951.644000", "135951.647000", "135951.651000", "135951.654000", "135951.658000", "135951.661000", "135951.664000", "135951.668000", "135951.671000", "135951.675000", "135951.678000", "135951.681000", "135951.685000", "135951.688000", "140011.601000", "140011.605000", "140011.609000", "140011.612000", "140011.615000", "140011.619000", "140011.622000", "140011.625000", "140011.629000", "140011.632000", "140011.635000", "140011.639000", "140011.642000", "140011.646000", "140011.649000", "140011.653000", "140051.601000", "140051.605000", "140051.608000", "140051.612000", "140051.615000", "140051.619000", "140051.622000", "140051.626000", "140051.629000", "140051.632000", "140051.636000", "140051.639000", "140051.643000", "140051.646000", "140051.649000", "140051.653000", "140051.656000", "140051.659000", "140051.663000", "140051.666000", "140051.670000", "140051.673000", "140051.676000", "140051.680000", "140051.683000", "140051.686000", "140051.690000", "140131.600000", "140131.604000", "140131.608000", "140131.611000", "140131.614000", "140131.619000", "140131.622000", "140131.626000", "140131.629000", "140131.632000", "140131.636000", "140131.639000", "140131.643000", "140131.646000", "140131.650000", "140131.653000", "140131.656000", "140131.660000", "140131.663000", "140131.666000", "140131.670000", "140131.673000", "140131.677000", "140131.680000", "140131.683000", "140131.687000", "140131.690000", "140159.080000", "140159.084000", "140159.088000", "140159.091000", "140159.094000", "140159.098000", "140159.101000", "140159.105000", "140159.108000", "140159.111000", "140159.115000", "140159.134000", "140159.138000", "140159.141000", "140159.144000", "140159.148000", "140159.151000", "140159.154000", "140159.158000"],
      "InstanceNumber": [1, 2, 3, 4, 5, 6, 7, 8, 9, 10, 11, 12, 13, 14, 15, 16, 17, 18, 19, 20, 21, 22, 23, 24, 25, 26, 27, 28, 29, 30, 31, 32, 33, 34, 35, 36, 37, 38, 39, 40, 41, 42, 43, 44, 45, 46, 47, 48, 49, 50, 51, 52, 53, 54, 55, 56, 57, 58, 59, 60, 61, 62, 63, 64, 65, 66, 67, 68, 69, 70, 71, 72, 73, 74, 75, 76, 77, 78, 79, 80, 81, 82, 83, 84, 85, 86, 87, 88, 89, 90, 91, 92, 93, 94, 95, 96, 97, 98, 99, 100, 101, 102, 103, 104, 105, 106, 107, 108, 109, 110, 111, 112, 113, 114, 115, 116, 117, 118, 119, 120, 121, 122, 123, 124, 125, 126, 127, 128, 129, 130, 131, 132, 133, 134, 135, 136, 137, 138, 139, 140, 141, 142, 143, 144, 145, 146, 147, 148, 149, 150, 151, 152, 153, 154, 155, 156, 157, 158, 159, 160, 161, 162, 163, 164, 165, 166, 167, 168, 169, 170, 171, 172, 173, 174, 175, 176, 177, 178, 179, 180, 181, 182, 183, 184, 185, 186, 187, 188, 189, 190],
      "LargestImagePixelValue": [42019, 40415, 40169, 39810, 39789, 39057, 38977, 39113, 39524, 39683, 39402, 39178, 39396, 39323, 39503, 39174, 39088, 39175, 39423, 39096, 39429, 39144, 39227, 39281, 39315, 39126, 38664, 38880, 38878, 39167, 39175, 38446, 38757, 39152, 39127, 38947, 38901, 38648, 39244, 38686, 39070, 38729, 38774, 38980, 38831, 39218, 38729, 38959, 38837, 38722, 38636, 39094, 39273, 39058, 38947, 38954, 38889, 38973, 38453, 38415, 38600, 39205, 38841, 39384, 39130, 38444, 39325, 39105, 38947, 39229, 38843, 39341, 39233, 39050, 39116, 39075, 39102, 38577, 38782, 38851, 38681, 39046, 38851, 38825, 38613, 38305, 38919, 39155, 38953, 38729, 38503, 38697, 38381, 38924, 38643, 38461, 38344, 38305, 39058, 38622, 39193, 38905, 39123, 38855, 38897, 38917, 38808, 38803, 38414, 38481, 39079, 39100, 38818, 39193, 39112, 39005, 38598, 39245, 38831, 38741, 38537, 38595, 38542, 38745, 38874, 38717, 38850, 38049, 39407, 39123, 39143, 38829, 38879, 38893, 38765, 38724, 38845, 39005, 39022, 39188, 39410, 38609, 38904, 38660, 38647, 38813, 38858, 38942, 39087, 39134, 38747, 38850, 39077, 39200, 38811, 38832, 38966, 38850, 39537, 39110, 39245, 38865, 39209, 38513, 38673, 39189, 39705, 38935, 38991, 38592, 38769, 39087, 39512, 39367, 39277, 39077, 39051, 39108, 39012, 39075, 39542, 38856, 38859, 38349, 38831, 38791, 39044, 38789, 38700, 38409],
      "WindowCenter": [10204.0, 10170.0, 10164.0, 10172.0, 10175.0, 10153.0, 10150.0, 10129.0, 10153.0, 10161.0, 10163.0, 10149.0, 10148.0, 10162.0, 10173.0, 10182.0, 10166.0, 10167.0, 10173.0, 10183.0, 10181.0, 10183.0, 10179.0, 10189.0, 10188.0, 10191.0, 10176.0, 10176.0, 10157.0, 10175.0, 10174.0, 10162.0, 10164.0, 10181.0, 10201.0, 10204.0, 10186.0, 10161.0, 10166.0, 10165.0, 10194.0, 10202.0, 10188.0, 10169.0, 10161.0, 10163.0, 10167.0, 10175.0, 10166.0, 10150.0, 10149.0, 10154.0, 10172.0, 10168.0, 10166.0, 10175.0, 10193.0, 10184.0, 10163.0, 10142.0, 10141.0, 10144.0, 10165.0, 10171.0, 10160.0, 10146.0, 10155.0, 10157.0, 10166.0, 10175.0, 10170.0, 10174.0, 10166.0, 10191.0, 10196.0, 10203.0, 10169.0, 10154.0, 10142.0, 10156.0, 10165.0, 10176.0, 10176.0, 10180.0, 10167.0, 10145.0, 10137.0, 10147.0, 10175.0, 10185.0, 10163.0, 10150.0, 10138.0, 10156.0, 10176.0, 10180.0, 10180.0, 10155.0, 10153.0, 10136.0, 10155.0, 10174.0, 10176.0, 10168.0, 10158.0, 10149.0, 10168.0, 10169.0, 10171.0, 10154.0, 10152.0, 10149.0, 10159.0, 10167.0, 10161.0, 10150.0, 10159.0, 10164.0, 10182.0, 10179.0, 10174.0, 10167.0, 10170.0, 10177.0, 10187.0, 10195.0, 10177.0, 10155.0, 10148.0, 10148.0, 10154.0, 10178.0, 10162.0, 10151.0, 10128.0, 10134.0, 10132.0, 10149.0, 10150.0, 10156.0, 10166.0, 10183.0, 10176.0, 10180.0, 10169.0, 10170.0, 10178.0, 10204.0, 10195.0, 10196.0, 10156.0, 10137.0, 10124.0, 10141.0, 10143.0, 10154.0, 10160.0, 10153.0, 10157.0, 10165.0, 10173.0, 10195.0, 10183.0, 10154.0, 10141.0, 10150.0, 10178.0, 10196.0, 10196.0, 10157.0, 10134.0, 10114.0, 10118.0, 10129.0, 10137.0, 10155.0, 10166.0, 10169.0, 10158.0, 10165.0, 10170.0, 10159.0, 10159.0, 10170.0, 10175.0, 10178.0, 10190.0, 10185.0, 10169.0, 10137.0],
      "WindowWidth": [21718.0, 21624.0, 21600.0, 21612.0, 21616.0, 21567.0, 21555.0, 21506.0, 21562.0, 21579.0, 21585.0, 21552.0, 21551.0, 21580.0, 21609.0, 21629.0, 21593.0, 21597.0, 21606.0, 21633.0, 21626.0, 21631.0, 21618.0, 21642.0, 21640.0, 21650.0, 21615.0, 21613.0, 21571.0, 21614.0, 21609.0, 21585.0, 21583.0, 21624.0, 21676.0, 21681.0, 21637.0, 21578.0, 21591.0, 21590.0, 21658.0, 21675.0, 21643.0, 21596.0, 21578.0, 21577.0, 21593.0, 21608.0, 21587.0, 21552.0, 21550.0, 21561.0, 21606.0, 21599.0, 21591.0, 21610.0, 21652.0, 21630.0, 21582.0, 21533.0, 21532.0, 21539.0, 21590.0, 21602.0, 21577.0, 21546.0, 21563.0, 21569.0, 21591.0, 21612.0, 21602.0, 21608.0, 21592.0, 21649.0, 21663.0, 21676.0, 21597.0, 21564.0, 21533.0, 21565.0, 21586.0, 21616.0, 21614.0, 21625.0, 21590.0, 21542.0, 21521.0, 21546.0, 21613.0, 21635.0, 21586.0, 21550.0, 21529.0, 21565.0, 21616.0, 21625.0, 21624.0, 21566.0, 21559.0, 21525.0, 21565.0, 21610.0, 21616.0, 21595.0, 21568.0, 21550.0, 21597.0, 21603.0, 21604.0, 21564.0, 21557.0, 21548.0, 21573.0, 21590.0, 21581.0, 21553.0, 21574.0, 21584.0, 21627.0, 21622.0, 21612.0, 21592.0, 21604.0, 21617.0, 21642.0, 21657.0, 21615.0, 21564.0, 21544.0, 21546.0, 21559.0, 21619.0, 21579.0, 21553.0, 21503.0, 21516.0, 21514.0, 21552.0, 21556.0, 21568.0, 21592.0, 21632.0, 21616.0, 21623.0, 21596.0, 21602.0, 21620.0, 21680.0, 21659.0, 21658.0, 21566.0, 21522.0, 21492.0, 21534.0, 21540.0, 21567.0, 21579.0, 21562.0, 21568.0, 21589.0, 21608.0, 21662.0, 21629.0, 21562.0, 21530.0, 21553.0, 21618.0, 21665.0, 21659.0, 21571.0, 21510.0, 21467.0, 21473.0, 21502.0, 21524.0, 21566.0, 21589.0, 21598.0, 21571.0, 21587.0, 21596.0, 21574.0, 21575.0, 21602.0, 21612.0, 21618.0, 21642.0, 21632.0, 21592.0, 21520.0]
    },
    "slices": {}
  }
}