{
  "AcquisitionMatrixPE": 104,
  "AcquisitionNumber": 1,
  "AcquisitionTime": "13:44:46.597500",
  "BandwidthPerPixelPhaseEncode": 17.17,
  "BaseResolution": 104,
  "BodyPartExamined": "BRAIN",
  "CoilCombinationMethod": "Sum of Squares",
  "ConsistencyInfo": "N4_VE11C_LATEST_20160120",
  "ConversionSoftware": "dcm2niix",
  "ConversionSoftwareVersion": "v1.0.20211006",
  "DerivedVendorReportedEchoSpacing": 0.000560011,
  "DeviceSerialNumber": "167006",
  "DwellTime": 2.1e-06,
  "EchoTime": 0.037,
  "EchoTime1": 0.037,
  "EchoTime2": 0.001,
  "EchoTrainLength": 104,
  "EffectiveEchoSpacing": 0.000560011,
  "FlipAngle": 52,
  "HeudiconvVersion": "0.10.0",
  "ImageComments": "Unaliased MB4/PE3/LB",
  "ImageOrientationPatientDICOM": [0.999556, 0.0097687, 0.0281379, -0.00244239, 0.968388, -0.249436],
  "ImageOrientationText": "Tra>Cor(-14.4)>Sag(1.7)",
  "ImageType": [
    "ORIGINAL",
    "PRIMARY",
    "P",
    "MB",
    "ND",
    "MOSAIC",
    "PHASE"
],
  "ImagingFrequency": 123.259,
  "InPlanePhaseEncodingDirectionDICOM": "COL",
  "InstitutionAddress": "Chemin Queen-Mary 4565,Montreal,District,CA,H3W 1W5",
  "InstitutionName": "IUGM",
  "InstitutionalDepartmentName": "Department",
  "MRAcquisitionType": "2D",
  "MagneticFieldStrength": 3,
  "Manufacturer": "Siemens",
  "ManufacturersModelName": "Prisma_fit",
  "MatrixCoilMode": "SENSE",
  "Modality": "MR",
  "MultibandAccelerationFactor": 4,
  "PartialFourier": 1,
  "PatientPosition": "HFS",
  "PercentPhaseFOV": 100,
  "PercentSampling": 100,
  "PhaseEncodingDirection": "j",
  "PhaseEncodingSteps": 104,
  "PhaseResolution": 1,
  "PixelBandwidth": 2290,
  "ProcedureStepDescription": "memory^things",
  "ProtocolName": "func_task-things_run-4",
  "PulseSequenceDetails": "%CustomerSeq%\\cmrr_mbep2d_bold",
  "ReceiveCoilActiveElements": "HC1-7;NC1,2",
  "ReceiveCoilName": "HeadNeck_64",
  "ReconMatrixPE": 104,
  "RepetitionTime": 1.49,
  "SAR": 0.0850042,
  "ScanOptions": "FS",
  "ScanningSequence": "EP",
  "SequenceName": "epfid2d1_104",
  "SequenceVariant": "SK\\SS",
  "SeriesDescription": "func_task-things_run-4",
  "SeriesNumber": 20,
  "ShimSetting": [627, -7218, -8803, 738, 18, -13, 74, -12],
  "SliceThickness": 2,
  "SliceTiming": [0, 0.785, 0.1, 0.8825, 0.1975, 0.98, 0.295, 1.08, 0.3925, 1.1775, 0.49, 1.275, 0.59, 1.3725, 0.6875, 0, 0.785, 0.1, 0.8825, 0.1975, 0.98, 0.295, 1.08, 0.3925, 1.1775, 0.49, 1.275, 0.59, 1.3725, 0.6875, 0, 0.785, 0.1, 0.8825, 0.1975, 0.98, 0.295, 1.08, 0.3925, 1.1775, 0.49, 1.275, 0.59, 1.3725, 0.6875, 0, 0.785, 0.1, 0.8825, 0.1975, 0.98, 0.295, 1.08, 0.3925, 1.1775, 0.49, 1.275, 0.59, 1.3725, 0.6875],
  "SoftwareVersions": "syngo MR E11",
  "SpacingBetweenSlices": 2,
  "StationName": "MRC35049",
  "TaskName": "things",
  "TotalReadoutTime": 0.0576811,
  "TxRefAmp": 310.408,
  "WipMemBlock": "2dd8792a-a2b9-4514-8787-65294d62e77b||Sequence: R016 ve11c/master r/e634e98; Dec 19 2017 11:00:25 by eja",
  "dcmmeta_affine": [
    [-1.999112606048584, -0.004884778056293726, 0.05937015265226364, 107.29863739013672],
    [-0.01953740604221821, 1.9367766380310059, -0.498512327671051, -73.80896759033203],
    [0.05627579987049103, 0.4988710880279541, 1.9359650611877441, -67.41148376464844],
    [0.0, 0.0, 0.0, 1.0]
],
  "dcmmeta_reorient_transform": [
    [0.0, -1.0, 0.0, 103.0],
    [1.0, 0.0, 0.0, 0.0],
    [0.0, 0.0, 1.0, 0.0],
    [0.0, 0.0, 0.0, 1.0]
],
  "dcmmeta_shape": [104, 104, 60, 190],
  "dcmmeta_slice_dim": 2,
  "dcmmeta_version": 0.6,
  "global": {
    "const": {
      "AcquisitionMatrix": [104, 0, 0, 104],
      "AngioFlag": "N",
      "BitsAllocated": 16,
      "BitsStored": 16,
      "BodyPartExamined": "BRAIN",
      "Columns": 832,
      "EchoNumbers": 1,
      "EchoTime": 37.0,
      "EchoTrainLength": 104,
      "FlipAngle": 52.0,
      "HighBit": 15,
      "ImageOrientationPatient": [0.99955631708282, 0.00976870300328, 0.02813790008968, -0.0024423890182, 0.9683883218971, -0.249435548287],
      "ImagePositionPatient": [-832.69444764414, -837.77733784761, 145.07692632014],
      "ImageType": [
        "ORIGINAL",
        "PRIMARY",
        "P",
        "MB",
        "ND",
        "MOSAIC"
],
      "ImagedNucleus": "1H",
      "ImagingFrequency": 123.258897,
      "InPlanePhaseEncodingDirection": "COL",
      "LargestImagePixelValue": 4095,
      "MRAcquisitionType": "2D",
      "MagneticFieldStrength": 3.0,
      "Manufacturer": "SIEMENS",
      "ManufacturerModelName": "Prisma_fit",
      "Modality": "MR",
      "NumberOfAverages": 1.0,
      "NumberOfPhaseEncodingSteps": 104,
      "PercentPhaseFieldOfView": 100.0,
      "PercentSampling": 100.0,
      "PerformedProcedureStepStartTime": "115310.494000",
      "PhotometricInterpretation": "MONOCHROME2",
      "PixelBandwidth": 2290.0,
      "PixelRepresentation": 0,
      "PixelSpacing": [2.0, 2.0],
      "ProtocolName": "func_task-things_run-4",
      "RepetitionTime": 1490.0,
      "RescaleIntercept": -4096.0,
      "RescaleSlope": 2.0,
      "RescaleType": "US",
      "Rows": 832,
      "SAR": 0.08500415555183,
      "SamplesPerPixel": 1,
      "ScanOptions": "FS",
      "ScanningSequence": "EP",
      "SequenceName": "epfid2d1_104",
      "SequenceVariant": [
        "SK",
        "SS"
],
      "SeriesDescription": "func_task-things_run-4",
      "SeriesNumber": 20,
      "SeriesTime": "134606.859000",
      "SliceLocation": -43.670630483352,
      "SliceThickness": 2.0,
      "SmallestImagePixelValue": 0,
      "SoftwareVersions": "syngo MR E11",
      "SpacingBetweenSlices": 2.0000000214615,
      "SpecificCharacterSet": "ISO_IR 100",
      "StudyID": "1",
      "StudyTime": "115310.413000",
      "TransmitCoilName": "Body",
      "VariableFlipAngleFlag": "N",
      "WindowCenterWidthExplanation": "Algo1",
      "dBdt": 0.0},
    "slices": {}
  },
  "time": {
    "samples": {
      "AcquisitionNumber": [1, 2, 3, 4, 5, 6, 7, 8, 9, 10, 11, 12, 13, 14, 15, 16, 17, 18, 19, 20, 21, 22, 23, 24, 25, 26, 27, 28, 29, 30, 31, 32, 33, 34, 35, 36, 37, 38, 39, 40, 41, 42, 43, 44, 45, 46, 47, 48, 49, 50, 51, 52, 53, 54, 55, 56, 57, 58, 59, 60, 61, 62, 63, 64, 65, 66, 67, 68, 69, 70, 71, 72, 73, 74, 75, 76, 77, 78, 79, 80, 81, 82, 83, 84, 85, 86, 87, 88, 89, 90, 91, 92, 93, 94, 95, 96, 97, 98, 99, 100, 101, 102, 103, 104, 105, 106, 107, 108, 109, 110, 111, 112, 113, 114, 115, 116, 117, 118, 119, 120, 121, 122, 123, 124, 125, 126, 127, 128, 129, 130, 131, 132, 133, 134, 135, 136, 137, 138, 139, 140, 141, 142, 143, 144, 145, 146, 147, 148, 149, 150, 151, 152, 153, 154, 155, 156, 157, 158, 159, 160, 161, 162, 163, 164, 165, 166, 167, 168, 169, 170, 171, 172, 173, 174, 175, 176, 177, 178, 179, 180, 181, 182, 183, 184, 185, 186, 187, 188, 189, 190],
      "AcquisitionTime": ["134446.597500", "134448.087500", "134449.577500", "134451.067500", "134452.557500", "134454.047500", "134455.537500", "134457.027500", "134458.517500", "134500.007500", "134501.497500", "134502.987500", "134504.477500", "134505.967500", "134507.457500", "134508.947500", "134510.437500", "134511.927500", "134513.417500", "134514.907500", "134516.397500", "134517.887500", "134519.377500", "134520.867500", "134522.357500", "134523.847500", "134525.337500", "134526.827500", "134528.317500", "134529.807500", "134531.297500", "134532.787500", "134534.277500", "134535.767500", "134537.257500", "134538.747500", "134540.237500", "134541.727500", "134543.217500", "134544.707500", "134546.197500", "134547.687500", "134549.177500", "134550.667500", "134552.157500", "134553.647500", "134555.137500", "134556.627500", "134558.117500", "134559.607500", "134601.097500", "134602.587500", "134604.077500", "134605.567500", "134607.057500", "134608.547500", "134610.037500", "134611.527500", "134613.017500", "134614.507500", "134615.997500", "134617.487500", "134618.977500", "134620.467500", "134621.957500", "134623.447500", "134624.937500", "134626.427500", "134627.917500", "134629.407500", "134630.897500", "134632.387500", "134633.877500", "134635.367500", "134636.857500", "134638.347500", "134639.837500", "134641.327500", "134642.817500", "134644.307500", "134645.797500", "134647.287500", "134648.777500", "134650.267500", "134651.757500", "134653.247500", "134654.737500", "134656.227500", "134657.717500", "134659.207500", "134700.697500", "134702.187500", "134703.677500", "134705.167500", "134706.657500", "134708.147500", "134709.637500", "134711.127500", "134712.617500", "134714.107500", "134715.597500", "134717.087500", "134718.577500", "134720.067500", "134721.557500", "134723.047500", "134724.537500", "134726.027500", "134727.517500", "134729.007500", "134730.497500", "134731.987500", "134733.477500", "134734.967500", "134736.457500", "134737.947500", "134739.437500", "134740.927500", "134742.417500", "134743.907500", "134745.397500", "134746.887500", "134748.377500", "134749.867500", "134751.357500", "134752.847500", "134754.337500", "134755.827500", "134757.317500", "134758.807500", "134800.297500", "134801.787500", "134803.277500", "134804.767500", "134806.257500", "134807.747500", "134809.237500", "134810.727500", "134812.217500", "134813.707500", "134815.197500", "134816.687500", "134818.177500", "134819.667500", "134821.157500", "134822.647500", "134824.137500", "134825.627500", "134827.117500", "134828.607500", "134830.097500", "134831.587500", "134833.077500", "134834.567500", "134836.057500", "134837.547500", "134839.037500", "134840.527500", "134842.017500", "134843.507500", "134844.997500", "134846.487500", "134847.977500", "134849.467500", "134850.957500", "134852.447500", "134853.937500", "134855.427500", "134856.917500", "134858.407500", "134859.897500", "134901.387500", "134902.877500", "134904.367500", "134905.857500", "134907.347500", "134908.837500", "134910.327500", "134911.817500", "134913.307500", "134914.797500", "134916.287500", "134917.777500", "134919.267500", "134920.757500", "134922.247500", "134923.737500", "134925.227500", "134926.717500", "134928.207500"],
      "ContentTime": ["134606.862000", "134606.865000", "134606.868000", "134606.871000", "134606.873000", "134606.876000", "134606.878000", "134606.881000", "134606.884000", "134606.887000", "134606.890000", "134606.892000", "134606.895000", "134606.897000", "134606.900000", "134606.902000", "134606.905000", "134606.907000", "134606.910000", "134606.912000", "134606.915000", "134606.918000", "134606.920000", "134606.923000", "134606.925000", "134606.928000", "134626.801000", "134626.804000", "134626.807000", "134626.809000", "134626.820000", "134626.823000", "134626.826000", "134626.828000", "134626.831000", "134626.833000", "134626.836000", "134626.838000", "134626.841000", "134626.843000", "134626.846000", "134626.849000", "134626.851000", "134626.854000", "134626.856000", "134626.859000", "134646.811000", "134646.814000", "134646.817000", "134646.819000", "134646.822000", "134646.824000", "134646.827000", "134646.829000", "134646.832000", "134646.834000", "134646.837000", "134646.839000", "134646.842000", "134646.845000", "134646.847000", "134646.850000", "134646.852000", "134646.855000", "134646.857000", "134646.860000", "134706.789000", "134706.792000", "134706.795000", "134706.798000", "134706.800000", "134706.803000", "134706.805000", "134706.808000", "134706.810000", "134706.813000", "134706.815000", "134706.818000", "134706.820000", "134706.823000", "134706.825000", "134706.833000", "134706.836000", "134706.838000", "134706.841000", "134706.844000", "134706.846000", "134746.860000", "134746.863000", "134746.866000", "134746.868000", "134746.871000", "134746.873000", "134746.876000", "134746.879000", "134746.881000", "134746.884000", "134746.886000", "134746.889000", "134746.892000", "134746.894000", "134746.897000", "134746.899000", "134746.902000", "134746.905000", "134746.907000", "134746.910000", "134746.912000", "134746.915000", "134746.917000", "134746.920000", "134746.923000", "134746.925000", "134746.928000", "134746.930000", "134746.933000", "134746.936000", "134746.938000", "134746.941000", "134746.943000", "134826.834000", "134826.837000", "134826.839000", "134826.842000", "134826.845000", "134826.847000", "134826.850000", "134826.852000", "134826.855000", "134826.857000", "134826.860000", "134826.862000", "134826.865000", "134826.868000", "134826.870000", "134826.873000", "134826.875000", "134826.878000", "134826.881000", "134826.883000", "134826.886000", "134826.888000", "134826.891000", "134826.893000", "134826.896000", "134826.898000", "134826.901000", "134907.241000", "134907.244000", "134907.246000", "134907.249000", "134907.251000", "134907.254000", "134907.257000", "134907.259000", "134907.269000", "134907.271000", "134907.274000", "134907.277000", "134907.279000", "134907.282000", "134907.284000", "134907.287000", "134907.289000", "134907.292000", "134907.294000", "134907.297000", "134907.300000", "134907.302000", "134907.305000", "134907.307000", "134907.310000", "134907.312000", "134907.315000", "134930.605000", "134930.608000", "134930.611000", "134930.613000", "134930.616000", "134930.619000", "134930.621000", "134930.624000", "134930.627000", "134930.629000", "134930.632000", "134930.635000", "134930.637000", "134930.640000", "134930.642000", "134930.645000"],
      "InstanceCreationTime": ["134606.862000", "134606.865000", "134606.868000", "134606.871000", "134606.873000", "134606.876000", "134606.878000", "134606.881000", "134606.884000", "134606.887000", "134606.890000", "134606.892000", "134606.895000", "134606.897000", "134606.900000", "134606.902000", "134606.905000", "134606.907000", "134606.910000", "134606.912000", "134606.915000", "134606.918000", "134606.920000", "134606.923000", "134606.925000", "134606.928000", "134626.801000", "134626.804000", "134626.807000", "134626.809000", "134626.820000", "134626.823000", "134626.826000", "134626.828000", "134626.831000", "134626.833000", "134626.836000", "134626.838000", "134626.841000", "134626.843000", "134626.846000", "134626.849000", "134626.851000", "134626.854000", "134626.856000", "134626.859000", "134646.811000", "134646.814000", "134646.817000", "134646.819000", "134646.822000", "134646.824000", "134646.827000", "134646.829000", "134646.832000", "134646.834000", "134646.837000", "134646.839000", "134646.842000", "134646.845000", "134646.847000", "134646.850000", "134646.852000", "134646.855000", "134646.857000", "134646.860000", "134706.789000", "134706.792000", "134706.795000", "134706.798000", "134706.800000", "134706.803000", "134706.805000", "134706.808000", "134706.810000", "134706.813000", "134706.815000", "134706.818000", "134706.820000", "134706.823000", "134706.825000", "134706.833000", "134706.836000", "134706.838000", "134706.841000", "134706.844000", "134706.846000", "134746.860000", "134746.863000", "134746.866000", "134746.868000", "134746.871000", "134746.873000", "134746.876000", "134746.879000", "134746.881000", "134746.884000", "134746.886000", "134746.889000", "134746.892000", "134746.894000", "134746.897000", "134746.899000", "134746.902000", "134746.905000", "134746.907000", "134746.910000", "134746.912000", "134746.915000", "134746.917000", "134746.920000", "134746.923000", "134746.925000", "134746.928000", "134746.930000", "134746.933000", "134746.936000", "134746.938000", "134746.941000", "134746.943000", "134826.834000", "134826.837000", "134826.839000", "134826.842000", "134826.845000", "134826.847000", "134826.850000", "134826.852000", "134826.855000", "134826.857000", "134826.860000", "134826.862000", "134826.865000", "134826.868000", "134826.870000", "134826.873000", "134826.875000", "134826.878000", "134826.881000", "134826.883000", "134826.886000", "134826.888000", "134826.891000", "134826.893000", "134826.896000", "134826.898000", "134826.901000", "134907.241000", "134907.244000", "134907.246000", "134907.249000", "134907.251000", "134907.254000", "134907.257000", "134907.259000", "134907.269000", "134907.271000", "134907.274000", "134907.277000", "134907.279000", "134907.282000", "134907.284000", "134907.287000", "134907.289000", "134907.292000", "134907.294000", "134907.297000", "134907.300000", "134907.302000", "134907.305000", "134907.307000", "134907.310000", "134907.312000", "134907.315000", "134930.605000", "134930.608000", "134930.611000", "134930.613000", "134930.616000", "134930.619000", "134930.621000", "134930.624000", "134930.627000", "134930.629000", "134930.632000", "134930.635000", "134930.637000", "134930.640000", "134930.642000", "134930.645000"],
      "InstanceNumber": [1, 2, 3, 4, 5, 6, 7, 8, 9, 10, 11, 12, 13, 14, 15, 16, 17, 18, 19, 20, 21, 22, 23, 24, 25, 26, 27, 28, 29, 30, 31, 32, 33, 34, 35, 36, 37, 38, 39, 40, 41, 42, 43, 44, 45, 46, 47, 48, 49, 50, 51, 52, 53, 54, 55, 56, 57, 58, 59, 60, 61, 62, 63, 64, 65, 66, 67, 68, 69, 70, 71, 72, 73, 74, 75, 76, 77, 78, 79, 80, 81, 82, 83, 84, 85, 86, 87, 88, 89, 90, 91, 92, 93, 94, 95, 96, 97, 98, 99, 100, 101, 102, 103, 104, 105, 106, 107, 108, 109, 110, 111, 112, 113, 114, 115, 116, 117, 118, 119, 120, 121, 122, 123, 124, 125, 126, 127, 128, 129, 130, 131, 132, 133, 134, 135, 136, 137, 138, 139, 140, 141, 142, 143, 144, 145, 146, 147, 148, 149, 150, 151, 152, 153, 154, 155, 156, 157, 158, 159, 160, 161, 162, 163, 164, 165, 166, 167, 168, 169, 170, 171, 172, 173, 174, 175, 176, 177, 178, 179, 180, 181, 182, 183, 184, 185, 186, 187, 188, 189, 190],
      "WindowCenter": [4760.0, 4762.0, 4756.0, 4760.0, 4754.0, 4758.0, 4756.0, 4762.0, 4758.0, 4756.0, 4756.0, 4756.0, 4758.0, 4754.0, 4780.0, 4758.0, 4760.0, 4758.0, 4756.0, 4758.0, 4758.0, 4760.0, 4754.0, 4758.0, 4756.0, 4758.0, 4754.0, 4758.0, 4758.0, 4760.0, 4760.0, 4756.0, 4758.0, 4756.0, 4758.0, 4758.0, 4758.0, 4760.0, 4756.0, 4760.0, 4758.0, 4756.0, 4758.0, 4762.0, 4758.0, 4756.0, 4758.0, 4760.0, 4760.0, 4758.0, 4758.0, 4758.0, 4758.0, 4758.0, 4756.0, 4758.0, 4758.0, 4760.0, 4760.0, 4758.0, 4760.0, 4760.0, 4758.0, 4762.0, 4760.0, 4760.0, 4758.0, 4760.0, 4756.0, 4782.0, 4758.0, 4760.0, 4756.0, 4758.0, 4758.0, 4760.0, 4762.0, 4756.0, 4762.0, 4760.0, 4762.0, 4760.0, 4762.0, 4760.0, 4758.0, 4758.0, 4758.0, 4762.0, 4758.0, 4782.0, 4756.0, 4760.0, 4758.0, 4784.0, 4762.0, 4760.0, 4758.0, 4760.0, 4782.0, 4762.0, 4758.0, 4760.0, 4756.0, 4758.0, 4756.0, 4760.0, 4758.0, 4784.0, 4758.0, 4758.0, 4758.0, 4760.0, 4760.0, 4760.0, 4760.0, 4760.0, 4756.0, 4760.0, 4758.0, 4784.0, 4762.0, 4760.0, 4760.0, 4762.0, 4758.0, 4760.0, 4760.0, 4762.0, 4760.0, 4760.0, 4762.0, 4762.0, 4758.0, 4760.0, 4762.0, 4782.0, 4762.0, 4760.0, 4762.0, 4760.0, 4758.0, 4758.0, 4782.0, 4758.0, 4758.0, 4758.0, 4764.0, 4764.0, 4766.0, 4788.0, 4758.0, 4758.0, 4756.0, 4760.0, 4760.0, 4762.0, 4786.0, 4786.0, 4788.0, 4764.0, 4762.0, 4758.0, 4760.0, 4756.0, 4756.0, 4756.0, 4764.0, 4786.0, 4762.0, 4764.0, 4760.0, 4760.0, 4756.0, 4760.0, 4758.0, 4762.0, 4760.0, 4760.0, 4762.0, 4786.0, 4762.0, 4760.0, 4756.0, 4760.0, 4758.0, 4762.0, 4756.0, 4762.0, 4762.0, 4758.0],
      "WindowWidth": [18538.0, 18540.0, 18538.0, 18542.0, 18538.0, 18538.0, 18540.0, 18542.0, 18538.0, 18532.0, 18534.0, 18532.0, 18538.0, 18532.0, 18572.0, 18540.0, 18542.0, 18536.0, 18540.0, 18540.0, 18540.0, 18542.0, 18532.0, 18534.0, 18532.0, 18538.0, 18532.0, 18538.0, 18534.0, 18538.0, 18540.0, 18540.0, 18534.0, 18542.0, 18536.0, 18534.0, 18538.0, 18536.0, 18532.0, 18536.0, 18542.0, 18538.0, 18534.0, 18536.0, 18538.0, 18534.0, 18536.0, 18538.0, 18538.0, 18532.0, 18538.0, 18532.0, 18544.0, 18534.0, 18538.0, 18536.0, 18536.0, 18538.0, 18540.0, 18534.0, 18544.0, 18534.0, 18538.0, 18538.0, 18540.0, 18538.0, 18536.0, 18536.0, 18536.0, 18572.0, 18536.0, 18540.0, 18532.0, 18536.0, 18534.0, 18540.0, 18534.0, 18534.0, 18540.0, 18538.0, 18542.0, 18538.0, 18542.0, 18538.0, 18542.0, 18538.0, 18536.0, 18538.0, 18532.0, 18568.0, 18536.0, 18532.0, 18538.0, 18572.0, 18542.0, 18540.0, 18534.0, 18538.0, 18566.0, 18536.0, 18530.0, 18540.0, 18536.0, 18532.0, 18532.0, 18540.0, 18538.0, 18568.0, 18536.0, 18536.0, 18538.0, 18536.0, 18540.0, 18540.0, 18538.0, 18542.0, 18536.0, 18540.0, 18536.0, 18564.0, 18536.0, 18538.0, 18536.0, 18540.0, 18530.0, 18538.0, 18540.0, 18538.0, 18540.0, 18536.0, 18540.0, 18538.0, 18534.0, 18538.0, 18538.0, 18566.0, 18540.0, 18540.0, 18540.0, 18542.0, 18538.0, 18540.0, 18570.0, 18532.0, 18538.0, 18536.0, 18538.0, 18540.0, 18536.0, 18566.0, 18528.0, 18538.0, 18532.0, 18540.0, 18538.0, 18540.0, 18566.0, 18566.0, 18570.0, 18538.0, 18536.0, 18540.0, 18540.0, 18538.0, 18534.0, 18532.0, 18542.0, 18568.0, 18534.0, 18542.0, 18534.0, 18542.0, 18534.0, 18536.0, 18538.0, 18538.0, 18540.0, 18536.0, 18544.0, 18568.0, 18534.0, 18536.0, 18540.0, 18534.0, 18536.0, 18536.0, 18536.0, 18536.0, 18538.0, 18536.0]
    },
    "slices": {}
  }
}