{
  "AcquisitionMatrixPE": 104,
  "AcquisitionNumber": 1,
  "AcquisitionTime": "15:26:58.050000",
  "BandwidthPerPixelPhaseEncode": 17.17,
  "BaseResolution": 104,
  "BodyPartExamined": "BRAIN",
  "CoilString": "HC1-7;NC1_2",
  "ConsistencyInfo": "N4_VE11C_LATEST_20160120",
  "ConversionSoftware": "dcm2niix",
  "ConversionSoftwareVersion": "v1.0.20190902",
  "DerivedVendorReportedEchoSpacing": 0.000560011,
  "DeviceSerialNumber": "167006",
  "DwellTime": 2.1e-06,
  "EchoTime": 0.037,
  "EchoTrainLength": 104,
  "EffectiveEchoSpacing": 0.000560011,
  "FlipAngle": 52,
  "ImageComments": "Unaliased_MB4_PE3_LB",
  "ImageOrientationPatientDICOM": [0.997289, -0.0644941, 0.0354185, 0.0727113, 0.937561, -0.340136],
  "ImageType": [
    "ORIGINAL",
    "PRIMARY",
    "M",
    "MB",
    "ND",
    "MOSAIC"
],
  "ImagingFrequency": 123.259,
  "InPlanePhaseEncodingDirectionDICOM": "COL",
  "InstitutionAddress": "Chemin_Queen-Mary_4565_Montreal_District_CA_H3W_1W5",
  "InstitutionName": "IUGM",
  "InstitutionalDepartmentName": "Department",
  "MRAcquisitionType": "2D",
  "MagneticFieldStrength": 3,
  "Manufacturer": "Siemens",
  "ManufacturersModelName": "Prisma_fit",
  "Modality": "MR",
  "MultibandAccelerationFactor": 4,
  "PartialFourier": 1,
  "PatientPosition": "HFS",
  "PercentPhaseFOV": 100,
  "PhaseEncodingDirection": "j",
  "PhaseEncodingSteps": 104,
  "PhaseResolution": 1,
  "PixelBandwidth": 2290,
  "ProcedureStepDescription": "memory_things",
  "ProtocolName": "func_task-things_run-2",
  "PulseSequenceDetails": "%CustomerSeq%_cmrr_mbep2d_bold",
  "ReceiveCoilActiveElements": "HC1-7;NC1,2",
  "ReceiveCoilName": "HeadNeck_64",
  "ReconMatrixPE": 104,
  "RepetitionTime": 1.49,
  "SAR": 0.044156,
  "ScanOptions": "FS",
  "ScanningSequence": "EP",
  "SequenceName": "epfid2d1_104",
  "SequenceVariant": "SK_SS",
  "SeriesDescription": "func_task-things_run-2",
  "SeriesNumber": 13,
  "ShimSetting": [633, -7239, -8817, 608, 2, -152, -47, -6],
  "SliceThickness": 2,
  "SliceTiming": [0, 0.7825, 0.0975, 0.88, 0.195, 0.98, 0.2925, 1.0775, 0.39, 1.175, 0.49, 1.2725, 0.5875, 1.37, 0.685, 0, 0.7825, 0.0975, 0.88, 0.195, 0.98, 0.2925, 1.0775, 0.39, 1.175, 0.49, 1.2725, 0.5875, 1.37, 0.685, 0, 0.7825, 0.0975, 0.88, 0.195, 0.98, 0.2925, 1.0775, 0.39, 1.175, 0.49, 1.2725, 0.5875, 1.37, 0.685, 0, 0.7825, 0.0975, 0.88, 0.195, 0.98, 0.2925, 1.0775, 0.39, 1.175, 0.49, 1.2725, 0.5875, 1.37, 0.685],
  "SoftwareVersions": "syngo_MR_E11",
  "SpacingBetweenSlices": 2,
  "StationName": "MRC35049",
  "TaskName": "things",
  "TotalReadoutTime": 0.0576811,
  "TxRefAmp": 244.156,
  "WipMemBlock": "94b53159-0768-426b-a788-334311e4f7a1||Sequence: R016 ve11c/master r/e634e98; Dec 19 2017 11:00:25 by eja",
  "dcmmeta_affine": [
    [-1.9945787191390991, 0.14542268216609955, 0.022540466859936714, 99.39830780029297],
    [0.12898819148540497, 1.8751219511032104, -0.683578610420227, -71.60295867919922],
    [0.07083698362112045, 0.6802719831466675, 1.8794180154800415, -71.30261993408203],
    [0.0, 0.0, 0.0, 1.0]
],
  "dcmmeta_reorient_transform": [
    [0.0, -1.0, 0.0, 103.0],
    [1.0, 0.0, 0.0, 0.0],
    [0.0, 0.0, 1.0, 0.0],
    [0.0, 0.0, 0.0, 1.0]
],
  "dcmmeta_shape": [104, 104, 60, 190],
  "dcmmeta_slice_dim": 2,
  "dcmmeta_version": 0.6,
  "global": {
    "const": {
      "AcquisitionMatrix": [104, 0, 0, 104],
      "AngioFlag": "N",
      "BitsAllocated": 16,
      "BitsStored": 16,
      "BodyPartExamined": "BRAIN",
      "Columns": 832,
      "EchoNumbers": 1,
      "EchoTime": 37.0,
      "EchoTrainLength": 104,
      "FlipAngle": 52.0,
      "HighBit": 15,
      "ImageOrientationPatient": [0.99728934735605, -0.0644940935105, 0.03541849167311, 0.07271134359235, 0.93756097042401, -0.3401359834692],
      "ImagePositionPatient": [-893.33734587088, -757.12728688619, 220.59972505547],
      "ImageType": [
        "ORIGINAL",
        "PRIMARY",
        "M",
        "MB",
        "ND",
        "MOSAIC"
],
      "ImagedNucleus": "1H",
      "ImagingFrequency": 123.258936,
      "InPlanePhaseEncodingDirection": "COL",
      "MRAcquisitionType": "2D",
      "MagneticFieldStrength": 3.0,
      "Manufacturer": "SIEMENS",
      "ManufacturerModelName": "Prisma_fit",
      "Modality": "MR",
      "NumberOfAverages": 1.0,
      "NumberOfPhaseEncodingSteps": 104,
      "PercentPhaseFieldOfView": 100.0,
      "PercentSampling": 100.0,
      "PerformedProcedureStepStartTime": "143522.948000",
      "PhotometricInterpretation": "MONOCHROME2",
      "PixelBandwidth": 2290.0,
      "PixelRepresentation": 0,
      "PixelSpacing": [2.0, 2.0],
      "ProtocolName": "func_task-things_run-2",
      "RepetitionTime": 1490.0,
      "Rows": 832,
      "SAR": 0.04415601693437,
      "SamplesPerPixel": 1,
      "ScanOptions": "FS",
      "ScanningSequence": "EP",
      "SequenceName": "epfid2d1_104",
      "SequenceVariant": [
        "SK",
        "SS"
],
      "SeriesDescription": "func_task-things_run-2",
      "SeriesNumber": 13,
      "SeriesTime": "152822.891000",
      "SliceLocation": -41.410347809556,
      "SliceThickness": 2.0,
      "SmallestImagePixelValue": 0,
      "SoftwareVersions": "syngo MR E11",
      "SpacingBetweenSlices": 1.9999999732064,
      "SpecificCharacterSet": "ISO_IR 100",
      "StudyID": "1",
      "StudyTime": "143522.875000",
      "TransmitCoilName": "Body",
      "VariableFlipAngleFlag": "N",
      "WindowCenterWidthExplanation": "Algo1",
      "dBdt": 0.0},
    "slices": {}
  },
  "time": {
    "samples": {
      "AcquisitionNumber": [1, 2, 3, 4, 5, 6, 7, 8, 9, 10, 11, 12, 13, 14, 15, 16, 17, 18, 19, 20, 21, 22, 23, 24, 25, 26, 27, 28, 29, 30, 31, 32, 33, 34, 35, 36, 37, 38, 39, 40, 41, 42, 43, 44, 45, 46, 47, 48, 49, 50, 51, 52, 53, 54, 55, 56, 57, 58, 59, 60, 61, 62, 63, 64, 65, 66, 67, 68, 69, 70, 71, 72, 73, 74, 75, 76, 77, 78, 79, 80, 81, 82, 83, 84, 85, 86, 87, 88, 89, 90, 91, 92, 93, 94, 95, 96, 97, 98, 99, 100, 101, 102, 103, 104, 105, 106, 107, 108, 109, 110, 111, 112, 113, 114, 115, 116, 117, 118, 119, 120, 121, 122, 123, 124, 125, 126, 127, 128, 129, 130, 131, 132, 133, 134, 135, 136, 137, 138, 139, 140, 141, 142, 143, 144, 145, 146, 147, 148, 149, 150, 151, 152, 153, 154, 155, 156, 157, 158, 159, 160, 161, 162, 163, 164, 165, 166, 167, 168, 169, 170, 171, 172, 173, 174, 175, 176, 177, 178, 179, 180, 181, 182, 183, 184, 185, 186, 187, 188, 189, 190],
      "AcquisitionTime": ["152658.050000", "152659.540000", "152701.030000", "152702.520000", "152704.010000", "152705.500000", "152706.990000", "152708.480000", "152709.970000", "152711.460000", "152712.950000", "152714.440000", "152715.930000", "152717.420000", "152718.910000", "152720.400000", "152721.890000", "152723.380000", "152724.870000", "152726.360000", "152727.850000", "152729.340000", "152730.830000", "152732.320000", "152733.810000", "152735.300000", "152736.790000", "152738.280000", "152739.770000", "152741.260000", "152742.750000", "152744.240000", "152745.730000", "152747.220000", "152748.710000", "152750.200000", "152751.690000", "152753.180000", "152754.670000", "152756.160000", "152757.650000", "152759.140000", "152800.630000", "152802.120000", "152803.610000", "152805.100000", "152806.590000", "152808.080000", "152809.570000", "152811.060000", "152812.550000", "152814.040000", "152815.530000", "152817.020000", "152818.510000", "152820.000000", "152821.490000", "152822.980000", "152824.470000", "152825.960000", "152827.450000", "152828.940000", "152830.430000", "152831.920000", "152833.410000", "152834.900000", "152836.390000", "152837.880000", "152839.370000", "152840.860000", "152842.350000", "152843.840000", "152845.330000", "152846.820000", "152848.310000", "152849.800000", "152851.290000", "152852.780000", "152854.270000", "152855.760000", "152857.250000", "152858.740000", "152900.230000", "152901.720000", "152903.210000", "152904.700000", "152906.190000", "152907.680000", "152909.170000", "152910.660000", "152912.150000", "152913.640000", "152915.130000", "152916.620000", "152918.110000", "152919.600000", "152921.090000", "152922.580000", "152924.070000", "152925.560000", "152927.050000", "152928.540000", "152930.030000", "152931.520000", "152933.010000", "152934.500000", "152935.990000", "152937.480000", "152938.970000", "152940.460000", "152941.950000", "152943.440000", "152944.930000", "152946.420000", "152947.910000", "152949.400000", "152950.890000", "152952.380000", "152953.870000", "152955.360000", "152956.850000", "152958.340000", "152959.830000", "153001.320000", "153002.810000", "153004.300000", "153005.790000", "153007.280000", "153008.770000", "153010.260000", "153011.750000", "153013.240000", "153014.730000", "153016.220000", "153017.710000", "153019.200000", "153020.690000", "153022.180000", "153023.670000", "153025.160000", "153026.650000", "153028.140000", "153029.630000", "153031.120000", "153032.610000", "153034.100000", "153035.590000", "153037.080000", "153038.570000", "153040.060000", "153041.550000", "153043.040000", "153044.530000", "153046.020000", "153047.510000", "153049.000000", "153050.490000", "153051.980000", "153053.470000", "153054.960000", "153056.450000", "153057.940000", "153059.430000", "153100.920000", "153102.410000", "153103.900000", "153105.390000", "153106.880000", "153108.370000", "153109.860000", "153111.350000", "153112.840000", "153114.330000", "153115.820000", "153117.310000", "153118.800000", "153120.290000", "153121.780000", "153123.270000", "153124.760000", "153126.250000", "153127.740000", "153129.230000", "153130.720000", "153132.210000", "153133.700000", "153135.190000", "153136.680000", "153138.170000", "153139.660000"],
      "ContentTime": ["152822.895000", "152822.898000", "152822.902000", "152822.905000", "152822.909000", "152822.912000", "152822.915000", "152822.919000", "152822.922000", "152822.926000", "152822.929000", "152822.932000", "152822.946000", "152822.950000", "152822.953000", "152822.956000", "152822.960000", "152822.963000", "152822.966000", "152822.970000", "152822.973000", "152822.976000", "152822.980000", "152822.983000", "152822.986000", "152822.990000", "152822.993000", "152822.996000", "152823.000000", "152823.003000", "152842.850000", "152842.854000", "152842.857000", "152842.861000", "152842.864000", "152842.867000", "152842.871000", "152842.874000", "152842.877000", "152842.881000", "152842.884000", "152842.887000", "152842.891000", "152842.894000", "152842.898000", "152842.901000", "152842.904000", "152842.908000", "152842.911000", "152842.914000", "152902.850000", "152902.854000", "152902.857000", "152902.861000", "152902.864000", "152902.868000", "152902.871000", "152902.874000", "152902.878000", "152902.881000", "152902.885000", "152902.888000", "152902.891000", "152902.895000", "152902.898000", "152902.901000", "152902.905000", "152902.908000", "152902.911000", "152902.915000", "152922.850000", "152922.854000", "152922.857000", "152922.861000", "152922.864000", "152922.867000", "152922.871000", "152922.874000", "152922.878000", "152922.881000", "152922.894000", "152922.897000", "152922.901000", "152922.904000", "152922.907000", "152922.911000", "152922.914000", "152922.918000", "152922.921000", "152922.924000", "152922.928000", "153002.850000", "153002.854000", "153002.857000", "153002.861000", "153002.864000", "153002.867000", "153002.882000", "153002.886000", "153002.889000", "153002.893000", "153002.896000", "153002.899000", "153002.903000", "153002.906000", "153002.910000", "153002.913000", "153002.916000", "153002.920000", "153002.923000", "153002.927000", "153002.930000", "153002.933000", "153002.937000", "153002.940000", "153002.943000", "153002.947000", "153002.950000", "153002.954000", "153002.957000", "153002.960000", "153002.964000", "153002.967000", "153042.850000", "153042.854000", "153042.858000", "153042.861000", "153042.864000", "153042.868000", "153042.871000", "153042.875000", "153042.878000", "153042.881000", "153042.885000", "153042.888000", "153042.892000", "153042.895000", "153042.898000", "153042.902000", "153042.905000", "153042.908000", "153042.912000", "153042.915000", "153042.918000", "153042.922000", "153042.925000", "153042.929000", "153042.932000", "153042.935000", "153042.939000", "153122.850000", "153122.854000", "153122.857000", "153122.861000", "153122.864000", "153122.867000", "153122.871000", "153122.874000", "153122.877000", "153122.881000", "153122.884000", "153122.888000", "153122.891000", "153122.895000", "153122.898000", "153122.901000", "153122.905000", "153122.908000", "153122.912000", "153122.915000", "153122.918000", "153122.922000", "153122.925000", "153122.929000", "153122.932000", "153122.935000", "153122.939000", "153141.972000", "153141.976000", "153141.980000", "153141.993000", "153141.996000", "153142.001000", "153142.004000", "153142.008000", "153142.011000", "153142.014000", "153142.018000", "153142.021000", "153142.025000"],
      "InstanceCreationTime": ["152822.895000", "152822.898000", "152822.902000", "152822.905000", "152822.909000", "152822.912000", "152822.915000", "152822.919000", "152822.922000", "152822.926000", "152822.929000", "152822.932000", "152822.946000", "152822.950000", "152822.953000", "152822.956000", "152822.960000", "152822.963000", "152822.966000", "152822.970000", "152822.973000", "152822.976000", "152822.980000", "152822.983000", "152822.986000", "152822.990000", "152822.993000", "152822.996000", "152823.000000", "152823.003000", "152842.850000", "152842.854000", "152842.857000", "152842.861000", "152842.864000", "152842.867000", "152842.871000", "152842.874000", "152842.877000", "152842.881000", "152842.884000", "152842.887000", "152842.891000", "152842.894000", "152842.898000", "152842.901000", "152842.904000", "152842.908000", "152842.911000", "152842.914000", "152902.850000", "152902.854000", "152902.857000", "152902.861000", "152902.864000", "152902.868000", "152902.871000", "152902.874000", "152902.878000", "152902.881000", "152902.885000", "152902.888000", "152902.891000", "152902.895000", "152902.898000", "152902.901000", "152902.905000", "152902.908000", "152902.911000", "152902.915000", "152922.850000", "152922.854000", "152922.857000", "152922.861000", "152922.864000", "152922.867000", "152922.871000", "152922.874000", "152922.878000", "152922.881000", "152922.894000", "152922.897000", "152922.901000", "152922.904000", "152922.907000", "152922.911000", "152922.914000", "152922.918000", "152922.921000", "152922.924000", "152922.928000", "153002.850000", "153002.854000", "153002.857000", "153002.861000", "153002.864000", "153002.867000", "153002.882000", "153002.886000", "153002.889000", "153002.893000", "153002.896000", "153002.899000", "153002.903000", "153002.906000", "153002.910000", "153002.913000", "153002.916000", "153002.920000", "153002.923000", "153002.927000", "153002.930000", "153002.933000", "153002.937000", "153002.940000", "153002.943000", "153002.947000", "153002.950000", "153002.954000", "153002.957000", "153002.960000", "153002.964000", "153002.967000", "153042.850000", "153042.854000", "153042.858000", "153042.861000", "153042.864000", "153042.868000", "153042.871000", "153042.875000", "153042.878000", "153042.881000", "153042.885000", "153042.888000", "153042.892000", "153042.895000", "153042.898000", "153042.902000", "153042.905000", "153042.908000", "153042.912000", "153042.915000", "153042.918000", "153042.922000", "153042.925000", "153042.929000", "153042.932000", "153042.935000", "153042.939000", "153122.850000", "153122.854000", "153122.857000", "153122.861000", "153122.864000", "153122.867000", "153122.871000", "153122.874000", "153122.877000", "153122.881000", "153122.884000", "153122.888000", "153122.891000", "153122.895000", "153122.898000", "153122.901000", "153122.905000", "153122.908000", "153122.912000", "153122.915000", "153122.918000", "153122.922000", "153122.925000", "153122.929000", "153122.932000", "153122.935000", "153122.939000", "153141.972000", "153141.976000", "153141.980000", "153141.993000", "153141.996000", "153142.001000", "153142.004000", "153142.008000", "153142.011000", "153142.014000", "153142.018000", "153142.021000", "153142.025000"],
      "InstanceNumber": [1, 2, 3, 4, 5, 6, 7, 8, 9, 10, 11, 12, 13, 14, 15, 16, 17, 18, 19, 20, 21, 22, 23, 24, 25, 26, 27, 28, 29, 30, 31, 32, 33, 34, 35, 36, 37, 38, 39, 40, 41, 42, 43, 44, 45, 46, 47, 48, 49, 50, 51, 52, 53, 54, 55, 56, 57, 58, 59, 60, 61, 62, 63, 64, 65, 66, 67, 68, 69, 70, 71, 72, 73, 74, 75, 76, 77, 78, 79, 80, 81, 82, 83, 84, 85, 86, 87, 88, 89, 90, 91, 92, 93, 94, 95, 96, 97, 98, 99, 100, 101, 102, 103, 104, 105, 106, 107, 108, 109, 110, 111, 112, 113, 114, 115, 116, 117, 118, 119, 120, 121, 122, 123, 124, 125, 126, 127, 128, 129, 130, 131, 132, 133, 134, 135, 136, 137, 138, 139, 140, 141, 142, 143, 144, 145, 146, 147, 148, 149, 150, 151, 152, 153, 154, 155, 156, 157, 158, 159, 160, 161, 162, 163, 164, 165, 166, 167, 168, 169, 170, 171, 172, 173, 174, 175, 176, 177, 178, 179, 180, 181, 182, 183, 184, 185, 186, 187, 188, 189, 190],
      "LargestImagePixelValue": [43985, 42174, 41966, 41150, 41547, 41432, 41135, 41646, 40827, 40582, 41513, 41161, 40031, 40542, 40455, 40151, 40072, 40569, 40398, 40746, 40112, 41453, 40036, 40661, 39879, 39863, 40326, 39736, 40308, 39999, 41043, 40724, 41319, 41103, 40168, 40989, 41002, 40408, 41254, 40939, 40997, 40975, 40478, 40984, 40275, 40734, 40286, 41673, 41595, 40263, 39698, 40879, 40404, 40426, 40660, 40131, 40773, 40281, 40778, 40811, 40264, 40622, 40749, 40217, 40326, 39961, 39878, 40537, 40151, 39408, 39574, 40587, 41091, 39717, 40556, 40591, 40001, 40639, 40343, 39676, 40740, 40113, 40197, 40642, 39526, 40603, 39984, 40141, 40818, 40605, 39916, 40504, 39321, 40137, 39632, 39863, 39584, 39614, 40389, 40471, 40224, 40792, 40247, 39820, 40092, 40687, 39828, 40343, 40232, 39900, 40031, 39819, 40208, 40244, 39502, 39619, 40127, 39663, 39899, 39400, 39321, 39843, 39873, 39839, 39793, 39426, 40512, 39531, 39218, 40462, 39392, 40029, 39973, 39845, 39937, 40679, 39720, 40086, 40534, 39590, 39366, 39483, 39359, 39176, 39998, 39510, 39178, 39404, 39453, 39363, 40058, 39602, 39186, 39980, 39382, 39227, 40268, 40017, 39853, 39901, 39334, 39820, 40148, 39804, 39604, 39875, 39572, 39508, 40321, 40540, 40985, 40401, 39823, 39303, 39466, 39614, 39554, 39905, 39806, 40124, 39680, 39789, 39532, 39672, 39194, 39669, 39854, 39503, 39620, 39839],
      "WindowCenter": [10429.0, 10345.0, 10321.0, 10309.0, 10296.0, 10272.0, 10263.0, 10274.0, 10285.0, 10289.0, 10305.0, 10303.0, 10285.0, 10288.0, 10307.0, 10303.0, 10295.0, 10299.0, 10292.0, 10302.0, 10302.0, 10306.0, 10280.0, 10307.0, 10323.0, 10322.0, 10312.0, 10291.0, 10308.0, 10317.0, 10314.0, 10306.0, 10307.0, 10311.0, 10313.0, 10313.0, 10298.0, 10290.0, 10307.0, 10319.0, 10322.0, 10313.0, 10303.0, 10298.0, 10299.0, 10308.0, 10315.0, 10331.0, 10314.0, 10284.0, 10277.0, 10294.0, 10305.0, 10300.0, 10291.0, 10291.0, 10297.0, 10301.0, 10299.0, 10303.0, 10301.0, 10305.0, 10306.0, 10292.0, 10282.0, 10289.0, 10291.0, 10288.0, 10273.0, 10260.0, 10261.0, 10286.0, 10303.0, 10280.0, 10279.0, 10281.0, 10275.0, 10294.0, 10312.0, 10303.0, 10296.0, 10300.0, 10305.0, 10307.0, 10301.0, 10291.0, 10290.0, 10299.0, 10317.0, 10320.0, 10302.0, 10298.0, 10281.0, 10277.0, 10268.0, 10282.0, 10271.0, 10263.0, 10274.0, 10289.0, 10296.0, 10289.0, 10291.0, 10293.0, 10301.0, 10307.0, 10287.0, 10296.0, 10297.0, 10284.0, 10297.0, 10295.0, 10298.0, 10291.0, 10271.0, 10259.0, 10272.0, 10290.0, 10283.0, 10264.0, 10249.0, 10259.0, 10280.0, 10302.0, 10303.0, 10289.0, 10291.0, 10282.0, 10286.0, 10300.0, 10280.0, 10285.0, 10289.0, 10289.0, 10293.0, 10298.0, 10288.0, 10287.0, 10290.0, 10283.0, 10296.0, 10296.0, 10279.0, 10265.0, 10276.0, 10271.0, 10265.0, 10256.0, 10247.0, 10256.0, 10280.0, 10278.0, 10283.0, 10293.0, 10288.0, 10298.0, 10309.0, 10317.0, 10325.0, 10319.0, 10298.0, 10287.0, 10279.0, 10268.0, 10274.0, 10276.0, 10268.0, 10264.0, 10280.0, 10300.0, 10302.0, 10281.0, 10252.0, 10244.0, 10251.0, 10260.0, 10266.0, 10266.0, 10262.0, 10265.0, 10253.0, 10260.0, 10283.0, 10308.0, 10292.0, 10281.0, 10278.0, 10285.0, 10286.0, 10286.0],
      "WindowWidth": [22579.0, 22347.0, 22265.0, 22225.0, 22186.0, 22126.0, 22106.0, 22126.0, 22154.0, 22166.0, 22194.0, 22191.0, 22154.0, 22158.0, 22203.0, 22193.0, 22176.0, 22182.0, 22171.0, 22188.0, 22193.0, 22198.0, 22141.0, 22201.0, 22236.0, 22238.0, 22215.0, 22167.0, 22204.0, 22226.0, 22217.0, 22199.0, 22197.0, 22209.0, 22214.0, 22215.0, 22182.0, 22164.0, 22198.0, 22232.0, 22237.0, 22216.0, 22197.0, 22184.0, 22188.0, 22210.0, 22225.0, 22252.0, 22219.0, 22152.0, 22138.0, 22171.0, 22198.0, 22190.0, 22168.0, 22168.0, 22181.0, 22195.0, 22186.0, 22192.0, 22194.0, 22201.0, 22199.0, 22172.0, 22146.0, 22162.0, 22171.0, 22157.0, 22125.0, 22098.0, 22102.0, 22153.0, 22193.0, 22146.0, 22137.0, 22141.0, 22132.0, 22170.0, 22211.0, 22199.0, 22176.0, 22189.0, 22199.0, 22204.0, 22195.0, 22168.0, 22167.0, 22191.0, 22228.0, 22232.0, 22197.0, 22183.0, 22147.0, 22137.0, 22115.0, 22144.0, 22123.0, 22106.0, 22127.0, 22160.0, 22177.0, 22161.0, 22168.0, 22173.0, 22190.0, 22206.0, 22163.0, 22173.0, 22181.0, 22153.0, 22177.0, 22185.0, 22186.0, 22167.0, 22127.0, 22097.0, 22122.0, 22164.0, 22147.0, 22109.0, 22075.0, 22096.0, 22140.0, 22197.0, 22198.0, 22167.0, 22169.0, 22145.0, 22159.0, 22188.0, 22145.0, 22154.0, 22160.0, 22162.0, 22174.0, 22187.0, 22164.0, 22160.0, 22164.0, 22149.0, 22180.0, 22183.0, 22142.0, 22109.0, 22135.0, 22123.0, 22112.0, 22091.0, 22069.0, 22091.0, 22145.0, 22142.0, 22152.0, 22173.0, 22160.0, 22184.0, 22211.0, 22229.0, 22246.0, 22233.0, 22183.0, 22158.0, 22144.0, 22113.0, 22126.0, 22134.0, 22114.0, 22109.0, 22147.0, 22186.0, 22192.0, 22144.0, 22079.0, 22061.0, 22077.0, 22096.0, 22110.0, 22111.0, 22107.0, 22108.0, 22084.0, 22100.0, 22152.0, 22208.0, 22175.0, 22148.0, 22137.0, 22152.0, 22160.0, 22157.0]
    },
    "slices": {}
  }
}