{
  "AcquisitionMatrixPE": 104,
  "AcquisitionNumber": 1,
  "AcquisitionTime": "15:20:44.980000",
  "BandwidthPerPixelPhaseEncode": 17.17,
  "BaseResolution": 104,
  "BodyPartExamined": "BRAIN",
  "CoilString": "HC1-7;NC1_2",
  "ConsistencyInfo": "N4_VE11C_LATEST_20160120",
  "ConversionSoftware": "dcm2niix",
  "ConversionSoftwareVersion": "v1.0.20190902",
  "DerivedVendorReportedEchoSpacing": 0.000560011,
  "DeviceSerialNumber": "167006",
  "DwellTime": 2.1e-06,
  "EchoTime": 0.037,
  "EchoTrainLength": 104,
  "EffectiveEchoSpacing": 0.000560011,
  "FlipAngle": 52,
  "ImageComments": "Unaliased_MB4_PE3_LB",
  "ImageOrientationPatientDICOM": [0.997289, -0.0644941, 0.0354185, 0.0727113, 0.937561, -0.340136],
  "ImageType": [
    "ORIGINAL",
    "PRIMARY",
    "P",
    "MB",
    "ND",
    "MOSAIC"
],
  "ImagingFrequency": 123.259,
  "InPlanePhaseEncodingDirectionDICOM": "COL",
  "InstitutionAddress": "Chemin_Queen-Mary_4565_Montreal_District_CA_H3W_1W5",
  "InstitutionName": "IUGM",
  "InstitutionalDepartmentName": "Department",
  "MRAcquisitionType": "2D",
  "MagneticFieldStrength": 3,
  "Manufacturer": "Siemens",
  "ManufacturersModelName": "Prisma_fit",
  "Modality": "MR",
  "MultibandAccelerationFactor": 4,
  "PartialFourier": 1,
  "PatientPosition": "HFS",
  "PercentPhaseFOV": 100,
  "PhaseEncodingDirection": "j",
  "PhaseEncodingSteps": 104,
  "PhaseResolution": 1,
  "PixelBandwidth": 2290,
  "ProcedureStepDescription": "memory_things",
  "ProtocolName": "func_task-things_run-1",
  "PulseSequenceDetails": "%CustomerSeq%_cmrr_mbep2d_bold",
  "ReceiveCoilActiveElements": "HC1-7;NC1,2",
  "ReceiveCoilName": "HeadNeck_64",
  "ReconMatrixPE": 104,
  "RepetitionTime": 1.49,
  "SAR": 0.044156,
  "ScanOptions": "FS",
  "ScanningSequence": "EP",
  "SequenceName": "epfid2d1_104",
  "SequenceVariant": "SK_SS",
  "SeriesDescription": "func_task-things_run-1",
  "SeriesNumber": 11,
  "ShimSetting": [633, -7239, -8817, 608, 2, -152, -47, -6],
  "SliceThickness": 2,
  "SliceTiming": [0, 0.785, 0.0975, 0.8825, 0.195, 0.98, 0.295, 1.0775, 0.3925, 1.175, 0.49, 1.275, 0.5875, 1.3725, 0.685, 0, 0.785, 0.0975, 0.8825, 0.195, 0.98, 0.295, 1.0775, 0.3925, 1.175, 0.49, 1.275, 0.5875, 1.3725, 0.685, 0, 0.785, 0.0975, 0.8825, 0.195, 0.98, 0.295, 1.0775, 0.3925, 1.175, 0.49, 1.275, 0.5875, 1.3725, 0.685, 0, 0.785, 0.0975, 0.8825, 0.195, 0.98, 0.295, 1.0775, 0.3925, 1.175, 0.49, 1.275, 0.5875, 1.3725, 0.685],
  "SoftwareVersions": "syngo_MR_E11",
  "SpacingBetweenSlices": 2,
  "StationName": "MRC35049",
  "TaskName": "things",
  "TotalReadoutTime": 0.0576811,
  "TxRefAmp": 244.156,
  "WipMemBlock": "f0a1bf6a-aebc-4822-b2df-ef3d32f57d7e||Sequence: R016 ve11c/master r/e634e98; Dec 19 2017 11:00:25 by eja",
  "dcmmeta_affine": [
    [-1.9945787191390991, 0.14542268216609955, 0.022540466859936714, 99.39830780029297],
    [0.12898819148540497, 1.8751219511032104, -0.683578610420227, -71.60295867919922],
    [0.07083698362112045, 0.6802719831466675, 1.8794180154800415, -71.30261993408203],
    [0.0, 0.0, 0.0, 1.0]
],
  "dcmmeta_reorient_transform": [
    [0.0, -1.0, 0.0, 103.0],
    [1.0, 0.0, 0.0, 0.0],
    [0.0, 0.0, 1.0, 0.0],
    [0.0, 0.0, 0.0, 1.0]
],
  "dcmmeta_shape": [104, 104, 60, 190],
  "dcmmeta_slice_dim": 2,
  "dcmmeta_version": 0.6,
  "global": {
    "const": {
      "AcquisitionMatrix": [104, 0, 0, 104],
      "AngioFlag": "N",
      "BitsAllocated": 16,
      "BitsStored": 16,
      "BodyPartExamined": "BRAIN",
      "Columns": 832,
      "EchoNumbers": 1,
      "EchoTime": 37.0,
      "EchoTrainLength": 104,
      "FlipAngle": 52.0,
      "HighBit": 15,
      "ImageOrientationPatient": [0.99728934735605, -0.0644940935105, 0.03541849167311, 0.07271134359235, 0.93756097042401, -0.3401359834692],
      "ImagePositionPatient": [-893.33734587088, -757.12728688619, 220.59972505547],
      "ImageType": [
        "ORIGINAL",
        "PRIMARY",
        "P",
        "MB",
        "ND",
        "MOSAIC"
],
      "ImagedNucleus": "1H",
      "ImagingFrequency": 123.25893,
      "InPlanePhaseEncodingDirection": "COL",
      "LargestImagePixelValue": 4095,
      "MRAcquisitionType": "2D",
      "MagneticFieldStrength": 3.0,
      "Manufacturer": "SIEMENS",
      "ManufacturerModelName": "Prisma_fit",
      "Modality": "MR",
      "NumberOfAverages": 1.0,
      "NumberOfPhaseEncodingSteps": 104,
      "PercentPhaseFieldOfView": 100.0,
      "PercentSampling": 100.0,
      "PerformedProcedureStepStartTime": "143522.948000",
      "PhotometricInterpretation": "MONOCHROME2",
      "PixelBandwidth": 2290.0,
      "PixelRepresentation": 0,
      "PixelSpacing": [2.0, 2.0],
      "ProtocolName": "func_task-things_run-1",
      "RepetitionTime": 1490.0,
      "RescaleIntercept": -4096.0,
      "RescaleSlope": 2.0,
      "RescaleType": "US",
      "Rows": 832,
      "SAR": 0.04415601693437,
      "SamplesPerPixel": 1,
      "ScanOptions": "FS",
      "ScanningSequence": "EP",
      "SequenceName": "epfid2d1_104",
      "SequenceVariant": [
        "SK",
        "SS"
],
      "SeriesDescription": "func_task-things_run-1",
      "SeriesNumber": 11,
      "SeriesTime": "152207.595000",
      "SliceLocation": -41.410347809556,
      "SliceThickness": 2.0,
      "SmallestImagePixelValue": 0,
      "SoftwareVersions": "syngo MR E11",
      "SpacingBetweenSlices": 1.9999999732064,
      "SpecificCharacterSet": "ISO_IR 100",
      "StudyID": "1",
      "StudyTime": "143522.875000",
      "TransmitCoilName": "Body",
      "VariableFlipAngleFlag": "N",
      "WindowCenterWidthExplanation": "Algo1",
      "dBdt": 0.0},
    "slices": {}
  },
  "time": {
    "samples": {
      "AcquisitionNumber": [1, 2, 3, 4, 5, 6, 7, 8, 9, 10, 11, 12, 13, 14, 15, 16, 17, 18, 19, 20, 21, 22, 23, 24, 25, 26, 27, 28, 29, 30, 31, 32, 33, 34, 35, 36, 37, 38, 39, 40, 41, 42, 43, 44, 45, 46, 47, 48, 49, 50, 51, 52, 53, 54, 55, 56, 57, 58, 59, 60, 61, 62, 63, 64, 65, 66, 67, 68, 69, 70, 71, 72, 73, 74, 75, 76, 77, 78, 79, 80, 81, 82, 83, 84, 85, 86, 87, 88, 89, 90, 91, 92, 93, 94, 95, 96, 97, 98, 99, 100, 101, 102, 103, 104, 105, 106, 107, 108, 109, 110, 111, 112, 113, 114, 115, 116, 117, 118, 119, 120, 121, 122, 123, 124, 125, 126, 127, 128, 129, 130, 131, 132, 133, 134, 135, 136, 137, 138, 139, 140, 141, 142, 143, 144, 145, 146, 147, 148, 149, 150, 151, 152, 153, 154, 155, 156, 157, 158, 159, 160, 161, 162, 163, 164, 165, 166, 167, 168, 169, 170, 171, 172, 173, 174, 175, 176, 177, 178, 179, 180, 181, 182, 183, 184, 185, 186, 187, 188, 189, 190],
      "AcquisitionTime": ["152044.980000", "152046.470000", "152047.960000", "152049.450000", "152050.940000", "152052.430000", "152053.920000", "152055.410000", "152056.900000", "152058.390000", "152059.880000", "152101.370000", "152102.860000", "152104.350000", "152105.840000", "152107.330000", "152108.820000", "152110.310000", "152111.800000", "152113.290000", "152114.780000", "152116.270000", "152117.760000", "152119.250000", "152120.740000", "152122.230000", "152123.720000", "152125.210000", "152126.700000", "152128.190000", "152129.680000", "152131.170000", "152132.660000", "152134.150000", "152135.640000", "152137.130000", "152138.620000", "152140.110000", "152141.600000", "152143.090000", "152144.580000", "152146.070000", "152147.560000", "152149.050000", "152150.540000", "152152.030000", "152153.520000", "152155.010000", "152156.500000", "152157.990000", "152159.480000", "152200.970000", "152202.460000", "152203.950000", "152205.440000", "152206.930000", "152208.420000", "152209.910000", "152211.400000", "152212.890000", "152214.380000", "152215.870000", "152217.360000", "152218.850000", "152220.340000", "152221.830000", "152223.320000", "152224.810000", "152226.300000", "152227.790000", "152229.280000", "152230.770000", "152232.260000", "152233.750000", "152235.240000", "152236.730000", "152238.220000", "152239.710000", "152241.200000", "152242.690000", "152244.180000", "152245.670000", "152247.160000", "152248.650000", "152250.140000", "152251.630000", "152253.120000", "152254.610000", "152256.100000", "152257.590000", "152259.080000", "152300.570000", "152302.060000", "152303.550000", "152305.040000", "152306.530000", "152308.020000", "152309.510000", "152311.000000", "152312.490000", "152313.980000", "152315.470000", "152316.960000", "152318.450000", "152319.940000", "152321.430000", "152322.920000", "152324.410000", "152325.900000", "152327.390000", "152328.880000", "152330.370000", "152331.860000", "152333.350000", "152334.840000", "152336.330000", "152337.820000", "152339.310000", "152340.800000", "152342.290000", "152343.780000", "152345.270000", "152346.760000", "152348.250000", "152349.740000", "152351.230000", "152352.720000", "152354.210000", "152355.700000", "152357.190000", "152358.680000", "152400.170000", "152401.660000", "152403.150000", "152404.640000", "152406.130000", "152407.620000", "152409.110000", "152410.600000", "152412.090000", "152413.580000", "152415.070000", "152416.560000", "152418.050000", "152419.540000", "152421.030000", "152422.520000", "152424.010000", "152425.500000", "152426.990000", "152428.480000", "152429.970000", "152431.460000", "152432.950000", "152434.440000", "152435.930000", "152437.420000", "152438.910000", "152440.400000", "152441.890000", "152443.380000", "152444.870000", "152446.360000", "152447.850000", "152449.340000", "152450.830000", "152452.320000", "152453.810000", "152455.300000", "152456.790000", "152458.280000", "152459.770000", "152501.260000", "152502.750000", "152504.240000", "152505.730000", "152507.220000", "152508.710000", "152510.200000", "152511.690000", "152513.180000", "152514.670000", "152516.160000", "152517.650000", "152519.140000", "152520.630000", "152522.120000", "152523.610000", "152525.100000", "152526.590000"],
      "ContentTime": ["152207.597000", "152207.600000", "152207.603000", "152207.605000", "152207.630000", "152207.633000", "152207.635000", "152207.638000", "152207.642000", "152207.644000", "152207.647000", "152207.650000", "152207.652000", "152207.655000", "152207.659000", "152207.661000", "152207.664000", "152207.667000", "152207.669000", "152207.672000", "152207.675000", "152207.677000", "152207.680000", "152207.682000", "152207.685000", "152207.687000", "152207.690000", "152227.528000", "152227.530000", "152227.533000", "152227.535000", "152227.538000", "152227.540000", "152227.543000", "152227.545000", "152227.548000", "152227.552000", "152227.555000", "152227.557000", "152227.560000", "152227.562000", "152227.565000", "152227.568000", "152227.570000", "152227.573000", "152227.576000", "152227.578000", "152227.581000", "152247.526000", "152247.529000", "152247.532000", "152247.534000", "152247.537000", "152247.539000", "152247.542000", "152247.545000", "152247.547000", "152247.550000", "152247.552000", "152247.555000", "152247.557000", "152247.560000", "152247.562000", "152247.565000", "152247.568000", "152247.570000", "152247.573000", "152247.575000", "152307.531000", "152307.534000", "152307.536000", "152307.539000", "152307.542000", "152307.544000", "152307.547000", "152307.549000", "152307.552000", "152307.554000", "152307.557000", "152307.559000", "152307.562000", "152307.564000", "152307.567000", "152307.570000", "152307.572000", "152307.575000", "152307.577000", "152307.580000", "152327.541000", "152327.544000", "152327.547000", "152327.550000", "152327.552000", "152327.555000", "152327.557000", "152327.560000", "152327.562000", "152327.565000", "152327.567000", "152327.575000", "152327.577000", "152327.580000", "152327.582000", "152327.585000", "152327.587000", "152327.590000", "152327.592000", "152327.595000", "152407.555000", "152407.557000", "152407.560000", "152407.563000", "152407.565000", "152407.568000", "152407.570000", "152407.573000", "152407.575000", "152407.578000", "152407.580000", "152407.583000", "152407.585000", "152407.588000", "152407.590000", "152407.593000", "152407.595000", "152407.598000", "152407.600000", "152407.603000", "152407.605000", "152407.608000", "152407.610000", "152407.613000", "152407.615000", "152407.618000", "152407.620000", "152447.562000", "152447.565000", "152447.568000", "152447.570000", "152447.573000", "152447.575000", "152447.578000", "152447.581000", "152447.583000", "152447.586000", "152447.588000", "152447.591000", "152447.593000", "152447.596000", "152447.599000", "152447.601000", "152447.604000", "152447.606000", "152447.609000", "152447.611000", "152447.614000", "152447.616000", "152447.619000", "152447.621000", "152447.624000", "152447.626000", "152447.629000", "152507.491000", "152507.494000", "152507.497000", "152507.499000", "152507.502000", "152507.504000", "152507.507000", "152507.509000", "152507.512000", "152507.515000", "152507.517000", "152507.520000", "152507.522000", "152528.859000", "152528.861000", "152528.869000", "152528.872000", "152528.875000", "152528.877000", "152528.880000", "152528.882000", "152528.885000", "152528.888000", "152528.890000", "152528.893000", "152528.895000", "152528.898000", "152528.901000"],
      "InstanceCreationTime": ["152207.597000", "152207.600000", "152207.603000", "152207.605000", "152207.630000", "152207.633000", "152207.635000", "152207.638000", "152207.642000", "152207.644000", "152207.647000", "152207.650000", "152207.652000", "152207.655000", "152207.659000", "152207.661000", "152207.664000", "152207.667000", "152207.669000", "152207.672000", "152207.675000", "152207.677000", "152207.680000", "152207.682000", "152207.685000", "152207.687000", "152207.690000", "152227.528000", "152227.530000", "152227.533000", "152227.535000", "152227.538000", "152227.540000", "152227.543000", "152227.545000", "152227.548000", "152227.552000", "152227.555000", "152227.557000", "152227.560000", "152227.562000", "152227.565000", "152227.568000", "152227.570000", "152227.573000", "152227.576000", "152227.578000", "152227.581000", "152247.526000", "152247.529000", "152247.532000", "152247.534000", "152247.537000", "152247.539000", "152247.542000", "152247.545000", "152247.547000", "152247.550000", "152247.552000", "152247.555000", "152247.557000", "152247.560000", "152247.562000", "152247.565000", "152247.568000", "152247.570000", "152247.573000", "152247.575000", "152307.531000", "152307.534000", "152307.536000", "152307.539000", "152307.542000", "152307.544000", "152307.547000", "152307.549000", "152307.552000", "152307.554000", "152307.557000", "152307.559000", "152307.562000", "152307.564000", "152307.567000", "152307.570000", "152307.572000", "152307.575000", "152307.577000", "152307.580000", "152327.541000", "152327.544000", "152327.547000", "152327.550000", "152327.552000", "152327.555000", "152327.557000", "152327.560000", "152327.562000", "152327.565000", "152327.567000", "152327.575000", "152327.577000", "152327.580000", "152327.582000", "152327.585000", "152327.587000", "152327.590000", "152327.592000", "152327.595000", "152407.555000", "152407.557000", "152407.560000", "152407.563000", "152407.565000", "152407.568000", "152407.570000", "152407.573000", "152407.575000", "152407.578000", "152407.580000", "152407.583000", "152407.585000", "152407.588000", "152407.590000", "152407.593000", "152407.595000", "152407.598000", "152407.600000", "152407.603000", "152407.605000", "152407.608000", "152407.610000", "152407.613000", "152407.615000", "152407.618000", "152407.620000", "152447.562000", "152447.565000", "152447.568000", "152447.570000", "152447.573000", "152447.575000", "152447.578000", "152447.581000", "152447.583000", "152447.586000", "152447.588000", "152447.591000", "152447.593000", "152447.596000", "152447.599000", "152447.601000", "152447.604000", "152447.606000", "152447.609000", "152447.611000", "152447.614000", "152447.616000", "152447.619000", "152447.621000", "152447.624000", "152447.626000", "152447.629000", "152507.491000", "152507.494000", "152507.497000", "152507.499000", "152507.502000", "152507.504000", "152507.507000", "152507.509000", "152507.512000", "152507.515000", "152507.517000", "152507.520000", "152507.522000", "152528.859000", "152528.861000", "152528.869000", "152528.872000", "152528.875000", "152528.877000", "152528.880000", "152528.882000", "152528.885000", "152528.888000", "152528.890000", "152528.893000", "152528.895000", "152528.898000", "152528.901000"],
      "InstanceNumber": [1, 2, 3, 4, 5, 6, 7, 8, 9, 10, 11, 12, 13, 14, 15, 16, 17, 18, 19, 20, 21, 22, 23, 24, 25, 26, 27, 28, 29, 30, 31, 32, 33, 34, 35, 36, 37, 38, 39, 40, 41, 42, 43, 44, 45, 46, 47, 48, 49, 50, 51, 52, 53, 54, 55, 56, 57, 58, 59, 60, 61, 62, 63, 64, 65, 66, 67, 68, 69, 70, 71, 72, 73, 74, 75, 76, 77, 78, 79, 80, 81, 82, 83, 84, 85, 86, 87, 88, 89, 90, 91, 92, 93, 94, 95, 96, 97, 98, 99, 100, 101, 102, 103, 104, 105, 106, 107, 108, 109, 110, 111, 112, 113, 114, 115, 116, 117, 118, 119, 120, 121, 122, 123, 124, 125, 126, 127, 128, 129, 130, 131, 132, 133, 134, 135, 136, 137, 138, 139, 140, 141, 142, 143, 144, 145, 146, 147, 148, 149, 150, 151, 152, 153, 154, 155, 156, 157, 158, 159, 160, 161, 162, 163, 164, 165, 166, 167, 168, 169, 170, 171, 172, 173, 174, 175, 176, 177, 178, 179, 180, 181, 182, 183, 184, 185, 186, 187, 188, 189, 190],
      "WindowCenter": [4832.0, 4860.0, 4826.0, 4828.0, 4832.0, 4828.0, 4828.0, 4834.0, 4826.0, 4826.0, 4838.0, 4802.0, 4830.0, 4832.0, 4842.0, 4832.0, 4838.0, 4802.0, 4836.0, 4832.0, 4826.0, 4836.0, 4824.0, 4830.0, 4840.0, 4804.0, 4804.0, 4804.0, 4834.0, 4898.0, 4882.0, 4880.0, 4840.0, 4830.0, 4824.0, 4804.0, 4822.0, 4828.0, 4822.0, 4860.0, 4834.0, 4866.0, 4830.0, 4840.0, 4836.0, 4802.0, 4824.0, 4828.0, 4802.0, 4826.0, 4832.0, 4822.0, 4830.0, 4836.0, 4836.0, 4836.0, 4858.0, 4830.0, 4826.0, 4798.0, 4828.0, 4824.0, 4830.0, 4836.0, 4830.0, 4862.0, 4826.0, 4832.0, 4838.0, 4828.0, 4830.0, 4832.0, 4800.0, 4828.0, 4832.0, 4830.0, 4858.0, 4826.0, 4800.0, 4830.0, 4832.0, 4828.0, 4830.0, 4828.0, 4830.0, 4826.0, 4802.0, 4828.0, 4828.0, 4802.0, 4828.0, 4828.0, 4822.0, 4836.0, 4836.0, 4804.0, 4826.0, 4804.0, 4808.0, 4830.0, 4802.0, 4832.0, 4830.0, 4826.0, 4836.0, 4804.0, 4830.0, 4830.0, 4830.0, 4830.0, 4802.0, 4830.0, 4802.0, 4830.0, 4830.0, 4828.0, 4834.0, 4800.0, 4834.0, 4828.0, 4804.0, 4804.0, 4830.0, 4826.0, 4830.0, 4800.0, 4824.0, 4826.0, 4826.0, 4800.0, 4802.0, 4830.0, 4828.0, 4830.0, 4836.0, 4828.0, 4836.0, 4826.0, 4830.0, 4798.0, 4824.0, 4830.0, 4824.0, 4830.0, 4824.0, 4832.0, 4838.0, 4828.0, 4824.0, 4826.0, 4802.0, 4826.0, 4802.0, 4828.0, 4824.0, 4828.0, 4830.0, 4826.0, 4828.0, 4824.0, 4828.0, 4804.0, 4824.0, 4826.0, 4824.0, 4828.0, 4800.0, 4828.0, 4828.0, 4832.0, 4836.0, 4828.0, 4832.0, 4826.0, 4802.0, 4802.0, 4826.0, 4824.0, 4832.0, 4836.0, 4826.0, 4832.0, 4824.0, 4826.0, 4824.0, 4798.0, 4824.0, 4828.0, 4828.0, 4824.0],
      "WindowWidth": [18638.0, 18672.0, 18638.0, 18642.0, 18636.0, 18640.0, 18642.0, 18646.0, 18646.0, 18640.0, 18640.0, 18606.0, 18638.0, 18640.0, 18650.0, 18638.0, 18646.0, 18606.0, 18640.0, 18636.0, 18638.0, 18642.0, 18636.0, 18642.0, 18650.0, 18612.0, 18620.0, 18628.0, 18640.0, 18706.0, 18680.0, 18678.0, 18642.0, 18636.0, 18636.0, 18616.0, 18638.0, 18640.0, 18636.0, 18674.0, 18640.0, 18674.0, 18636.0, 18644.0, 18644.0, 18606.0, 18638.0, 18636.0, 18614.0, 18642.0, 18646.0, 18638.0, 18638.0, 18638.0, 18644.0, 18648.0, 18676.0, 18638.0, 18636.0, 18608.0, 18642.0, 18642.0, 18638.0, 18644.0, 18642.0, 18670.0, 18644.0, 18642.0, 18642.0, 18640.0, 18640.0, 18640.0, 18608.0, 18636.0, 18640.0, 18638.0, 18676.0, 18638.0, 18618.0, 18640.0, 18642.0, 18636.0, 18638.0, 18640.0, 18640.0, 18638.0, 18606.0, 18638.0, 18634.0, 18610.0, 18640.0, 18636.0, 18638.0, 18638.0, 18638.0, 18602.0, 18630.0, 18606.0, 18606.0, 18638.0, 18604.0, 18640.0, 18630.0, 18638.0, 18638.0, 18602.0, 18636.0, 18634.0, 18634.0, 18640.0, 18602.0, 18640.0, 18604.0, 18634.0, 18638.0, 18634.0, 18640.0, 18608.0, 18642.0, 18634.0, 18606.0, 18604.0, 18636.0, 18638.0, 18638.0, 18604.0, 18628.0, 18634.0, 18640.0, 18614.0, 18616.0, 18642.0, 18642.0, 18642.0, 18644.0, 18640.0, 18640.0, 18642.0, 18638.0, 18604.0, 18640.0, 18640.0, 18636.0, 18640.0, 18638.0, 18642.0, 18650.0, 18638.0, 18640.0, 18634.0, 18614.0, 18638.0, 18606.0, 18638.0, 18638.0, 18640.0, 18636.0, 18640.0, 18636.0, 18640.0, 18640.0, 18608.0, 18636.0, 18642.0, 18636.0, 18636.0, 18608.0, 18640.0, 18640.0, 18636.0, 18646.0, 18640.0, 18640.0, 18642.0, 18614.0, 18606.0, 18634.0, 18644.0, 18642.0, 18646.0, 18638.0, 18640.0, 18636.0, 18640.0, 18638.0, 18610.0, 18634.0, 18640.0, 18638.0, 18636.0]
    },
    "slices": {}
  }
}