{
  "AcquisitionMatrixPE": 104,
  "AcquisitionNumber": 1,
  "AcquisitionTime": "15:39:31.695000",
  "BandwidthPerPixelPhaseEncode": 17.17,
  "BaseResolution": 104,
  "BodyPartExamined": "BRAIN",
  "CoilString": "HC1-7;NC1_2",
  "ConsistencyInfo": "N4_VE11C_LATEST_20160120",
  "ConversionSoftware": "dcm2niix",
  "ConversionSoftwareVersion": "v1.0.20190902",
  "DerivedVendorReportedEchoSpacing": 0.000560011,
  "DeviceSerialNumber": "167006",
  "DwellTime": 2.1e-06,
  "EchoTime": 0.037,
  "EchoTrainLength": 104,
  "EffectiveEchoSpacing": 0.000560011,
  "FlipAngle": 52,
  "ImageComments": "Unaliased_MB4_PE3_LB",
  "ImageOrientationPatientDICOM": [0.997289, -0.0644941, 0.0354185, 0.0727113, 0.937561, -0.340136],
  "ImageType": [
    "ORIGINAL",
    "PRIMARY",
    "M",
    "MB",
    "ND",
    "MOSAIC"
],
  "ImagingFrequency": 123.259,
  "InPlanePhaseEncodingDirectionDICOM": "COL",
  "InstitutionAddress": "Chemin_Queen-Mary_4565_Montreal_District_CA_H3W_1W5",
  "InstitutionName": "IUGM",
  "InstitutionalDepartmentName": "Department",
  "MRAcquisitionType": "2D",
  "MagneticFieldStrength": 3,
  "Manufacturer": "Siemens",
  "ManufacturersModelName": "Prisma_fit",
  "Modality": "MR",
  "MultibandAccelerationFactor": 4,
  "PartialFourier": 1,
  "PatientPosition": "HFS",
  "PercentPhaseFOV": 100,
  "PhaseEncodingDirection": "j",
  "PhaseEncodingSteps": 104,
  "PhaseResolution": 1,
  "PixelBandwidth": 2290,
  "ProcedureStepDescription": "memory_things",
  "ProtocolName": "func_task-things_run-4",
  "PulseSequenceDetails": "%CustomerSeq%_cmrr_mbep2d_bold",
  "ReceiveCoilActiveElements": "HC1-7;NC1,2",
  "ReceiveCoilName": "HeadNeck_64",
  "ReconMatrixPE": 104,
  "RepetitionTime": 1.49,
  "SAR": 0.044156,
  "ScanOptions": "FS",
  "ScanningSequence": "EP",
  "SequenceName": "epfid2d1_104",
  "SequenceVariant": "SK_SS",
  "SeriesDescription": "func_task-things_run-4",
  "SeriesNumber": 19,
  "ShimSetting": [633, -7239, -8817, 608, 2, -152, -47, -6],
  "SliceThickness": 2,
  "SliceTiming": [0, 0.785, 0.0975, 0.8825, 0.1975, 0.98, 0.295, 1.0775, 0.3925, 1.1775, 0.49, 1.275, 0.5875, 1.3725, 0.6875, 0, 0.785, 0.0975, 0.8825, 0.1975, 0.98, 0.295, 1.0775, 0.3925, 1.1775, 0.49, 1.275, 0.5875, 1.3725, 0.6875, 0, 0.785, 0.0975, 0.8825, 0.1975, 0.98, 0.295, 1.0775, 0.3925, 1.1775, 0.49, 1.275, 0.5875, 1.3725, 0.6875, 0, 0.785, 0.0975, 0.8825, 0.1975, 0.98, 0.295, 1.0775, 0.3925, 1.1775, 0.49, 1.275, 0.5875, 1.3725, 0.6875],
  "SoftwareVersions": "syngo_MR_E11",
  "SpacingBetweenSlices": 2,
  "StationName": "MRC35049",
  "TaskName": "things",
  "TotalReadoutTime": 0.0576811,
  "TxRefAmp": 244.156,
  "WipMemBlock": "65efb6e4-e1ac-4fc2-9ccb-9ccaa3245a6e||Sequence: R016 ve11c/master r/e634e98; Dec 19 2017 11:00:25 by eja",
  "dcmmeta_affine": [
    [-1.9945787191390991, 0.14542268216609955, 0.022540466859936714, 99.39830780029297],
    [0.12898819148540497, 1.8751219511032104, -0.683578610420227, -71.60295867919922],
    [0.07083698362112045, 0.6802719831466675, 1.8794180154800415, -71.30261993408203],
    [0.0, 0.0, 0.0, 1.0]
],
  "dcmmeta_reorient_transform": [
    [0.0, -1.0, 0.0, 103.0],
    [1.0, 0.0, 0.0, 0.0],
    [0.0, 0.0, 1.0, 0.0],
    [0.0, 0.0, 0.0, 1.0]
],
  "dcmmeta_shape": [104, 104, 60, 190],
  "dcmmeta_slice_dim": 2,
  "dcmmeta_version": 0.6,
  "global": {
    "const": {
      "AcquisitionMatrix": [104, 0, 0, 104],
      "AngioFlag": "N",
      "BitsAllocated": 16,
      "BitsStored": 16,
      "BodyPartExamined": "BRAIN",
      "Columns": 832,
      "EchoNumbers": 1,
      "EchoTime": 37.0,
      "EchoTrainLength": 104,
      "FlipAngle": 52.0,
      "HighBit": 15,
      "ImageOrientationPatient": [0.99728934735605, -0.0644940935105, 0.03541849167311, 0.07271134359235, 0.93756097042401, -0.3401359834692],
      "ImagePositionPatient": [-893.33734587088, -757.12728688619, 220.59972505547],
      "ImageType": [
        "ORIGINAL",
        "PRIMARY",
        "M",
        "MB",
        "ND",
        "MOSAIC"
],
      "ImagedNucleus": "1H",
      "ImagingFrequency": 123.258941,
      "InPlanePhaseEncodingDirection": "COL",
      "MRAcquisitionType": "2D",
      "MagneticFieldStrength": 3.0,
      "Manufacturer": "SIEMENS",
      "ManufacturerModelName": "Prisma_fit",
      "Modality": "MR",
      "NumberOfAverages": 1.0,
      "NumberOfPhaseEncodingSteps": 104,
      "PercentPhaseFieldOfView": 100.0,
      "PercentSampling": 100.0,
      "PerformedProcedureStepStartTime": "143522.948000",
      "PhotometricInterpretation": "MONOCHROME2",
      "PixelBandwidth": 2290.0,
      "PixelRepresentation": 0,
      "PixelSpacing": [2.0, 2.0],
      "ProtocolName": "func_task-things_run-4",
      "RepetitionTime": 1490.0,
      "Rows": 832,
      "SAR": 0.04415601693437,
      "SamplesPerPixel": 1,
      "ScanOptions": "FS",
      "ScanningSequence": "EP",
      "SequenceName": "epfid2d1_104",
      "SequenceVariant": [
        "SK",
        "SS"
],
      "SeriesDescription": "func_task-things_run-4",
      "SeriesNumber": 19,
      "SeriesTime": "154047.446000",
      "SliceLocation": -41.410347809556,
      "SliceThickness": 2.0,
      "SmallestImagePixelValue": 0,
      "SoftwareVersions": "syngo MR E11",
      "SpacingBetweenSlices": 1.9999999732064,
      "SpecificCharacterSet": "ISO_IR 100",
      "StudyID": "1",
      "StudyTime": "143522.875000",
      "TransmitCoilName": "Body",
      "VariableFlipAngleFlag": "N",
      "WindowCenterWidthExplanation": "Algo1",
      "dBdt": 0.0},
    "slices": {}
  },
  "time": {
    "samples": {
      "AcquisitionNumber": [1, 2, 3, 4, 5, 6, 7, 8, 9, 10, 11, 12, 13, 14, 15, 16, 17, 18, 19, 20, 21, 22, 23, 24, 25, 26, 27, 28, 29, 30, 31, 32, 33, 34, 35, 36, 37, 38, 39, 40, 41, 42, 43, 44, 45, 46, 47, 48, 49, 50, 51, 52, 53, 54, 55, 56, 57, 58, 59, 60, 61, 62, 63, 64, 65, 66, 67, 68, 69, 70, 71, 72, 73, 74, 75, 76, 77, 78, 79, 80, 81, 82, 83, 84, 85, 86, 87, 88, 89, 90, 91, 92, 93, 94, 95, 96, 97, 98, 99, 100, 101, 102, 103, 104, 105, 106, 107, 108, 109, 110, 111, 112, 113, 114, 115, 116, 117, 118, 119, 120, 121, 122, 123, 124, 125, 126, 127, 128, 129, 130, 131, 132, 133, 134, 135, 136, 137, 138, 139, 140, 141, 142, 143, 144, 145, 146, 147, 148, 149, 150, 151, 152, 153, 154, 155, 156, 157, 158, 159, 160, 161, 162, 163, 164, 165, 166, 167, 168, 169, 170, 171, 172, 173, 174, 175, 176, 177, 178, 179, 180, 181, 182, 183, 184, 185, 186, 187, 188, 189, 190],
      "AcquisitionTime": ["153931.695000", "153933.185000", "153934.675000", "153936.165000", "153937.655000", "153939.145000", "153940.635000", "153942.125000", "153943.615000", "153945.105000", "153946.595000", "153948.085000", "153949.575000", "153951.065000", "153952.555000", "153954.045000", "153955.535000", "153957.025000", "153958.515000", "154000.005000", "154001.495000", "154002.985000", "154004.475000", "154005.965000", "154007.455000", "154008.945000", "154010.435000", "154011.925000", "154013.415000", "154014.905000", "154016.395000", "154017.885000", "154019.375000", "154020.865000", "154022.355000", "154023.845000", "154025.335000", "154026.825000", "154028.315000", "154029.805000", "154031.295000", "154032.785000", "154034.275000", "154035.765000", "154037.255000", "154038.745000", "154040.235000", "154041.725000", "154043.215000", "154044.705000", "154046.195000", "154047.685000", "154049.175000", "154050.665000", "154052.155000", "154053.645000", "154055.135000", "154056.625000", "154058.115000", "154059.605000", "154101.095000", "154102.585000", "154104.075000", "154105.565000", "154107.055000", "154108.545000", "154110.035000", "154111.525000", "154113.015000", "154114.505000", "154115.995000", "154117.485000", "154118.975000", "154120.465000", "154121.955000", "154123.445000", "154124.935000", "154126.425000", "154127.915000", "154129.405000", "154130.895000", "154132.385000", "154133.875000", "154135.365000", "154136.855000", "154138.345000", "154139.835000", "154141.325000", "154142.815000", "154144.305000", "154145.795000", "154147.285000", "154148.775000", "154150.265000", "154151.755000", "154153.245000", "154154.735000", "154156.225000", "154157.715000", "154159.205000", "154200.695000", "154202.185000", "154203.675000", "154205.165000", "154206.655000", "154208.145000", "154209.635000", "154211.125000", "154212.615000", "154214.105000", "154215.595000", "154217.085000", "154218.575000", "154220.065000", "154221.555000", "154223.045000", "154224.535000", "154226.025000", "154227.515000", "154229.005000", "154230.495000", "154231.985000", "154233.475000", "154234.965000", "154236.455000", "154237.945000", "154239.435000", "154240.925000", "154242.415000", "154243.905000", "154245.395000", "154246.885000", "154248.375000", "154249.865000", "154251.355000", "154252.845000", "154254.335000", "154255.825000", "154257.315000", "154258.805000", "154300.295000", "154301.785000", "154303.275000", "154304.765000", "154306.255000", "154307.745000", "154309.235000", "154310.725000", "154312.215000", "154313.705000", "154315.195000", "154316.685000", "154318.175000", "154319.665000", "154321.155000", "154322.645000", "154324.135000", "154325.625000", "154327.115000", "154328.605000", "154330.095000", "154331.585000", "154333.075000", "154334.565000", "154336.055000", "154337.545000", "154339.035000", "154340.525000", "154342.015000", "154343.505000", "154344.995000", "154346.485000", "154347.975000", "154349.465000", "154350.955000", "154352.445000", "154353.935000", "154355.425000", "154356.915000", "154358.405000", "154359.895000", "154401.385000", "154402.875000", "154404.365000", "154405.855000", "154407.345000", "154408.835000", "154410.325000", "154411.815000", "154413.305000"],
      "ContentTime": ["154047.449000", "154047.454000", "154047.458000", "154047.463000", "154047.467000", "154047.472000", "154047.476000", "154047.480000", "154047.483000", "154047.487000", "154047.490000", "154047.494000", "154047.497000", "154047.501000", "154047.504000", "154047.508000", "154047.511000", "154047.514000", "154047.522000", "154047.525000", "154047.528000", "154107.415000", "154107.419000", "154107.422000", "154107.426000", "154107.429000", "154107.432000", "154107.436000", "154107.439000", "154107.442000", "154107.446000", "154107.449000", "154107.457000", "154107.461000", "154107.464000", "154107.468000", "154107.471000", "154107.475000", "154107.478000", "154107.481000", "154107.485000", "154107.488000", "154127.416000", "154127.420000", "154127.424000", "154127.427000", "154127.430000", "154127.434000", "154127.437000", "154127.441000", "154127.444000", "154127.448000", "154127.451000", "154127.454000", "154127.458000", "154127.461000", "154127.465000", "154127.468000", "154127.471000", "154127.487000", "154127.491000", "154127.494000", "154147.416000", "154147.420000", "154147.423000", "154147.427000", "154147.430000", "154147.434000", "154147.437000", "154147.440000", "154147.444000", "154147.447000", "154147.451000", "154147.454000", "154147.457000", "154147.461000", "154147.464000", "154147.467000", "154147.471000", "154147.474000", "154147.477000", "154147.481000", "154207.416000", "154207.420000", "154207.423000", "154207.427000", "154207.430000", "154207.434000", "154207.437000", "154207.440000", "154207.443000", "154207.447000", "154207.450000", "154207.454000", "154207.457000", "154207.460000", "154207.464000", "154207.467000", "154207.470000", "154207.474000", "154207.477000", "154207.480000", "154247.416000", "154247.420000", "154247.424000", "154247.427000", "154247.430000", "154247.434000", "154247.437000", "154247.441000", "154247.444000", "154247.448000", "154247.451000", "154247.454000", "154247.458000", "154247.461000", "154247.464000", "154247.468000", "154247.471000", "154247.474000", "154247.478000", "154247.481000", "154247.484000", "154247.488000", "154247.491000", "154247.495000", "154247.498000", "154247.501000", "154247.505000", "154247.508000", "154327.415000", "154327.419000", "154327.422000", "154327.426000", "154327.429000", "154327.433000", "154327.436000", "154327.439000", "154327.443000", "154327.446000", "154327.450000", "154327.453000", "154327.456000", "154327.460000", "154327.463000", "154327.467000", "154327.470000", "154327.473000", "154327.477000", "154327.480000", "154327.483000", "154327.487000", "154327.490000", "154327.493000", "154327.497000", "154327.500000", "154327.503000", "154407.416000", "154407.420000", "154407.423000", "154407.427000", "154407.430000", "154407.433000", "154407.437000", "154407.440000", "154407.443000", "154407.447000", "154407.450000", "154407.453000", "154407.457000", "154407.460000", "154407.464000", "154407.467000", "154407.470000", "154407.474000", "154407.477000", "154407.481000", "154407.484000", "154407.487000", "154407.491000", "154407.494000", "154407.498000", "154407.501000", "154407.504000", "154415.922000", "154415.925000", "154415.929000", "154415.932000", "154415.936000", "154415.939000"],
      "InstanceCreationTime": ["154047.449000", "154047.454000", "154047.458000", "154047.463000", "154047.467000", "154047.472000", "154047.476000", "154047.480000", "154047.483000", "154047.487000", "154047.490000", "154047.494000", "154047.497000", "154047.501000", "154047.504000", "154047.508000", "154047.511000", "154047.514000", "154047.522000", "154047.525000", "154047.528000", "154107.415000", "154107.419000", "154107.422000", "154107.426000", "154107.429000", "154107.432000", "154107.436000", "154107.439000", "154107.442000", "154107.446000", "154107.449000", "154107.457000", "154107.461000", "154107.464000", "154107.468000", "154107.471000", "154107.475000", "154107.478000", "154107.481000", "154107.485000", "154107.488000", "154127.416000", "154127.420000", "154127.424000", "154127.427000", "154127.430000", "154127.434000", "154127.437000", "154127.441000", "154127.444000", "154127.448000", "154127.451000", "154127.454000", "154127.458000", "154127.461000", "154127.465000", "154127.468000", "154127.471000", "154127.487000", "154127.491000", "154127.494000", "154147.416000", "154147.420000", "154147.423000", "154147.427000", "154147.430000", "154147.434000", "154147.437000", "154147.440000", "154147.444000", "154147.447000", "154147.451000", "154147.454000", "154147.457000", "154147.461000", "154147.464000", "154147.467000", "154147.471000", "154147.474000", "154147.477000", "154147.481000", "154207.416000", "154207.420000", "154207.423000", "154207.427000", "154207.430000", "154207.434000", "154207.437000", "154207.440000", "154207.443000", "154207.447000", "154207.450000", "154207.454000", "154207.457000", "154207.460000", "154207.464000", "154207.467000", "154207.470000", "154207.474000", "154207.477000", "154207.480000", "154247.416000", "154247.420000", "154247.424000", "154247.427000", "154247.430000", "154247.434000", "154247.437000", "154247.441000", "154247.444000", "154247.448000", "154247.451000", "154247.454000", "154247.458000", "154247.461000", "154247.464000", "154247.468000", "154247.471000", "154247.474000", "154247.478000", "154247.481000", "154247.484000", "154247.488000", "154247.491000", "154247.495000", "154247.498000", "154247.501000", "154247.505000", "154247.508000", "154327.415000", "154327.419000", "154327.422000", "154327.426000", "154327.429000", "154327.433000", "154327.436000", "154327.439000", "154327.443000", "154327.446000", "154327.450000", "154327.453000", "154327.456000", "154327.460000", "154327.463000", "154327.467000", "154327.470000", "154327.473000", "154327.477000", "154327.480000", "154327.483000", "154327.487000", "154327.490000", "154327.493000", "154327.497000", "154327.500000", "154327.503000", "154407.416000", "154407.420000", "154407.423000", "154407.427000", "154407.430000", "154407.433000", "154407.437000", "154407.440000", "154407.443000", "154407.447000", "154407.450000", "154407.453000", "154407.457000", "154407.460000", "154407.464000", "154407.467000", "154407.470000", "154407.474000", "154407.477000", "154407.481000", "154407.484000", "154407.487000", "154407.491000", "154407.494000", "154407.498000", "154407.501000", "154407.504000", "154415.922000", "154415.925000", "154415.929000", "154415.932000", "154415.936000", "154415.939000"],
      "InstanceNumber": [1, 2, 3, 4, 5, 6, 7, 8, 9, 10, 11, 12, 13, 14, 15, 16, 17, 18, 19, 20, 21, 22, 23, 24, 25, 26, 27, 28, 29, 30, 31, 32, 33, 34, 35, 36, 37, 38, 39, 40, 41, 42, 43, 44, 45, 46, 47, 48, 49, 50, 51, 52, 53, 54, 55, 56, 57, 58, 59, 60, 61, 62, 63, 64, 65, 66, 67, 68, 69, 70, 71, 72, 73, 74, 75, 76, 77, 78, 79, 80, 81, 82, 83, 84, 85, 86, 87, 88, 89, 90, 91, 92, 93, 94, 95, 96, 97, 98, 99, 100, 101, 102, 103, 104, 105, 106, 107, 108, 109, 110, 111, 112, 113, 114, 115, 116, 117, 118, 119, 120, 121, 122, 123, 124, 125, 126, 127, 128, 129, 130, 131, 132, 133, 134, 135, 136, 137, 138, 139, 140, 141, 142, 143, 144, 145, 146, 147, 148, 149, 150, 151, 152, 153, 154, 155, 156, 157, 158, 159, 160, 161, 162, 163, 164, 165, 166, 167, 168, 169, 170, 171, 172, 173, 174, 175, 176, 177, 178, 179, 180, 181, 182, 183, 184, 185, 186, 187, 188, 189, 190],
      "LargestImagePixelValue": [44483, 43341, 41012, 40392, 39679, 39673, 39488, 39835, 40435, 40294, 40019, 39592, 40898, 40077, 39989, 40119, 39976, 39917, 39671, 40019, 39927, 40049, 39237, 39860, 39711, 39807, 39961, 39163, 39399, 39634, 39783, 39605, 39556, 39700, 39311, 39644, 39287, 39578, 39315, 41037, 40126, 39981, 39666, 39392, 39558, 39239, 39900, 40010, 39545, 39760, 39698, 39887, 39804, 39550, 39629, 39502, 39495, 39241, 40018, 39805, 39418, 39328, 39782, 39805, 39664, 39638, 39474, 39402, 40004, 40141, 40017, 39381, 39847, 39795, 39974, 40891, 40265, 39813, 39765, 39979, 39850, 39554, 39728, 39638, 39494, 39560, 39465, 39184, 40011, 40357, 40090, 39778, 39768, 39713, 39286, 39690, 39565, 39078, 39444, 39173, 39528, 39254, 39994, 40334, 39426, 39526, 39339, 39889, 40071, 39775, 39710, 40151, 39654, 39965, 40333, 39843, 39633, 39660, 39725, 40355, 40043, 39854, 40561, 40497, 40146, 40345, 41088, 39690, 39377, 39326, 40555, 40892, 39437, 39330, 39607, 40093, 39468, 40182, 40309, 39614, 40652, 40533, 41228, 40519, 40843, 40788, 40314, 40785, 40516, 40173, 40454, 40288, 40487, 40603, 40610, 40408, 42642, 42630, 42288, 41548, 40732, 39929, 40124, 40570, 40581, 40818, 40859, 40528, 40829, 41542, 41326, 39959, 40743, 40515, 40436, 40509, 40404, 41742, 42654, 42287, 41555, 40656, 40851, 41775, 41908, 41696, 40956, 40564, 41519, 40483],
      "WindowCenter": [10399.0, 10344.0, 10347.0, 10323.0, 10275.0, 10253.0, 10243.0, 10256.0, 10241.0, 10223.0, 10215.0, 10211.0, 10239.0, 10248.0, 10260.0, 10271.0, 10267.0, 10278.0, 10266.0, 10279.0, 10280.0, 10276.0, 10261.0, 10289.0, 10295.0, 10272.0, 10250.0, 10223.0, 10234.0, 10249.0, 10279.0, 10289.0, 10287.0, 10271.0, 10254.0, 10258.0, 10269.0, 10273.0, 10266.0, 10275.0, 10262.0, 10249.0, 10244.0, 10228.0, 10232.0, 10244.0, 10250.0, 10257.0, 10264.0, 10253.0, 10241.0, 10237.0, 10256.0, 10266.0, 10250.0, 10229.0, 10235.0, 10237.0, 10251.0, 10259.0, 10262.0, 10256.0, 10259.0, 10266.0, 10281.0, 10283.0, 10271.0, 10262.0, 10265.0, 10266.0, 10277.0, 10272.0, 10274.0, 10261.0, 10266.0, 10277.0, 10279.0, 10275.0, 10260.0, 10250.0, 10249.0, 10257.0, 10274.0, 10259.0, 10254.0, 10258.0, 10247.0, 10244.0, 10257.0, 10277.0, 10298.0, 10270.0, 10250.0, 10242.0, 10245.0, 10258.0, 10257.0, 10254.0, 10245.0, 10223.0, 10232.0, 10240.0, 10261.0, 10271.0, 10260.0, 10251.0, 10245.0, 10271.0, 10296.0, 10299.0, 10269.0, 10228.0, 10210.0, 10223.0, 10237.0, 10232.0, 10235.0, 10252.0, 10246.0, 10241.0, 10234.0, 10265.0, 10311.0, 10330.0, 10307.0, 10290.0, 10277.0, 10264.0, 10259.0, 10258.0, 10260.0, 10258.0, 10237.0, 10244.0, 10264.0, 10265.0, 10245.0, 10248.0, 10252.0, 10271.0, 10286.0, 10287.0, 10291.0, 10271.0, 10270.0, 10277.0, 10274.0, 10259.0, 10238.0, 10230.0, 10243.0, 10244.0, 10244.0, 10237.0, 10235.0, 10250.0, 10288.0, 10280.0, 10258.0, 10229.0, 10202.0, 10212.0, 10223.0, 10214.0, 10196.0, 10211.0, 10220.0, 10221.0, 10211.0, 10220.0, 10239.0, 10224.0, 10232.0, 10242.0, 10237.0, 10224.0, 10224.0, 10252.0, 10272.0, 10286.0, 10255.0, 10230.0, 10238.0, 10266.0, 10255.0, 10226.0, 10206.0, 10207.0, 10235.0, 10239.0],
      "WindowWidth": [22489.0, 22321.0, 22316.0, 22253.0, 22136.0, 22076.0, 22055.0, 22079.0, 22044.0, 21997.0, 21980.0, 21978.0, 22042.0, 22063.0, 22092.0, 22116.0, 22110.0, 22131.0, 22104.0, 22134.0, 22135.0, 22124.0, 22091.0, 22152.0, 22173.0, 22121.0, 22067.0, 22012.0, 22031.0, 22064.0, 22138.0, 22156.0, 22154.0, 22117.0, 22078.0, 22087.0, 22114.0, 22123.0, 22107.0, 22125.0, 22097.0, 22068.0, 22059.0, 22026.0, 22030.0, 22058.0, 22072.0, 22089.0, 22105.0, 22082.0, 22052.0, 22041.0, 22085.0, 22108.0, 22072.0, 22024.0, 22037.0, 22044.0, 22077.0, 22096.0, 22103.0, 22090.0, 22093.0, 22111.0, 22143.0, 22148.0, 22122.0, 22100.0, 22106.0, 22109.0, 22139.0, 22128.0, 22128.0, 22100.0, 22109.0, 22137.0, 22139.0, 22131.0, 22097.0, 22073.0, 22069.0, 22090.0, 22128.0, 22098.0, 22084.0, 22091.0, 22071.0, 22062.0, 22091.0, 22131.0, 22183.0, 22121.0, 22071.0, 22053.0, 22061.0, 22089.0, 22085.0, 22081.0, 22066.0, 22014.0, 22031.0, 22051.0, 22096.0, 22120.0, 22096.0, 22077.0, 22066.0, 22118.0, 22176.0, 22186.0, 22116.0, 22023.0, 21979.0, 22009.0, 22040.0, 22028.0, 22036.0, 22078.0, 22070.0, 22055.0, 22041.0, 22111.0, 22213.0, 22251.0, 22201.0, 22160.0, 22136.0, 22101.0, 22089.0, 22087.0, 22086.0, 22083.0, 22042.0, 22057.0, 22101.0, 22106.0, 22064.0, 22065.0, 22073.0, 22117.0, 22150.0, 22151.0, 22159.0, 22114.0, 22115.0, 22132.0, 22128.0, 22091.0, 22044.0, 22026.0, 22052.0, 22052.0, 22055.0, 22040.0, 22035.0, 22078.0, 22163.0, 22141.0, 22091.0, 22024.0, 21966.0, 21988.0, 22016.0, 21991.0, 21946.0, 21984.0, 22008.0, 22009.0, 21986.0, 22003.0, 22047.0, 22019.0, 22029.0, 22052.0, 22043.0, 22012.0, 22011.0, 22076.0, 22120.0, 22151.0, 22084.0, 22027.0, 22044.0, 22105.0, 22085.0, 22019.0, 21971.0, 21975.0, 22028.0, 22034.0]
    },
    "slices": {}
  }
}