{
  "AcquisitionMatrixPE": 104,
  "AcquisitionNumber": 1,
  "AcquisitionTime": "15:39:31.695000",
  "BandwidthPerPixelPhaseEncode": 17.17,
  "BaseResolution": 104,
  "BodyPartExamined": "BRAIN",
  "CoilString": "HC1-7;NC1_2",
  "ConsistencyInfo": "N4_VE11C_LATEST_20160120",
  "ConversionSoftware": "dcm2niix",
  "ConversionSoftwareVersion": "v1.0.20190902",
  "DerivedVendorReportedEchoSpacing": 0.000560011,
  "DeviceSerialNumber": "167006",
  "DwellTime": 2.1e-06,
  "EchoTime": 0.037,
  "EchoTrainLength": 104,
  "EffectiveEchoSpacing": 0.000560011,
  "FlipAngle": 52,
  "ImageComments": "Unaliased_MB4_PE3_LB",
  "ImageOrientationPatientDICOM": [0.997289, -0.0644941, 0.0354185, 0.0727113, 0.937561, -0.340136],
  "ImageType": [
    "ORIGINAL",
    "PRIMARY",
    "P",
    "MB",
    "ND",
    "MOSAIC"
],
  "ImagingFrequency": 123.259,
  "InPlanePhaseEncodingDirectionDICOM": "COL",
  "InstitutionAddress": "Chemin_Queen-Mary_4565_Montreal_District_CA_H3W_1W5",
  "InstitutionName": "IUGM",
  "InstitutionalDepartmentName": "Department",
  "MRAcquisitionType": "2D",
  "MagneticFieldStrength": 3,
  "Manufacturer": "Siemens",
  "ManufacturersModelName": "Prisma_fit",
  "Modality": "MR",
  "MultibandAccelerationFactor": 4,
  "PartialFourier": 1,
  "PatientPosition": "HFS",
  "PercentPhaseFOV": 100,
  "PhaseEncodingDirection": "j",
  "PhaseEncodingSteps": 104,
  "PhaseResolution": 1,
  "PixelBandwidth": 2290,
  "ProcedureStepDescription": "memory_things",
  "ProtocolName": "func_task-things_run-4",
  "PulseSequenceDetails": "%CustomerSeq%_cmrr_mbep2d_bold",
  "ReceiveCoilActiveElements": "HC1-7;NC1,2",
  "ReceiveCoilName": "HeadNeck_64",
  "ReconMatrixPE": 104,
  "RepetitionTime": 1.49,
  "SAR": 0.044156,
  "ScanOptions": "FS",
  "ScanningSequence": "EP",
  "SequenceName": "epfid2d1_104",
  "SequenceVariant": "SK_SS",
  "SeriesDescription": "func_task-things_run-4",
  "SeriesNumber": 20,
  "ShimSetting": [633, -7239, -8817, 608, 2, -152, -47, -6],
  "SliceThickness": 2,
  "SliceTiming": [0, 0.785, 0.0975, 0.8825, 0.1975, 0.98, 0.295, 1.0775, 0.3925, 1.1775, 0.49, 1.275, 0.5875, 1.3725, 0.6875, 0, 0.785, 0.0975, 0.8825, 0.1975, 0.98, 0.295, 1.0775, 0.3925, 1.1775, 0.49, 1.275, 0.5875, 1.3725, 0.6875, 0, 0.785, 0.0975, 0.8825, 0.1975, 0.98, 0.295, 1.0775, 0.3925, 1.1775, 0.49, 1.275, 0.5875, 1.3725, 0.6875, 0, 0.785, 0.0975, 0.8825, 0.1975, 0.98, 0.295, 1.0775, 0.3925, 1.1775, 0.49, 1.275, 0.5875, 1.3725, 0.6875],
  "SoftwareVersions": "syngo_MR_E11",
  "SpacingBetweenSlices": 2,
  "StationName": "MRC35049",
  "TaskName": "things",
  "TotalReadoutTime": 0.0576811,
  "TxRefAmp": 244.156,
  "WipMemBlock": "65efb6e4-e1ac-4fc2-9ccb-9ccaa3245a6e||Sequence: R016 ve11c/master r/e634e98; Dec 19 2017 11:00:25 by eja",
  "dcmmeta_affine": [
    [-1.9945787191390991, 0.14542268216609955, 0.022540466859936714, 99.39830780029297],
    [0.12898819148540497, 1.8751219511032104, -0.683578610420227, -71.60295867919922],
    [0.07083698362112045, 0.6802719831466675, 1.8794180154800415, -71.30261993408203],
    [0.0, 0.0, 0.0, 1.0]
],
  "dcmmeta_reorient_transform": [
    [0.0, -1.0, 0.0, 103.0],
    [1.0, 0.0, 0.0, 0.0],
    [0.0, 0.0, 1.0, 0.0],
    [0.0, 0.0, 0.0, 1.0]
],
  "dcmmeta_shape": [104, 104, 60, 190],
  "dcmmeta_slice_dim": 2,
  "dcmmeta_version": 0.6,
  "global": {
    "const": {
      "AcquisitionMatrix": [104, 0, 0, 104],
      "AngioFlag": "N",
      "BitsAllocated": 16,
      "BitsStored": 16,
      "BodyPartExamined": "BRAIN",
      "Columns": 832,
      "EchoNumbers": 1,
      "EchoTime": 37.0,
      "EchoTrainLength": 104,
      "FlipAngle": 52.0,
      "HighBit": 15,
      "ImageOrientationPatient": [0.99728934735605, -0.0644940935105, 0.03541849167311, 0.07271134359235, 0.93756097042401, -0.3401359834692],
      "ImagePositionPatient": [-893.33734587088, -757.12728688619, 220.59972505547],
      "ImageType": [
        "ORIGINAL",
        "PRIMARY",
        "P",
        "MB",
        "ND",
        "MOSAIC"
],
      "ImagedNucleus": "1H",
      "ImagingFrequency": 123.258941,
      "InPlanePhaseEncodingDirection": "COL",
      "LargestImagePixelValue": 4095,
      "MRAcquisitionType": "2D",
      "MagneticFieldStrength": 3.0,
      "Manufacturer": "SIEMENS",
      "ManufacturerModelName": "Prisma_fit",
      "Modality": "MR",
      "NumberOfAverages": 1.0,
      "NumberOfPhaseEncodingSteps": 104,
      "PercentPhaseFieldOfView": 100.0,
      "PercentSampling": 100.0,
      "PerformedProcedureStepStartTime": "143522.948000",
      "PhotometricInterpretation": "MONOCHROME2",
      "PixelBandwidth": 2290.0,
      "PixelRepresentation": 0,
      "PixelSpacing": [2.0, 2.0],
      "ProtocolName": "func_task-things_run-4",
      "RepetitionTime": 1490.0,
      "RescaleIntercept": -4096.0,
      "RescaleSlope": 2.0,
      "RescaleType": "US",
      "Rows": 832,
      "SAR": 0.04415601693437,
      "SamplesPerPixel": 1,
      "ScanOptions": "FS",
      "ScanningSequence": "EP",
      "SequenceName": "epfid2d1_104",
      "SequenceVariant": [
        "SK",
        "SS"
],
      "SeriesDescription": "func_task-things_run-4",
      "SeriesNumber": 20,
      "SeriesTime": "154047.562000",
      "SliceLocation": -41.410347809556,
      "SliceThickness": 2.0,
      "SmallestImagePixelValue": 0,
      "SoftwareVersions": "syngo MR E11",
      "SpacingBetweenSlices": 1.9999999732064,
      "SpecificCharacterSet": "ISO_IR 100",
      "StudyID": "1",
      "StudyTime": "143522.875000",
      "TransmitCoilName": "Body",
      "VariableFlipAngleFlag": "N",
      "WindowCenterWidthExplanation": "Algo1",
      "dBdt": 0.0},
    "slices": {}
  },
  "time": {
    "samples": {
      "AcquisitionNumber": [1, 2, 3, 4, 5, 6, 7, 8, 9, 10, 11, 12, 13, 14, 15, 16, 17, 18, 19, 20, 21, 22, 23, 24, 25, 26, 27, 28, 29, 30, 31, 32, 33, 34, 35, 36, 37, 38, 39, 40, 41, 42, 43, 44, 45, 46, 47, 48, 49, 50, 51, 52, 53, 54, 55, 56, 57, 58, 59, 60, 61, 62, 63, 64, 65, 66, 67, 68, 69, 70, 71, 72, 73, 74, 75, 76, 77, 78, 79, 80, 81, 82, 83, 84, 85, 86, 87, 88, 89, 90, 91, 92, 93, 94, 95, 96, 97, 98, 99, 100, 101, 102, 103, 104, 105, 106, 107, 108, 109, 110, 111, 112, 113, 114, 115, 116, 117, 118, 119, 120, 121, 122, 123, 124, 125, 126, 127, 128, 129, 130, 131, 132, 133, 134, 135, 136, 137, 138, 139, 140, 141, 142, 143, 144, 145, 146, 147, 148, 149, 150, 151, 152, 153, 154, 155, 156, 157, 158, 159, 160, 161, 162, 163, 164, 165, 166, 167, 168, 169, 170, 171, 172, 173, 174, 175, 176, 177, 178, 179, 180, 181, 182, 183, 184, 185, 186, 187, 188, 189, 190],
      "AcquisitionTime": ["153931.695000", "153933.185000", "153934.675000", "153936.165000", "153937.655000", "153939.145000", "153940.635000", "153942.125000", "153943.615000", "153945.105000", "153946.595000", "153948.085000", "153949.575000", "153951.065000", "153952.555000", "153954.045000", "153955.535000", "153957.025000", "153958.515000", "154000.005000", "154001.495000", "154002.985000", "154004.475000", "154005.965000", "154007.455000", "154008.945000", "154010.435000", "154011.925000", "154013.415000", "154014.905000", "154016.395000", "154017.885000", "154019.375000", "154020.865000", "154022.355000", "154023.845000", "154025.335000", "154026.825000", "154028.315000", "154029.805000", "154031.295000", "154032.785000", "154034.275000", "154035.765000", "154037.255000", "154038.745000", "154040.235000", "154041.725000", "154043.215000", "154044.705000", "154046.195000", "154047.685000", "154049.175000", "154050.665000", "154052.155000", "154053.645000", "154055.135000", "154056.625000", "154058.115000", "154059.605000", "154101.095000", "154102.585000", "154104.075000", "154105.565000", "154107.055000", "154108.545000", "154110.035000", "154111.525000", "154113.015000", "154114.505000", "154115.995000", "154117.485000", "154118.975000", "154120.465000", "154121.955000", "154123.445000", "154124.935000", "154126.425000", "154127.915000", "154129.405000", "154130.895000", "154132.385000", "154133.875000", "154135.365000", "154136.855000", "154138.345000", "154139.835000", "154141.325000", "154142.815000", "154144.305000", "154145.795000", "154147.285000", "154148.775000", "154150.265000", "154151.755000", "154153.245000", "154154.735000", "154156.225000", "154157.715000", "154159.205000", "154200.695000", "154202.185000", "154203.675000", "154205.165000", "154206.655000", "154208.145000", "154209.635000", "154211.125000", "154212.615000", "154214.105000", "154215.595000", "154217.085000", "154218.575000", "154220.065000", "154221.555000", "154223.045000", "154224.535000", "154226.025000", "154227.515000", "154229.005000", "154230.495000", "154231.985000", "154233.475000", "154234.965000", "154236.455000", "154237.945000", "154239.435000", "154240.925000", "154242.415000", "154243.905000", "154245.395000", "154246.885000", "154248.375000", "154249.865000", "154251.355000", "154252.845000", "154254.335000", "154255.825000", "154257.315000", "154258.805000", "154300.295000", "154301.785000", "154303.275000", "154304.765000", "154306.255000", "154307.745000", "154309.235000", "154310.725000", "154312.215000", "154313.705000", "154315.195000", "154316.685000", "154318.175000", "154319.665000", "154321.155000", "154322.645000", "154324.135000", "154325.625000", "154327.115000", "154328.605000", "154330.095000", "154331.585000", "154333.075000", "154334.565000", "154336.055000", "154337.545000", "154339.035000", "154340.525000", "154342.015000", "154343.505000", "154344.995000", "154346.485000", "154347.975000", "154349.465000", "154350.955000", "154352.445000", "154353.935000", "154355.425000", "154356.915000", "154358.405000", "154359.895000", "154401.385000", "154402.875000", "154404.365000", "154405.855000", "154407.345000", "154408.835000", "154410.325000", "154411.815000", "154413.305000"],
      "ContentTime": ["154047.564000", "154047.567000", "154047.570000", "154047.572000", "154047.575000", "154047.577000", "154047.580000", "154047.582000", "154047.585000", "154047.587000", "154047.590000", "154047.592000", "154047.595000", "154047.597000", "154047.600000", "154047.602000", "154047.605000", "154047.607000", "154047.610000", "154047.618000", "154047.620000", "154107.534000", "154107.537000", "154107.539000", "154107.542000", "154107.544000", "154107.547000", "154107.550000", "154107.553000", "154107.555000", "154107.558000", "154107.561000", "154107.563000", "154107.566000", "154107.568000", "154107.571000", "154107.574000", "154107.576000", "154107.579000", "154107.581000", "154107.584000", "154107.587000", "154127.985000", "154127.987000", "154127.990000", "154127.993000", "154127.995000", "154127.998000", "154128.000000", "154128.003000", "154128.006000", "154128.008000", "154128.011000", "154128.013000", "154128.016000", "154128.018000", "154128.021000", "154128.023000", "154128.026000", "154128.029000", "154128.031000", "154128.034000", "154147.527000", "154147.530000", "154147.532000", "154147.535000", "154147.537000", "154147.540000", "154147.543000", "154147.545000", "154147.548000", "154147.550000", "154147.553000", "154147.555000", "154147.558000", "154147.560000", "154147.563000", "154147.565000", "154147.568000", "154147.571000", "154147.573000", "154147.576000", "154207.526000", "154207.529000", "154207.532000", "154207.534000", "154207.537000", "154207.540000", "154207.542000", "154207.545000", "154207.548000", "154207.551000", "154207.558000", "154207.561000", "154207.563000", "154207.566000", "154207.570000", "154207.572000", "154207.575000", "154207.578000", "154207.580000", "154207.585000", "154247.574000", "154247.577000", "154247.579000", "154247.582000", "154247.584000", "154247.587000", "154247.589000", "154247.592000", "154247.594000", "154247.597000", "154247.599000", "154247.602000", "154247.604000", "154247.607000", "154247.609000", "154247.612000", "154247.614000", "154247.617000", "154247.619000", "154247.622000", "154247.624000", "154247.627000", "154247.629000", "154247.632000", "154247.634000", "154247.637000", "154247.639000", "154247.642000", "154327.547000", "154327.550000", "154327.552000", "154327.555000", "154327.557000", "154327.560000", "154327.562000", "154327.565000", "154327.567000", "154327.570000", "154327.573000", "154327.588000", "154327.591000", "154327.593000", "154327.596000", "154327.598000", "154327.601000", "154327.604000", "154327.607000", "154327.610000", "154327.612000", "154327.615000", "154327.618000", "154327.620000", "154327.623000", "154327.625000", "154327.628000", "154407.555000", "154407.558000", "154407.561000", "154407.563000", "154407.566000", "154407.569000", "154407.572000", "154407.574000", "154407.577000", "154407.580000", "154407.582000", "154407.585000", "154407.587000", "154407.590000", "154407.592000", "154407.595000", "154407.598000", "154407.600000", "154407.603000", "154407.605000", "154407.608000", "154407.610000", "154407.613000", "154407.615000", "154407.618000", "154407.621000", "154407.623000", "154415.962000", "154415.965000", "154415.968000", "154415.970000", "154415.973000", "154415.976000"],
      "InstanceCreationTime": ["154047.564000", "154047.567000", "154047.570000", "154047.572000", "154047.575000", "154047.577000", "154047.580000", "154047.582000", "154047.585000", "154047.587000", "154047.590000", "154047.592000", "154047.595000", "154047.597000", "154047.600000", "154047.602000", "154047.605000", "154047.607000", "154047.610000", "154047.618000", "154047.620000", "154107.534000", "154107.537000", "154107.539000", "154107.542000", "154107.544000", "154107.547000", "154107.550000", "154107.553000", "154107.555000", "154107.558000", "154107.561000", "154107.563000", "154107.566000", "154107.568000", "154107.571000", "154107.574000", "154107.576000", "154107.579000", "154107.581000", "154107.584000", "154107.587000", "154127.985000", "154127.987000", "154127.990000", "154127.993000", "154127.995000", "154127.998000", "154128.000000", "154128.003000", "154128.006000", "154128.008000", "154128.011000", "154128.013000", "154128.016000", "154128.018000", "154128.021000", "154128.023000", "154128.026000", "154128.029000", "154128.031000", "154128.034000", "154147.527000", "154147.530000", "154147.532000", "154147.535000", "154147.537000", "154147.540000", "154147.543000", "154147.545000", "154147.548000", "154147.550000", "154147.553000", "154147.555000", "154147.558000", "154147.560000", "154147.563000", "154147.565000", "154147.568000", "154147.571000", "154147.573000", "154147.576000", "154207.526000", "154207.529000", "154207.532000", "154207.534000", "154207.537000", "154207.540000", "154207.542000", "154207.545000", "154207.548000", "154207.551000", "154207.558000", "154207.561000", "154207.563000", "154207.566000", "154207.570000", "154207.572000", "154207.575000", "154207.578000", "154207.580000", "154207.585000", "154247.574000", "154247.577000", "154247.579000", "154247.582000", "154247.584000", "154247.587000", "154247.589000", "154247.592000", "154247.594000", "154247.597000", "154247.599000", "154247.602000", "154247.604000", "154247.607000", "154247.609000", "154247.612000", "154247.614000", "154247.617000", "154247.619000", "154247.622000", "154247.624000", "154247.627000", "154247.629000", "154247.632000", "154247.634000", "154247.637000", "154247.639000", "154247.642000", "154327.547000", "154327.550000", "154327.552000", "154327.555000", "154327.557000", "154327.560000", "154327.562000", "154327.565000", "154327.567000", "154327.570000", "154327.573000", "154327.588000", "154327.591000", "154327.593000", "154327.596000", "154327.598000", "154327.601000", "154327.604000", "154327.607000", "154327.610000", "154327.612000", "154327.615000", "154327.618000", "154327.620000", "154327.623000", "154327.625000", "154327.628000", "154407.555000", "154407.558000", "154407.561000", "154407.563000", "154407.566000", "154407.569000", "154407.572000", "154407.574000", "154407.577000", "154407.580000", "154407.582000", "154407.585000", "154407.587000", "154407.590000", "154407.592000", "154407.595000", "154407.598000", "154407.600000", "154407.603000", "154407.605000", "154407.608000", "154407.610000", "154407.613000", "154407.615000", "154407.618000", "154407.621000", "154407.623000", "154415.962000", "154415.965000", "154415.968000", "154415.970000", "154415.973000", "154415.976000"],
      "InstanceNumber": [1, 2, 3, 4, 5, 6, 7, 8, 9, 10, 11, 12, 13, 14, 15, 16, 17, 18, 19, 20, 21, 22, 23, 24, 25, 26, 27, 28, 29, 30, 31, 32, 33, 34, 35, 36, 37, 38, 39, 40, 41, 42, 43, 44, 45, 46, 47, 48, 49, 50, 51, 52, 53, 54, 55, 56, 57, 58, 59, 60, 61, 62, 63, 64, 65, 66, 67, 68, 69, 70, 71, 72, 73, 74, 75, 76, 77, 78, 79, 80, 81, 82, 83, 84, 85, 86, 87, 88, 89, 90, 91, 92, 93, 94, 95, 96, 97, 98, 99, 100, 101, 102, 103, 104, 105, 106, 107, 108, 109, 110, 111, 112, 113, 114, 115, 116, 117, 118, 119, 120, 121, 122, 123, 124, 125, 126, 127, 128, 129, 130, 131, 132, 133, 134, 135, 136, 137, 138, 139, 140, 141, 142, 143, 144, 145, 146, 147, 148, 149, 150, 151, 152, 153, 154, 155, 156, 157, 158, 159, 160, 161, 162, 163, 164, 165, 166, 167, 168, 169, 170, 171, 172, 173, 174, 175, 176, 177, 178, 179, 180, 181, 182, 183, 184, 185, 186, 187, 188, 189, 190],
      "WindowCenter": [4838.0, 4802.0, 4804.0, 4838.0, 4872.0, 4908.0, 4880.0, 4880.0, 4868.0, 4836.0, 4830.0, 4804.0, 4802.0, 4832.0, 4832.0, 4832.0, 4874.0, 4868.0, 4870.0, 4838.0, 4862.0, 4862.0, 4836.0, 4802.0, 4822.0, 4828.0, 4834.0, 4872.0, 4878.0, 4872.0, 4830.0, 4830.0, 4842.0, 4832.0, 4802.0, 4838.0, 4834.0, 4832.0, 4864.0, 4832.0, 4832.0, 4870.0, 4870.0, 4838.0, 4836.0, 4858.0, 4804.0, 4800.0, 4832.0, 4866.0, 4836.0, 4866.0, 4872.0, 4866.0, 4826.0, 4832.0, 4838.0, 4836.0, 4822.0, 4830.0, 4860.0, 4866.0, 4832.0, 4868.0, 4864.0, 4828.0, 4838.0, 4862.0, 4834.0, 4830.0, 4834.0, 4838.0, 4832.0, 4862.0, 4866.0, 4830.0, 4832.0, 4862.0, 4864.0, 4828.0, 4836.0, 4838.0, 4828.0, 4836.0, 4836.0, 4830.0, 4834.0, 4864.0, 4828.0, 4830.0, 4864.0, 4866.0, 4834.0, 4862.0, 4862.0, 4826.0, 4840.0, 4836.0, 4828.0, 4834.0, 4862.0, 4832.0, 4828.0, 4836.0, 4866.0, 4860.0, 4864.0, 4828.0, 4804.0, 4824.0, 4868.0, 4876.0, 4878.0, 4874.0, 4864.0, 4836.0, 4824.0, 4824.0, 4828.0, 4836.0, 4830.0, 4826.0, 4870.0, 4836.0, 4870.0, 4840.0, 4828.0, 4834.0, 4832.0, 4804.0, 4834.0, 4836.0, 4832.0, 4804.0, 4828.0, 4868.0, 4868.0, 4838.0, 4864.0, 4830.0, 4832.0, 4828.0, 4802.0, 4836.0, 4804.0, 4826.0, 4832.0, 4864.0, 4864.0, 4864.0, 4832.0, 4838.0, 4804.0, 4806.0, 4804.0, 4804.0, 4812.0, 4804.0, 4868.0, 4906.0, 4882.0, 4872.0, 4836.0, 4830.0, 4802.0, 4808.0, 4826.0, 4826.0, 4804.0, 4838.0, 4880.0, 4868.0, 4862.0, 4830.0, 4824.0, 4830.0, 4804.0, 4800.0, 4804.0, 4832.0, 4840.0, 4832.0, 4804.0, 4830.0, 4834.0, 4866.0, 4868.0, 4838.0, 4830.0, 4830.0],
      "WindowWidth": [18644.0, 18612.0, 18614.0, 18642.0, 18676.0, 18704.0, 18670.0, 18674.0, 18674.0, 18644.0, 18636.0, 18606.0, 18600.0, 18640.0, 18638.0, 18638.0, 18680.0, 18676.0, 18676.0, 18642.0, 18672.0, 18676.0, 18636.0, 18604.0, 18636.0, 18638.0, 18636.0, 18678.0, 18686.0, 18674.0, 18642.0, 18636.0, 18642.0, 18636.0, 18604.0, 18644.0, 18640.0, 18636.0, 18672.0, 18642.0, 18634.0, 18676.0, 18684.0, 18644.0, 18640.0, 18670.0, 18606.0, 18604.0, 18640.0, 18678.0, 18638.0, 18672.0, 18678.0, 18678.0, 18638.0, 18634.0, 18642.0, 18642.0, 18642.0, 18636.0, 18674.0, 18676.0, 18636.0, 18674.0, 18670.0, 18634.0, 18644.0, 18670.0, 18640.0, 18638.0, 18636.0, 18642.0, 18640.0, 18670.0, 18678.0, 18640.0, 18636.0, 18670.0, 18674.0, 18638.0, 18644.0, 18638.0, 18636.0, 18640.0, 18638.0, 18638.0, 18638.0, 18674.0, 18640.0, 18644.0, 18672.0, 18676.0, 18634.0, 18672.0, 18670.0, 18632.0, 18642.0, 18640.0, 18636.0, 18642.0, 18674.0, 18634.0, 18642.0, 18642.0, 18672.0, 18672.0, 18676.0, 18636.0, 18614.0, 18634.0, 18674.0, 18678.0, 18680.0, 18688.0, 18676.0, 18642.0, 18640.0, 18644.0, 18638.0, 18642.0, 18638.0, 18634.0, 18678.0, 18638.0, 18676.0, 18642.0, 18634.0, 18638.0, 18638.0, 18604.0, 18636.0, 18642.0, 18638.0, 18608.0, 18638.0, 18676.0, 18676.0, 18634.0, 18676.0, 18638.0, 18638.0, 18640.0, 18602.0, 18640.0, 18606.0, 18640.0, 18634.0, 18674.0, 18672.0, 18672.0, 18632.0, 18636.0, 18606.0, 18604.0, 18604.0, 18616.0, 18624.0, 18608.0, 18668.0, 18700.0, 18668.0, 18672.0, 18636.0, 18638.0, 18612.0, 18628.0, 18644.0, 18638.0, 18604.0, 18638.0, 18678.0, 18672.0, 18664.0, 18638.0, 18630.0, 18632.0, 18608.0, 18614.0, 18608.0, 18634.0, 18638.0, 18638.0, 18602.0, 18634.0, 18634.0, 18668.0, 18670.0, 18640.0, 18636.0, 18638.0]
    },
    "slices": {}
  }
}