{
  "AcquisitionMatrixPE": 104,
  "AcquisitionNumber": 1,
  "AcquisitionTime": "15:20:44.980000",
  "BandwidthPerPixelPhaseEncode": 17.17,
  "BaseResolution": 104,
  "BodyPartExamined": "BRAIN",
  "CoilString": "HC1-7;NC1_2",
  "ConsistencyInfo": "N4_VE11C_LATEST_20160120",
  "ConversionSoftware": "dcm2niix",
  "ConversionSoftwareVersion": "v1.0.20190902",
  "DerivedVendorReportedEchoSpacing": 0.000560011,
  "DeviceSerialNumber": "167006",
  "DwellTime": 2.1e-06,
  "EchoTime": 0.037,
  "EchoTrainLength": 104,
  "EffectiveEchoSpacing": 0.000560011,
  "FlipAngle": 52,
  "ImageComments": "Unaliased_MB4_PE3_LB",
  "ImageOrientationPatientDICOM": [0.997289, -0.0644941, 0.0354185, 0.0727113, 0.937561, -0.340136],
  "ImageType": [
    "ORIGINAL",
    "PRIMARY",
    "M",
    "MB",
    "ND",
    "MOSAIC"
],
  "ImagingFrequency": 123.259,
  "InPlanePhaseEncodingDirectionDICOM": "COL",
  "InstitutionAddress": "Chemin_Queen-Mary_4565_Montreal_District_CA_H3W_1W5",
  "InstitutionName": "IUGM",
  "InstitutionalDepartmentName": "Department",
  "MRAcquisitionType": "2D",
  "MagneticFieldStrength": 3,
  "Manufacturer": "Siemens",
  "ManufacturersModelName": "Prisma_fit",
  "Modality": "MR",
  "MultibandAccelerationFactor": 4,
  "PartialFourier": 1,
  "PatientPosition": "HFS",
  "PercentPhaseFOV": 100,
  "PhaseEncodingDirection": "j",
  "PhaseEncodingSteps": 104,
  "PhaseResolution": 1,
  "PixelBandwidth": 2290,
  "ProcedureStepDescription": "memory_things",
  "ProtocolName": "func_task-things_run-1",
  "PulseSequenceDetails": "%CustomerSeq%_cmrr_mbep2d_bold",
  "ReceiveCoilActiveElements": "HC1-7;NC1,2",
  "ReceiveCoilName": "HeadNeck_64",
  "ReconMatrixPE": 104,
  "RepetitionTime": 1.49,
  "SAR": 0.044156,
  "ScanOptions": "FS",
  "ScanningSequence": "EP",
  "SequenceName": "epfid2d1_104",
  "SequenceVariant": "SK_SS",
  "SeriesDescription": "func_task-things_run-1",
  "SeriesNumber": 10,
  "ShimSetting": [633, -7239, -8817, 608, 2, -152, -47, -6],
  "SliceThickness": 2,
  "SliceTiming": [0, 0.785, 0.0975, 0.8825, 0.195, 0.98, 0.295, 1.0775, 0.3925, 1.175, 0.49, 1.275, 0.5875, 1.3725, 0.685, 0, 0.785, 0.0975, 0.8825, 0.195, 0.98, 0.295, 1.0775, 0.3925, 1.175, 0.49, 1.275, 0.5875, 1.3725, 0.685, 0, 0.785, 0.0975, 0.8825, 0.195, 0.98, 0.295, 1.0775, 0.3925, 1.175, 0.49, 1.275, 0.5875, 1.3725, 0.685, 0, 0.785, 0.0975, 0.8825, 0.195, 0.98, 0.295, 1.0775, 0.3925, 1.175, 0.49, 1.275, 0.5875, 1.3725, 0.685],
  "SoftwareVersions": "syngo_MR_E11",
  "SpacingBetweenSlices": 2,
  "StationName": "MRC35049",
  "TaskName": "things",
  "TotalReadoutTime": 0.0576811,
  "TxRefAmp": 244.156,
  "WipMemBlock": "f0a1bf6a-aebc-4822-b2df-ef3d32f57d7e||Sequence: R016 ve11c/master r/e634e98; Dec 19 2017 11:00:25 by eja",
  "dcmmeta_affine": [
    [-1.9945787191390991, 0.14542268216609955, 0.022540466859936714, 99.39830780029297],
    [0.12898819148540497, 1.8751219511032104, -0.683578610420227, -71.60295867919922],
    [0.07083698362112045, 0.6802719831466675, 1.8794180154800415, -71.30261993408203],
    [0.0, 0.0, 0.0, 1.0]
],
  "dcmmeta_reorient_transform": [
    [0.0, -1.0, 0.0, 103.0],
    [1.0, 0.0, 0.0, 0.0],
    [0.0, 0.0, 1.0, 0.0],
    [0.0, 0.0, 0.0, 1.0]
],
  "dcmmeta_shape": [104, 104, 60, 190],
  "dcmmeta_slice_dim": 2,
  "dcmmeta_version": 0.6,
  "global": {
    "const": {
      "AcquisitionMatrix": [104, 0, 0, 104],
      "AngioFlag": "N",
      "BitsAllocated": 16,
      "BitsStored": 16,
      "BodyPartExamined": "BRAIN",
      "Columns": 832,
      "EchoNumbers": 1,
      "EchoTime": 37.0,
      "EchoTrainLength": 104,
      "FlipAngle": 52.0,
      "HighBit": 15,
      "ImageOrientationPatient": [0.99728934735605, -0.0644940935105, 0.03541849167311, 0.07271134359235, 0.93756097042401, -0.3401359834692],
      "ImagePositionPatient": [-893.33734587088, -757.12728688619, 220.59972505547],
      "ImageType": [
        "ORIGINAL",
        "PRIMARY",
        "M",
        "MB",
        "ND",
        "MOSAIC"
],
      "ImagedNucleus": "1H",
      "ImagingFrequency": 123.25893,
      "InPlanePhaseEncodingDirection": "COL",
      "MRAcquisitionType": "2D",
      "MagneticFieldStrength": 3.0,
      "Manufacturer": "SIEMENS",
      "ManufacturerModelName": "Prisma_fit",
      "Modality": "MR",
      "NumberOfAverages": 1.0,
      "NumberOfPhaseEncodingSteps": 104,
      "PercentPhaseFieldOfView": 100.0,
      "PercentSampling": 100.0,
      "PerformedProcedureStepStartTime": "143522.948000",
      "PhotometricInterpretation": "MONOCHROME2",
      "PixelBandwidth": 2290.0,
      "PixelRepresentation": 0,
      "PixelSpacing": [2.0, 2.0],
      "ProtocolName": "func_task-things_run-1",
      "RepetitionTime": 1490.0,
      "Rows": 832,
      "SAR": 0.04415601693437,
      "SamplesPerPixel": 1,
      "ScanOptions": "FS",
      "ScanningSequence": "EP",
      "SequenceName": "epfid2d1_104",
      "SequenceVariant": [
        "SK",
        "SS"
],
      "SeriesDescription": "func_task-things_run-1",
      "SeriesNumber": 10,
      "SeriesTime": "152207.454000",
      "SliceLocation": -41.410347809556,
      "SliceThickness": 2.0,
      "SmallestImagePixelValue": 0,
      "SoftwareVersions": "syngo MR E11",
      "SpacingBetweenSlices": 1.9999999732064,
      "SpecificCharacterSet": "ISO_IR 100",
      "StudyID": "1",
      "StudyTime": "143522.875000",
      "TransmitCoilName": "Body",
      "VariableFlipAngleFlag": "N",
      "WindowCenterWidthExplanation": "Algo1",
      "dBdt": 0.0},
    "slices": {}
  },
  "time": {
    "samples": {
      "AcquisitionNumber": [1, 2, 3, 4, 5, 6, 7, 8, 9, 10, 11, 12, 13, 14, 15, 16, 17, 18, 19, 20, 21, 22, 23, 24, 25, 26, 27, 28, 29, 30, 31, 32, 33, 34, 35, 36, 37, 38, 39, 40, 41, 42, 43, 44, 45, 46, 47, 48, 49, 50, 51, 52, 53, 54, 55, 56, 57, 58, 59, 60, 61, 62, 63, 64, 65, 66, 67, 68, 69, 70, 71, 72, 73, 74, 75, 76, 77, 78, 79, 80, 81, 82, 83, 84, 85, 86, 87, 88, 89, 90, 91, 92, 93, 94, 95, 96, 97, 98, 99, 100, 101, 102, 103, 104, 105, 106, 107, 108, 109, 110, 111, 112, 113, 114, 115, 116, 117, 118, 119, 120, 121, 122, 123, 124, 125, 126, 127, 128, 129, 130, 131, 132, 133, 134, 135, 136, 137, 138, 139, 140, 141, 142, 143, 144, 145, 146, 147, 148, 149, 150, 151, 152, 153, 154, 155, 156, 157, 158, 159, 160, 161, 162, 163, 164, 165, 166, 167, 168, 169, 170, 171, 172, 173, 174, 175, 176, 177, 178, 179, 180, 181, 182, 183, 184, 185, 186, 187, 188, 189, 190],
      "AcquisitionTime": ["152044.980000", "152046.470000", "152047.960000", "152049.450000", "152050.940000", "152052.430000", "152053.920000", "152055.410000", "152056.900000", "152058.390000", "152059.880000", "152101.370000", "152102.860000", "152104.350000", "152105.840000", "152107.330000", "152108.820000", "152110.310000", "152111.800000", "152113.290000", "152114.780000", "152116.270000", "152117.760000", "152119.250000", "152120.740000", "152122.230000", "152123.720000", "152125.210000", "152126.700000", "152128.190000", "152129.680000", "152131.170000", "152132.660000", "152134.150000", "152135.640000", "152137.130000", "152138.620000", "152140.110000", "152141.600000", "152143.090000", "152144.580000", "152146.070000", "152147.560000", "152149.050000", "152150.540000", "152152.030000", "152153.520000", "152155.010000", "152156.500000", "152157.990000", "152159.480000", "152200.970000", "152202.460000", "152203.950000", "152205.440000", "152206.930000", "152208.420000", "152209.910000", "152211.400000", "152212.890000", "152214.380000", "152215.870000", "152217.360000", "152218.850000", "152220.340000", "152221.830000", "152223.320000", "152224.810000", "152226.300000", "152227.790000", "152229.280000", "152230.770000", "152232.260000", "152233.750000", "152235.240000", "152236.730000", "152238.220000", "152239.710000", "152241.200000", "152242.690000", "152244.180000", "152245.670000", "152247.160000", "152248.650000", "152250.140000", "152251.630000", "152253.120000", "152254.610000", "152256.100000", "152257.590000", "152259.080000", "152300.570000", "152302.060000", "152303.550000", "152305.040000", "152306.530000", "152308.020000", "152309.510000", "152311.000000", "152312.490000", "152313.980000", "152315.470000", "152316.960000", "152318.450000", "152319.940000", "152321.430000", "152322.920000", "152324.410000", "152325.900000", "152327.390000", "152328.880000", "152330.370000", "152331.860000", "152333.350000", "152334.840000", "152336.330000", "152337.820000", "152339.310000", "152340.800000", "152342.290000", "152343.780000", "152345.270000", "152346.760000", "152348.250000", "152349.740000", "152351.230000", "152352.720000", "152354.210000", "152355.700000", "152357.190000", "152358.680000", "152400.170000", "152401.660000", "152403.150000", "152404.640000", "152406.130000", "152407.620000", "152409.110000", "152410.600000", "152412.090000", "152413.580000", "152415.070000", "152416.560000", "152418.050000", "152419.540000", "152421.030000", "152422.520000", "152424.010000", "152425.500000", "152426.990000", "152428.480000", "152429.970000", "152431.460000", "152432.950000", "152434.440000", "152435.930000", "152437.420000", "152438.910000", "152440.400000", "152441.890000", "152443.380000", "152444.870000", "152446.360000", "152447.850000", "152449.340000", "152450.830000", "152452.320000", "152453.810000", "152455.300000", "152456.790000", "152458.280000", "152459.770000", "152501.260000", "152502.750000", "152504.240000", "152505.730000", "152507.220000", "152508.710000", "152510.200000", "152511.690000", "152513.180000", "152514.670000", "152516.160000", "152517.650000", "152519.140000", "152520.630000", "152522.120000", "152523.610000", "152525.100000", "152526.590000"],
      "ContentTime": ["152207.458000", "152207.468000", "152207.471000", "152207.475000", "152207.478000", "152207.482000", "152207.485000", "152207.489000", "152207.492000", "152207.495000", "152207.499000", "152207.502000", "152207.505000", "152207.509000", "152207.512000", "152207.516000", "152207.519000", "152207.522000", "152207.526000", "152207.529000", "152207.532000", "152207.536000", "152207.544000", "152207.547000", "152207.550000", "152207.554000", "152207.557000", "152227.415000", "152227.419000", "152227.422000", "152227.426000", "152227.429000", "152227.432000", "152227.436000", "152227.439000", "152227.442000", "152227.446000", "152227.449000", "152227.452000", "152227.456000", "152227.459000", "152227.462000", "152227.465000", "152227.469000", "152227.472000", "152227.475000", "152227.479000", "152227.482000", "152247.416000", "152247.420000", "152247.423000", "152247.427000", "152247.430000", "152247.434000", "152247.437000", "152247.440000", "152247.443000", "152247.447000", "152247.450000", "152247.454000", "152247.457000", "152247.460000", "152247.463000", "152247.467000", "152247.470000", "152247.473000", "152247.477000", "152247.480000", "152307.416000", "152307.420000", "152307.423000", "152307.427000", "152307.430000", "152307.434000", "152307.437000", "152307.440000", "152307.444000", "152307.447000", "152307.454000", "152307.457000", "152307.461000", "152307.464000", "152307.467000", "152307.471000", "152307.474000", "152307.478000", "152307.481000", "152307.484000", "152327.416000", "152327.420000", "152327.438000", "152327.443000", "152327.446000", "152327.449000", "152327.453000", "152327.456000", "152327.460000", "152327.463000", "152327.466000", "152327.470000", "152327.473000", "152327.477000", "152327.480000", "152327.483000", "152327.487000", "152327.490000", "152327.494000", "152327.497000", "152407.416000", "152407.420000", "152407.423000", "152407.427000", "152407.430000", "152407.433000", "152407.437000", "152407.440000", "152407.443000", "152407.447000", "152407.450000", "152407.453000", "152407.457000", "152407.460000", "152407.463000", "152407.467000", "152407.470000", "152407.473000", "152407.477000", "152407.480000", "152407.483000", "152407.487000", "152407.490000", "152407.493000", "152407.497000", "152407.500000", "152407.503000", "152447.415000", "152447.419000", "152447.422000", "152447.426000", "152447.429000", "152447.433000", "152447.436000", "152447.440000", "152447.443000", "152447.447000", "152447.450000", "152447.453000", "152447.457000", "152447.460000", "152447.464000", "152447.467000", "152447.470000", "152447.474000", "152447.477000", "152447.480000", "152447.484000", "152447.487000", "152447.491000", "152447.494000", "152447.497000", "152447.501000", "152447.504000", "152507.416000", "152507.420000", "152507.423000", "152507.427000", "152507.430000", "152507.433000", "152507.437000", "152507.440000", "152507.444000", "152507.447000", "152507.450000", "152507.454000", "152507.457000", "152528.777000", "152528.781000", "152528.784000", "152528.788000", "152528.791000", "152528.795000", "152528.798000", "152528.802000", "152528.806000", "152528.809000", "152528.813000", "152528.816000", "152528.819000", "152528.823000", "152528.826000"],
      "InstanceCreationTime": ["152207.458000", "152207.468000", "152207.471000", "152207.475000", "152207.478000", "152207.482000", "152207.485000", "152207.489000", "152207.492000", "152207.495000", "152207.499000", "152207.502000", "152207.505000", "152207.509000", "152207.512000", "152207.516000", "152207.519000", "152207.522000", "152207.526000", "152207.529000", "152207.532000", "152207.536000", "152207.544000", "152207.547000", "152207.550000", "152207.554000", "152207.557000", "152227.415000", "152227.419000", "152227.422000", "152227.426000", "152227.429000", "152227.432000", "152227.436000", "152227.439000", "152227.442000", "152227.446000", "152227.449000", "152227.452000", "152227.456000", "152227.459000", "152227.462000", "152227.465000", "152227.469000", "152227.472000", "152227.475000", "152227.479000", "152227.482000", "152247.416000", "152247.420000", "152247.423000", "152247.427000", "152247.430000", "152247.434000", "152247.437000", "152247.440000", "152247.443000", "152247.447000", "152247.450000", "152247.454000", "152247.457000", "152247.460000", "152247.463000", "152247.467000", "152247.470000", "152247.473000", "152247.477000", "152247.480000", "152307.416000", "152307.420000", "152307.423000", "152307.427000", "152307.430000", "152307.434000", "152307.437000", "152307.440000", "152307.444000", "152307.447000", "152307.454000", "152307.457000", "152307.461000", "152307.464000", "152307.467000", "152307.471000", "152307.474000", "152307.478000", "152307.481000", "152307.484000", "152327.416000", "152327.420000", "152327.438000", "152327.443000", "152327.446000", "152327.449000", "152327.453000", "152327.456000", "152327.460000", "152327.463000", "152327.466000", "152327.470000", "152327.473000", "152327.477000", "152327.480000", "152327.483000", "152327.487000", "152327.490000", "152327.494000", "152327.497000", "152407.416000", "152407.420000", "152407.423000", "152407.427000", "152407.430000", "152407.433000", "152407.437000", "152407.440000", "152407.443000", "152407.447000", "152407.450000", "152407.453000", "152407.457000", "152407.460000", "152407.463000", "152407.467000", "152407.470000", "152407.473000", "152407.477000", "152407.480000", "152407.483000", "152407.487000", "152407.490000", "152407.493000", "152407.497000", "152407.500000", "152407.503000", "152447.415000", "152447.419000", "152447.422000", "152447.426000", "152447.429000", "152447.433000", "152447.436000", "152447.440000", "152447.443000", "152447.447000", "152447.450000", "152447.453000", "152447.457000", "152447.460000", "152447.464000", "152447.467000", "152447.470000", "152447.474000", "152447.477000", "152447.480000", "152447.484000", "152447.487000", "152447.491000", "152447.494000", "152447.497000", "152447.501000", "152447.504000", "152507.416000", "152507.420000", "152507.423000", "152507.427000", "152507.430000", "152507.433000", "152507.437000", "152507.440000", "152507.444000", "152507.447000", "152507.450000", "152507.454000", "152507.457000", "152528.777000", "152528.781000", "152528.784000", "152528.788000", "152528.791000", "152528.795000", "152528.798000", "152528.802000", "152528.806000", "152528.809000", "152528.813000", "152528.816000", "152528.819000", "152528.823000", "152528.826000"],
      "InstanceNumber": [1, 2, 3, 4, 5, 6, 7, 8, 9, 10, 11, 12, 13, 14, 15, 16, 17, 18, 19, 20, 21, 22, 23, 24, 25, 26, 27, 28, 29, 30, 31, 32, 33, 34, 35, 36, 37, 38, 39, 40, 41, 42, 43, 44, 45, 46, 47, 48, 49, 50, 51, 52, 53, 54, 55, 56, 57, 58, 59, 60, 61, 62, 63, 64, 65, 66, 67, 68, 69, 70, 71, 72, 73, 74, 75, 76, 77, 78, 79, 80, 81, 82, 83, 84, 85, 86, 87, 88, 89, 90, 91, 92, 93, 94, 95, 96, 97, 98, 99, 100, 101, 102, 103, 104, 105, 106, 107, 108, 109, 110, 111, 112, 113, 114, 115, 116, 117, 118, 119, 120, 121, 122, 123, 124, 125, 126, 127, 128, 129, 130, 131, 132, 133, 134, 135, 136, 137, 138, 139, 140, 141, 142, 143, 144, 145, 146, 147, 148, 149, 150, 151, 152, 153, 154, 155, 156, 157, 158, 159, 160, 161, 162, 163, 164, 165, 166, 167, 168, 169, 170, 171, 172, 173, 174, 175, 176, 177, 178, 179, 180, 181, 182, 183, 184, 185, 186, 187, 188, 189, 190],
      "LargestImagePixelValue": [46043, 44234, 44081, 43823, 42858, 43446, 42311, 42746, 42805, 42515, 42171, 42971, 42501, 42513, 42001, 42689, 41992, 42724, 41830, 42819, 43041, 41579, 42696, 41872, 42179, 42604, 42976, 41464, 41170, 41524, 41830, 42312, 42697, 42412, 42222, 42439, 41628, 42309, 41829, 41977, 42078, 42112, 42091, 41584, 42442, 42507, 41407, 42184, 42385, 41144, 40800, 42351, 41564, 41417, 42291, 41571, 41562, 41888, 42812, 42225, 41714, 42998, 41951, 41579, 42203, 42086, 42626, 41455, 41532, 42101, 41826, 42310, 42598, 41444, 41799, 42006, 41240, 42096, 41215, 41213, 40978, 41253, 40945, 42092, 41811, 41461, 41760, 41048, 41317, 41992, 41122, 41358, 41677, 41636, 41793, 42184, 41628, 42460, 42515, 41698, 42340, 41305, 42264, 41798, 41814, 42511, 40956, 41938, 41804, 41974, 42454, 41569, 42180, 41672, 42240, 41633, 42100, 42245, 41122, 42229, 42086, 41638, 41953, 42172, 41455, 41985, 41587, 41840, 41640, 41931, 41719, 40703, 42239, 41520, 40932, 42671, 41440, 42460, 41626, 42098, 41630, 41663, 41682, 40865, 42478, 41159, 40672, 42499, 41378, 40816, 41681, 40760, 41766, 40708, 41428, 41017, 41829, 41441, 40288, 42058, 41137, 42053, 41254, 41772, 42194, 41806, 42204, 40547, 41895, 41259, 41351, 41710, 40975, 42067, 42026, 40928, 40547, 41463, 40440, 41112, 41796, 41637, 41763, 41103, 40810, 41975, 41359, 40932, 42194, 41594],
      "WindowCenter": [10483.0, 10425.0, 10404.0, 10397.0, 10392.0, 10411.0, 10409.0, 10406.0, 10399.0, 10391.0, 10383.0, 10381.0, 10381.0, 10382.0, 10370.0, 10367.0, 10352.0, 10364.0, 10360.0, 10365.0, 10358.0, 10344.0, 10373.0, 10370.0, 10362.0, 10359.0, 10383.0, 10402.0, 10396.0, 10363.0, 10338.0, 10328.0, 10338.0, 10334.0, 10327.0, 10319.0, 10320.0, 10335.0, 10350.0, 10366.0, 10368.0, 10365.0, 10366.0, 10362.0, 10367.0, 10365.0, 10361.0, 10376.0, 10364.0, 10348.0, 10341.0, 10351.0, 10345.0, 10348.0, 10343.0, 10335.0, 10350.0, 10379.0, 10364.0, 10350.0, 10338.0, 10346.0, 10343.0, 10369.0, 10383.0, 10376.0, 10366.0, 10346.0, 10346.0, 10350.0, 10350.0, 10365.0, 10366.0, 10339.0, 10335.0, 10321.0, 10321.0, 10349.0, 10348.0, 10368.0, 10347.0, 10338.0, 10345.0, 10364.0, 10352.0, 10330.0, 10326.0, 10315.0, 10330.0, 10326.0, 10333.0, 10344.0, 10342.0, 10326.0, 10332.0, 10344.0, 10363.0, 10378.0, 10362.0, 10345.0, 10348.0, 10343.0, 10363.0, 10352.0, 10349.0, 10346.0, 10334.0, 10349.0, 10348.0, 10335.0, 10347.0, 10336.0, 10353.0, 10348.0, 10348.0, 10334.0, 10346.0, 10355.0, 10357.0, 10358.0, 10350.0, 10342.0, 10343.0, 10340.0, 10331.0, 10347.0, 10343.0, 10343.0, 10336.0, 10344.0, 10361.0, 10345.0, 10337.0, 10327.0, 10336.0, 10364.0, 10358.0, 10365.0, 10353.0, 10351.0, 10352.0, 10354.0, 10353.0, 10341.0, 10343.0, 10328.0, 10331.0, 10348.0, 10336.0, 10334.0, 10338.0, 10316.0, 10326.0, 10309.0, 10322.0, 10324.0, 10332.0, 10325.0, 10310.0, 10331.0, 10328.0, 10334.0, 10337.0, 10351.0, 10351.0, 10330.0, 10333.0, 10329.0, 10350.0, 10339.0, 10321.0, 10311.0, 10311.0, 10325.0, 10328.0, 10323.0, 10310.0, 10306.0, 10314.0, 10339.0, 10335.0, 10313.0, 10317.0, 10306.0, 10308.0, 10327.0, 10336.0, 10339.0, 10328.0, 10318.0],
      "WindowWidth": [22702.0, 22522.0, 22454.0, 22423.0, 22408.0, 22442.0, 22440.0, 22428.0, 22416.0, 22395.0, 22377.0, 22372.0, 22371.0, 22375.0, 22349.0, 22340.0, 22304.0, 22333.0, 22323.0, 22331.0, 22318.0, 22287.0, 22353.0, 22350.0, 22330.0, 22324.0, 22378.0, 22421.0, 22414.0, 22335.0, 22276.0, 22252.0, 22269.0, 22261.0, 22246.0, 22232.0, 22235.0, 22271.0, 22305.0, 22341.0, 22347.0, 22336.0, 22340.0, 22330.0, 22339.0, 22335.0, 22328.0, 22358.0, 22336.0, 22300.0, 22285.0, 22308.0, 22296.0, 22302.0, 22287.0, 22267.0, 22300.0, 22370.0, 22336.0, 22299.0, 22274.0, 22288.0, 22286.0, 22346.0, 22376.0, 22359.0, 22340.0, 22292.0, 22291.0, 22300.0, 22300.0, 22333.0, 22339.0, 22279.0, 22267.0, 22237.0, 22237.0, 22300.0, 22302.0, 22347.0, 22299.0, 22279.0, 22292.0, 22331.0, 22306.0, 22256.0, 22248.0, 22229.0, 22261.0, 22251.0, 22264.0, 22290.0, 22285.0, 22248.0, 22256.0, 22286.0, 22330.0, 22363.0, 22326.0, 22292.0, 22298.0, 22288.0, 22331.0, 22306.0, 22297.0, 22292.0, 22265.0, 22299.0, 22297.0, 22270.0, 22294.0, 22274.0, 22308.0, 22297.0, 22297.0, 22266.0, 22290.0, 22311.0, 22318.0, 22318.0, 22300.0, 22284.0, 22286.0, 22278.0, 22256.0, 22291.0, 22287.0, 22284.0, 22268.0, 22289.0, 22330.0, 22297.0, 22276.0, 22251.0, 22272.0, 22332.0, 22319.0, 22333.0, 22307.0, 22302.0, 22305.0, 22309.0, 22310.0, 22285.0, 22285.0, 22250.0, 22257.0, 22294.0, 22267.0, 22267.0, 22272.0, 22226.0, 22247.0, 22209.0, 22238.0, 22244.0, 22258.0, 22243.0, 22215.0, 22260.0, 22253.0, 22262.0, 22269.0, 22301.0, 22301.0, 22254.0, 22259.0, 22256.0, 22304.0, 22281.0, 22236.0, 22210.0, 22212.0, 22244.0, 22250.0, 22239.0, 22212.0, 22203.0, 22222.0, 22280.0, 22266.0, 22213.0, 22223.0, 22202.0, 22207.0, 22247.0, 22271.0, 22279.0, 22252.0, 22226.0]
    },
    "slices": {}
  }
}