{
  "AcquisitionMatrixPE": 104,
  "AcquisitionNumber": 1,
  "AcquisitionTime": "17:41:29.142500",
  "BandwidthPerPixelPhaseEncode": 17.17,
  "BaseResolution": 104,
  "BodyPartExamined": "BRAIN",
  "CoilString": "HC1-7;NC1_2",
  "ConsistencyInfo": "N4_VE11C_LATEST_20160120",
  "ConversionSoftware": "dcm2niix",
  "ConversionSoftwareVersion": "v1.0.20190902",
  "DerivedVendorReportedEchoSpacing": 0.000560011,
  "DeviceSerialNumber": "167006",
  "DwellTime": 2.1e-06,
  "EchoTime": 0.037,
  "EchoTrainLength": 104,
  "EffectiveEchoSpacing": 0.000560011,
  "FlipAngle": 52,
  "HeudiconvVersion": "0.10.0",
  "ImageComments": "Unaliased_MB4_PE3_LB",
  "ImageOrientationPatientDICOM": [0.998163, 0.0524954, 0.0302576, -0.03852, 0.935251, -0.351883],
  "ImageType": [
    "ORIGINAL",
    "PRIMARY",
    "M",
    "MB",
    "ND",
    "MOSAIC"
],
  "ImagingFrequency": 123.259,
  "InPlanePhaseEncodingDirectionDICOM": "COL",
  "InstitutionAddress": "Chemin_Queen-Mary_4565_Montreal_District_CA_H3W_1W5",
  "InstitutionName": "IUGM",
  "InstitutionalDepartmentName": "Department",
  "MRAcquisitionType": "2D",
  "MagneticFieldStrength": 3,
  "Manufacturer": "Siemens",
  "ManufacturersModelName": "Prisma_fit",
  "Modality": "MR",
  "MultibandAccelerationFactor": 4,
  "PartialFourier": 1,
  "PatientPosition": "HFS",
  "PercentPhaseFOV": 100,
  "PhaseEncodingDirection": "j",
  "PhaseEncodingSteps": 104,
  "PhaseResolution": 1,
  "PixelBandwidth": 2290,
  "ProcedureStepDescription": "memory_things",
  "ProtocolName": "func_task-things_run-4",
  "PulseSequenceDetails": "%CustomerSeq%_cmrr_mbep2d_bold",
  "ReceiveCoilActiveElements": "HC1-7;NC1,2",
  "ReceiveCoilName": "HeadNeck_64",
  "ReconMatrixPE": 104,
  "RepetitionTime": 1.49,
  "SAR": 0.0474717,
  "ScanOptions": "FS",
  "ScanningSequence": "EP",
  "SequenceName": "epfid2d1_104",
  "SequenceVariant": "SK_SS",
  "SeriesDescription": "func_task-things_run-4",
  "SeriesNumber": 19,
  "ShimSetting": [629, -7182, -8825, 635, 75, 62, -73, -23],
  "SliceThickness": 2,
  "SliceTiming": [0, 0.785, 0.0975, 0.8825, 0.195, 0.98, 0.295, 1.0775, 0.3925, 1.175, 0.49, 1.275, 0.5875, 1.3725, 0.685, 0, 0.785, 0.0975, 0.8825, 0.195, 0.98, 0.295, 1.0775, 0.3925, 1.175, 0.49, 1.275, 0.5875, 1.3725, 0.685, 0, 0.785, 0.0975, 0.8825, 0.195, 0.98, 0.295, 1.0775, 0.3925, 1.175, 0.49, 1.275, 0.5875, 1.3725, 0.685, 0, 0.785, 0.0975, 0.8825, 0.195, 0.98, 0.295, 1.0775, 0.3925, 1.175, 0.49, 1.275, 0.5875, 1.3725, 0.685],
  "SoftwareVersions": "syngo_MR_E11",
  "SpacingBetweenSlices": 2,
  "StationName": "MRC35049",
  "TaskName": "things",
  "TotalReadoutTime": 0.0576811,
  "TxRefAmp": 271.603,
  "WipMemBlock": "94dbf78d-7394-4258-8707-e7fdd3179b29||Sequence: R016 ve11c/master r/e634e98; Dec 19 2017 11:00:25 by eja",
  "dcmmeta_affine": [
    [-1.9963253736495972, -0.07704007625579834, 0.0935414582490921, 107.87152862548828],
    [-0.10499086230993271, 1.870502233505249, -0.7001417875289917, -55.37107849121094],
    [0.06051526218652725, 0.703765869140625, 1.8711097240447998, -66.67984008789062],
    [0.0, 0.0, 0.0, 1.0]
],
  "dcmmeta_reorient_transform": [
    [0.0, -1.0, 0.0, 103.0],
    [1.0, 0.0, 0.0, 0.0],
    [0.0, 0.0, 1.0, 0.0],
    [0.0, 0.0, 0.0, 1.0]
],
  "dcmmeta_shape": [104, 104, 60, 190],
  "dcmmeta_slice_dim": 2,
  "dcmmeta_version": 0.6,
  "global": {
    "const": {
      "AcquisitionMatrix": [104, 0, 0, 104],
      "AngioFlag": "N",
      "BitsAllocated": 16,
      "BitsStored": 16,
      "BodyPartExamined": "BRAIN",
      "Columns": 832,
      "EchoNumbers": 1,
      "EchoTime": 37.0,
      "EchoTrainLength": 104,
      "FlipAngle": 52.0,
      "HighBit": 15,
      "ImageOrientationPatient": [0.99816266491488, 0.0524954300898, 0.0302576302725, -0.0385200383225, 0.93525108902071, -0.351882945215],
      "ImagePositionPatient": [-798.55623234518, -856.37011015604, 239.95127845064],
      "ImageType": [
        "ORIGINAL",
        "PRIMARY",
        "M",
        "MB",
        "ND",
        "MOSAIC"
],
      "ImagedNucleus": "1H",
      "ImagingFrequency": 123.258908,
      "InPlanePhaseEncodingDirection": "COL",
      "MRAcquisitionType": "2D",
      "MagneticFieldStrength": 3.0,
      "Manufacturer": "SIEMENS",
      "ManufacturerModelName": "Prisma_fit",
      "Modality": "MR",
      "NumberOfAverages": 1.0,
      "NumberOfPhaseEncodingSteps": 104,
      "PercentPhaseFieldOfView": 100.0,
      "PercentSampling": 100.0,
      "PerformedProcedureStepStartTime": "170329.127000",
      "PhotometricInterpretation": "MONOCHROME2",
      "PixelBandwidth": 2290.0,
      "PixelRepresentation": 0,
      "PixelSpacing": [2.0, 2.0],
      "ProtocolName": "func_task-things_run-4",
      "RepetitionTime": 1490.0,
      "Rows": 832,
      "SAR": 0.04747165367028,
      "SamplesPerPixel": 1,
      "ScanOptions": "FS",
      "ScanningSequence": "EP",
      "SequenceName": "epfid2d1_104",
      "SequenceVariant": [
        "SK",
        "SS"
],
      "SeriesDescription": "func_task-things_run-4",
      "SeriesNumber": 19,
      "SeriesTime": "174254.560000",
      "SliceLocation": -37.953611708915,
      "SliceThickness": 2.0,
      "SmallestImagePixelValue": 0,
      "SoftwareVersions": "syngo MR E11",
      "SpacingBetweenSlices": 1.9999999783121,
      "SpecificCharacterSet": "ISO_IR 100",
      "StudyID": "1",
      "StudyTime": "170329.072000",
      "TransmitCoilName": "Body",
      "VariableFlipAngleFlag": "N",
      "WindowCenterWidthExplanation": "Algo1",
      "dBdt": 0.0},
    "slices": {}
  },
  "time": {
    "samples": {
      "AcquisitionNumber": [1, 2, 3, 4, 5, 6, 7, 8, 9, 10, 11, 12, 13, 14, 15, 16, 17, 18, 19, 20, 21, 22, 23, 24, 25, 26, 27, 28, 29, 30, 31, 32, 33, 34, 35, 36, 37, 38, 39, 40, 41, 42, 43, 44, 45, 46, 47, 48, 49, 50, 51, 52, 53, 54, 55, 56, 57, 58, 59, 60, 61, 62, 63, 64, 65, 66, 67, 68, 69, 70, 71, 72, 73, 74, 75, 76, 77, 78, 79, 80, 81, 82, 83, 84, 85, 86, 87, 88, 89, 90, 91, 92, 93, 94, 95, 96, 97, 98, 99, 100, 101, 102, 103, 104, 105, 106, 107, 108, 109, 110, 111, 112, 113, 114, 115, 116, 117, 118, 119, 120, 121, 122, 123, 124, 125, 126, 127, 128, 129, 130, 131, 132, 133, 134, 135, 136, 137, 138, 139, 140, 141, 142, 143, 144, 145, 146, 147, 148, 149, 150, 151, 152, 153, 154, 155, 156, 157, 158, 159, 160, 161, 162, 163, 164, 165, 166, 167, 168, 169, 170, 171, 172, 173, 174, 175, 176, 177, 178, 179, 180, 181, 182, 183, 184, 185, 186, 187, 188, 189, 190],
      "AcquisitionTime": ["174129.142500", "174130.632500", "174132.122500", "174133.612500", "174135.102500", "174136.592500", "174138.082500", "174139.572500", "174141.062500", "174142.552500", "174144.042500", "174145.532500", "174147.022500", "174148.512500", "174150.002500", "174151.492500", "174152.982500", "174154.472500", "174155.962500", "174157.452500", "174158.942500", "174200.432500", "174201.922500", "174203.412500", "174204.902500", "174206.392500", "174207.882500", "174209.372500", "174210.862500", "174212.352500", "174213.842500", "174215.332500", "174216.822500", "174218.312500", "174219.802500", "174221.292500", "174222.782500", "174224.272500", "174225.762500", "174227.252500", "174228.742500", "174230.232500", "174231.722500", "174233.212500", "174234.702500", "174236.192500", "174237.682500", "174239.172500", "174240.662500", "174242.152500", "174243.642500", "174245.132500", "174246.622500", "174248.112500", "174249.602500", "174251.092500", "174252.582500", "174254.072500", "174255.562500", "174257.052500", "174258.542500", "174300.032500", "174301.522500", "174303.012500", "174304.502500", "174305.992500", "174307.482500", "174308.972500", "174310.462500", "174311.952500", "174313.442500", "174314.932500", "174316.422500", "174317.912500", "174319.402500", "174320.892500", "174322.382500", "174323.872500", "174325.362500", "174326.852500", "174328.342500", "174329.832500", "174331.322500", "174332.812500", "174334.302500", "174335.792500", "174337.282500", "174338.772500", "174340.262500", "174341.752500", "174343.242500", "174344.732500", "174346.222500", "174347.712500", "174349.202500", "174350.692500", "174352.182500", "174353.672500", "174355.162500", "174356.652500", "174358.142500", "174359.632500", "174401.122500", "174402.612500", "174404.102500", "174405.592500", "174407.082500", "174408.572500", "174410.062500", "174411.552500", "174413.042500", "174414.532500", "174416.022500", "174417.512500", "174419.002500", "174420.492500", "174421.982500", "174423.472500", "174424.962500", "174426.452500", "174427.942500", "174429.432500", "174430.922500", "174432.412500", "174433.902500", "174435.392500", "174436.882500", "174438.372500", "174439.862500", "174441.352500", "174442.842500", "174444.332500", "174445.822500", "174447.312500", "174448.802500", "174450.292500", "174451.782500", "174453.272500", "174454.762500", "174456.252500", "174457.742500", "174459.232500", "174500.722500", "174502.212500", "174503.702500", "174505.192500", "174506.682500", "174508.172500", "174509.662500", "174511.152500", "174512.642500", "174514.132500", "174515.622500", "174517.112500", "174518.602500", "174520.092500", "174521.582500", "174523.072500", "174524.562500", "174526.052500", "174527.542500", "174529.032500", "174530.522500", "174532.012500", "174533.502500", "174534.992500", "174536.482500", "174537.972500", "174539.462500", "174540.952500", "174542.442500", "174543.932500", "174545.422500", "174546.912500", "174548.402500", "174549.892500", "174551.382500", "174552.872500", "174554.362500", "174555.852500", "174557.342500", "174558.832500", "174600.322500", "174601.812500", "174603.302500", "174604.792500", "174606.282500", "174607.772500", "174609.262500", "174610.752500"],
      "ContentTime": ["174254.564000", "174254.568000", "174254.572000", "174254.575000", "174254.578000", "174254.582000", "174254.585000", "174254.596000", "174254.599000", "174254.602000", "174254.606000", "174254.609000", "174254.612000", "174254.616000", "174254.619000", "174254.622000", "174254.626000", "174254.629000", "174254.632000", "174254.636000", "174254.639000", "174254.642000", "174254.646000", "174254.649000", "174254.652000", "174254.656000", "174254.659000", "174254.662000", "174254.665000", "174254.669000", "174254.672000", "174254.675000", "174314.531000", "174314.540000", "174314.543000", "174314.546000", "174314.550000", "174314.553000", "174314.556000", "174314.560000", "174314.563000", "174314.567000", "174314.570000", "174314.573000", "174314.576000", "174314.580000", "174314.583000", "174314.586000", "174314.590000", "174314.593000", "174314.596000", "174314.600000", "174334.531000", "174334.535000", "174334.539000", "174334.543000", "174334.546000", "174334.550000", "174334.553000", "174334.557000", "174334.560000", "174334.564000", "174334.567000", "174334.570000", "174334.574000", "174334.577000", "174334.580000", "174334.584000", "174334.587000", "174334.590000", "174334.594000", "174334.597000", "174354.531000", "174354.535000", "174354.538000", "174354.541000", "174354.545000", "174354.548000", "174354.552000", "174354.555000", "174354.558000", "174354.562000", "174354.566000", "174354.571000", "174354.575000", "174354.578000", "174354.582000", "174354.585000", "174354.588000", "174354.592000", "174354.595000", "174354.598000", "174434.531000", "174434.535000", "174434.538000", "174434.542000", "174434.545000", "174434.549000", "174434.552000", "174434.567000", "174434.571000", "174434.574000", "174434.578000", "174434.581000", "174434.584000", "174434.587000", "174434.591000", "174434.594000", "174434.598000", "174434.601000", "174434.604000", "174434.607000", "174434.611000", "174434.614000", "174434.617000", "174434.621000", "174434.624000", "174434.627000", "174434.631000", "174434.634000", "174434.637000", "174434.640000", "174434.644000", "174514.531000", "174514.535000", "174514.538000", "174514.541000", "174514.545000", "174514.548000", "174514.552000", "174514.555000", "174514.558000", "174514.562000", "174514.565000", "174514.568000", "174514.572000", "174514.575000", "174514.578000", "174514.582000", "174514.585000", "174514.588000", "174514.592000", "174514.595000", "174514.598000", "174514.601000", "174514.605000", "174514.608000", "174514.611000", "174514.615000", "174514.618000", "174554.531000", "174554.535000", "174554.538000", "174554.542000", "174554.545000", "174554.548000", "174554.552000", "174554.555000", "174554.559000", "174554.562000", "174554.565000", "174554.569000", "174554.572000", "174554.575000", "174554.584000", "174554.587000", "174554.591000", "174554.594000", "174554.598000", "174554.601000", "174554.604000", "174554.607000", "174554.611000", "174554.614000", "174554.617000", "174554.621000", "174554.624000", "174612.922000", "174612.926000", "174612.929000", "174612.932000", "174612.936000", "174612.939000", "174612.942000", "174612.946000", "174612.949000", "174612.952000", "174612.956000", "174612.959000", "174612.963000"],
      "InstanceCreationTime": ["174254.564000", "174254.568000", "174254.572000", "174254.575000", "174254.578000", "174254.582000", "174254.585000", "174254.596000", "174254.599000", "174254.602000", "174254.606000", "174254.609000", "174254.612000", "174254.616000", "174254.619000", "174254.622000", "174254.626000", "174254.629000", "174254.632000", "174254.636000", "174254.639000", "174254.642000", "174254.646000", "174254.649000", "174254.652000", "174254.656000", "174254.659000", "174254.662000", "174254.665000", "174254.669000", "174254.672000", "174254.675000", "174314.531000", "174314.540000", "174314.543000", "174314.546000", "174314.550000", "174314.553000", "174314.556000", "174314.560000", "174314.563000", "174314.567000", "174314.570000", "174314.573000", "174314.576000", "174314.580000", "174314.583000", "174314.586000", "174314.590000", "174314.593000", "174314.596000", "174314.600000", "174334.531000", "174334.535000", "174334.539000", "174334.543000", "174334.546000", "174334.550000", "174334.553000", "174334.557000", "174334.560000", "174334.564000", "174334.567000", "174334.570000", "174334.574000", "174334.577000", "174334.580000", "174334.584000", "174334.587000", "174334.590000", "174334.594000", "174334.597000", "174354.531000", "174354.535000", "174354.538000", "174354.541000", "174354.545000", "174354.548000", "174354.552000", "174354.555000", "174354.558000", "174354.562000", "174354.566000", "174354.571000", "174354.575000", "174354.578000", "174354.582000", "174354.585000", "174354.588000", "174354.592000", "174354.595000", "174354.598000", "174434.531000", "174434.535000", "174434.538000", "174434.542000", "174434.545000", "174434.549000", "174434.552000", "174434.567000", "174434.571000", "174434.574000", "174434.578000", "174434.581000", "174434.584000", "174434.587000", "174434.591000", "174434.594000", "174434.598000", "174434.601000", "174434.604000", "174434.607000", "174434.611000", "174434.614000", "174434.617000", "174434.621000", "174434.624000", "174434.627000", "174434.631000", "174434.634000", "174434.637000", "174434.640000", "174434.644000", "174514.531000", "174514.535000", "174514.538000", "174514.541000", "174514.545000", "174514.548000", "174514.552000", "174514.555000", "174514.558000", "174514.562000", "174514.565000", "174514.568000", "174514.572000", "174514.575000", "174514.578000", "174514.582000", "174514.585000", "174514.588000", "174514.592000", "174514.595000", "174514.598000", "174514.601000", "174514.605000", "174514.608000", "174514.611000", "174514.615000", "174514.618000", "174554.531000", "174554.535000", "174554.538000", "174554.542000", "174554.545000", "174554.548000", "174554.552000", "174554.555000", "174554.559000", "174554.562000", "174554.565000", "174554.569000", "174554.572000", "174554.575000", "174554.584000", "174554.587000", "174554.591000", "174554.594000", "174554.598000", "174554.601000", "174554.604000", "174554.607000", "174554.611000", "174554.614000", "174554.617000", "174554.621000", "174554.624000", "174612.922000", "174612.926000", "174612.929000", "174612.932000", "174612.936000", "174612.939000", "174612.942000", "174612.946000", "174612.949000", "174612.952000", "174612.956000", "174612.959000", "174612.963000"],
      "InstanceNumber": [1, 2, 3, 4, 5, 6, 7, 8, 9, 10, 11, 12, 13, 14, 15, 16, 17, 18, 19, 20, 21, 22, 23, 24, 25, 26, 27, 28, 29, 30, 31, 32, 33, 34, 35, 36, 37, 38, 39, 40, 41, 42, 43, 44, 45, 46, 47, 48, 49, 50, 51, 52, 53, 54, 55, 56, 57, 58, 59, 60, 61, 62, 63, 64, 65, 66, 67, 68, 69, 70, 71, 72, 73, 74, 75, 76, 77, 78, 79, 80, 81, 82, 83, 84, 85, 86, 87, 88, 89, 90, 91, 92, 93, 94, 95, 96, 97, 98, 99, 100, 101, 102, 103, 104, 105, 106, 107, 108, 109, 110, 111, 112, 113, 114, 115, 116, 117, 118, 119, 120, 121, 122, 123, 124, 125, 126, 127, 128, 129, 130, 131, 132, 133, 134, 135, 136, 137, 138, 139, 140, 141, 142, 143, 144, 145, 146, 147, 148, 149, 150, 151, 152, 153, 154, 155, 156, 157, 158, 159, 160, 161, 162, 163, 164, 165, 166, 167, 168, 169, 170, 171, 172, 173, 174, 175, 176, 177, 178, 179, 180, 181, 182, 183, 184, 185, 186, 187, 188, 189, 190],
      "LargestImagePixelValue": [40610, 40266, 40204, 37693, 37747, 37701, 38135, 37558, 38575, 38099, 37428, 37036, 37417, 37325, 37495, 37416, 37122, 37353, 37775, 37408, 38077, 37616, 37564, 37767, 37593, 37176, 38148, 39648, 38873, 38170, 37953, 37430, 37046, 36960, 37704, 36957, 37967, 37428, 39039, 39690, 40493, 39938, 40463, 40780, 40730, 40232, 41276, 38174, 39585, 39086, 40568, 40623, 40730, 39947, 40919, 41568, 40396, 40649, 40279, 40973, 40979, 41025, 40938, 42744, 41325, 41589, 40226, 40166, 40046, 40454, 40043, 41181, 41998, 39942, 41793, 40507, 40735, 40288, 42771, 40946, 41511, 41367, 41515, 40320, 40830, 40815, 41446, 39778, 41113, 41273, 41215, 39408, 40162, 41168, 42465, 41100, 41336, 41315, 42272, 41408, 41160, 40524, 42016, 40636, 40287, 40316, 40695, 40141, 40438, 40240, 41460, 42072, 40771, 40727, 41638, 41370, 40576, 40160, 41246, 41466, 40221, 40807, 40990, 38702, 39562, 40495, 40622, 40273, 41159, 41018, 41672, 40537, 40785, 40302, 40847, 40219, 40649, 40809, 40172, 40927, 41406, 41498, 41819, 40952, 40925, 40933, 39613, 39368, 44593, 40002, 39858, 39943, 40045, 41353, 40235, 40934, 41891, 42721, 41324, 40574, 40967, 41185, 40299, 39069, 39944, 40017, 38738, 38606, 39455, 38123, 38623, 38871, 39067, 38097, 41507, 37383, 38751, 38335, 40295, 42848, 38045, 38000, 38033, 38285, 38285, 42673, 38069, 37840, 37397, 37386],
      "WindowCenter": [10205.0, 10191.0, 10163.0, 10102.0, 10077.0, 10066.0, 10090.0, 10113.0, 10145.0, 10137.0, 10121.0, 10094.0, 10080.0, 10076.0, 10085.0, 10104.0, 10125.0, 10133.0, 10134.0, 10124.0, 10132.0, 10125.0, 10142.0, 10156.0, 10128.0, 10091.0, 10089.0, 10119.0, 10137.0, 10144.0, 10147.0, 10141.0, 10149.0, 10133.0, 10126.0, 10111.0, 10130.0, 10152.0, 10171.0, 10159.0, 10154.0, 10156.0, 10180.0, 10180.0, 10178.0, 10182.0, 10206.0, 10164.0, 10150.0, 10105.0, 10118.0, 10103.0, 10108.0, 10119.0, 10170.0, 10196.0, 10174.0, 10149.0, 10131.0, 10152.0, 10184.0, 10194.0, 10174.0, 10179.0, 10139.0, 10135.0, 10131.0, 10149.0, 10151.0, 10159.0, 10162.0, 10183.0, 10181.0, 10187.0, 10203.0, 10181.0, 10144.0, 10111.0, 10161.0, 10183.0, 10222.0, 10229.0, 10217.0, 10175.0, 10167.0, 10158.0, 10156.0, 10144.0, 10165.0, 10169.0, 10181.0, 10194.0, 10193.0, 10184.0, 10194.0, 10198.0, 10200.0, 10177.0, 10152.0, 10135.0, 10133.0, 10122.0, 10150.0, 10161.0, 10184.0, 10173.0, 10159.0, 10154.0, 10177.0, 10195.0, 10212.0, 10215.0, 10190.0, 10187.0, 10183.0, 10174.0, 10184.0, 10206.0, 10215.0, 10210.0, 10183.0, 10160.0, 10175.0, 10174.0, 10224.0, 10237.0, 10199.0, 10183.0, 10184.0, 10168.0, 10175.0, 10159.0, 10195.0, 10205.0, 10200.0, 10186.0, 10180.0, 10184.0, 10180.0, 10180.0, 10174.0, 10170.0, 10195.0, 10215.0, 10207.0, 10173.0, 10147.0, 10148.0, 10217.0, 10168.0, 10179.0, 10168.0, 10165.0, 10176.0, 10176.0, 10200.0, 10203.0, 10174.0, 10125.0, 10137.0, 10154.0, 10160.0, 10154.0, 10152.0, 10157.0, 10133.0, 10118.0, 10127.0, 10154.0, 10150.0, 10136.0, 10136.0, 10142.0, 10140.0, 10182.0, 10139.0, 10152.0, 10153.0, 10182.0, 10202.0, 10149.0, 10149.0, 10150.0, 10146.0, 10140.0, 10180.0, 10139.0, 10141.0, 10145.0, 10145.0],
      "WindowWidth": [21632.0, 21592.0, 21514.0, 21384.0, 21321.0, 21297.0, 21346.0, 21401.0, 21467.0, 21457.0, 21419.0, 21359.0, 21327.0, 21318.0, 21340.0, 21382.0, 21435.0, 21448.0, 21451.0, 21425.0, 21441.0, 21431.0, 21475.0, 21501.0, 21439.0, 21358.0, 21345.0, 21407.0, 21453.0, 21473.0, 21480.0, 21468.0, 21488.0, 21455.0, 21436.0, 21403.0, 21440.0, 21495.0, 21530.0, 21500.0, 21484.0, 21488.0, 21548.0, 21544.0, 21538.0, 21548.0, 21602.0, 21521.0, 21482.0, 21381.0, 21396.0, 21364.0, 21372.0, 21404.0, 21518.0, 21578.0, 21533.0, 21468.0, 21429.0, 21474.0, 21555.0, 21573.0, 21530.0, 21538.0, 21444.0, 21429.0, 21430.0, 21475.0, 21479.0, 21496.0, 21502.0, 21548.0, 21543.0, 21572.0, 21591.0, 21547.0, 21461.0, 21382.0, 21494.0, 21551.0, 21639.0, 21656.0, 21627.0, 21534.0, 21511.0, 21491.0, 21482.0, 21466.0, 21516.0, 21515.0, 21544.0, 21585.0, 21577.0, 21549.0, 21563.0, 21581.0, 21586.0, 21528.0, 21465.0, 21430.0, 21428.0, 21407.0, 21460.0, 21495.0, 21552.0, 21527.0, 21492.0, 21484.0, 21534.0, 21577.0, 21618.0, 21615.0, 21571.0, 21559.0, 21548.0, 21529.0, 21553.0, 21606.0, 21621.0, 21602.0, 21550.0, 21492.0, 21525.0, 21543.0, 21654.0, 21675.0, 21590.0, 21550.0, 21544.0, 21510.0, 21521.0, 21484.0, 21568.0, 21605.0, 21585.0, 21558.0, 21539.0, 21545.0, 21544.0, 21546.0, 21521.0, 21510.0, 21561.0, 21621.0, 21605.0, 21525.0, 21468.0, 21476.0, 21617.0, 21513.0, 21537.0, 21517.0, 21505.0, 21524.0, 21535.0, 21591.0, 21593.0, 21519.0, 21408.0, 21438.0, 21475.0, 21486.0, 21474.0, 21479.0, 21490.0, 21438.0, 21409.0, 21431.0, 21486.0, 21498.0, 21451.0, 21448.0, 21460.0, 21463.0, 21544.0, 21468.0, 21487.0, 21494.0, 21563.0, 21597.0, 21488.0, 21489.0, 21489.0, 21477.0, 21467.0, 21543.0, 21462.0, 21469.0, 21481.0, 21480.0]
    },
    "slices": {}
  }
}