{
  "AcquisitionMatrixPE": 104,
  "AcquisitionNumber": 1,
  "AcquisitionTime": "17:48:10.657500",
  "BandwidthPerPixelPhaseEncode": 17.17,
  "BaseResolution": 104,
  "BodyPartExamined": "BRAIN",
  "CoilString": "HC1-7;NC1_2",
  "ConsistencyInfo": "N4_VE11C_LATEST_20160120",
  "ConversionSoftware": "dcm2niix",
  "ConversionSoftwareVersion": "v1.0.20190902",
  "DerivedVendorReportedEchoSpacing": 0.000560011,
  "DeviceSerialNumber": "167006",
  "DwellTime": 2.1e-06,
  "EchoTime": 0.037,
  "EchoTrainLength": 104,
  "EffectiveEchoSpacing": 0.000560011,
  "FlipAngle": 52,
  "HeudiconvVersion": "0.10.0",
  "ImageComments": "Unaliased_MB4_PE3_LB",
  "ImageOrientationPatientDICOM": [0.998163, 0.0524954, 0.0302576, -0.03852, 0.935251, -0.351883],
  "ImageType": [
    "ORIGINAL",
    "PRIMARY",
    "M",
    "MB",
    "ND",
    "MOSAIC"
],
  "ImagingFrequency": 123.259,
  "InPlanePhaseEncodingDirectionDICOM": "COL",
  "InstitutionAddress": "Chemin_Queen-Mary_4565_Montreal_District_CA_H3W_1W5",
  "InstitutionName": "IUGM",
  "InstitutionalDepartmentName": "Department",
  "MRAcquisitionType": "2D",
  "MagneticFieldStrength": 3,
  "Manufacturer": "Siemens",
  "ManufacturersModelName": "Prisma_fit",
  "Modality": "MR",
  "MultibandAccelerationFactor": 4,
  "PartialFourier": 1,
  "PatientPosition": "HFS",
  "PercentPhaseFOV": 100,
  "PhaseEncodingDirection": "j",
  "PhaseEncodingSteps": 104,
  "PhaseResolution": 1,
  "PixelBandwidth": 2290,
  "ProcedureStepDescription": "memory_things",
  "ProtocolName": "func_task-things_run-5",
  "PulseSequenceDetails": "%CustomerSeq%_cmrr_mbep2d_bold",
  "ReceiveCoilActiveElements": "HC1-7;NC1,2",
  "ReceiveCoilName": "HeadNeck_64",
  "ReconMatrixPE": 104,
  "RepetitionTime": 1.49,
  "SAR": 0.0474717,
  "ScanOptions": "FS",
  "ScanningSequence": "EP",
  "SequenceName": "epfid2d1_104",
  "SequenceVariant": "SK_SS",
  "SeriesDescription": "func_task-things_run-5",
  "SeriesNumber": 22,
  "ShimSetting": [629, -7182, -8825, 635, 75, 62, -73, -23],
  "SliceThickness": 2,
  "SliceTiming": [0, 0.7825, 0.0975, 0.88, 0.195, 0.98, 0.2925, 1.0775, 0.39, 1.175, 0.49, 1.2725, 0.5875, 1.37, 0.685, 0, 0.7825, 0.0975, 0.88, 0.195, 0.98, 0.2925, 1.0775, 0.39, 1.175, 0.49, 1.2725, 0.5875, 1.37, 0.685, 0, 0.7825, 0.0975, 0.88, 0.195, 0.98, 0.2925, 1.0775, 0.39, 1.175, 0.49, 1.2725, 0.5875, 1.37, 0.685, 0, 0.7825, 0.0975, 0.88, 0.195, 0.98, 0.2925, 1.0775, 0.39, 1.175, 0.49, 1.2725, 0.5875, 1.37, 0.685],
  "SoftwareVersions": "syngo_MR_E11",
  "SpacingBetweenSlices": 2,
  "StationName": "MRC35049",
  "TaskName": "things",
  "TotalReadoutTime": 0.0576811,
  "TxRefAmp": 271.603,
  "WipMemBlock": "02fe395d-1522-4eeb-b95a-cd7612116ac9||Sequence: R016 ve11c/master r/e634e98; Dec 19 2017 11:00:25 by eja",
  "dcmmeta_affine": [
    [-1.9963253736495972, -0.07704007625579834, 0.0935414582490921, 107.87152862548828],
    [-0.10499086230993271, 1.870502233505249, -0.7001417875289917, -55.37107849121094],
    [0.06051526218652725, 0.703765869140625, 1.8711097240447998, -66.67984008789062],
    [0.0, 0.0, 0.0, 1.0]
],
  "dcmmeta_reorient_transform": [
    [0.0, -1.0, 0.0, 103.0],
    [1.0, 0.0, 0.0, 0.0],
    [0.0, 0.0, 1.0, 0.0],
    [0.0, 0.0, 0.0, 1.0]
],
  "dcmmeta_shape": [104, 104, 60, 190],
  "dcmmeta_slice_dim": 2,
  "dcmmeta_version": 0.6,
  "global": {
    "const": {
      "AcquisitionMatrix": [104, 0, 0, 104],
      "AngioFlag": "N",
      "BitsAllocated": 16,
      "BitsStored": 16,
      "BodyPartExamined": "BRAIN",
      "Columns": 832,
      "EchoNumbers": 1,
      "EchoTime": 37.0,
      "EchoTrainLength": 104,
      "FlipAngle": 52.0,
      "HighBit": 15,
      "ImageOrientationPatient": [0.99816266491488, 0.0524954300898, 0.0302576302725, -0.0385200383225, 0.93525108902071, -0.351882945215],
      "ImagePositionPatient": [-798.55623234518, -856.37011015604, 239.95127845064],
      "ImageType": [
        "ORIGINAL",
        "PRIMARY",
        "M",
        "MB",
        "ND",
        "MOSAIC"
],
      "ImagedNucleus": "1H",
      "ImagingFrequency": 123.258907,
      "InPlanePhaseEncodingDirection": "COL",
      "MRAcquisitionType": "2D",
      "MagneticFieldStrength": 3.0,
      "Manufacturer": "SIEMENS",
      "ManufacturerModelName": "Prisma_fit",
      "Modality": "MR",
      "NumberOfAverages": 1.0,
      "NumberOfPhaseEncodingSteps": 104,
      "PercentPhaseFieldOfView": 100.0,
      "PercentSampling": 100.0,
      "PerformedProcedureStepStartTime": "170329.127000",
      "PhotometricInterpretation": "MONOCHROME2",
      "PixelBandwidth": 2290.0,
      "PixelRepresentation": 0,
      "PixelSpacing": [2.0, 2.0],
      "ProtocolName": "func_task-things_run-5",
      "RepetitionTime": 1490.0,
      "Rows": 832,
      "SAR": 0.04747165367028,
      "SamplesPerPixel": 1,
      "ScanOptions": "FS",
      "ScanningSequence": "EP",
      "SequenceName": "epfid2d1_104",
      "SequenceVariant": [
        "SK",
        "SS"
],
      "SeriesDescription": "func_task-things_run-5",
      "SeriesNumber": 22,
      "SeriesTime": "174906.477000",
      "SliceLocation": -37.953611708915,
      "SliceThickness": 2.0,
      "SmallestImagePixelValue": 0,
      "SoftwareVersions": "syngo MR E11",
      "SpacingBetweenSlices": 1.9999999783121,
      "SpecificCharacterSet": "ISO_IR 100",
      "StudyID": "1",
      "StudyTime": "170329.072000",
      "TransmitCoilName": "Body",
      "VariableFlipAngleFlag": "N",
      "WindowCenterWidthExplanation": "Algo1",
      "dBdt": 0.0},
    "slices": {}
  },
  "time": {
    "samples": {
      "AcquisitionNumber": [1, 2, 3, 4, 5, 6, 7, 8, 9, 10, 11, 12, 13, 14, 15, 16, 17, 18, 19, 20, 21, 22, 23, 24, 25, 26, 27, 28, 29, 30, 31, 32, 33, 34, 35, 36, 37, 38, 39, 40, 41, 42, 43, 44, 45, 46, 47, 48, 49, 50, 51, 52, 53, 54, 55, 56, 57, 58, 59, 60, 61, 62, 63, 64, 65, 66, 67, 68, 69, 70, 71, 72, 73, 74, 75, 76, 77, 78, 79, 80, 81, 82, 83, 84, 85, 86, 87, 88, 89, 90, 91, 92, 93, 94, 95, 96, 97, 98, 99, 100, 101, 102, 103, 104, 105, 106, 107, 108, 109, 110, 111, 112, 113, 114, 115, 116, 117, 118, 119, 120, 121, 122, 123, 124, 125, 126, 127, 128, 129, 130, 131, 132, 133, 134, 135, 136, 137, 138, 139, 140, 141, 142, 143, 144, 145, 146, 147, 148, 149, 150, 151, 152, 153, 154, 155, 156, 157, 158, 159, 160, 161, 162, 163, 164, 165, 166, 167, 168, 169, 170, 171, 172, 173, 174, 175, 176, 177, 178, 179, 180, 181, 182, 183, 184, 185, 186, 187, 188, 189, 190],
      "AcquisitionTime": ["174810.657500", "174812.147500", "174813.637500", "174815.127500", "174816.617500", "174818.107500", "174819.597500", "174821.087500", "174822.577500", "174824.067500", "174825.557500", "174827.047500", "174828.537500", "174830.027500", "174831.517500", "174833.007500", "174834.497500", "174835.987500", "174837.477500", "174838.967500", "174840.457500", "174841.947500", "174843.437500", "174844.927500", "174846.417500", "174847.907500", "174849.397500", "174850.887500", "174852.377500", "174853.867500", "174855.357500", "174856.847500", "174858.337500", "174859.827500", "174901.317500", "174902.807500", "174904.297500", "174905.787500", "174907.277500", "174908.767500", "174910.257500", "174911.747500", "174913.237500", "174914.727500", "174916.217500", "174917.707500", "174919.197500", "174920.687500", "174922.177500", "174923.667500", "174925.157500", "174926.647500", "174928.137500", "174929.627500", "174931.117500", "174932.607500", "174934.097500", "174935.587500", "174937.077500", "174938.567500", "174940.057500", "174941.547500", "174943.037500", "174944.527500", "174946.017500", "174947.507500", "174948.997500", "174950.487500", "174951.977500", "174953.467500", "174954.957500", "174956.447500", "174957.937500", "174959.427500", "175000.917500", "175002.407500", "175003.897500", "175005.387500", "175006.877500", "175008.367500", "175009.857500", "175011.347500", "175012.837500", "175014.327500", "175015.817500", "175017.307500", "175018.797500", "175020.287500", "175021.777500", "175023.267500", "175024.757500", "175026.247500", "175027.737500", "175029.227500", "175030.717500", "175032.207500", "175033.697500", "175035.187500", "175036.677500", "175038.167500", "175039.657500", "175041.147500", "175042.637500", "175044.127500", "175045.617500", "175047.107500", "175048.597500", "175050.087500", "175051.577500", "175053.067500", "175054.557500", "175056.047500", "175057.537500", "175059.027500", "175100.517500", "175102.007500", "175103.497500", "175104.987500", "175106.477500", "175107.967500", "175109.457500", "175110.947500", "175112.437500", "175113.927500", "175115.417500", "175116.907500", "175118.397500", "175119.887500", "175121.377500", "175122.867500", "175124.357500", "175125.847500", "175127.337500", "175128.827500", "175130.317500", "175131.807500", "175133.297500", "175134.787500", "175136.277500", "175137.767500", "175139.257500", "175140.747500", "175142.237500", "175143.727500", "175145.217500", "175146.707500", "175148.197500", "175149.687500", "175151.177500", "175152.667500", "175154.157500", "175155.647500", "175157.137500", "175158.627500", "175200.117500", "175201.607500", "175203.097500", "175204.587500", "175206.077500", "175207.567500", "175209.057500", "175210.547500", "175212.037500", "175213.527500", "175215.017500", "175216.507500", "175217.997500", "175219.487500", "175220.977500", "175222.467500", "175223.957500", "175225.447500", "175226.937500", "175228.427500", "175229.917500", "175231.407500", "175232.897500", "175234.387500", "175235.877500", "175237.367500", "175238.857500", "175240.347500", "175241.837500", "175243.327500", "175244.817500", "175246.307500", "175247.797500", "175249.287500", "175250.777500", "175252.267500"],
      "ContentTime": ["174906.481000", "174926.431000", "174926.435000", "174926.438000", "174926.441000", "174926.445000", "174926.448000", "174926.451000", "174926.464000", "174926.467000", "174926.471000", "174926.474000", "174926.477000", "174926.480000", "174926.484000", "174926.487000", "174926.491000", "174926.494000", "174926.498000", "174926.501000", "174926.504000", "174946.431000", "174946.435000", "174946.438000", "174946.441000", "174946.445000", "174946.448000", "174946.451000", "174946.455000", "174946.458000", "174946.461000", "174946.465000", "174946.468000", "174946.471000", "174946.475000", "174946.478000", "174946.481000", "174946.484000", "174946.488000", "174946.491000", "174946.494000", "175006.431000", "175006.435000", "175006.438000", "175006.442000", "175006.445000", "175006.448000", "175006.452000", "175006.455000", "175006.459000", "175006.462000", "175006.465000", "175006.469000", "175006.472000", "175006.475000", "175006.479000", "175006.482000", "175006.485000", "175006.489000", "175006.492000", "175006.495000", "175026.431000", "175026.435000", "175026.438000", "175026.442000", "175026.445000", "175026.449000", "175026.452000", "175026.455000", "175026.459000", "175026.462000", "175026.466000", "175026.469000", "175026.472000", "175026.476000", "175026.479000", "175026.482000", "175026.486000", "175026.489000", "175026.492000", "175026.496000", "175046.432000", "175046.436000", "175046.439000", "175046.443000", "175046.446000", "175046.449000", "175046.453000", "175046.456000", "175046.459000", "175046.463000", "175046.466000", "175046.469000", "175046.473000", "175046.476000", "175046.479000", "175046.483000", "175046.486000", "175046.489000", "175046.493000", "175046.496000", "175126.432000", "175126.436000", "175126.439000", "175126.443000", "175126.446000", "175126.449000", "175126.453000", "175126.456000", "175126.459000", "175126.463000", "175126.466000", "175126.469000", "175126.473000", "175126.476000", "175126.479000", "175126.483000", "175126.486000", "175126.489000", "175126.493000", "175126.496000", "175126.500000", "175126.503000", "175126.506000", "175126.510000", "175126.513000", "175126.516000", "175126.520000", "175126.523000", "175126.526000", "175126.530000", "175206.431000", "175206.435000", "175206.438000", "175206.442000", "175206.445000", "175206.449000", "175206.452000", "175206.455000", "175206.459000", "175206.462000", "175206.465000", "175206.469000", "175206.472000", "175206.475000", "175206.479000", "175206.482000", "175206.485000", "175206.489000", "175206.492000", "175206.495000", "175206.499000", "175206.502000", "175206.505000", "175206.509000", "175206.512000", "175206.515000", "175206.519000", "175246.431000", "175246.435000", "175246.438000", "175246.442000", "175246.447000", "175246.452000", "175246.455000", "175246.459000", "175246.462000", "175246.466000", "175246.469000", "175246.473000", "175246.476000", "175246.479000", "175246.483000", "175246.486000", "175246.489000", "175246.493000", "175246.496000", "175246.499000", "175246.503000", "175246.506000", "175246.509000", "175246.513000", "175246.516000", "175246.520000", "175253.967000", "175253.970000", "175253.974000", "175253.977000", "175253.981000", "175253.984000"],
      "InstanceCreationTime": ["174906.481000", "174926.431000", "174926.435000", "174926.438000", "174926.441000", "174926.445000", "174926.448000", "174926.451000", "174926.464000", "174926.467000", "174926.471000", "174926.474000", "174926.477000", "174926.480000", "174926.484000", "174926.487000", "174926.491000", "174926.494000", "174926.498000", "174926.501000", "174926.504000", "174946.431000", "174946.435000", "174946.438000", "174946.441000", "174946.445000", "174946.448000", "174946.451000", "174946.455000", "174946.458000", "174946.461000", "174946.465000", "174946.468000", "174946.471000", "174946.475000", "174946.478000", "174946.481000", "174946.484000", "174946.488000", "174946.491000", "174946.494000", "175006.431000", "175006.435000", "175006.438000", "175006.442000", "175006.445000", "175006.448000", "175006.452000", "175006.455000", "175006.459000", "175006.462000", "175006.465000", "175006.469000", "175006.472000", "175006.475000", "175006.479000", "175006.482000", "175006.485000", "175006.489000", "175006.492000", "175006.495000", "175026.431000", "175026.435000", "175026.438000", "175026.442000", "175026.445000", "175026.449000", "175026.452000", "175026.455000", "175026.459000", "175026.462000", "175026.466000", "175026.469000", "175026.472000", "175026.476000", "175026.479000", "175026.482000", "175026.486000", "175026.489000", "175026.492000", "175026.496000", "175046.432000", "175046.436000", "175046.439000", "175046.443000", "175046.446000", "175046.449000", "175046.453000", "175046.456000", "175046.459000", "175046.463000", "175046.466000", "175046.469000", "175046.473000", "175046.476000", "175046.479000", "175046.483000", "175046.486000", "175046.489000", "175046.493000", "175046.496000", "175126.432000", "175126.436000", "175126.439000", "175126.443000", "175126.446000", "175126.449000", "175126.453000", "175126.456000", "175126.459000", "175126.463000", "175126.466000", "175126.469000", "175126.473000", "175126.476000", "175126.479000", "175126.483000", "175126.486000", "175126.489000", "175126.493000", "175126.496000", "175126.500000", "175126.503000", "175126.506000", "175126.510000", "175126.513000", "175126.516000", "175126.520000", "175126.523000", "175126.526000", "175126.530000", "175206.431000", "175206.435000", "175206.438000", "175206.442000", "175206.445000", "175206.449000", "175206.452000", "175206.455000", "175206.459000", "175206.462000", "175206.465000", "175206.469000", "175206.472000", "175206.475000", "175206.479000", "175206.482000", "175206.485000", "175206.489000", "175206.492000", "175206.495000", "175206.499000", "175206.502000", "175206.505000", "175206.509000", "175206.512000", "175206.515000", "175206.519000", "175246.431000", "175246.435000", "175246.438000", "175246.442000", "175246.447000", "175246.452000", "175246.455000", "175246.459000", "175246.462000", "175246.466000", "175246.469000", "175246.473000", "175246.476000", "175246.479000", "175246.483000", "175246.486000", "175246.489000", "175246.493000", "175246.496000", "175246.499000", "175246.503000", "175246.506000", "175246.509000", "175246.513000", "175246.516000", "175246.520000", "175253.967000", "175253.970000", "175253.974000", "175253.977000", "175253.981000", "175253.984000"],
      "InstanceNumber": [1, 2, 3, 4, 5, 6, 7, 8, 9, 10, 11, 12, 13, 14, 15, 16, 17, 18, 19, 20, 21, 22, 23, 24, 25, 26, 27, 28, 29, 30, 31, 32, 33, 34, 35, 36, 37, 38, 39, 40, 41, 42, 43, 44, 45, 46, 47, 48, 49, 50, 51, 52, 53, 54, 55, 56, 57, 58, 59, 60, 61, 62, 63, 64, 65, 66, 67, 68, 69, 70, 71, 72, 73, 74, 75, 76, 77, 78, 79, 80, 81, 82, 83, 84, 85, 86, 87, 88, 89, 90, 91, 92, 93, 94, 95, 96, 97, 98, 99, 100, 101, 102, 103, 104, 105, 106, 107, 108, 109, 110, 111, 112, 113, 114, 115, 116, 117, 118, 119, 120, 121, 122, 123, 124, 125, 126, 127, 128, 129, 130, 131, 132, 133, 134, 135, 136, 137, 138, 139, 140, 141, 142, 143, 144, 145, 146, 147, 148, 149, 150, 151, 152, 153, 154, 155, 156, 157, 158, 159, 160, 161, 162, 163, 164, 165, 166, 167, 168, 169, 170, 171, 172, 173, 174, 175, 176, 177, 178, 179, 180, 181, 182, 183, 184, 185, 186, 187, 188, 189, 190],
      "LargestImagePixelValue": [41459, 40773, 40444, 39813, 40338, 39026, 40659, 39974, 40659, 40526, 40666, 40556, 41439, 41588, 41111, 39675, 40173, 40824, 41385, 41428, 40785, 40716, 40724, 41574, 41353, 41001, 40942, 41648, 41437, 41440, 40913, 40743, 41478, 41773, 40958, 40440, 42374, 40720, 39907, 40294, 40595, 40458, 40256, 39726, 39834, 40518, 39917, 39829, 39863, 40880, 39821, 45598, 39089, 44900, 40017, 39864, 39435, 39969, 54035, 39022, 40573, 40902, 41306, 40861, 39276, 38630, 39956, 39949, 40035, 41494, 39094, 37642, 37705, 39762, 41364, 44444, 40945, 41871, 40482, 37210, 37314, 38148, 37475, 37218, 38806, 43622, 39117, 38401, 38707, 36950, 36468, 36719, 36564, 39274, 37146, 37406, 42117, 36666, 37505, 39053, 38647, 39820, 40069, 39619, 38757, 39680, 38071, 39183, 39750, 39301, 40808, 39671, 49645, 40078, 39852, 37125, 37340, 37351, 37632, 38882, 39093, 37010, 37606, 38023, 36648, 36013, 36873, 37289, 36950, 37126, 38619, 38176, 42932, 40079, 39129, 39629, 37340, 37946, 38528, 38986, 39866, 40728, 46443, 40620, 40874, 43178, 40716, 40463, 42217, 40610, 44788, 39343, 39770, 40323, 38643, 38800, 40972, 39656, 38718, 47390, 37427, 38731, 39063, 43534, 36980, 37232, 37736, 42286, 36901, 38828, 38506, 37927, 44586, 40427, 38760, 36845, 37509, 36690, 36894, 40678, 37349, 37320, 38171, 37180, 39908, 42708, 39253, 41581, 43780, 38091],
      "WindowCenter": [10223.0, 10203.0, 10215.0, 10212.0, 10196.0, 10144.0, 10133.0, 10140.0, 10174.0, 10204.0, 10208.0, 10201.0, 10187.0, 10194.0, 10179.0, 10182.0, 10201.0, 10194.0, 10193.0, 10200.0, 10198.0, 10197.0, 10191.0, 10190.0, 10186.0, 10189.0, 10196.0, 10193.0, 10194.0, 10200.0, 10194.0, 10206.0, 10209.0, 10209.0, 10206.0, 10208.0, 10237.0, 10219.0, 10216.0, 10218.0, 10220.0, 10211.0, 10205.0, 10208.0, 10198.0, 10202.0, 10189.0, 10184.0, 10184.0, 10196.0, 10195.0, 10264.0, 10193.0, 10247.0, 10195.0, 10201.0, 10189.0, 10221.0, 10332.0, 10192.0, 10192.0, 10199.0, 10206.0, 10208.0, 10191.0, 10187.0, 10195.0, 10213.0, 10243.0, 10266.0, 10217.0, 10175.0, 10146.0, 10170.0, 10208.0, 10266.0, 10226.0, 10215.0, 10177.0, 10138.0, 10144.0, 10138.0, 10139.0, 10160.0, 10180.0, 10235.0, 10181.0, 10172.0, 10173.0, 10146.0, 10160.0, 10158.0, 10162.0, 10190.0, 10158.0, 10160.0, 10213.0, 10151.0, 10171.0, 10188.0, 10200.0, 10221.0, 10218.0, 10222.0, 10213.0, 10225.0, 10206.0, 10218.0, 10221.0, 10217.0, 10232.0, 10222.0, 10297.0, 10229.0, 10228.0, 10196.0, 10222.0, 10214.0, 10204.0, 10211.0, 10185.0, 10167.0, 10168.0, 10165.0, 10156.0, 10161.0, 10163.0, 10151.0, 10135.0, 10122.0, 10149.0, 10156.0, 10226.0, 10211.0, 10197.0, 10196.0, 10173.0, 10178.0, 10176.0, 10180.0, 10193.0, 10223.0, 10291.0, 10234.0, 10225.0, 10238.0, 10207.0, 10200.0, 10232.0, 10232.0, 10272.0, 10228.0, 10229.0, 10218.0, 10190.0, 10190.0, 10232.0, 10230.0, 10206.0, 10277.0, 10164.0, 10178.0, 10184.0, 10258.0, 10185.0, 10181.0, 10176.0, 10204.0, 10147.0, 10168.0, 10163.0, 10177.0, 10184.0, 10202.0, 10199.0, 10183.0, 10182.0, 10162.0, 10148.0, 10185.0, 10151.0, 10151.0, 10179.0, 10201.0, 10232.0, 10244.0, 10199.0, 10198.0, 10209.0, 10165.0],
      "WindowWidth": [21673.0, 21616.0, 21639.0, 21623.0, 21582.0, 21461.0, 21427.0, 21445.0, 21522.0, 21589.0, 21601.0, 21581.0, 21547.0, 21570.0, 21530.0, 21545.0, 21598.0, 21569.0, 21566.0, 21580.0, 21582.0, 21580.0, 21574.0, 21556.0, 21553.0, 21562.0, 21576.0, 21566.0, 21570.0, 21580.0, 21568.0, 21599.0, 21599.0, 21599.0, 21597.0, 21605.0, 21674.0, 21633.0, 21631.0, 21626.0, 21633.0, 21612.0, 21604.0, 21611.0, 21584.0, 21594.0, 21565.0, 21553.0, 21554.0, 21577.0, 21582.0, 21726.0, 21581.0, 21686.0, 21583.0, 21590.0, 21569.0, 21650.0, 21871.0, 21577.0, 21571.0, 21582.0, 21596.0, 21601.0, 21571.0, 21567.0, 21579.0, 21618.0, 21686.0, 21735.0, 21636.0, 21547.0, 21480.0, 21519.0, 21599.0, 21726.0, 21642.0, 21610.0, 21527.0, 21456.0, 21472.0, 21456.0, 21462.0, 21518.0, 21552.0, 21659.0, 21548.0, 21530.0, 21537.0, 21481.0, 21514.0, 21510.0, 21521.0, 21573.0, 21509.0, 21509.0, 21610.0, 21497.0, 21534.0, 21566.0, 21598.0, 21639.0, 21628.0, 21641.0, 21630.0, 21654.0, 21611.0, 21634.0, 21636.0, 21633.0, 21656.0, 21642.0, 21784.0, 21656.0, 21651.0, 21598.0, 21652.0, 21633.0, 21609.0, 21616.0, 21557.0, 21529.0, 21522.0, 21509.0, 21500.0, 21517.0, 21511.0, 21484.0, 21450.0, 21420.0, 21475.0, 21496.0, 21638.0, 21616.0, 21585.0, 21579.0, 21542.0, 21547.0, 21546.0, 21544.0, 21569.0, 21636.0, 21781.0, 21662.0, 21639.0, 21670.0, 21600.0, 21587.0, 21655.0, 21658.0, 21739.0, 21659.0, 21653.0, 21625.0, 21566.0, 21567.0, 21650.0, 21666.0, 21609.0, 21739.0, 21517.0, 21535.0, 21548.0, 21706.0, 21566.0, 21553.0, 21538.0, 21586.0, 21480.0, 21520.0, 21517.0, 21543.0, 21551.0, 21600.0, 21589.0, 21562.0, 21555.0, 21517.0, 21485.0, 21547.0, 21492.0, 21489.0, 21547.0, 21612.0, 21678.0, 21690.0, 21600.0, 21585.0, 21597.0, 21520.0]
    },
    "slices": {}
  }
}