{
  "AcquisitionMatrixPE": 104,
  "AcquisitionNumber": 1,
  "AcquisitionTime": "17:55:1.657500",
  "BandwidthPerPixelPhaseEncode": 17.17,
  "BaseResolution": 104,
  "BodyPartExamined": "BRAIN",
  "CoilString": "HC1-7;NC1_2",
  "ConsistencyInfo": "N4_VE11C_LATEST_20160120",
  "ConversionSoftware": "dcm2niix",
  "ConversionSoftwareVersion": "v1.0.20190902",
  "DerivedVendorReportedEchoSpacing": 0.000560011,
  "DeviceSerialNumber": "167006",
  "DwellTime": 2.1e-06,
  "EchoTime": 0.037,
  "EchoTrainLength": 104,
  "EffectiveEchoSpacing": 0.000560011,
  "FlipAngle": 52,
  "HeudiconvVersion": "0.10.0",
  "ImageComments": "Unaliased_MB4_PE3_LB",
  "ImageOrientationPatientDICOM": [0.998163, 0.0524954, 0.0302576, -0.03852, 0.935251, -0.351883],
  "ImageType": [
    "ORIGINAL",
    "PRIMARY",
    "P",
    "MB",
    "ND",
    "MOSAIC"
],
  "ImagingFrequency": 123.259,
  "InPlanePhaseEncodingDirectionDICOM": "COL",
  "InstitutionAddress": "Chemin_Queen-Mary_4565_Montreal_District_CA_H3W_1W5",
  "InstitutionName": "IUGM",
  "InstitutionalDepartmentName": "Department",
  "MRAcquisitionType": "2D",
  "MagneticFieldStrength": 3,
  "Manufacturer": "Siemens",
  "ManufacturersModelName": "Prisma_fit",
  "Modality": "MR",
  "MultibandAccelerationFactor": 4,
  "PartialFourier": 1,
  "PatientPosition": "HFS",
  "PercentPhaseFOV": 100,
  "PhaseEncodingDirection": "j",
  "PhaseEncodingSteps": 104,
  "PhaseResolution": 1,
  "PixelBandwidth": 2290,
  "ProcedureStepDescription": "memory_things",
  "ProtocolName": "func_task-things_run-6",
  "PulseSequenceDetails": "%CustomerSeq%_cmrr_mbep2d_bold",
  "ReceiveCoilActiveElements": "HC1-7;NC1,2",
  "ReceiveCoilName": "HeadNeck_64",
  "ReconMatrixPE": 104,
  "RepetitionTime": 1.49,
  "SAR": 0.0474717,
  "ScanOptions": "FS",
  "ScanningSequence": "EP",
  "SequenceName": "epfid2d1_104",
  "SequenceVariant": "SK_SS",
  "SeriesDescription": "func_task-things_run-6",
  "SeriesNumber": 26,
  "ShimSetting": [629, -7182, -8825, 635, 75, 62, -73, -23],
  "SliceThickness": 2,
  "SliceTiming": [0, 0.785, 0.0975, 0.8825, 0.195, 0.98, 0.295, 1.0775, 0.3925, 1.175, 0.49, 1.275, 0.5875, 1.3725, 0.685, 0, 0.785, 0.0975, 0.8825, 0.195, 0.98, 0.295, 1.0775, 0.3925, 1.175, 0.49, 1.275, 0.5875, 1.3725, 0.685, 0, 0.785, 0.0975, 0.8825, 0.195, 0.98, 0.295, 1.0775, 0.3925, 1.175, 0.49, 1.275, 0.5875, 1.3725, 0.685, 0, 0.785, 0.0975, 0.8825, 0.195, 0.98, 0.295, 1.0775, 0.3925, 1.175, 0.49, 1.275, 0.5875, 1.3725, 0.685],
  "SoftwareVersions": "syngo_MR_E11",
  "SpacingBetweenSlices": 2,
  "StationName": "MRC35049",
  "TaskName": "things",
  "TotalReadoutTime": 0.0576811,
  "TxRefAmp": 271.603,
  "WipMemBlock": "6e3d4b4b-9d01-40a4-a00e-05d0e96f6a95||Sequence: R016 ve11c/master r/e634e98; Dec 19 2017 11:00:25 by eja",
  "dcmmeta_affine": [
    [-1.9963253736495972, -0.07704007625579834, 0.0935414582490921, 107.87152862548828],
    [-0.10499086230993271, 1.870502233505249, -0.7001417875289917, -55.37107849121094],
    [0.06051526218652725, 0.703765869140625, 1.8711097240447998, -66.67984008789062],
    [0.0, 0.0, 0.0, 1.0]
],
  "dcmmeta_reorient_transform": [
    [0.0, -1.0, 0.0, 103.0],
    [1.0, 0.0, 0.0, 0.0],
    [0.0, 0.0, 1.0, 0.0],
    [0.0, 0.0, 0.0, 1.0]
],
  "dcmmeta_shape": [104, 104, 60, 190],
  "dcmmeta_slice_dim": 2,
  "dcmmeta_version": 0.6,
  "global": {
    "const": {
      "AcquisitionMatrix": [104, 0, 0, 104],
      "AngioFlag": "N",
      "BitsAllocated": 16,
      "BitsStored": 16,
      "BodyPartExamined": "BRAIN",
      "Columns": 832,
      "EchoNumbers": 1,
      "EchoTime": 37.0,
      "EchoTrainLength": 104,
      "FlipAngle": 52.0,
      "HighBit": 15,
      "ImageOrientationPatient": [0.99816266491488, 0.0524954300898, 0.0302576302725, -0.0385200383225, 0.93525108902071, -0.351882945215],
      "ImagePositionPatient": [-798.55623234518, -856.37011015604, 239.95127845064],
      "ImageType": [
        "ORIGINAL",
        "PRIMARY",
        "P",
        "MB",
        "ND",
        "MOSAIC"
],
      "ImagedNucleus": "1H",
      "ImagingFrequency": 123.258909,
      "InPlanePhaseEncodingDirection": "COL",
      "LargestImagePixelValue": 4095,
      "MRAcquisitionType": "2D",
      "MagneticFieldStrength": 3.0,
      "Manufacturer": "SIEMENS",
      "ManufacturerModelName": "Prisma_fit",
      "Modality": "MR",
      "NumberOfAverages": 1.0,
      "NumberOfPhaseEncodingSteps": 104,
      "PercentPhaseFieldOfView": 100.0,
      "PercentSampling": 100.0,
      "PerformedProcedureStepStartTime": "170329.127000",
      "PhotometricInterpretation": "MONOCHROME2",
      "PixelBandwidth": 2290.0,
      "PixelRepresentation": 0,
      "PixelSpacing": [2.0, 2.0],
      "ProtocolName": "func_task-things_run-6",
      "RepetitionTime": 1490.0,
      "RescaleIntercept": -4096.0,
      "RescaleSlope": 2.0,
      "RescaleType": "US",
      "Rows": 832,
      "SAR": 0.04747165367028,
      "SamplesPerPixel": 1,
      "ScanOptions": "FS",
      "ScanningSequence": "EP",
      "SequenceName": "epfid2d1_104",
      "SequenceVariant": [
        "SK",
        "SS"
],
      "SeriesDescription": "func_task-things_run-6",
      "SeriesNumber": 26,
      "SeriesTime": "175615.846000",
      "SliceLocation": -37.953611708915,
      "SliceThickness": 2.0,
      "SmallestImagePixelValue": 0,
      "SoftwareVersions": "syngo MR E11",
      "SpacingBetweenSlices": 1.9999999783121,
      "SpecificCharacterSet": "ISO_IR 100",
      "StudyID": "1",
      "StudyTime": "170329.072000",
      "TransmitCoilName": "Body",
      "VariableFlipAngleFlag": "N",
      "WindowCenterWidthExplanation": "Algo1",
      "dBdt": 0.0},
    "slices": {}
  },
  "time": {
    "samples": {
      "AcquisitionNumber": [1, 2, 3, 4, 5, 6, 7, 8, 9, 10, 11, 12, 13, 14, 15, 16, 17, 18, 19, 20, 21, 22, 23, 24, 25, 26, 27, 28, 29, 30, 31, 32, 33, 34, 35, 36, 37, 38, 39, 40, 41, 42, 43, 44, 45, 46, 47, 48, 49, 50, 51, 52, 53, 54, 55, 56, 57, 58, 59, 60, 61, 62, 63, 64, 65, 66, 67, 68, 69, 70, 71, 72, 73, 74, 75, 76, 77, 78, 79, 80, 81, 82, 83, 84, 85, 86, 87, 88, 89, 90, 91, 92, 93, 94, 95, 96, 97, 98, 99, 100, 101, 102, 103, 104, 105, 106, 107, 108, 109, 110, 111, 112, 113, 114, 115, 116, 117, 118, 119, 120, 121, 122, 123, 124, 125, 126, 127, 128, 129, 130, 131, 132, 133, 134, 135, 136, 137, 138, 139, 140, 141, 142, 143, 144, 145, 146, 147, 148, 149, 150, 151, 152, 153, 154, 155, 156, 157, 158, 159, 160, 161, 162, 163, 164, 165, 166, 167, 168, 169, 170, 171, 172, 173, 174, 175, 176, 177, 178, 179, 180, 181, 182, 183, 184, 185, 186, 187, 188, 189, 190],
      "AcquisitionTime": ["175501.657500", "175503.147500", "175504.637500", "175506.127500", "175507.617500", "175509.107500", "175510.597500", "175512.087500", "175513.577500", "175515.067500", "175516.557500", "175518.047500", "175519.537500", "175521.027500", "175522.517500", "175524.007500", "175525.497500", "175526.987500", "175528.477500", "175529.967500", "175531.457500", "175532.947500", "175534.437500", "175535.927500", "175537.417500", "175538.907500", "175540.397500", "175541.887500", "175543.377500", "175544.867500", "175546.357500", "175547.847500", "175549.337500", "175550.827500", "175552.317500", "175553.807500", "175555.297500", "175556.787500", "175558.277500", "175559.767500", "175601.257500", "175602.747500", "175604.237500", "175605.727500", "175607.217500", "175608.707500", "175610.197500", "175611.687500", "175613.177500", "175614.667500", "175616.157500", "175617.647500", "175619.137500", "175620.627500", "175622.117500", "175623.607500", "175625.097500", "175626.587500", "175628.077500", "175629.567500", "175631.057500", "175632.547500", "175634.037500", "175635.527500", "175637.017500", "175638.507500", "175639.997500", "175641.487500", "175642.977500", "175644.467500", "175645.957500", "175647.447500", "175648.937500", "175650.427500", "175651.917500", "175653.407500", "175654.897500", "175656.387500", "175657.877500", "175659.367500", "175700.857500", "175702.347500", "175703.837500", "175705.327500", "175706.817500", "175708.307500", "175709.797500", "175711.287500", "175712.777500", "175714.267500", "175715.757500", "175717.247500", "175718.737500", "175720.227500", "175721.717500", "175723.207500", "175724.697500", "175726.187500", "175727.677500", "175729.167500", "175730.657500", "175732.147500", "175733.637500", "175735.127500", "175736.617500", "175738.107500", "175739.597500", "175741.087500", "175742.577500", "175744.067500", "175745.557500", "175747.047500", "175748.537500", "175750.027500", "175751.517500", "175753.007500", "175754.497500", "175755.987500", "175757.477500", "175758.967500", "175800.457500", "175801.947500", "175803.437500", "175804.927500", "175806.417500", "175807.907500", "175809.397500", "175810.887500", "175812.377500", "175813.867500", "175815.357500", "175816.847500", "175818.337500", "175819.827500", "175821.317500", "175822.807500", "175824.297500", "175825.787500", "175827.277500", "175828.767500", "175830.257500", "175831.747500", "175833.237500", "175834.727500", "175836.217500", "175837.707500", "175839.197500", "175840.687500", "175842.177500", "175843.667500", "175845.157500", "175846.647500", "175848.137500", "175849.627500", "175851.117500", "175852.607500", "175854.097500", "175855.587500", "175857.077500", "175858.567500", "175900.057500", "175901.547500", "175903.037500", "175904.527500", "175906.017500", "175907.507500", "175908.997500", "175910.487500", "175911.977500", "175913.467500", "175914.957500", "175916.447500", "175917.937500", "175919.427500", "175920.917500", "175922.407500", "175923.897500", "175925.387500", "175926.877500", "175928.367500", "175929.857500", "175931.347500", "175932.837500", "175934.327500", "175935.817500", "175937.307500", "175938.797500", "175940.287500", "175941.777500", "175943.267500"],
      "ContentTime": ["175615.848000", "175615.851000", "175615.854000", "175615.857000", "175615.860000", "175615.862000", "175615.865000", "175615.867000", "175615.870000", "175615.872000", "175615.875000", "175615.877000", "175615.880000", "175615.882000", "175615.885000", "175615.887000", "175615.893000", "175615.896000", "175615.899000", "175615.901000", "175615.904000", "175635.778000", "175635.781000", "175635.791000", "175635.794000", "175635.800000", "175635.803000", "175635.805000", "175635.808000", "175635.810000", "175635.813000", "175635.815000", "175635.818000", "175635.820000", "175635.823000", "175635.825000", "175635.828000", "175635.830000", "175635.833000", "175635.835000", "175635.837000", "175635.840000", "175655.783000", "175655.786000", "175655.788000", "175655.791000", "175655.793000", "175655.796000", "175655.798000", "175655.801000", "175655.803000", "175655.806000", "175655.809000", "175655.811000", "175655.814000", "175655.816000", "175655.819000", "175655.821000", "175655.824000", "175655.826000", "175655.829000", "175655.831000", "175715.787000", "175715.790000", "175715.793000", "175715.795000", "175715.798000", "175715.800000", "175715.803000", "175715.805000", "175715.808000", "175715.810000", "175715.813000", "175715.815000", "175715.818000", "175715.820000", "175715.823000", "175715.825000", "175715.828000", "175715.830000", "175715.833000", "175715.835000", "175735.775000", "175735.778000", "175735.780000", "175735.783000", "175735.785000", "175735.788000", "175735.790000", "175735.793000", "175735.795000", "175735.798000", "175735.800000", "175735.803000", "175735.805000", "175735.813000", "175735.815000", "175735.818000", "175735.821000", "175735.823000", "175735.826000", "175735.828000", "175816.199000", "175816.202000", "175816.205000", "175816.207000", "175816.210000", "175816.212000", "175816.215000", "175816.217000", "175816.220000", "175816.222000", "175816.225000", "175816.227000", "175816.230000", "175816.232000", "175816.235000", "175816.237000", "175816.240000", "175816.242000", "175816.245000", "175816.247000", "175816.250000", "175816.252000", "175816.255000", "175816.257000", "175816.260000", "175816.263000", "175816.265000", "175816.268000", "175855.808000", "175855.811000", "175855.814000", "175855.816000", "175855.819000", "175855.821000", "175855.824000", "175855.827000", "175855.829000", "175855.832000", "175855.834000", "175855.837000", "175855.839000", "175855.842000", "175855.844000", "175855.847000", "175855.849000", "175855.852000", "175855.854000", "175855.857000", "175855.859000", "175855.862000", "175855.864000", "175855.867000", "175855.869000", "175855.872000", "175935.804000", "175935.807000", "175935.809000", "175935.812000", "175935.814000", "175935.817000", "175935.819000", "175935.822000", "175935.824000", "175935.827000", "175935.829000", "175935.832000", "175935.834000", "175935.837000", "175935.845000", "175935.848000", "175935.850000", "175935.853000", "175935.856000", "175935.858000", "175935.861000", "175935.863000", "175935.866000", "175935.868000", "175935.871000", "175935.873000", "175935.876000", "175945.104000", "175945.107000", "175945.110000", "175945.112000", "175945.115000", "175945.117000", "175945.120000"],
      "InstanceCreationTime": ["175615.848000", "175615.851000", "175615.854000", "175615.857000", "175615.860000", "175615.862000", "175615.865000", "175615.867000", "175615.870000", "175615.872000", "175615.875000", "175615.877000", "175615.880000", "175615.882000", "175615.885000", "175615.887000", "175615.893000", "175615.896000", "175615.899000", "175615.901000", "175615.904000", "175635.778000", "175635.781000", "175635.791000", "175635.794000", "175635.800000", "175635.803000", "175635.805000", "175635.808000", "175635.810000", "175635.813000", "175635.815000", "175635.818000", "175635.820000", "175635.823000", "175635.825000", "175635.828000", "175635.830000", "175635.833000", "175635.835000", "175635.837000", "175635.840000", "175655.783000", "175655.786000", "175655.788000", "175655.791000", "175655.793000", "175655.796000", "175655.798000", "175655.801000", "175655.803000", "175655.806000", "175655.809000", "175655.811000", "175655.814000", "175655.816000", "175655.819000", "175655.821000", "175655.824000", "175655.826000", "175655.829000", "175655.831000", "175715.787000", "175715.790000", "175715.793000", "175715.795000", "175715.798000", "175715.800000", "175715.803000", "175715.805000", "175715.808000", "175715.810000", "175715.813000", "175715.815000", "175715.818000", "175715.820000", "175715.823000", "175715.825000", "175715.828000", "175715.830000", "175715.833000", "175715.835000", "175735.775000", "175735.778000", "175735.780000", "175735.783000", "175735.785000", "175735.788000", "175735.790000", "175735.793000", "175735.795000", "175735.798000", "175735.800000", "175735.803000", "175735.805000", "175735.813000", "175735.815000", "175735.818000", "175735.821000", "175735.823000", "175735.826000", "175735.828000", "175816.199000", "175816.202000", "175816.205000", "175816.207000", "175816.210000", "175816.212000", "175816.215000", "175816.217000", "175816.220000", "175816.222000", "175816.225000", "175816.227000", "175816.230000", "175816.232000", "175816.235000", "175816.237000", "175816.240000", "175816.242000", "175816.245000", "175816.247000", "175816.250000", "175816.252000", "175816.255000", "175816.257000", "175816.260000", "175816.263000", "175816.265000", "175816.268000", "175855.808000", "175855.811000", "175855.814000", "175855.816000", "175855.819000", "175855.821000", "175855.824000", "175855.827000", "175855.829000", "175855.832000", "175855.834000", "175855.837000", "175855.839000", "175855.842000", "175855.844000", "175855.847000", "175855.849000", "175855.852000", "175855.854000", "175855.857000", "175855.859000", "175855.862000", "175855.864000", "175855.867000", "175855.869000", "175855.872000", "175935.804000", "175935.807000", "175935.809000", "175935.812000", "175935.814000", "175935.817000", "175935.819000", "175935.822000", "175935.824000", "175935.827000", "175935.829000", "175935.832000", "175935.834000", "175935.837000", "175935.845000", "175935.848000", "175935.850000", "175935.853000", "175935.856000", "175935.858000", "175935.861000", "175935.863000", "175935.866000", "175935.868000", "175935.871000", "175935.873000", "175935.876000", "175945.104000", "175945.107000", "175945.110000", "175945.112000", "175945.115000", "175945.117000", "175945.120000"],
      "InstanceNumber": [1, 2, 3, 4, 5, 6, 7, 8, 9, 10, 11, 12, 13, 14, 15, 16, 17, 18, 19, 20, 21, 22, 23, 24, 25, 26, 27, 28, 29, 30, 31, 32, 33, 34, 35, 36, 37, 38, 39, 40, 41, 42, 43, 44, 45, 46, 47, 48, 49, 50, 51, 52, 53, 54, 55, 56, 57, 58, 59, 60, 61, 62, 63, 64, 65, 66, 67, 68, 69, 70, 71, 72, 73, 74, 75, 76, 77, 78, 79, 80, 81, 82, 83, 84, 85, 86, 87, 88, 89, 90, 91, 92, 93, 94, 95, 96, 97, 98, 99, 100, 101, 102, 103, 104, 105, 106, 107, 108, 109, 110, 111, 112, 113, 114, 115, 116, 117, 118, 119, 120, 121, 122, 123, 124, 125, 126, 127, 128, 129, 130, 131, 132, 133, 134, 135, 136, 137, 138, 139, 140, 141, 142, 143, 144, 145, 146, 147, 148, 149, 150, 151, 152, 153, 154, 155, 156, 157, 158, 159, 160, 161, 162, 163, 164, 165, 166, 167, 168, 169, 170, 171, 172, 173, 174, 175, 176, 177, 178, 179, 180, 181, 182, 183, 184, 185, 186, 187, 188, 189, 190],
      "WindowCenter": [4878.0, 4870.0, 4872.0, 4876.0, 4840.0, 4840.0, 4880.0, 4854.0, 4848.0, 4850.0, 4878.0, 4876.0, 4872.0, 4864.0, 4866.0, 4870.0, 4872.0, 4882.0, 4878.0, 4878.0, 4880.0, 4880.0, 4876.0, 4876.0, 4872.0, 4876.0, 4872.0, 4878.0, 4876.0, 4880.0, 4874.0, 4882.0, 4880.0, 4880.0, 4880.0, 4878.0, 4874.0, 4878.0, 4876.0, 4878.0, 4880.0, 4876.0, 4880.0, 4880.0, 4880.0, 4876.0, 4878.0, 4880.0, 4878.0, 4880.0, 4876.0, 4874.0, 4878.0, 4876.0, 4878.0, 4880.0, 4878.0, 4880.0, 4882.0, 4876.0, 4880.0, 4876.0, 4880.0, 4880.0, 4882.0, 4876.0, 4878.0, 4880.0, 4878.0, 4876.0, 4880.0, 4878.0, 4876.0, 4882.0, 4876.0, 4878.0, 4880.0, 4876.0, 4878.0, 4880.0, 4876.0, 4880.0, 4880.0, 4878.0, 4880.0, 4876.0, 4880.0, 4878.0, 4874.0, 4880.0, 4880.0, 4880.0, 4882.0, 4880.0, 4878.0, 4872.0, 4846.0, 4878.0, 4876.0, 4878.0, 4882.0, 4876.0, 4878.0, 4880.0, 4874.0, 4878.0, 4876.0, 4876.0, 4882.0, 4878.0, 4878.0, 4878.0, 4880.0, 4880.0, 4876.0, 4882.0, 4882.0, 4876.0, 4876.0, 4878.0, 4876.0, 4880.0, 4882.0, 4880.0, 4880.0, 4878.0, 4880.0, 4878.0, 4880.0, 4876.0, 4876.0, 4876.0, 4874.0, 4874.0, 4882.0, 4882.0, 4880.0, 4882.0, 4880.0, 4878.0, 4874.0, 4876.0, 4870.0, 4872.0, 4880.0, 4882.0, 4884.0, 4884.0, 4882.0, 4876.0, 4880.0, 4876.0, 4882.0, 4880.0, 4880.0, 4880.0, 4884.0, 4878.0, 4880.0, 4874.0, 4878.0, 4878.0, 4902.0, 4882.0, 4878.0, 4876.0, 4880.0, 4874.0, 4874.0, 4902.0, 4874.0, 4880.0, 4878.0, 4878.0, 4882.0, 4880.0, 4880.0, 4884.0, 4880.0, 4878.0, 4882.0, 4878.0, 4876.0, 4878.0, 4880.0, 4876.0, 4880.0, 4878.0, 4878.0, 4884.0],
      "WindowWidth": [18684.0, 18682.0, 18682.0, 18682.0, 18642.0, 18646.0, 18682.0, 18630.0, 18620.0, 18622.0, 18680.0, 18676.0, 18676.0, 18678.0, 18678.0, 18682.0, 18678.0, 18682.0, 18678.0, 18674.0, 18678.0, 18680.0, 18678.0, 18678.0, 18670.0, 18674.0, 18668.0, 18682.0, 18678.0, 18680.0, 18674.0, 18680.0, 18678.0, 18674.0, 18682.0, 18682.0, 18676.0, 18676.0, 18680.0, 18682.0, 18678.0, 18680.0, 18676.0, 18674.0, 18680.0, 18678.0, 18670.0, 18678.0, 18682.0, 18682.0, 18680.0, 18680.0, 18684.0, 18680.0, 18680.0, 18680.0, 18686.0, 18682.0, 18682.0, 18684.0, 18682.0, 18678.0, 18682.0, 18676.0, 18676.0, 18676.0, 18676.0, 18682.0, 18676.0, 18680.0, 18676.0, 18680.0, 18680.0, 18680.0, 18678.0, 18682.0, 18678.0, 18684.0, 18680.0, 18680.0, 18682.0, 18678.0, 18678.0, 18676.0, 18688.0, 18680.0, 18678.0, 18678.0, 18682.0, 18686.0, 18686.0, 18682.0, 18692.0, 18684.0, 18680.0, 18682.0, 18646.0, 18682.0, 18682.0, 18676.0, 18674.0, 18680.0, 18684.0, 18678.0, 18678.0, 18682.0, 18680.0, 18676.0, 18684.0, 18684.0, 18676.0, 18684.0, 18676.0, 18678.0, 18680.0, 18684.0, 18684.0, 18682.0, 18682.0, 18682.0, 18682.0, 18680.0, 18686.0, 18678.0, 18680.0, 18686.0, 18686.0, 18678.0, 18682.0, 18680.0, 18680.0, 18676.0, 18676.0, 18682.0, 18680.0, 18678.0, 18680.0, 18680.0, 18676.0, 18680.0, 18680.0, 18678.0, 18676.0, 18680.0, 18682.0, 18682.0, 18686.0, 18678.0, 18682.0, 18682.0, 18680.0, 18684.0, 18684.0, 18686.0, 18682.0, 18684.0, 18682.0, 18682.0, 18680.0, 18686.0, 18682.0, 18684.0, 18714.0, 18682.0, 18682.0, 18680.0, 18688.0, 18682.0, 18682.0, 18714.0, 18680.0, 18688.0, 18684.0, 18682.0, 18688.0, 18682.0, 18684.0, 18684.0, 18680.0, 18682.0, 18680.0, 18680.0, 18678.0, 18680.0, 18686.0, 18680.0, 18680.0, 18678.0, 18682.0, 18680.0]
    },
    "slices": {}
  }
}