{
  "AcquisitionMatrixPE": 104,
  "AcquisitionNumber": 1,
  "AcquisitionTime": "17:21:26.305000",
  "BandwidthPerPixelPhaseEncode": 17.17,
  "BaseResolution": 104,
  "BodyPartExamined": "BRAIN",
  "CoilString": "HC1-7;NC1_2",
  "ConsistencyInfo": "N4_VE11C_LATEST_20160120",
  "ConversionSoftware": "dcm2niix",
  "ConversionSoftwareVersion": "v1.0.20190902",
  "DerivedVendorReportedEchoSpacing": 0.000560011,
  "DeviceSerialNumber": "167006",
  "DwellTime": 2.1e-06,
  "EchoTime": 0.037,
  "EchoTrainLength": 104,
  "EffectiveEchoSpacing": 0.000560011,
  "FlipAngle": 52,
  "HeudiconvVersion": "0.10.0",
  "ImageComments": "Unaliased_MB4_PE3_LB",
  "ImageOrientationPatientDICOM": [0.998163, 0.0524954, 0.0302576, -0.03852, 0.935251, -0.351883],
  "ImageType": [
    "ORIGINAL",
    "PRIMARY",
    "P",
    "MB",
    "ND",
    "MOSAIC"
],
  "ImagingFrequency": 123.259,
  "InPlanePhaseEncodingDirectionDICOM": "COL",
  "InstitutionAddress": "Chemin_Queen-Mary_4565_Montreal_District_CA_H3W_1W5",
  "InstitutionName": "IUGM",
  "InstitutionalDepartmentName": "Department",
  "MRAcquisitionType": "2D",
  "MagneticFieldStrength": 3,
  "Manufacturer": "Siemens",
  "ManufacturersModelName": "Prisma_fit",
  "Modality": "MR",
  "MultibandAccelerationFactor": 4,
  "PartialFourier": 1,
  "PatientPosition": "HFS",
  "PercentPhaseFOV": 100,
  "PhaseEncodingDirection": "j",
  "PhaseEncodingSteps": 104,
  "PhaseResolution": 1,
  "PixelBandwidth": 2290,
  "ProcedureStepDescription": "memory_things",
  "ProtocolName": "func_task-things_run-1",
  "PulseSequenceDetails": "%CustomerSeq%_cmrr_mbep2d_bold",
  "ReceiveCoilActiveElements": "HC1-7;NC1,2",
  "ReceiveCoilName": "HeadNeck_64",
  "ReconMatrixPE": 104,
  "RepetitionTime": 1.49,
  "SAR": 0.0474717,
  "ScanOptions": "FS",
  "ScanningSequence": "EP",
  "SequenceName": "epfid2d1_104",
  "SequenceVariant": "SK_SS",
  "SeriesDescription": "func_task-things_run-1",
  "SeriesNumber": 11,
  "ShimSetting": [629, -7182, -8825, 635, 75, 62, -73, -23],
  "SliceThickness": 2,
  "SliceTiming": [0, 0.785, 0.0975, 0.8825, 0.195, 0.98, 0.295, 1.0775, 0.3925, 1.175, 0.49, 1.275, 0.5875, 1.3725, 0.685, 0, 0.785, 0.0975, 0.8825, 0.195, 0.98, 0.295, 1.0775, 0.3925, 1.175, 0.49, 1.275, 0.5875, 1.3725, 0.685, 0, 0.785, 0.0975, 0.8825, 0.195, 0.98, 0.295, 1.0775, 0.3925, 1.175, 0.49, 1.275, 0.5875, 1.3725, 0.685, 0, 0.785, 0.0975, 0.8825, 0.195, 0.98, 0.295, 1.0775, 0.3925, 1.175, 0.49, 1.275, 0.5875, 1.3725, 0.685],
  "SoftwareVersions": "syngo_MR_E11",
  "SpacingBetweenSlices": 2,
  "StationName": "MRC35049",
  "TaskName": "things",
  "TotalReadoutTime": 0.0576811,
  "TxRefAmp": 271.603,
  "WipMemBlock": "f7da5c1e-70c0-4c8d-a5dd-70afdd032a4e||Sequence: R016 ve11c/master r/e634e98; Dec 19 2017 11:00:25 by eja",
  "dcmmeta_affine": [
    [-1.9963253736495972, -0.07704007625579834, 0.0935414582490921, 107.87152862548828],
    [-0.10499086230993271, 1.870502233505249, -0.7001417875289917, -55.37107849121094],
    [0.06051526218652725, 0.703765869140625, 1.8711097240447998, -66.67984008789062],
    [0.0, 0.0, 0.0, 1.0]
],
  "dcmmeta_reorient_transform": [
    [0.0, -1.0, 0.0, 103.0],
    [1.0, 0.0, 0.0, 0.0],
    [0.0, 0.0, 1.0, 0.0],
    [0.0, 0.0, 0.0, 1.0]
],
  "dcmmeta_shape": [104, 104, 60, 190],
  "dcmmeta_slice_dim": 2,
  "dcmmeta_version": 0.6,
  "global": {
    "const": {
      "AcquisitionMatrix": [104, 0, 0, 104],
      "AngioFlag": "N",
      "BitsAllocated": 16,
      "BitsStored": 16,
      "BodyPartExamined": "BRAIN",
      "Columns": 832,
      "EchoNumbers": 1,
      "EchoTime": 37.0,
      "EchoTrainLength": 104,
      "FlipAngle": 52.0,
      "HighBit": 15,
      "ImageOrientationPatient": [0.99816266491488, 0.0524954300898, 0.0302576302725, -0.0385200383225, 0.93525108902071, -0.351882945215],
      "ImagePositionPatient": [-798.55623234518, -856.37011015604, 239.95127845064],
      "ImageType": [
        "ORIGINAL",
        "PRIMARY",
        "P",
        "MB",
        "ND",
        "MOSAIC"
],
      "ImagedNucleus": "1H",
      "ImagingFrequency": 123.258895,
      "InPlanePhaseEncodingDirection": "COL",
      "LargestImagePixelValue": 4095,
      "MRAcquisitionType": "2D",
      "MagneticFieldStrength": 3.0,
      "Manufacturer": "SIEMENS",
      "ManufacturerModelName": "Prisma_fit",
      "Modality": "MR",
      "NumberOfAverages": 1.0,
      "NumberOfPhaseEncodingSteps": 104,
      "PercentPhaseFieldOfView": 100.0,
      "PercentSampling": 100.0,
      "PerformedProcedureStepStartTime": "170329.127000",
      "PhotometricInterpretation": "MONOCHROME2",
      "PixelBandwidth": 2290.0,
      "PixelRepresentation": 0,
      "PixelSpacing": [2.0, 2.0],
      "ProtocolName": "func_task-things_run-1",
      "RepetitionTime": 1490.0,
      "RescaleIntercept": -4096.0,
      "RescaleSlope": 2.0,
      "RescaleType": "US",
      "Rows": 832,
      "SAR": 0.04747165367028,
      "SamplesPerPixel": 1,
      "ScanOptions": "FS",
      "ScanningSequence": "EP",
      "SequenceName": "epfid2d1_104",
      "SequenceVariant": [
        "SK",
        "SS"
],
      "SeriesDescription": "func_task-things_run-1",
      "SeriesNumber": 11,
      "SeriesTime": "172254.739000",
      "SliceLocation": -37.953611708915,
      "SliceThickness": 2.0,
      "SmallestImagePixelValue": 0,
      "SoftwareVersions": "syngo MR E11",
      "SpacingBetweenSlices": 1.9999999783121,
      "SpecificCharacterSet": "ISO_IR 100",
      "StudyID": "1",
      "StudyTime": "170329.072000",
      "TransmitCoilName": "Body",
      "VariableFlipAngleFlag": "N",
      "WindowCenterWidthExplanation": "Algo1",
      "dBdt": 0.0},
    "slices": {}
  },
  "time": {
    "samples": {
      "AcquisitionNumber": [1, 2, 3, 4, 5, 6, 7, 8, 9, 10, 11, 12, 13, 14, 15, 16, 17, 18, 19, 20, 21, 22, 23, 24, 25, 26, 27, 28, 29, 30, 31, 32, 33, 34, 35, 36, 37, 38, 39, 40, 41, 42, 43, 44, 45, 46, 47, 48, 49, 50, 51, 52, 53, 54, 55, 56, 57, 58, 59, 60, 61, 62, 63, 64, 65, 66, 67, 68, 69, 70, 71, 72, 73, 74, 75, 76, 77, 78, 79, 80, 81, 82, 83, 84, 85, 86, 87, 88, 89, 90, 91, 92, 93, 94, 95, 96, 97, 98, 99, 100, 101, 102, 103, 104, 105, 106, 107, 108, 109, 110, 111, 112, 113, 114, 115, 116, 117, 118, 119, 120, 121, 122, 123, 124, 125, 126, 127, 128, 129, 130, 131, 132, 133, 134, 135, 136, 137, 138, 139, 140, 141, 142, 143, 144, 145, 146, 147, 148, 149, 150, 151, 152, 153, 154, 155, 156, 157, 158, 159, 160, 161, 162, 163, 164, 165, 166, 167, 168, 169, 170, 171, 172, 173, 174, 175, 176, 177, 178, 179, 180, 181, 182, 183, 184, 185, 186, 187, 188, 189, 190],
      "AcquisitionTime": ["172126.305000", "172127.795000", "172129.285000", "172130.775000", "172132.265000", "172133.755000", "172135.245000", "172136.735000", "172138.225000", "172139.715000", "172141.205000", "172142.695000", "172144.185000", "172145.675000", "172147.165000", "172148.655000", "172150.145000", "172151.635000", "172153.125000", "172154.615000", "172156.105000", "172157.595000", "172159.085000", "172200.575000", "172202.065000", "172203.555000", "172205.045000", "172206.535000", "172208.025000", "172209.515000", "172211.005000", "172212.495000", "172213.985000", "172215.475000", "172216.965000", "172218.455000", "172219.945000", "172221.435000", "172222.925000", "172224.415000", "172225.905000", "172227.395000", "172228.885000", "172230.375000", "172231.865000", "172233.355000", "172234.845000", "172236.335000", "172237.825000", "172239.315000", "172240.805000", "172242.295000", "172243.785000", "172245.275000", "172246.765000", "172248.255000", "172249.745000", "172251.235000", "172252.725000", "172254.215000", "172255.705000", "172257.195000", "172258.685000", "172300.175000", "172301.665000", "172303.155000", "172304.645000", "172306.135000", "172307.625000", "172309.115000", "172310.605000", "172312.095000", "172313.585000", "172315.075000", "172316.565000", "172318.055000", "172319.545000", "172321.035000", "172322.525000", "172324.015000", "172325.505000", "172326.995000", "172328.485000", "172329.975000", "172331.465000", "172332.955000", "172334.445000", "172335.935000", "172337.425000", "172338.915000", "172340.405000", "172341.895000", "172343.385000", "172344.875000", "172346.365000", "172347.855000", "172349.345000", "172350.835000", "172352.325000", "172353.815000", "172355.305000", "172356.795000", "172358.285000", "172359.775000", "172401.265000", "172402.755000", "172404.245000", "172405.735000", "172407.225000", "172408.715000", "172410.205000", "172411.695000", "172413.185000", "172414.675000", "172416.165000", "172417.655000", "172419.145000", "172420.635000", "172422.125000", "172423.615000", "172425.105000", "172426.595000", "172428.085000", "172429.575000", "172431.065000", "172432.555000", "172434.045000", "172435.535000", "172437.025000", "172438.515000", "172440.005000", "172441.495000", "172442.985000", "172444.475000", "172445.965000", "172447.455000", "172448.945000", "172450.435000", "172451.925000", "172453.415000", "172454.905000", "172456.395000", "172457.885000", "172459.375000", "172500.865000", "172502.355000", "172503.845000", "172505.335000", "172506.825000", "172508.315000", "172509.805000", "172511.295000", "172512.785000", "172514.275000", "172515.765000", "172517.255000", "172518.745000", "172520.235000", "172521.725000", "172523.215000", "172524.705000", "172526.195000", "172527.685000", "172529.175000", "172530.665000", "172532.155000", "172533.645000", "172535.135000", "172536.625000", "172538.115000", "172539.605000", "172541.095000", "172542.585000", "172544.075000", "172545.565000", "172547.055000", "172548.545000", "172550.035000", "172551.525000", "172553.015000", "172554.505000", "172555.995000", "172557.485000", "172558.975000", "172600.465000", "172601.955000", "172603.445000", "172604.935000", "172606.425000", "172607.915000"],
      "ContentTime": ["172254.741000", "172254.744000", "172254.747000", "172254.749000", "172254.752000", "172254.754000", "172254.757000", "172254.759000", "172254.761000", "172254.764000", "172254.766000", "172254.769000", "172254.772000", "172254.774000", "172254.777000", "172254.779000", "172254.782000", "172254.784000", "172254.787000", "172254.789000", "172254.792000", "172254.794000", "172254.797000", "172254.799000", "172254.802000", "172254.804000", "172254.813000", "172254.815000", "172254.818000", "172254.820000", "172254.823000", "172254.825000", "172254.828000", "172254.830000", "172254.833000", "172314.641000", "172314.644000", "172314.647000", "172314.649000", "172314.652000", "172314.654000", "172314.657000", "172314.659000", "172314.662000", "172314.664000", "172314.667000", "172314.669000", "172314.672000", "172314.674000", "172314.677000", "172314.679000", "172314.682000", "172314.688000", "172314.690000", "172314.693000", "172314.695000", "172334.640000", "172334.643000", "172334.645000", "172334.648000", "172334.650000", "172334.653000", "172334.655000", "172334.658000", "172334.660000", "172334.663000", "172334.665000", "172334.668000", "172334.670000", "172334.673000", "172334.675000", "172334.678000", "172334.680000", "172334.683000", "172334.685000", "172334.688000", "172354.633000", "172354.636000", "172354.639000", "172354.641000", "172354.644000", "172354.646000", "172354.649000", "172354.651000", "172354.654000", "172354.656000", "172354.659000", "172354.661000", "172354.664000", "172354.666000", "172354.669000", "172354.671000", "172354.674000", "172354.676000", "172354.679000", "172354.682000", "172434.682000", "172434.685000", "172434.688000", "172434.690000", "172434.693000", "172434.695000", "172434.698000", "172434.700000", "172434.703000", "172434.705000", "172434.708000", "172434.710000", "172434.713000", "172434.720000", "172434.722000", "172434.725000", "172434.727000", "172434.730000", "172434.732000", "172434.735000", "172434.737000", "172434.740000", "172434.743000", "172434.745000", "172434.748000", "172434.750000", "172434.753000", "172434.755000", "172434.758000", "172434.760000", "172514.667000", "172514.669000", "172514.672000", "172514.675000", "172514.677000", "172514.680000", "172514.682000", "172514.685000", "172514.687000", "172514.690000", "172514.692000", "172514.695000", "172514.697000", "172514.700000", "172514.702000", "172514.705000", "172514.707000", "172514.710000", "172514.712000", "172514.715000", "172514.717000", "172514.720000", "172514.722000", "172514.725000", "172514.727000", "172514.730000", "172514.732000", "172554.663000", "172554.665000", "172554.668000", "172554.671000", "172554.673000", "172554.676000", "172554.679000", "172554.681000", "172554.684000", "172554.686000", "172554.689000", "172554.692000", "172554.694000", "172554.697000", "172554.699000", "172554.702000", "172554.705000", "172554.707000", "172554.710000", "172554.712000", "172554.715000", "172554.717000", "172554.720000", "172554.722000", "172554.725000", "172554.727000", "172609.709000", "172609.712000", "172609.715000", "172609.717000", "172609.720000", "172609.723000", "172609.725000", "172609.728000", "172609.730000", "172609.733000", "172609.735000"],
      "InstanceCreationTime": ["172254.741000", "172254.744000", "172254.747000", "172254.749000", "172254.752000", "172254.754000", "172254.757000", "172254.759000", "172254.761000", "172254.764000", "172254.766000", "172254.769000", "172254.772000", "172254.774000", "172254.777000", "172254.779000", "172254.782000", "172254.784000", "172254.787000", "172254.789000", "172254.792000", "172254.794000", "172254.797000", "172254.799000", "172254.802000", "172254.804000", "172254.813000", "172254.815000", "172254.818000", "172254.820000", "172254.823000", "172254.825000", "172254.828000", "172254.830000", "172254.833000", "172314.641000", "172314.644000", "172314.647000", "172314.649000", "172314.652000", "172314.654000", "172314.657000", "172314.659000", "172314.662000", "172314.664000", "172314.667000", "172314.669000", "172314.672000", "172314.674000", "172314.677000", "172314.679000", "172314.682000", "172314.688000", "172314.690000", "172314.693000", "172314.695000", "172334.640000", "172334.643000", "172334.645000", "172334.648000", "172334.650000", "172334.653000", "172334.655000", "172334.658000", "172334.660000", "172334.663000", "172334.665000", "172334.668000", "172334.670000", "172334.673000", "172334.675000", "172334.678000", "172334.680000", "172334.683000", "172334.685000", "172334.688000", "172354.633000", "172354.636000", "172354.639000", "172354.641000", "172354.644000", "172354.646000", "172354.649000", "172354.651000", "172354.654000", "172354.656000", "172354.659000", "172354.661000", "172354.664000", "172354.666000", "172354.669000", "172354.671000", "172354.674000", "172354.676000", "172354.679000", "172354.682000", "172434.682000", "172434.685000", "172434.688000", "172434.690000", "172434.693000", "172434.695000", "172434.698000", "172434.700000", "172434.703000", "172434.705000", "172434.708000", "172434.710000", "172434.713000", "172434.720000", "172434.722000", "172434.725000", "172434.727000", "172434.730000", "172434.732000", "172434.735000", "172434.737000", "172434.740000", "172434.743000", "172434.745000", "172434.748000", "172434.750000", "172434.753000", "172434.755000", "172434.758000", "172434.760000", "172514.667000", "172514.669000", "172514.672000", "172514.675000", "172514.677000", "172514.680000", "172514.682000", "172514.685000", "172514.687000", "172514.690000", "172514.692000", "172514.695000", "172514.697000", "172514.700000", "172514.702000", "172514.705000", "172514.707000", "172514.710000", "172514.712000", "172514.715000", "172514.717000", "172514.720000", "172514.722000", "172514.725000", "172514.727000", "172514.730000", "172514.732000", "172554.663000", "172554.665000", "172554.668000", "172554.671000", "172554.673000", "172554.676000", "172554.679000", "172554.681000", "172554.684000", "172554.686000", "172554.689000", "172554.692000", "172554.694000", "172554.697000", "172554.699000", "172554.702000", "172554.705000", "172554.707000", "172554.710000", "172554.712000", "172554.715000", "172554.717000", "172554.720000", "172554.722000", "172554.725000", "172554.727000", "172609.709000", "172609.712000", "172609.715000", "172609.717000", "172609.720000", "172609.723000", "172609.725000", "172609.728000", "172609.730000", "172609.733000", "172609.735000"],
      "InstanceNumber": [1, 2, 3, 4, 5, 6, 7, 8, 9, 10, 11, 12, 13, 14, 15, 16, 17, 18, 19, 20, 21, 22, 23, 24, 25, 26, 27, 28, 29, 30, 31, 32, 33, 34, 35, 36, 37, 38, 39, 40, 41, 42, 43, 44, 45, 46, 47, 48, 49, 50, 51, 52, 53, 54, 55, 56, 57, 58, 59, 60, 61, 62, 63, 64, 65, 66, 67, 68, 69, 70, 71, 72, 73, 74, 75, 76, 77, 78, 79, 80, 81, 82, 83, 84, 85, 86, 87, 88, 89, 90, 91, 92, 93, 94, 95, 96, 97, 98, 99, 100, 101, 102, 103, 104, 105, 106, 107, 108, 109, 110, 111, 112, 113, 114, 115, 116, 117, 118, 119, 120, 121, 122, 123, 124, 125, 126, 127, 128, 129, 130, 131, 132, 133, 134, 135, 136, 137, 138, 139, 140, 141, 142, 143, 144, 145, 146, 147, 148, 149, 150, 151, 152, 153, 154, 155, 156, 157, 158, 159, 160, 161, 162, 163, 164, 165, 166, 167, 168, 169, 170, 171, 172, 173, 174, 175, 176, 177, 178, 179, 180, 181, 182, 183, 184, 185, 186, 187, 188, 189, 190],
      "WindowCenter": [4834.0, 4834.0, 4804.0, 4836.0, 4844.0, 4842.0, 4838.0, 4840.0, 4836.0, 4808.0, 4830.0, 4836.0, 4828.0, 4834.0, 4838.0, 4844.0, 4840.0, 4806.0, 4806.0, 4832.0, 4840.0, 4842.0, 4830.0, 4838.0, 4838.0, 4832.0, 4800.0, 4802.0, 4838.0, 4868.0, 4844.0, 4834.0, 4842.0, 4844.0, 4836.0, 4804.0, 4806.0, 4836.0, 4834.0, 4806.0, 4806.0, 4842.0, 4846.0, 4868.0, 4838.0, 4806.0, 4832.0, 4810.0, 4832.0, 4806.0, 4836.0, 4840.0, 4844.0, 4836.0, 4808.0, 4834.0, 4846.0, 4844.0, 4838.0, 4808.0, 4830.0, 4836.0, 4836.0, 4806.0, 4806.0, 4840.0, 4868.0, 4840.0, 4838.0, 4844.0, 4838.0, 4830.0, 4808.0, 4832.0, 4838.0, 4834.0, 4806.0, 4838.0, 4846.0, 4844.0, 4832.0, 4832.0, 4836.0, 4810.0, 4808.0, 4838.0, 4836.0, 4832.0, 4840.0, 4842.0, 4806.0, 4802.0, 4808.0, 4842.0, 4874.0, 4870.0, 4836.0, 4808.0, 4808.0, 4808.0, 4836.0, 4838.0, 4808.0, 4832.0, 4838.0, 4838.0, 4842.0, 4834.0, 4806.0, 4834.0, 4834.0, 4842.0, 4836.0, 4806.0, 4808.0, 4836.0, 4846.0, 4840.0, 4834.0, 4832.0, 4836.0, 4836.0, 4830.0, 4834.0, 4838.0, 4836.0, 4806.0, 4832.0, 4840.0, 4842.0, 4832.0, 4806.0, 4838.0, 4866.0, 4842.0, 4834.0, 4840.0, 4840.0, 4836.0, 4810.0, 4806.0, 4838.0, 4834.0, 4834.0, 4838.0, 4868.0, 4844.0, 4834.0, 4836.0, 4838.0, 4834.0, 4808.0, 4810.0, 4836.0, 4840.0, 4834.0, 4834.0, 4838.0, 4836.0, 4832.0, 4840.0, 4838.0, 4838.0, 4830.0, 4838.0, 4836.0, 4830.0, 4834.0, 4838.0, 4834.0, 4836.0, 4840.0, 4834.0, 4834.0, 4836.0, 4808.0, 4810.0, 4838.0, 4838.0, 4836.0, 4808.0, 4838.0, 4840.0, 4840.0, 4832.0, 4834.0, 4836.0, 4840.0, 4838.0, 4832.0],
      "WindowWidth": [18642.0, 18640.0, 18596.0, 18638.0, 18648.0, 18648.0, 18646.0, 18646.0, 18636.0, 18602.0, 18636.0, 18642.0, 18632.0, 18634.0, 18640.0, 18644.0, 18648.0, 18602.0, 18600.0, 18636.0, 18642.0, 18642.0, 18632.0, 18640.0, 18642.0, 18636.0, 18600.0, 18602.0, 18646.0, 18676.0, 18648.0, 18634.0, 18642.0, 18652.0, 18640.0, 18600.0, 18600.0, 18632.0, 18632.0, 18602.0, 18602.0, 18646.0, 18650.0, 18676.0, 18642.0, 18602.0, 18634.0, 18602.0, 18632.0, 18600.0, 18640.0, 18646.0, 18646.0, 18634.0, 18604.0, 18634.0, 18650.0, 18644.0, 18636.0, 18600.0, 18630.0, 18636.0, 18636.0, 18600.0, 18600.0, 18646.0, 18676.0, 18644.0, 18640.0, 18644.0, 18644.0, 18632.0, 18600.0, 18630.0, 18638.0, 18634.0, 18604.0, 18636.0, 18646.0, 18644.0, 18632.0, 18634.0, 18636.0, 18598.0, 18600.0, 18636.0, 18640.0, 18632.0, 18642.0, 18642.0, 18600.0, 18604.0, 18604.0, 18644.0, 18682.0, 18678.0, 18638.0, 18604.0, 18606.0, 18608.0, 18636.0, 18636.0, 18602.0, 18636.0, 18636.0, 18642.0, 18644.0, 18630.0, 18604.0, 18636.0, 18634.0, 18640.0, 18634.0, 18606.0, 18602.0, 18636.0, 18644.0, 18636.0, 18634.0, 18636.0, 18638.0, 18632.0, 18632.0, 18640.0, 18636.0, 18636.0, 18602.0, 18630.0, 18640.0, 18640.0, 18632.0, 18604.0, 18634.0, 18674.0, 18642.0, 18634.0, 18642.0, 18634.0, 18634.0, 18606.0, 18602.0, 18636.0, 18636.0, 18634.0, 18636.0, 18670.0, 18642.0, 18634.0, 18636.0, 18638.0, 18636.0, 18602.0, 18600.0, 18636.0, 18634.0, 18636.0, 18632.0, 18636.0, 18634.0, 18632.0, 18636.0, 18636.0, 18638.0, 18636.0, 18638.0, 18634.0, 18632.0, 18632.0, 18640.0, 18634.0, 18638.0, 18638.0, 18636.0, 18634.0, 18634.0, 18604.0, 18604.0, 18636.0, 18636.0, 18632.0, 18602.0, 18638.0, 18636.0, 18634.0, 18630.0, 18632.0, 18636.0, 18640.0, 18638.0, 18632.0]
    },
    "slices": {}
  }
}