{
  "AcquisitionMatrixPE": 104,
  "AcquisitionNumber": 1,
  "AcquisitionTime": "17:28:1.400000",
  "BandwidthPerPixelPhaseEncode": 17.17,
  "BaseResolution": 104,
  "BodyPartExamined": "BRAIN",
  "CoilString": "HC1-7;NC1_2",
  "ConsistencyInfo": "N4_VE11C_LATEST_20160120",
  "ConversionSoftware": "dcm2niix",
  "ConversionSoftwareVersion": "v1.0.20190902",
  "DerivedVendorReportedEchoSpacing": 0.000560011,
  "DeviceSerialNumber": "167006",
  "DwellTime": 2.1e-06,
  "EchoTime": 0.037,
  "EchoTrainLength": 104,
  "EffectiveEchoSpacing": 0.000560011,
  "FlipAngle": 52,
  "HeudiconvVersion": "0.10.0",
  "ImageComments": "Unaliased_MB4_PE3_LB",
  "ImageOrientationPatientDICOM": [0.998163, 0.0524954, 0.0302576, -0.03852, 0.935251, -0.351883],
  "ImageType": [
    "ORIGINAL",
    "PRIMARY",
    "M",
    "MB",
    "ND",
    "MOSAIC"
],
  "ImagingFrequency": 123.259,
  "InPlanePhaseEncodingDirectionDICOM": "COL",
  "InstitutionAddress": "Chemin_Queen-Mary_4565_Montreal_District_CA_H3W_1W5",
  "InstitutionName": "IUGM",
  "InstitutionalDepartmentName": "Department",
  "MRAcquisitionType": "2D",
  "MagneticFieldStrength": 3,
  "Manufacturer": "Siemens",
  "ManufacturersModelName": "Prisma_fit",
  "Modality": "MR",
  "MultibandAccelerationFactor": 4,
  "PartialFourier": 1,
  "PatientPosition": "HFS",
  "PercentPhaseFOV": 100,
  "PhaseEncodingDirection": "j",
  "PhaseEncodingSteps": 104,
  "PhaseResolution": 1,
  "PixelBandwidth": 2290,
  "ProcedureStepDescription": "memory_things",
  "ProtocolName": "func_task-things_run-2",
  "PulseSequenceDetails": "%CustomerSeq%_cmrr_mbep2d_bold",
  "ReceiveCoilActiveElements": "HC1-7;NC1,2",
  "ReceiveCoilName": "HeadNeck_64",
  "ReconMatrixPE": 104,
  "RepetitionTime": 1.49,
  "SAR": 0.0474717,
  "ScanOptions": "FS",
  "ScanningSequence": "EP",
  "SequenceName": "epfid2d1_104",
  "SequenceVariant": "SK_SS",
  "SeriesDescription": "func_task-things_run-2",
  "SeriesNumber": 13,
  "ShimSetting": [629, -7182, -8825, 635, 75, 62, -73, -23],
  "SliceThickness": 2,
  "SliceTiming": [0, 0.785, 0.0975, 0.8825, 0.195, 0.98, 0.295, 1.0775, 0.3925, 1.175, 0.49, 1.275, 0.5875, 1.3725, 0.685, 0, 0.785, 0.0975, 0.8825, 0.195, 0.98, 0.295, 1.0775, 0.3925, 1.175, 0.49, 1.275, 0.5875, 1.3725, 0.685, 0, 0.785, 0.0975, 0.8825, 0.195, 0.98, 0.295, 1.0775, 0.3925, 1.175, 0.49, 1.275, 0.5875, 1.3725, 0.685, 0, 0.785, 0.0975, 0.8825, 0.195, 0.98, 0.295, 1.0775, 0.3925, 1.175, 0.49, 1.275, 0.5875, 1.3725, 0.685],
  "SoftwareVersions": "syngo_MR_E11",
  "SpacingBetweenSlices": 2,
  "StationName": "MRC35049",
  "TaskName": "things",
  "TotalReadoutTime": 0.0576811,
  "TxRefAmp": 271.603,
  "WipMemBlock": "6dfd4fe2-891d-4bd0-80b9-7c3747330170||Sequence: R016 ve11c/master r/e634e98; Dec 19 2017 11:00:25 by eja",
  "dcmmeta_affine": [
    [-1.9963253736495972, -0.07704007625579834, 0.0935414582490921, 107.87152862548828],
    [-0.10499086230993271, 1.870502233505249, -0.7001417875289917, -55.37107849121094],
    [0.06051526218652725, 0.703765869140625, 1.8711097240447998, -66.67984008789062],
    [0.0, 0.0, 0.0, 1.0]
],
  "dcmmeta_reorient_transform": [
    [0.0, -1.0, 0.0, 103.0],
    [1.0, 0.0, 0.0, 0.0],
    [0.0, 0.0, 1.0, 0.0],
    [0.0, 0.0, 0.0, 1.0]
],
  "dcmmeta_shape": [104, 104, 60, 190],
  "dcmmeta_slice_dim": 2,
  "dcmmeta_version": 0.6,
  "global": {
    "const": {
      "AcquisitionMatrix": [104, 0, 0, 104],
      "AngioFlag": "N",
      "BitsAllocated": 16,
      "BitsStored": 16,
      "BodyPartExamined": "BRAIN",
      "Columns": 832,
      "EchoNumbers": 1,
      "EchoTime": 37.0,
      "EchoTrainLength": 104,
      "FlipAngle": 52.0,
      "HighBit": 15,
      "ImageOrientationPatient": [0.99816266491488, 0.0524954300898, 0.0302576302725, -0.0385200383225, 0.93525108902071, -0.351882945215],
      "ImagePositionPatient": [-798.55623234518, -856.37011015604, 239.95127845064],
      "ImageType": [
        "ORIGINAL",
        "PRIMARY",
        "M",
        "MB",
        "ND",
        "MOSAIC"
],
      "ImagedNucleus": "1H",
      "ImagingFrequency": 123.2589,
      "InPlanePhaseEncodingDirection": "COL",
      "MRAcquisitionType": "2D",
      "MagneticFieldStrength": 3.0,
      "Manufacturer": "SIEMENS",
      "ManufacturerModelName": "Prisma_fit",
      "Modality": "MR",
      "NumberOfAverages": 1.0,
      "NumberOfPhaseEncodingSteps": 104,
      "PercentPhaseFieldOfView": 100.0,
      "PercentSampling": 100.0,
      "PerformedProcedureStepStartTime": "170329.127000",
      "PhotometricInterpretation": "MONOCHROME2",
      "PixelBandwidth": 2290.0,
      "PixelRepresentation": 0,
      "PixelSpacing": [2.0, 2.0],
      "ProtocolName": "func_task-things_run-2",
      "RepetitionTime": 1490.0,
      "Rows": 832,
      "SAR": 0.04747165367028,
      "SamplesPerPixel": 1,
      "ScanOptions": "FS",
      "ScanningSequence": "EP",
      "SequenceName": "epfid2d1_104",
      "SequenceVariant": [
        "SK",
        "SS"
],
      "SeriesDescription": "func_task-things_run-2",
      "SeriesNumber": 13,
      "SeriesTime": "172906.463000",
      "SliceLocation": -37.953611708915,
      "SliceThickness": 2.0,
      "SmallestImagePixelValue": 0,
      "SoftwareVersions": "syngo MR E11",
      "SpacingBetweenSlices": 1.9999999783121,
      "SpecificCharacterSet": "ISO_IR 100",
      "StudyID": "1",
      "StudyTime": "170329.072000",
      "TransmitCoilName": "Body",
      "VariableFlipAngleFlag": "N",
      "WindowCenterWidthExplanation": "Algo1",
      "dBdt": 0.0},
    "slices": {}
  },
  "time": {
    "samples": {
      "AcquisitionNumber": [1, 2, 3, 4, 5, 6, 7, 8, 9, 10, 11, 12, 13, 14, 15, 16, 17, 18, 19, 20, 21, 22, 23, 24, 25, 26, 27, 28, 29, 30, 31, 32, 33, 34, 35, 36, 37, 38, 39, 40, 41, 42, 43, 44, 45, 46, 47, 48, 49, 50, 51, 52, 53, 54, 55, 56, 57, 58, 59, 60, 61, 62, 63, 64, 65, 66, 67, 68, 69, 70, 71, 72, 73, 74, 75, 76, 77, 78, 79, 80, 81, 82, 83, 84, 85, 86, 87, 88, 89, 90, 91, 92, 93, 94, 95, 96, 97, 98, 99, 100, 101, 102, 103, 104, 105, 106, 107, 108, 109, 110, 111, 112, 113, 114, 115, 116, 117, 118, 119, 120, 121, 122, 123, 124, 125, 126, 127, 128, 129, 130, 131, 132, 133, 134, 135, 136, 137, 138, 139, 140, 141, 142, 143, 144, 145, 146, 147, 148, 149, 150, 151, 152, 153, 154, 155, 156, 157, 158, 159, 160, 161, 162, 163, 164, 165, 166, 167, 168, 169, 170, 171, 172, 173, 174, 175, 176, 177, 178, 179, 180, 181, 182, 183, 184, 185, 186, 187, 188, 189, 190],
      "AcquisitionTime": ["172801.400000", "172802.890000", "172804.380000", "172805.870000", "172807.360000", "172808.850000", "172810.340000", "172811.830000", "172813.320000", "172814.810000", "172816.300000", "172817.790000", "172819.280000", "172820.770000", "172822.260000", "172823.750000", "172825.240000", "172826.730000", "172828.220000", "172829.710000", "172831.200000", "172832.690000", "172834.180000", "172835.670000", "172837.160000", "172838.650000", "172840.140000", "172841.630000", "172843.120000", "172844.610000", "172846.100000", "172847.590000", "172849.080000", "172850.570000", "172852.060000", "172853.550000", "172855.040000", "172856.530000", "172858.020000", "172859.510000", "172901.000000", "172902.490000", "172903.980000", "172905.470000", "172906.960000", "172908.450000", "172909.940000", "172911.430000", "172912.920000", "172914.410000", "172915.900000", "172917.390000", "172918.880000", "172920.370000", "172921.860000", "172923.350000", "172924.840000", "172926.330000", "172927.820000", "172929.310000", "172930.800000", "172932.290000", "172933.780000", "172935.270000", "172936.760000", "172938.250000", "172939.740000", "172941.230000", "172942.720000", "172944.210000", "172945.700000", "172947.190000", "172948.680000", "172950.170000", "172951.660000", "172953.150000", "172954.640000", "172956.130000", "172957.620000", "172959.110000", "173000.600000", "173002.090000", "173003.580000", "173005.070000", "173006.560000", "173008.050000", "173009.540000", "173011.030000", "173012.520000", "173014.010000", "173015.500000", "173016.990000", "173018.480000", "173019.970000", "173021.460000", "173022.950000", "173024.440000", "173025.930000", "173027.420000", "173028.910000", "173030.400000", "173031.890000", "173033.380000", "173034.870000", "173036.360000", "173037.850000", "173039.340000", "173040.830000", "173042.320000", "173043.810000", "173045.300000", "173046.790000", "173048.280000", "173049.770000", "173051.260000", "173052.750000", "173054.240000", "173055.730000", "173057.220000", "173058.710000", "173100.200000", "173101.690000", "173103.180000", "173104.670000", "173106.160000", "173107.650000", "173109.140000", "173110.630000", "173112.120000", "173113.610000", "173115.100000", "173116.590000", "173118.080000", "173119.570000", "173121.060000", "173122.550000", "173124.040000", "173125.530000", "173127.020000", "173128.510000", "173130.000000", "173131.490000", "173132.980000", "173134.470000", "173135.960000", "173137.450000", "173138.940000", "173140.430000", "173141.920000", "173143.410000", "173144.900000", "173146.390000", "173147.880000", "173149.370000", "173150.860000", "173152.350000", "173153.840000", "173155.330000", "173156.820000", "173158.310000", "173159.800000", "173201.290000", "173202.780000", "173204.270000", "173205.760000", "173207.250000", "173208.740000", "173210.230000", "173211.720000", "173213.210000", "173214.700000", "173216.190000", "173217.680000", "173219.170000", "173220.660000", "173222.150000", "173223.640000", "173225.130000", "173226.620000", "173228.110000", "173229.600000", "173231.090000", "173232.580000", "173234.070000", "173235.560000", "173237.050000", "173238.540000", "173240.030000", "173241.520000", "173243.010000"],
      "ContentTime": ["172906.466000", "172906.470000", "172906.474000", "172906.477000", "172906.480000", "172906.484000", "172906.487000", "172906.491000", "172906.494000", "172906.497000", "172926.431000", "172926.435000", "172926.438000", "172926.442000", "172926.445000", "172926.449000", "172926.453000", "172926.456000", "172926.459000", "172926.463000", "172926.467000", "172926.470000", "172926.473000", "172926.477000", "172926.485000", "172926.488000", "172926.492000", "172926.495000", "172926.499000", "172926.502000", "172926.506000", "172946.432000", "172946.436000", "172946.439000", "172946.443000", "172946.446000", "172946.449000", "172946.453000", "172946.457000", "172946.460000", "172946.464000", "172946.467000", "172946.470000", "172946.474000", "172946.477000", "172946.480000", "172946.484000", "172946.487000", "172946.490000", "172946.494000", "172946.497000", "173006.432000", "173006.436000", "173006.439000", "173006.442000", "173006.446000", "173006.449000", "173006.452000", "173006.456000", "173006.459000", "173006.465000", "173006.469000", "173006.472000", "173006.475000", "173006.479000", "173006.482000", "173006.485000", "173006.489000", "173006.492000", "173006.495000", "173006.499000", "173026.433000", "173026.437000", "173026.441000", "173026.444000", "173026.448000", "173026.452000", "173026.456000", "173026.460000", "173026.463000", "173026.467000", "173026.471000", "173026.475000", "173026.478000", "173026.482000", "173026.486000", "173026.490000", "173026.507000", "173026.511000", "173026.515000", "173026.519000", "173106.431000", "173106.435000", "173106.438000", "173106.442000", "173106.445000", "173106.448000", "173106.452000", "173106.455000", "173106.458000", "173106.462000", "173106.465000", "173106.468000", "173106.472000", "173106.475000", "173106.478000", "173106.482000", "173106.485000", "173106.489000", "173106.492000", "173106.495000", "173106.499000", "173106.502000", "173106.505000", "173106.509000", "173106.512000", "173106.515000", "173106.519000", "173106.522000", "173106.525000", "173106.529000", "173106.532000", "173106.535000", "173146.431000", "173146.435000", "173146.438000", "173146.442000", "173146.445000", "173146.448000", "173146.452000", "173146.455000", "173146.458000", "173146.462000", "173146.465000", "173146.468000", "173146.472000", "173146.475000", "173146.478000", "173146.482000", "173146.485000", "173146.488000", "173146.492000", "173146.495000", "173146.498000", "173146.502000", "173146.505000", "173146.508000", "173146.512000", "173146.515000", "173146.518000", "173226.432000", "173226.436000", "173226.439000", "173226.443000", "173226.446000", "173226.449000", "173226.453000", "173226.456000", "173226.459000", "173226.463000", "173226.466000", "173226.470000", "173226.473000", "173226.476000", "173226.480000", "173226.483000", "173226.486000", "173226.490000", "173226.493000", "173226.496000", "173226.500000", "173226.503000", "173226.506000", "173226.510000", "173226.513000", "173226.516000", "173226.520000", "173245.421000", "173245.426000", "173245.435000", "173245.439000", "173245.443000", "173245.446000", "173245.449000", "173245.453000", "173245.456000", "173245.459000", "173245.463000", "173245.466000", "173245.469000"],
      "InstanceCreationTime": ["172906.466000", "172906.470000", "172906.474000", "172906.477000", "172906.480000", "172906.484000", "172906.487000", "172906.491000", "172906.494000", "172906.497000", "172926.431000", "172926.435000", "172926.438000", "172926.442000", "172926.445000", "172926.449000", "172926.453000", "172926.456000", "172926.459000", "172926.463000", "172926.467000", "172926.470000", "172926.473000", "172926.477000", "172926.485000", "172926.488000", "172926.492000", "172926.495000", "172926.499000", "172926.502000", "172926.506000", "172946.432000", "172946.436000", "172946.439000", "172946.443000", "172946.446000", "172946.449000", "172946.453000", "172946.457000", "172946.460000", "172946.464000", "172946.467000", "172946.470000", "172946.474000", "172946.477000", "172946.480000", "172946.484000", "172946.487000", "172946.490000", "172946.494000", "172946.497000", "173006.432000", "173006.436000", "173006.439000", "173006.442000", "173006.446000", "173006.449000", "173006.452000", "173006.456000", "173006.459000", "173006.465000", "173006.469000", "173006.472000", "173006.475000", "173006.479000", "173006.482000", "173006.485000", "173006.489000", "173006.492000", "173006.495000", "173006.499000", "173026.433000", "173026.437000", "173026.441000", "173026.444000", "173026.448000", "173026.452000", "173026.456000", "173026.460000", "173026.463000", "173026.467000", "173026.471000", "173026.475000", "173026.478000", "173026.482000", "173026.486000", "173026.490000", "173026.507000", "173026.511000", "173026.515000", "173026.519000", "173106.431000", "173106.435000", "173106.438000", "173106.442000", "173106.445000", "173106.448000", "173106.452000", "173106.455000", "173106.458000", "173106.462000", "173106.465000", "173106.468000", "173106.472000", "173106.475000", "173106.478000", "173106.482000", "173106.485000", "173106.489000", "173106.492000", "173106.495000", "173106.499000", "173106.502000", "173106.505000", "173106.509000", "173106.512000", "173106.515000", "173106.519000", "173106.522000", "173106.525000", "173106.529000", "173106.532000", "173106.535000", "173146.431000", "173146.435000", "173146.438000", "173146.442000", "173146.445000", "173146.448000", "173146.452000", "173146.455000", "173146.458000", "173146.462000", "173146.465000", "173146.468000", "173146.472000", "173146.475000", "173146.478000", "173146.482000", "173146.485000", "173146.488000", "173146.492000", "173146.495000", "173146.498000", "173146.502000", "173146.505000", "173146.508000", "173146.512000", "173146.515000", "173146.518000", "173226.432000", "173226.436000", "173226.439000", "173226.443000", "173226.446000", "173226.449000", "173226.453000", "173226.456000", "173226.459000", "173226.463000", "173226.466000", "173226.470000", "173226.473000", "173226.476000", "173226.480000", "173226.483000", "173226.486000", "173226.490000", "173226.493000", "173226.496000", "173226.500000", "173226.503000", "173226.506000", "173226.510000", "173226.513000", "173226.516000", "173226.520000", "173245.421000", "173245.426000", "173245.435000", "173245.439000", "173245.443000", "173245.446000", "173245.449000", "173245.453000", "173245.456000", "173245.459000", "173245.463000", "173245.466000", "173245.469000"],
      "InstanceNumber": [1, 2, 3, 4, 5, 6, 7, 8, 9, 10, 11, 12, 13, 14, 15, 16, 17, 18, 19, 20, 21, 22, 23, 24, 25, 26, 27, 28, 29, 30, 31, 32, 33, 34, 35, 36, 37, 38, 39, 40, 41, 42, 43, 44, 45, 46, 47, 48, 49, 50, 51, 52, 53, 54, 55, 56, 57, 58, 59, 60, 61, 62, 63, 64, 65, 66, 67, 68, 69, 70, 71, 72, 73, 74, 75, 76, 77, 78, 79, 80, 81, 82, 83, 84, 85, 86, 87, 88, 89, 90, 91, 92, 93, 94, 95, 96, 97, 98, 99, 100, 101, 102, 103, 104, 105, 106, 107, 108, 109, 110, 111, 112, 113, 114, 115, 116, 117, 118, 119, 120, 121, 122, 123, 124, 125, 126, 127, 128, 129, 130, 131, 132, 133, 134, 135, 136, 137, 138, 139, 140, 141, 142, 143, 144, 145, 146, 147, 148, 149, 150, 151, 152, 153, 154, 155, 156, 157, 158, 159, 160, 161, 162, 163, 164, 165, 166, 167, 168, 169, 170, 171, 172, 173, 174, 175, 176, 177, 178, 179, 180, 181, 182, 183, 184, 185, 186, 187, 188, 189, 190],
      "LargestImagePixelValue": [40284, 39043, 39331, 38844, 38426, 39008, 38603, 38789, 38863, 38089, 38463, 38672, 39771, 39281, 37970, 38541, 38407, 38935, 44478, 39133, 38131, 38186, 38405, 38908, 39335, 38432, 38707, 38950, 39612, 38761, 38380, 38633, 38801, 38893, 38349, 38711, 38913, 38345, 39247, 39334, 39624, 38603, 38410, 38888, 39737, 39028, 39456, 39492, 39649, 39257, 38787, 38976, 39518, 39487, 38689, 38641, 39866, 39343, 39223, 39392, 39736, 38287, 38848, 39298, 38630, 38769, 39888, 38742, 38909, 39457, 38942, 37897, 38750, 39494, 38744, 38851, 39514, 39352, 38892, 38622, 39408, 38985, 39134, 39671, 39288, 39032, 39474, 39382, 38895, 38483, 38611, 39681, 39087, 38820, 38771, 39103, 38723, 38920, 39792, 38519, 39084, 39339, 40169, 39412, 39086, 39207, 39497, 39157, 39212, 39045, 39109, 38310, 38906, 39203, 38470, 38204, 39269, 38295, 38578, 39843, 39259, 38187, 38800, 38995, 38548, 39768, 39940, 39991, 39003, 39284, 39089, 39700, 39434, 39235, 38949, 39337, 39259, 38569, 39445, 38523, 38558, 38882, 39087, 38893, 38809, 38862, 38914, 38765, 38333, 39113, 40198, 38615, 38854, 38813, 39713, 39487, 38967, 39264, 38765, 38079, 38523, 39109, 38438, 38656, 39071, 38910, 38645, 39158, 38994, 38774, 39004, 39674, 39182, 38712, 39217, 39286, 38637, 38908, 39165, 39284, 39129, 39235, 39106, 38597, 38751, 38671, 38934, 38004, 37969, 38823],
      "WindowCenter": [10334.0, 10280.0, 10268.0, 10259.0, 10259.0, 10244.0, 10227.0, 10234.0, 10252.0, 10260.0, 10250.0, 10243.0, 10239.0, 10247.0, 10249.0, 10259.0, 10255.0, 10253.0, 10312.0, 10271.0, 10251.0, 10231.0, 10219.0, 10238.0, 10256.0, 10252.0, 10246.0, 10234.0, 10237.0, 10233.0, 10252.0, 10254.0, 10254.0, 10251.0, 10245.0, 10242.0, 10239.0, 10252.0, 10275.0, 10282.0, 10287.0, 10263.0, 10247.0, 10232.0, 10244.0, 10266.0, 10291.0, 10276.0, 10273.0, 10255.0, 10244.0, 10241.0, 10241.0, 10255.0, 10253.0, 10243.0, 10251.0, 10243.0, 10263.0, 10265.0, 10255.0, 10235.0, 10226.0, 10221.0, 10221.0, 10248.0, 10271.0, 10262.0, 10260.0, 10250.0, 10233.0, 10222.0, 10225.0, 10237.0, 10249.0, 10261.0, 10258.0, 10246.0, 10230.0, 10223.0, 10227.0, 10239.0, 10267.0, 10267.0, 10251.0, 10242.0, 10239.0, 10247.0, 10257.0, 10263.0, 10257.0, 10259.0, 10251.0, 10254.0, 10245.0, 10250.0, 10251.0, 10267.0, 10274.0, 10254.0, 10259.0, 10266.0, 10277.0, 10276.0, 10288.0, 10278.0, 10253.0, 10234.0, 10238.0, 10248.0, 10251.0, 10256.0, 10259.0, 10248.0, 10225.0, 10236.0, 10256.0, 10252.0, 10260.0, 10261.0, 10239.0, 10232.0, 10240.0, 10241.0, 10245.0, 10256.0, 10257.0, 10261.0, 10244.0, 10229.0, 10220.0, 10235.0, 10254.0, 10274.0, 10264.0, 10248.0, 10242.0, 10236.0, 10249.0, 10238.0, 10247.0, 10252.0, 10243.0, 10240.0, 10230.0, 10228.0, 10231.0, 10242.0, 10253.0, 10257.0, 10271.0, 10263.0, 10257.0, 10238.0, 10245.0, 10249.0, 10268.0, 10268.0, 10240.0, 10225.0, 10226.0, 10224.0, 10227.0, 10241.0, 10241.0, 10241.0, 10243.0, 10249.0, 10249.0, 10259.0, 10270.0, 10267.0, 10246.0, 10239.0, 10234.0, 10230.0, 10226.0, 10244.0, 10244.0, 10241.0, 10235.0, 10232.0, 10239.0, 10241.0, 10269.0, 10281.0, 10274.0, 10251.0, 10226.0, 10218.0],
      "WindowWidth": [21921.0, 21783.0, 21744.0, 21726.0, 21724.0, 21680.0, 21640.0, 21653.0, 21699.0, 21722.0, 21698.0, 21675.0, 21662.0, 21678.0, 21700.0, 21722.0, 21709.0, 21701.0, 21823.0, 21746.0, 21704.0, 21655.0, 21628.0, 21666.0, 21713.0, 21703.0, 21690.0, 21661.0, 21662.0, 21661.0, 21706.0, 21708.0, 21705.0, 21698.0, 21687.0, 21677.0, 21671.0, 21705.0, 21753.0, 21773.0, 21777.0, 21728.0, 21691.0, 21654.0, 21677.0, 21738.0, 21791.0, 21750.0, 21739.0, 21698.0, 21681.0, 21672.0, 21671.0, 21702.0, 21706.0, 21683.0, 21690.0, 21676.0, 21724.0, 21726.0, 21700.0, 21662.0, 21644.0, 21629.0, 21633.0, 21693.0, 21742.0, 21727.0, 21721.0, 21691.0, 21653.0, 21638.0, 21642.0, 21661.0, 21693.0, 21723.0, 21714.0, 21680.0, 21650.0, 21633.0, 21641.0, 21673.0, 21737.0, 21735.0, 21695.0, 21676.0, 21669.0, 21686.0, 21712.0, 21730.0, 21712.0, 21712.0, 21697.0, 21709.0, 21688.0, 21693.0, 21698.0, 21735.0, 21746.0, 21705.0, 21715.0, 21729.0, 21747.0, 21752.0, 21783.0, 21758.0, 21701.0, 21657.0, 21667.0, 21690.0, 21699.0, 21716.0, 21716.0, 21683.0, 21638.0, 21665.0, 21705.0, 21699.0, 21717.0, 21710.0, 21662.0, 21654.0, 21671.0, 21672.0, 21689.0, 21704.0, 21704.0, 21713.0, 21682.0, 21644.0, 21626.0, 21656.0, 21701.0, 21747.0, 21726.0, 21691.0, 21676.0, 21662.0, 21694.0, 21671.0, 21693.0, 21697.0, 21674.0, 21667.0, 21650.0, 21646.0, 21648.0, 21678.0, 21702.0, 21706.0, 21731.0, 21726.0, 21712.0, 21665.0, 21671.0, 21687.0, 21738.0, 21732.0, 21671.0, 21642.0, 21640.0, 21634.0, 21645.0, 21676.0, 21674.0, 21674.0, 21682.0, 21691.0, 21692.0, 21716.0, 21743.0, 21732.0, 21686.0, 21673.0, 21658.0, 21647.0, 21646.0, 21686.0, 21686.0, 21675.0, 21663.0, 21655.0, 21666.0, 21676.0, 21739.0, 21763.0, 21747.0, 21702.0, 21650.0, 21622.0]
    },
    "slices": {}
  }
}