{
  "AcquisitionMatrixPE": 104,
  "AcquisitionNumber": 1,
  "AcquisitionTime": "17:41:29.142500",
  "BandwidthPerPixelPhaseEncode": 17.17,
  "BaseResolution": 104,
  "BodyPartExamined": "BRAIN",
  "CoilString": "HC1-7;NC1_2",
  "ConsistencyInfo": "N4_VE11C_LATEST_20160120",
  "ConversionSoftware": "dcm2niix",
  "ConversionSoftwareVersion": "v1.0.20190902",
  "DerivedVendorReportedEchoSpacing": 0.000560011,
  "DeviceSerialNumber": "167006",
  "DwellTime": 2.1e-06,
  "EchoTime": 0.037,
  "EchoTrainLength": 104,
  "EffectiveEchoSpacing": 0.000560011,
  "FlipAngle": 52,
  "HeudiconvVersion": "0.10.0",
  "ImageComments": "Unaliased_MB4_PE3_LB",
  "ImageOrientationPatientDICOM": [0.998163, 0.0524954, 0.0302576, -0.03852, 0.935251, -0.351883],
  "ImageType": [
    "ORIGINAL",
    "PRIMARY",
    "P",
    "MB",
    "ND",
    "MOSAIC"
],
  "ImagingFrequency": 123.259,
  "InPlanePhaseEncodingDirectionDICOM": "COL",
  "InstitutionAddress": "Chemin_Queen-Mary_4565_Montreal_District_CA_H3W_1W5",
  "InstitutionName": "IUGM",
  "InstitutionalDepartmentName": "Department",
  "MRAcquisitionType": "2D",
  "MagneticFieldStrength": 3,
  "Manufacturer": "Siemens",
  "ManufacturersModelName": "Prisma_fit",
  "Modality": "MR",
  "MultibandAccelerationFactor": 4,
  "PartialFourier": 1,
  "PatientPosition": "HFS",
  "PercentPhaseFOV": 100,
  "PhaseEncodingDirection": "j",
  "PhaseEncodingSteps": 104,
  "PhaseResolution": 1,
  "PixelBandwidth": 2290,
  "ProcedureStepDescription": "memory_things",
  "ProtocolName": "func_task-things_run-4",
  "PulseSequenceDetails": "%CustomerSeq%_cmrr_mbep2d_bold",
  "ReceiveCoilActiveElements": "HC1-7;NC1,2",
  "ReceiveCoilName": "HeadNeck_64",
  "ReconMatrixPE": 104,
  "RepetitionTime": 1.49,
  "SAR": 0.0474717,
  "ScanOptions": "FS",
  "ScanningSequence": "EP",
  "SequenceName": "epfid2d1_104",
  "SequenceVariant": "SK_SS",
  "SeriesDescription": "func_task-things_run-4",
  "SeriesNumber": 20,
  "ShimSetting": [629, -7182, -8825, 635, 75, 62, -73, -23],
  "SliceThickness": 2,
  "SliceTiming": [0, 0.785, 0.0975, 0.8825, 0.195, 0.98, 0.295, 1.0775, 0.3925, 1.175, 0.49, 1.275, 0.5875, 1.3725, 0.685, 0, 0.785, 0.0975, 0.8825, 0.195, 0.98, 0.295, 1.0775, 0.3925, 1.175, 0.49, 1.275, 0.5875, 1.3725, 0.685, 0, 0.785, 0.0975, 0.8825, 0.195, 0.98, 0.295, 1.0775, 0.3925, 1.175, 0.49, 1.275, 0.5875, 1.3725, 0.685, 0, 0.785, 0.0975, 0.8825, 0.195, 0.98, 0.295, 1.0775, 0.3925, 1.175, 0.49, 1.275, 0.5875, 1.3725, 0.685],
  "SoftwareVersions": "syngo_MR_E11",
  "SpacingBetweenSlices": 2,
  "StationName": "MRC35049",
  "TaskName": "things",
  "TotalReadoutTime": 0.0576811,
  "TxRefAmp": 271.603,
  "WipMemBlock": "94dbf78d-7394-4258-8707-e7fdd3179b29||Sequence: R016 ve11c/master r/e634e98; Dec 19 2017 11:00:25 by eja",
  "dcmmeta_affine": [
    [-1.9963253736495972, -0.07704007625579834, 0.0935414582490921, 107.87152862548828],
    [-0.10499086230993271, 1.870502233505249, -0.7001417875289917, -55.37107849121094],
    [0.06051526218652725, 0.703765869140625, 1.8711097240447998, -66.67984008789062],
    [0.0, 0.0, 0.0, 1.0]
],
  "dcmmeta_reorient_transform": [
    [0.0, -1.0, 0.0, 103.0],
    [1.0, 0.0, 0.0, 0.0],
    [0.0, 0.0, 1.0, 0.0],
    [0.0, 0.0, 0.0, 1.0]
],
  "dcmmeta_shape": [104, 104, 60, 190],
  "dcmmeta_slice_dim": 2,
  "dcmmeta_version": 0.6,
  "global": {
    "const": {
      "AcquisitionMatrix": [104, 0, 0, 104],
      "AngioFlag": "N",
      "BitsAllocated": 16,
      "BitsStored": 16,
      "BodyPartExamined": "BRAIN",
      "Columns": 832,
      "EchoNumbers": 1,
      "EchoTime": 37.0,
      "EchoTrainLength": 104,
      "FlipAngle": 52.0,
      "HighBit": 15,
      "ImageOrientationPatient": [0.99816266491488, 0.0524954300898, 0.0302576302725, -0.0385200383225, 0.93525108902071, -0.351882945215],
      "ImagePositionPatient": [-798.55623234518, -856.37011015604, 239.95127845064],
      "ImageType": [
        "ORIGINAL",
        "PRIMARY",
        "P",
        "MB",
        "ND",
        "MOSAIC"
],
      "ImagedNucleus": "1H",
      "ImagingFrequency": 123.258908,
      "InPlanePhaseEncodingDirection": "COL",
      "LargestImagePixelValue": 4095,
      "MRAcquisitionType": "2D",
      "MagneticFieldStrength": 3.0,
      "Manufacturer": "SIEMENS",
      "ManufacturerModelName": "Prisma_fit",
      "Modality": "MR",
      "NumberOfAverages": 1.0,
      "NumberOfPhaseEncodingSteps": 104,
      "PercentPhaseFieldOfView": 100.0,
      "PercentSampling": 100.0,
      "PerformedProcedureStepStartTime": "170329.127000",
      "PhotometricInterpretation": "MONOCHROME2",
      "PixelBandwidth": 2290.0,
      "PixelRepresentation": 0,
      "PixelSpacing": [2.0, 2.0],
      "ProtocolName": "func_task-things_run-4",
      "RepetitionTime": 1490.0,
      "RescaleIntercept": -4096.0,
      "RescaleSlope": 2.0,
      "RescaleType": "US",
      "Rows": 832,
      "SAR": 0.04747165367028,
      "SamplesPerPixel": 1,
      "ScanOptions": "FS",
      "ScanningSequence": "EP",
      "SequenceName": "epfid2d1_104",
      "SequenceVariant": [
        "SK",
        "SS"
],
      "SeriesDescription": "func_task-things_run-4",
      "SeriesNumber": 20,
      "SeriesTime": "174254.719000",
      "SliceLocation": -37.953611708915,
      "SliceThickness": 2.0,
      "SmallestImagePixelValue": 0,
      "SoftwareVersions": "syngo MR E11",
      "SpacingBetweenSlices": 1.9999999783121,
      "SpecificCharacterSet": "ISO_IR 100",
      "StudyID": "1",
      "StudyTime": "170329.072000",
      "TransmitCoilName": "Body",
      "VariableFlipAngleFlag": "N",
      "WindowCenterWidthExplanation": "Algo1",
      "dBdt": 0.0},
    "slices": {}
  },
  "time": {
    "samples": {
      "AcquisitionNumber": [1, 2, 3, 4, 5, 6, 7, 8, 9, 10, 11, 12, 13, 14, 15, 16, 17, 18, 19, 20, 21, 22, 23, 24, 25, 26, 27, 28, 29, 30, 31, 32, 33, 34, 35, 36, 37, 38, 39, 40, 41, 42, 43, 44, 45, 46, 47, 48, 49, 50, 51, 52, 53, 54, 55, 56, 57, 58, 59, 60, 61, 62, 63, 64, 65, 66, 67, 68, 69, 70, 71, 72, 73, 74, 75, 76, 77, 78, 79, 80, 81, 82, 83, 84, 85, 86, 87, 88, 89, 90, 91, 92, 93, 94, 95, 96, 97, 98, 99, 100, 101, 102, 103, 104, 105, 106, 107, 108, 109, 110, 111, 112, 113, 114, 115, 116, 117, 118, 119, 120, 121, 122, 123, 124, 125, 126, 127, 128, 129, 130, 131, 132, 133, 134, 135, 136, 137, 138, 139, 140, 141, 142, 143, 144, 145, 146, 147, 148, 149, 150, 151, 152, 153, 154, 155, 156, 157, 158, 159, 160, 161, 162, 163, 164, 165, 166, 167, 168, 169, 170, 171, 172, 173, 174, 175, 176, 177, 178, 179, 180, 181, 182, 183, 184, 185, 186, 187, 188, 189, 190],
      "AcquisitionTime": ["174129.142500", "174130.632500", "174132.122500", "174133.612500", "174135.102500", "174136.592500", "174138.082500", "174139.572500", "174141.062500", "174142.552500", "174144.042500", "174145.532500", "174147.022500", "174148.512500", "174150.002500", "174151.492500", "174152.982500", "174154.472500", "174155.962500", "174157.452500", "174158.942500", "174200.432500", "174201.922500", "174203.412500", "174204.902500", "174206.392500", "174207.882500", "174209.372500", "174210.862500", "174212.352500", "174213.842500", "174215.332500", "174216.822500", "174218.312500", "174219.802500", "174221.292500", "174222.782500", "174224.272500", "174225.762500", "174227.252500", "174228.742500", "174230.232500", "174231.722500", "174233.212500", "174234.702500", "174236.192500", "174237.682500", "174239.172500", "174240.662500", "174242.152500", "174243.642500", "174245.132500", "174246.622500", "174248.112500", "174249.602500", "174251.092500", "174252.582500", "174254.072500", "174255.562500", "174257.052500", "174258.542500", "174300.032500", "174301.522500", "174303.012500", "174304.502500", "174305.992500", "174307.482500", "174308.972500", "174310.462500", "174311.952500", "174313.442500", "174314.932500", "174316.422500", "174317.912500", "174319.402500", "174320.892500", "174322.382500", "174323.872500", "174325.362500", "174326.852500", "174328.342500", "174329.832500", "174331.322500", "174332.812500", "174334.302500", "174335.792500", "174337.282500", "174338.772500", "174340.262500", "174341.752500", "174343.242500", "174344.732500", "174346.222500", "174347.712500", "174349.202500", "174350.692500", "174352.182500", "174353.672500", "174355.162500", "174356.652500", "174358.142500", "174359.632500", "174401.122500", "174402.612500", "174404.102500", "174405.592500", "174407.082500", "174408.572500", "174410.062500", "174411.552500", "174413.042500", "174414.532500", "174416.022500", "174417.512500", "174419.002500", "174420.492500", "174421.982500", "174423.472500", "174424.962500", "174426.452500", "174427.942500", "174429.432500", "174430.922500", "174432.412500", "174433.902500", "174435.392500", "174436.882500", "174438.372500", "174439.862500", "174441.352500", "174442.842500", "174444.332500", "174445.822500", "174447.312500", "174448.802500", "174450.292500", "174451.782500", "174453.272500", "174454.762500", "174456.252500", "174457.742500", "174459.232500", "174500.722500", "174502.212500", "174503.702500", "174505.192500", "174506.682500", "174508.172500", "174509.662500", "174511.152500", "174512.642500", "174514.132500", "174515.622500", "174517.112500", "174518.602500", "174520.092500", "174521.582500", "174523.072500", "174524.562500", "174526.052500", "174527.542500", "174529.032500", "174530.522500", "174532.012500", "174533.502500", "174534.992500", "174536.482500", "174537.972500", "174539.462500", "174540.952500", "174542.442500", "174543.932500", "174545.422500", "174546.912500", "174548.402500", "174549.892500", "174551.382500", "174552.872500", "174554.362500", "174555.852500", "174557.342500", "174558.832500", "174600.322500", "174601.812500", "174603.302500", "174604.792500", "174606.282500", "174607.772500", "174609.262500", "174610.752500"],
      "ContentTime": ["174254.721000", "174254.724000", "174254.730000", "174254.732000", "174254.735000", "174254.737000", "174254.740000", "174254.742000", "174254.745000", "174254.747000", "174254.750000", "174254.752000", "174254.755000", "174254.757000", "174254.760000", "174254.762000", "174254.765000", "174254.767000", "174254.769000", "174254.772000", "174254.774000", "174254.777000", "174254.779000", "174254.782000", "174254.784000", "174254.789000", "174254.791000", "174254.794000", "174254.796000", "174254.799000", "174254.801000", "174254.804000", "174314.986000", "174314.990000", "174314.992000", "174314.995000", "174314.997000", "174315.001000", "174315.003000", "174315.006000", "174315.008000", "174315.011000", "174315.013000", "174315.016000", "174315.019000", "174315.021000", "174315.023000", "174315.032000", "174315.034000", "174315.037000", "174315.039000", "174315.042000", "174334.643000", "174334.645000", "174334.648000", "174334.650000", "174334.653000", "174334.656000", "174334.658000", "174334.661000", "174334.663000", "174334.666000", "174334.668000", "174334.671000", "174334.673000", "174334.676000", "174334.678000", "174334.681000", "174334.683000", "174334.686000", "174334.688000", "174334.691000", "174354.636000", "174354.638000", "174354.641000", "174354.643000", "174354.646000", "174354.656000", "174354.659000", "174354.661000", "174354.664000", "174354.666000", "174354.669000", "174354.671000", "174354.674000", "174354.677000", "174354.679000", "174354.682000", "174354.684000", "174354.687000", "174354.689000", "174354.692000", "174434.690000", "174434.693000", "174434.695000", "174434.698000", "174434.700000", "174434.703000", "174434.705000", "174434.708000", "174434.710000", "174434.713000", "174434.715000", "174434.718000", "174434.720000", "174434.723000", "174434.725000", "174434.728000", "174434.730000", "174434.733000", "174434.735000", "174434.738000", "174434.740000", "174434.743000", "174434.745000", "174434.748000", "174434.750000", "174434.753000", "174434.755000", "174434.758000", "174434.760000", "174434.763000", "174434.765000", "174514.664000", "174514.666000", "174514.669000", "174514.671000", "174514.674000", "174514.677000", "174514.679000", "174514.682000", "174514.684000", "174514.687000", "174514.689000", "174514.692000", "174514.694000", "174514.697000", "174514.699000", "174514.702000", "174514.705000", "174514.707000", "174514.710000", "174514.712000", "174514.715000", "174514.717000", "174514.720000", "174514.722000", "174514.725000", "174514.727000", "174514.730000", "174554.671000", "174554.674000", "174554.676000", "174554.679000", "174554.681000", "174554.684000", "174554.686000", "174554.689000", "174554.692000", "174554.694000", "174554.697000", "174554.699000", "174554.702000", "174554.704000", "174554.707000", "174554.709000", "174554.712000", "174554.714000", "174554.717000", "174554.719000", "174554.722000", "174554.724000", "174554.727000", "174554.729000", "174554.732000", "174554.734000", "174554.737000", "174613.004000", "174613.007000", "174613.010000", "174613.012000", "174613.015000", "174613.018000", "174613.020000", "174613.023000", "174613.026000", "174613.028000", "174613.031000", "174613.033000", "174613.036000"],
      "InstanceCreationTime": ["174254.721000", "174254.724000", "174254.730000", "174254.732000", "174254.735000", "174254.737000", "174254.740000", "174254.742000", "174254.745000", "174254.747000", "174254.750000", "174254.752000", "174254.755000", "174254.757000", "174254.760000", "174254.762000", "174254.765000", "174254.767000", "174254.769000", "174254.772000", "174254.774000", "174254.777000", "174254.779000", "174254.782000", "174254.784000", "174254.789000", "174254.791000", "174254.794000", "174254.796000", "174254.799000", "174254.801000", "174254.804000", "174314.986000", "174314.990000", "174314.992000", "174314.995000", "174314.997000", "174315.001000", "174315.003000", "174315.006000", "174315.008000", "174315.011000", "174315.013000", "174315.016000", "174315.019000", "174315.021000", "174315.023000", "174315.032000", "174315.034000", "174315.037000", "174315.039000", "174315.042000", "174334.643000", "174334.645000", "174334.648000", "174334.650000", "174334.653000", "174334.656000", "174334.658000", "174334.661000", "174334.663000", "174334.666000", "174334.668000", "174334.671000", "174334.673000", "174334.676000", "174334.678000", "174334.681000", "174334.683000", "174334.686000", "174334.688000", "174334.691000", "174354.636000", "174354.638000", "174354.641000", "174354.643000", "174354.646000", "174354.656000", "174354.659000", "174354.661000", "174354.664000", "174354.666000", "174354.669000", "174354.671000", "174354.674000", "174354.677000", "174354.679000", "174354.682000", "174354.684000", "174354.687000", "174354.689000", "174354.692000", "174434.690000", "174434.693000", "174434.695000", "174434.698000", "174434.700000", "174434.703000", "174434.705000", "174434.708000", "174434.710000", "174434.713000", "174434.715000", "174434.718000", "174434.720000", "174434.723000", "174434.725000", "174434.728000", "174434.730000", "174434.733000", "174434.735000", "174434.738000", "174434.740000", "174434.743000", "174434.745000", "174434.748000", "174434.750000", "174434.753000", "174434.755000", "174434.758000", "174434.760000", "174434.763000", "174434.765000", "174514.664000", "174514.666000", "174514.669000", "174514.671000", "174514.674000", "174514.677000", "174514.679000", "174514.682000", "174514.684000", "174514.687000", "174514.689000", "174514.692000", "174514.694000", "174514.697000", "174514.699000", "174514.702000", "174514.705000", "174514.707000", "174514.710000", "174514.712000", "174514.715000", "174514.717000", "174514.720000", "174514.722000", "174514.725000", "174514.727000", "174514.730000", "174554.671000", "174554.674000", "174554.676000", "174554.679000", "174554.681000", "174554.684000", "174554.686000", "174554.689000", "174554.692000", "174554.694000", "174554.697000", "174554.699000", "174554.702000", "174554.704000", "174554.707000", "174554.709000", "174554.712000", "174554.714000", "174554.717000", "174554.719000", "174554.722000", "174554.724000", "174554.727000", "174554.729000", "174554.732000", "174554.734000", "174554.737000", "174613.004000", "174613.007000", "174613.010000", "174613.012000", "174613.015000", "174613.018000", "174613.020000", "174613.023000", "174613.026000", "174613.028000", "174613.031000", "174613.033000", "174613.036000"],
      "InstanceNumber": [1, 2, 3, 4, 5, 6, 7, 8, 9, 10, 11, 12, 13, 14, 15, 16, 17, 18, 19, 20, 21, 22, 23, 24, 25, 26, 27, 28, 29, 30, 31, 32, 33, 34, 35, 36, 37, 38, 39, 40, 41, 42, 43, 44, 45, 46, 47, 48, 49, 50, 51, 52, 53, 54, 55, 56, 57, 58, 59, 60, 61, 62, 63, 64, 65, 66, 67, 68, 69, 70, 71, 72, 73, 74, 75, 76, 77, 78, 79, 80, 81, 82, 83, 84, 85, 86, 87, 88, 89, 90, 91, 92, 93, 94, 95, 96, 97, 98, 99, 100, 101, 102, 103, 104, 105, 106, 107, 108, 109, 110, 111, 112, 113, 114, 115, 116, 117, 118, 119, 120, 121, 122, 123, 124, 125, 126, 127, 128, 129, 130, 131, 132, 133, 134, 135, 136, 137, 138, 139, 140, 141, 142, 143, 144, 145, 146, 147, 148, 149, 150, 151, 152, 153, 154, 155, 156, 157, 158, 159, 160, 161, 162, 163, 164, 165, 166, 167, 168, 169, 170, 171, 172, 173, 174, 175, 176, 177, 178, 179, 180, 181, 182, 183, 184, 185, 186, 187, 188, 189, 190],
      "WindowCenter": [4840.0, 4838.0, 4842.0, 4876.0, 4856.0, 4874.0, 4872.0, 4844.0, 4832.0, 4810.0, 4838.0, 4866.0, 4878.0, 4876.0, 4876.0, 4870.0, 4842.0, 4866.0, 4844.0, 4840.0, 4836.0, 4808.0, 4834.0, 4846.0, 4846.0, 4846.0, 4848.0, 4850.0, 4872.0, 4844.0, 4810.0, 4808.0, 4836.0, 4842.0, 4870.0, 4870.0, 4868.0, 4874.0, 4872.0, 4876.0, 4840.0, 4830.0, 4840.0, 4842.0, 4836.0, 4810.0, 4810.0, 4838.0, 4850.0, 4826.0, 4852.0, 4854.0, 4846.0, 4806.0, 4806.0, 4804.0, 4836.0, 4872.0, 4856.0, 4852.0, 4876.0, 4870.0, 4844.0, 4842.0, 4836.0, 4810.0, 4832.0, 4844.0, 4870.0, 4842.0, 4838.0, 4836.0, 4840.0, 4836.0, 4848.0, 4848.0, 4846.0, 4846.0, 4850.0, 4842.0, 4836.0, 4808.0, 4838.0, 4878.0, 4872.0, 4842.0, 4842.0, 4844.0, 4868.0, 4834.0, 4812.0, 4844.0, 4870.0, 4846.0, 4836.0, 4808.0, 4834.0, 4844.0, 4852.0, 4846.0, 4844.0, 4848.0, 4842.0, 4812.0, 4834.0, 4840.0, 4848.0, 4870.0, 4844.0, 4868.0, 4868.0, 4842.0, 4846.0, 4842.0, 4844.0, 4840.0, 4844.0, 4846.0, 4842.0, 4838.0, 4846.0, 4846.0, 4836.0, 4812.0, 4834.0, 4872.0, 4850.0, 4850.0, 4852.0, 4848.0, 4808.0, 4810.0, 4808.0, 4834.0, 4840.0, 4872.0, 4868.0, 4876.0, 4878.0, 4876.0, 4870.0, 4838.0, 4804.0, 4808.0, 4838.0, 4872.0, 4876.0, 4854.0, 4872.0, 4836.0, 4834.0, 4838.0, 4832.0, 4804.0, 4806.0, 4834.0, 4874.0, 4828.0, 4824.0, 4848.0, 4876.0, 4810.0, 4804.0, 4804.0, 4808.0, 4836.0, 4864.0, 4868.0, 4876.0, 4878.0, 4876.0, 4844.0, 4838.0, 4838.0, 4838.0, 4830.0, 4836.0, 4842.0, 4866.0, 4868.0, 4848.0, 4868.0, 4844.0, 4866.0, 4836.0, 4836.0, 4842.0, 4840.0, 4834.0, 4840.0],
      "WindowWidth": [18646.0, 18650.0, 18644.0, 18672.0, 18638.0, 18672.0, 18674.0, 18648.0, 18638.0, 18606.0, 18640.0, 18670.0, 18678.0, 18680.0, 18678.0, 18672.0, 18640.0, 18674.0, 18646.0, 18642.0, 18650.0, 18612.0, 18644.0, 18650.0, 18632.0, 18628.0, 18624.0, 18636.0, 18670.0, 18642.0, 18606.0, 18606.0, 18636.0, 18640.0, 18676.0, 18676.0, 18672.0, 18676.0, 18674.0, 18674.0, 18640.0, 18640.0, 18640.0, 18638.0, 18638.0, 18610.0, 18610.0, 18648.0, 18636.0, 18596.0, 18634.0, 18642.0, 18644.0, 18602.0, 18602.0, 18606.0, 18636.0, 18676.0, 18640.0, 18636.0, 18674.0, 18676.0, 18648.0, 18638.0, 18634.0, 18610.0, 18636.0, 18640.0, 18670.0, 18646.0, 18640.0, 18646.0, 18648.0, 18644.0, 18648.0, 18642.0, 18634.0, 18636.0, 18644.0, 18640.0, 18640.0, 18608.0, 18644.0, 18682.0, 18676.0, 18642.0, 18642.0, 18646.0, 18676.0, 18638.0, 18612.0, 18648.0, 18680.0, 18650.0, 18644.0, 18608.0, 18642.0, 18654.0, 18648.0, 18632.0, 18628.0, 18642.0, 18644.0, 18610.0, 18640.0, 18642.0, 18650.0, 18674.0, 18644.0, 18672.0, 18672.0, 18642.0, 18646.0, 18644.0, 18646.0, 18636.0, 18648.0, 18646.0, 18642.0, 18646.0, 18648.0, 18644.0, 18646.0, 18608.0, 18640.0, 18674.0, 18620.0, 18628.0, 18638.0, 18644.0, 18606.0, 18604.0, 18608.0, 18638.0, 18636.0, 18676.0, 18674.0, 18678.0, 18686.0, 18678.0, 18678.0, 18640.0, 18602.0, 18608.0, 18642.0, 18676.0, 18678.0, 18648.0, 18674.0, 18640.0, 18640.0, 18638.0, 18638.0, 18598.0, 18602.0, 18644.0, 18676.0, 18594.0, 18588.0, 18628.0, 18682.0, 18610.0, 18602.0, 18600.0, 18606.0, 18636.0, 18674.0, 18676.0, 18682.0, 18678.0, 18674.0, 18640.0, 18640.0, 18638.0, 18638.0, 18636.0, 18636.0, 18644.0, 18672.0, 18674.0, 18644.0, 18678.0, 18646.0, 18674.0, 18638.0, 18640.0, 18646.0, 18638.0, 18638.0, 18642.0]
    },
    "slices": {}
  }
}