{
  "AcquisitionMatrixPE": 104,
  "AcquisitionNumber": 1,
  "AcquisitionTime": "17:48:10.657500",
  "BandwidthPerPixelPhaseEncode": 17.17,
  "BaseResolution": 104,
  "BodyPartExamined": "BRAIN",
  "CoilString": "HC1-7;NC1_2",
  "ConsistencyInfo": "N4_VE11C_LATEST_20160120",
  "ConversionSoftware": "dcm2niix",
  "ConversionSoftwareVersion": "v1.0.20190902",
  "DerivedVendorReportedEchoSpacing": 0.000560011,
  "DeviceSerialNumber": "167006",
  "DwellTime": 2.1e-06,
  "EchoTime": 0.037,
  "EchoTrainLength": 104,
  "EffectiveEchoSpacing": 0.000560011,
  "FlipAngle": 52,
  "HeudiconvVersion": "0.10.0",
  "ImageComments": "Unaliased_MB4_PE3_LB",
  "ImageOrientationPatientDICOM": [0.998163, 0.0524954, 0.0302576, -0.03852, 0.935251, -0.351883],
  "ImageType": [
    "ORIGINAL",
    "PRIMARY",
    "P",
    "MB",
    "ND",
    "MOSAIC"
],
  "ImagingFrequency": 123.259,
  "InPlanePhaseEncodingDirectionDICOM": "COL",
  "InstitutionAddress": "Chemin_Queen-Mary_4565_Montreal_District_CA_H3W_1W5",
  "InstitutionName": "IUGM",
  "InstitutionalDepartmentName": "Department",
  "MRAcquisitionType": "2D",
  "MagneticFieldStrength": 3,
  "Manufacturer": "Siemens",
  "ManufacturersModelName": "Prisma_fit",
  "Modality": "MR",
  "MultibandAccelerationFactor": 4,
  "PartialFourier": 1,
  "PatientPosition": "HFS",
  "PercentPhaseFOV": 100,
  "PhaseEncodingDirection": "j",
  "PhaseEncodingSteps": 104,
  "PhaseResolution": 1,
  "PixelBandwidth": 2290,
  "ProcedureStepDescription": "memory_things",
  "ProtocolName": "func_task-things_run-5",
  "PulseSequenceDetails": "%CustomerSeq%_cmrr_mbep2d_bold",
  "ReceiveCoilActiveElements": "HC1-7;NC1,2",
  "ReceiveCoilName": "HeadNeck_64",
  "ReconMatrixPE": 104,
  "RepetitionTime": 1.49,
  "SAR": 0.0474717,
  "ScanOptions": "FS",
  "ScanningSequence": "EP",
  "SequenceName": "epfid2d1_104",
  "SequenceVariant": "SK_SS",
  "SeriesDescription": "func_task-things_run-5",
  "SeriesNumber": 23,
  "ShimSetting": [629, -7182, -8825, 635, 75, 62, -73, -23],
  "SliceThickness": 2,
  "SliceTiming": [0, 0.7825, 0.0975, 0.88, 0.195, 0.98, 0.2925, 1.0775, 0.39, 1.175, 0.49, 1.2725, 0.5875, 1.37, 0.685, 0, 0.7825, 0.0975, 0.88, 0.195, 0.98, 0.2925, 1.0775, 0.39, 1.175, 0.49, 1.2725, 0.5875, 1.37, 0.685, 0, 0.7825, 0.0975, 0.88, 0.195, 0.98, 0.2925, 1.0775, 0.39, 1.175, 0.49, 1.2725, 0.5875, 1.37, 0.685, 0, 0.7825, 0.0975, 0.88, 0.195, 0.98, 0.2925, 1.0775, 0.39, 1.175, 0.49, 1.2725, 0.5875, 1.37, 0.685],
  "SoftwareVersions": "syngo_MR_E11",
  "SpacingBetweenSlices": 2,
  "StationName": "MRC35049",
  "TaskName": "things",
  "TotalReadoutTime": 0.0576811,
  "TxRefAmp": 271.603,
  "WipMemBlock": "02fe395d-1522-4eeb-b95a-cd7612116ac9||Sequence: R016 ve11c/master r/e634e98; Dec 19 2017 11:00:25 by eja",
  "dcmmeta_affine": [
    [-1.9963253736495972, -0.07704007625579834, 0.0935414582490921, 107.87152862548828],
    [-0.10499086230993271, 1.870502233505249, -0.7001417875289917, -55.37107849121094],
    [0.06051526218652725, 0.703765869140625, 1.8711097240447998, -66.67984008789062],
    [0.0, 0.0, 0.0, 1.0]
],
  "dcmmeta_reorient_transform": [
    [0.0, -1.0, 0.0, 103.0],
    [1.0, 0.0, 0.0, 0.0],
    [0.0, 0.0, 1.0, 0.0],
    [0.0, 0.0, 0.0, 1.0]
],
  "dcmmeta_shape": [104, 104, 60, 190],
  "dcmmeta_slice_dim": 2,
  "dcmmeta_version": 0.6,
  "global": {
    "const": {
      "AcquisitionMatrix": [104, 0, 0, 104],
      "AngioFlag": "N",
      "BitsAllocated": 16,
      "BitsStored": 16,
      "BodyPartExamined": "BRAIN",
      "Columns": 832,
      "EchoNumbers": 1,
      "EchoTime": 37.0,
      "EchoTrainLength": 104,
      "FlipAngle": 52.0,
      "HighBit": 15,
      "ImageOrientationPatient": [0.99816266491488, 0.0524954300898, 0.0302576302725, -0.0385200383225, 0.93525108902071, -0.351882945215],
      "ImagePositionPatient": [-798.55623234518, -856.37011015604, 239.95127845064],
      "ImageType": [
        "ORIGINAL",
        "PRIMARY",
        "P",
        "MB",
        "ND",
        "MOSAIC"
],
      "ImagedNucleus": "1H",
      "ImagingFrequency": 123.258907,
      "InPlanePhaseEncodingDirection": "COL",
      "LargestImagePixelValue": 4095,
      "MRAcquisitionType": "2D",
      "MagneticFieldStrength": 3.0,
      "Manufacturer": "SIEMENS",
      "ManufacturerModelName": "Prisma_fit",
      "Modality": "MR",
      "NumberOfAverages": 1.0,
      "NumberOfPhaseEncodingSteps": 104,
      "PercentPhaseFieldOfView": 100.0,
      "PercentSampling": 100.0,
      "PerformedProcedureStepStartTime": "170329.127000",
      "PhotometricInterpretation": "MONOCHROME2",
      "PixelBandwidth": 2290.0,
      "PixelRepresentation": 0,
      "PixelSpacing": [2.0, 2.0],
      "ProtocolName": "func_task-things_run-5",
      "RepetitionTime": 1490.0,
      "RescaleIntercept": -4096.0,
      "RescaleSlope": 2.0,
      "RescaleType": "US",
      "Rows": 832,
      "SAR": 0.04747165367028,
      "SamplesPerPixel": 1,
      "ScanOptions": "FS",
      "ScanningSequence": "EP",
      "SequenceName": "epfid2d1_104",
      "SequenceVariant": [
        "SK",
        "SS"
],
      "SeriesDescription": "func_task-things_run-5",
      "SeriesNumber": 23,
      "SeriesTime": "174906.506000",
      "SliceLocation": -37.953611708915,
      "SliceThickness": 2.0,
      "SmallestImagePixelValue": 0,
      "SoftwareVersions": "syngo MR E11",
      "SpacingBetweenSlices": 1.9999999783121,
      "SpecificCharacterSet": "ISO_IR 100",
      "StudyID": "1",
      "StudyTime": "170329.072000",
      "TransmitCoilName": "Body",
      "VariableFlipAngleFlag": "N",
      "WindowCenterWidthExplanation": "Algo1",
      "dBdt": 0.0},
    "slices": {}
  },
  "time": {
    "samples": {
      "AcquisitionNumber": [1, 2, 3, 4, 5, 6, 7, 8, 9, 10, 11, 12, 13, 14, 15, 16, 17, 18, 19, 20, 21, 22, 23, 24, 25, 26, 27, 28, 29, 30, 31, 32, 33, 34, 35, 36, 37, 38, 39, 40, 41, 42, 43, 44, 45, 46, 47, 48, 49, 50, 51, 52, 53, 54, 55, 56, 57, 58, 59, 60, 61, 62, 63, 64, 65, 66, 67, 68, 69, 70, 71, 72, 73, 74, 75, 76, 77, 78, 79, 80, 81, 82, 83, 84, 85, 86, 87, 88, 89, 90, 91, 92, 93, 94, 95, 96, 97, 98, 99, 100, 101, 102, 103, 104, 105, 106, 107, 108, 109, 110, 111, 112, 113, 114, 115, 116, 117, 118, 119, 120, 121, 122, 123, 124, 125, 126, 127, 128, 129, 130, 131, 132, 133, 134, 135, 136, 137, 138, 139, 140, 141, 142, 143, 144, 145, 146, 147, 148, 149, 150, 151, 152, 153, 154, 155, 156, 157, 158, 159, 160, 161, 162, 163, 164, 165, 166, 167, 168, 169, 170, 171, 172, 173, 174, 175, 176, 177, 178, 179, 180, 181, 182, 183, 184, 185, 186, 187, 188, 189, 190],
      "AcquisitionTime": ["174810.657500", "174812.147500", "174813.637500", "174815.127500", "174816.617500", "174818.107500", "174819.597500", "174821.087500", "174822.577500", "174824.067500", "174825.557500", "174827.047500", "174828.537500", "174830.027500", "174831.517500", "174833.007500", "174834.497500", "174835.987500", "174837.477500", "174838.967500", "174840.457500", "174841.947500", "174843.437500", "174844.927500", "174846.417500", "174847.907500", "174849.397500", "174850.887500", "174852.377500", "174853.867500", "174855.357500", "174856.847500", "174858.337500", "174859.827500", "174901.317500", "174902.807500", "174904.297500", "174905.787500", "174907.277500", "174908.767500", "174910.257500", "174911.747500", "174913.237500", "174914.727500", "174916.217500", "174917.707500", "174919.197500", "174920.687500", "174922.177500", "174923.667500", "174925.157500", "174926.647500", "174928.137500", "174929.627500", "174931.117500", "174932.607500", "174934.097500", "174935.587500", "174937.077500", "174938.567500", "174940.057500", "174941.547500", "174943.037500", "174944.527500", "174946.017500", "174947.507500", "174948.997500", "174950.487500", "174951.977500", "174953.467500", "174954.957500", "174956.447500", "174957.937500", "174959.427500", "175000.917500", "175002.407500", "175003.897500", "175005.387500", "175006.877500", "175008.367500", "175009.857500", "175011.347500", "175012.837500", "175014.327500", "175015.817500", "175017.307500", "175018.797500", "175020.287500", "175021.777500", "175023.267500", "175024.757500", "175026.247500", "175027.737500", "175029.227500", "175030.717500", "175032.207500", "175033.697500", "175035.187500", "175036.677500", "175038.167500", "175039.657500", "175041.147500", "175042.637500", "175044.127500", "175045.617500", "175047.107500", "175048.597500", "175050.087500", "175051.577500", "175053.067500", "175054.557500", "175056.047500", "175057.537500", "175059.027500", "175100.517500", "175102.007500", "175103.497500", "175104.987500", "175106.477500", "175107.967500", "175109.457500", "175110.947500", "175112.437500", "175113.927500", "175115.417500", "175116.907500", "175118.397500", "175119.887500", "175121.377500", "175122.867500", "175124.357500", "175125.847500", "175127.337500", "175128.827500", "175130.317500", "175131.807500", "175133.297500", "175134.787500", "175136.277500", "175137.767500", "175139.257500", "175140.747500", "175142.237500", "175143.727500", "175145.217500", "175146.707500", "175148.197500", "175149.687500", "175151.177500", "175152.667500", "175154.157500", "175155.647500", "175157.137500", "175158.627500", "175200.117500", "175201.607500", "175203.097500", "175204.587500", "175206.077500", "175207.567500", "175209.057500", "175210.547500", "175212.037500", "175213.527500", "175215.017500", "175216.507500", "175217.997500", "175219.487500", "175220.977500", "175222.467500", "175223.957500", "175225.447500", "175226.937500", "175228.427500", "175229.917500", "175231.407500", "175232.897500", "175234.387500", "175235.877500", "175237.367500", "175238.857500", "175240.347500", "175241.837500", "175243.327500", "175244.817500", "175246.307500", "175247.797500", "175249.287500", "175250.777500", "175252.267500"],
      "ContentTime": ["174906.508000", "174926.557000", "174926.559000", "174926.562000", "174926.565000", "174926.567000", "174926.570000", "174926.572000", "174926.575000", "174926.577000", "174926.580000", "174926.583000", "174926.585000", "174926.588000", "174926.590000", "174926.593000", "174926.595000", "174926.598000", "174926.600000", "174926.603000", "174926.605000", "174946.538000", "174946.541000", "174946.543000", "174946.546000", "174946.548000", "174946.551000", "174946.554000", "174946.556000", "174946.559000", "174946.561000", "174946.564000", "174946.566000", "174946.569000", "174946.571000", "174946.574000", "174946.576000", "174946.579000", "174946.581000", "174946.584000", "174946.586000", "175006.543000", "175006.546000", "175006.548000", "175006.551000", "175006.553000", "175006.556000", "175006.558000", "175006.561000", "175006.564000", "175006.566000", "175006.569000", "175006.571000", "175006.574000", "175006.576000", "175006.579000", "175006.581000", "175006.584000", "175006.586000", "175006.589000", "175006.591000", "175026.548000", "175026.551000", "175026.553000", "175026.556000", "175026.558000", "175026.561000", "175026.563000", "175026.566000", "175026.568000", "175026.571000", "175026.573000", "175026.576000", "175026.578000", "175026.581000", "175026.583000", "175026.586000", "175026.588000", "175026.591000", "175026.593000", "175026.596000", "175046.542000", "175046.545000", "175046.556000", "175046.559000", "175046.561000", "175046.564000", "175046.567000", "175046.569000", "175046.572000", "175046.574000", "175046.577000", "175046.579000", "175046.582000", "175046.585000", "175046.587000", "175046.590000", "175046.592000", "175046.595000", "175046.597000", "175046.600000", "175126.579000", "175126.581000", "175126.584000", "175126.587000", "175126.589000", "175126.592000", "175126.594000", "175126.597000", "175126.599000", "175126.602000", "175126.604000", "175126.607000", "175126.609000", "175126.612000", "175126.614000", "175126.617000", "175126.619000", "175126.622000", "175126.624000", "175126.627000", "175126.629000", "175126.632000", "175126.642000", "175126.645000", "175126.647000", "175126.650000", "175126.652000", "175126.655000", "175126.657000", "175126.660000", "175206.563000", "175206.566000", "175206.568000", "175206.571000", "175206.573000", "175206.576000", "175206.578000", "175206.581000", "175206.583000", "175206.586000", "175206.589000", "175206.591000", "175206.594000", "175206.596000", "175206.599000", "175206.601000", "175206.604000", "175206.606000", "175206.609000", "175206.611000", "175206.614000", "175206.616000", "175206.619000", "175206.621000", "175206.624000", "175206.627000", "175206.629000", "175246.580000", "175246.583000", "175246.586000", "175246.588000", "175246.591000", "175246.593000", "175246.596000", "175246.598000", "175246.601000", "175246.603000", "175246.606000", "175246.609000", "175246.611000", "175246.614000", "175246.616000", "175246.619000", "175246.621000", "175246.624000", "175246.626000", "175246.629000", "175246.631000", "175246.634000", "175246.636000", "175246.639000", "175246.641000", "175246.644000", "175254.024000", "175254.027000", "175254.030000", "175254.032000", "175254.035000", "175254.037000"],
      "InstanceCreationTime": ["174906.508000", "174926.557000", "174926.559000", "174926.562000", "174926.565000", "174926.567000", "174926.570000", "174926.572000", "174926.575000", "174926.577000", "174926.580000", "174926.583000", "174926.585000", "174926.588000", "174926.590000", "174926.593000", "174926.595000", "174926.598000", "174926.600000", "174926.603000", "174926.605000", "174946.538000", "174946.541000", "174946.543000", "174946.546000", "174946.548000", "174946.551000", "174946.554000", "174946.556000", "174946.559000", "174946.561000", "174946.564000", "174946.566000", "174946.569000", "174946.571000", "174946.574000", "174946.576000", "174946.579000", "174946.581000", "174946.584000", "174946.586000", "175006.543000", "175006.546000", "175006.548000", "175006.551000", "175006.553000", "175006.556000", "175006.558000", "175006.561000", "175006.564000", "175006.566000", "175006.569000", "175006.571000", "175006.574000", "175006.576000", "175006.579000", "175006.581000", "175006.584000", "175006.586000", "175006.589000", "175006.591000", "175026.548000", "175026.551000", "175026.553000", "175026.556000", "175026.558000", "175026.561000", "175026.563000", "175026.566000", "175026.568000", "175026.571000", "175026.573000", "175026.576000", "175026.578000", "175026.581000", "175026.583000", "175026.586000", "175026.588000", "175026.591000", "175026.593000", "175026.596000", "175046.542000", "175046.545000", "175046.556000", "175046.559000", "175046.561000", "175046.564000", "175046.567000", "175046.569000", "175046.572000", "175046.574000", "175046.577000", "175046.579000", "175046.582000", "175046.585000", "175046.587000", "175046.590000", "175046.592000", "175046.595000", "175046.597000", "175046.600000", "175126.579000", "175126.581000", "175126.584000", "175126.587000", "175126.589000", "175126.592000", "175126.594000", "175126.597000", "175126.599000", "175126.602000", "175126.604000", "175126.607000", "175126.609000", "175126.612000", "175126.614000", "175126.617000", "175126.619000", "175126.622000", "175126.624000", "175126.627000", "175126.629000", "175126.632000", "175126.642000", "175126.645000", "175126.647000", "175126.650000", "175126.652000", "175126.655000", "175126.657000", "175126.660000", "175206.563000", "175206.566000", "175206.568000", "175206.571000", "175206.573000", "175206.576000", "175206.578000", "175206.581000", "175206.583000", "175206.586000", "175206.589000", "175206.591000", "175206.594000", "175206.596000", "175206.599000", "175206.601000", "175206.604000", "175206.606000", "175206.609000", "175206.611000", "175206.614000", "175206.616000", "175206.619000", "175206.621000", "175206.624000", "175206.627000", "175206.629000", "175246.580000", "175246.583000", "175246.586000", "175246.588000", "175246.591000", "175246.593000", "175246.596000", "175246.598000", "175246.601000", "175246.603000", "175246.606000", "175246.609000", "175246.611000", "175246.614000", "175246.616000", "175246.619000", "175246.621000", "175246.624000", "175246.626000", "175246.629000", "175246.631000", "175246.634000", "175246.636000", "175246.639000", "175246.641000", "175246.644000", "175254.024000", "175254.027000", "175254.030000", "175254.032000", "175254.035000", "175254.037000"],
      "InstanceNumber": [1, 2, 3, 4, 5, 6, 7, 8, 9, 10, 11, 12, 13, 14, 15, 16, 17, 18, 19, 20, 21, 22, 23, 24, 25, 26, 27, 28, 29, 30, 31, 32, 33, 34, 35, 36, 37, 38, 39, 40, 41, 42, 43, 44, 45, 46, 47, 48, 49, 50, 51, 52, 53, 54, 55, 56, 57, 58, 59, 60, 61, 62, 63, 64, 65, 66, 67, 68, 69, 70, 71, 72, 73, 74, 75, 76, 77, 78, 79, 80, 81, 82, 83, 84, 85, 86, 87, 88, 89, 90, 91, 92, 93, 94, 95, 96, 97, 98, 99, 100, 101, 102, 103, 104, 105, 106, 107, 108, 109, 110, 111, 112, 113, 114, 115, 116, 117, 118, 119, 120, 121, 122, 123, 124, 125, 126, 127, 128, 129, 130, 131, 132, 133, 134, 135, 136, 137, 138, 139, 140, 141, 142, 143, 144, 145, 146, 147, 148, 149, 150, 151, 152, 153, 154, 155, 156, 157, 158, 159, 160, 161, 162, 163, 164, 165, 166, 167, 168, 169, 170, 171, 172, 173, 174, 175, 176, 177, 178, 179, 180, 181, 182, 183, 184, 185, 186, 187, 188, 189, 190],
      "WindowCenter": [4878.0, 4878.0, 4868.0, 4864.0, 4874.0, 4880.0, 4876.0, 4878.0, 4880.0, 4874.0, 4874.0, 4876.0, 4874.0, 4868.0, 4840.0, 4874.0, 4878.0, 4878.0, 4878.0, 4878.0, 4878.0, 4876.0, 4870.0, 4872.0, 4874.0, 4878.0, 4872.0, 4872.0, 4882.0, 4876.0, 4878.0, 4880.0, 4876.0, 4876.0, 4872.0, 4878.0, 4872.0, 4868.0, 4872.0, 4878.0, 4872.0, 4870.0, 4874.0, 4874.0, 4872.0, 4876.0, 4874.0, 4878.0, 4874.0, 4872.0, 4874.0, 4870.0, 4872.0, 4874.0, 4878.0, 4872.0, 4872.0, 4876.0, 4876.0, 4880.0, 4878.0, 4876.0, 4846.0, 4834.0, 4838.0, 4872.0, 4876.0, 4864.0, 4834.0, 4842.0, 4848.0, 4850.0, 4850.0, 4850.0, 4874.0, 4866.0, 4842.0, 4832.0, 4810.0, 4842.0, 4868.0, 4874.0, 4852.0, 4856.0, 4856.0, 4876.0, 4874.0, 4868.0, 4844.0, 4844.0, 4842.0, 4870.0, 4876.0, 4874.0, 4874.0, 4878.0, 4874.0, 4846.0, 4844.0, 4870.0, 4848.0, 4868.0, 4846.0, 4870.0, 4876.0, 4876.0, 4880.0, 4878.0, 4876.0, 4850.0, 4846.0, 4874.0, 4872.0, 4874.0, 4868.0, 4874.0, 4870.0, 4846.0, 4876.0, 4872.0, 4842.0, 4870.0, 4874.0, 4846.0, 4870.0, 4876.0, 4870.0, 4878.0, 4878.0, 4874.0, 4872.0, 4876.0, 4874.0, 4874.0, 4874.0, 4870.0, 4876.0, 4872.0, 4876.0, 4876.0, 4878.0, 4874.0, 4878.0, 4876.0, 4878.0, 4880.0, 4878.0, 4850.0, 4874.0, 4872.0, 4876.0, 4876.0, 4874.0, 4874.0, 4874.0, 4878.0, 4876.0, 4880.0, 4876.0, 4876.0, 4876.0, 4846.0, 4872.0, 4876.0, 4876.0, 4874.0, 4874.0, 4878.0, 4880.0, 4878.0, 4880.0, 4876.0, 4846.0, 4872.0, 4870.0, 4874.0, 4846.0, 4872.0, 4880.0, 4874.0, 4878.0, 4872.0, 4872.0, 4876.0, 4872.0, 4876.0, 4872.0, 4874.0, 4876.0, 4870.0],
      "WindowWidth": [18678.0, 18680.0, 18672.0, 18672.0, 18678.0, 18682.0, 18668.0, 18670.0, 18672.0, 18680.0, 18680.0, 18678.0, 18680.0, 18672.0, 18642.0, 18678.0, 18674.0, 18674.0, 18676.0, 18676.0, 18674.0, 18684.0, 18680.0, 18676.0, 18678.0, 18676.0, 18678.0, 18678.0, 18682.0, 18684.0, 18678.0, 18682.0, 18678.0, 18680.0, 18678.0, 18680.0, 18680.0, 18678.0, 18680.0, 18682.0, 18680.0, 18676.0, 18674.0, 18678.0, 18678.0, 18682.0, 18678.0, 18682.0, 18678.0, 18678.0, 18676.0, 18674.0, 18676.0, 18678.0, 18678.0, 18676.0, 18672.0, 18678.0, 18676.0, 18688.0, 18674.0, 18676.0, 18644.0, 18636.0, 18642.0, 18678.0, 18680.0, 18674.0, 18646.0, 18644.0, 18642.0, 18634.0, 18626.0, 18628.0, 18672.0, 18668.0, 18642.0, 18632.0, 18610.0, 18646.0, 18674.0, 18678.0, 18642.0, 18634.0, 18644.0, 18678.0, 18674.0, 18674.0, 18642.0, 18640.0, 18640.0, 18674.0, 18680.0, 18676.0, 18678.0, 18680.0, 18678.0, 18646.0, 18638.0, 18674.0, 18642.0, 18668.0, 18636.0, 18676.0, 18680.0, 18682.0, 18678.0, 18680.0, 18674.0, 18644.0, 18638.0, 18672.0, 18674.0, 18676.0, 18670.0, 18678.0, 18680.0, 18646.0, 18674.0, 18680.0, 18644.0, 18676.0, 18678.0, 18644.0, 18674.0, 18678.0, 18678.0, 18680.0, 18680.0, 18676.0, 18672.0, 18676.0, 18680.0, 18670.0, 18674.0, 18674.0, 18678.0, 18674.0, 18676.0, 18672.0, 18674.0, 18674.0, 18674.0, 18676.0, 18676.0, 18678.0, 18678.0, 18640.0, 18676.0, 18672.0, 18678.0, 18678.0, 18674.0, 18674.0, 18678.0, 18680.0, 18678.0, 18682.0, 18682.0, 18676.0, 18676.0, 18642.0, 18678.0, 18676.0, 18676.0, 18674.0, 18672.0, 18678.0, 18678.0, 18680.0, 18674.0, 18678.0, 18646.0, 18676.0, 18674.0, 18674.0, 18644.0, 18676.0, 18682.0, 18676.0, 18680.0, 18678.0, 18672.0, 18672.0, 18678.0, 18676.0, 18678.0, 18678.0, 18678.0, 18672.0]
    },
    "slices": {}
  }
}