{
  "AcquisitionMatrixPE": 104,
  "AcquisitionNumber": 1,
  "AcquisitionTime": "10:47:55.127500",
  "BandwidthPerPixelPhaseEncode": 17.17,
  "BaseResolution": 104,
  "BodyPartExamined": "BRAIN",
  "CoilString": "HC1-7;NC1_2",
  "ConsistencyInfo": "N4_VE11C_LATEST_20160120",
  "ConversionSoftware": "dcm2niix",
  "ConversionSoftwareVersion": "v1.0.20190902",
  "DerivedVendorReportedEchoSpacing": 0.000560011,
  "DeviceSerialNumber": "167006",
  "DwellTime": 2.1e-06,
  "EchoTime": 0.037,
  "EchoTrainLength": 104,
  "EffectiveEchoSpacing": 0.000560011,
  "FlipAngle": 52,
  "ImageComments": "Unaliased_MB4_PE3_LB",
  "ImageOrientationPatientDICOM": [0.999678, -0.00255287, -0.0252464, -0.01012, 0.872269, -0.488921],
  "ImageType": [
    "ORIGINAL",
    "PRIMARY",
    "M",
    "MB",
    "ND",
    "MOSAIC"
],
  "ImagingFrequency": 123.259,
  "InPlanePhaseEncodingDirectionDICOM": "COL",
  "InstitutionAddress": "Chemin_Queen-Mary_4565_Montreal_District_CA_H3W_1W5",
  "InstitutionName": "IUGM",
  "InstitutionalDepartmentName": "Department",
  "MRAcquisitionType": "2D",
  "MagneticFieldStrength": 3,
  "Manufacturer": "Siemens",
  "ManufacturersModelName": "Prisma_fit",
  "Modality": "MR",
  "MultibandAccelerationFactor": 4,
  "PartialFourier": 1,
  "PatientPosition": "HFS",
  "PercentPhaseFOV": 100,
  "PhaseEncodingDirection": "j",
  "PhaseEncodingSteps": 104,
  "PhaseResolution": 1,
  "PixelBandwidth": 2290,
  "ProcedureStepDescription": "memory_things",
  "ProtocolName": "func_task-things_run-1",
  "PulseSequenceDetails": "%CustomerSeq%_cmrr_mbep2d_bold",
  "ReceiveCoilActiveElements": "HC1-7;NC1,2",
  "ReceiveCoilName": "HeadNeck_64",
  "ReconMatrixPE": 104,
  "RepetitionTime": 1.49,
  "SAR": 0.0640097,
  "ScanOptions": "FS",
  "ScanningSequence": "EP",
  "SequenceName": "epfid2d1_104",
  "SequenceVariant": "SK_SS",
  "SeriesDescription": "func_task-things_run-1",
  "SeriesNumber": 10,
  "ShimSetting": [601, -7176, -8876, 259, 14, -141, 56, -64],
  "SliceThickness": 2,
  "SliceTiming": [0, 0.785, 0.0975, 0.8825, 0.1975, 0.98, 0.295, 1.0775, 0.3925, 1.1775, 0.49, 1.275, 0.5875, 1.3725, 0.6875, 0, 0.785, 0.0975, 0.8825, 0.1975, 0.98, 0.295, 1.0775, 0.3925, 1.1775, 0.49, 1.275, 0.5875, 1.3725, 0.6875, 0, 0.785, 0.0975, 0.8825, 0.1975, 0.98, 0.295, 1.0775, 0.3925, 1.1775, 0.49, 1.275, 0.5875, 1.3725, 0.6875, 0, 0.785, 0.0975, 0.8825, 0.1975, 0.98, 0.295, 1.0775, 0.3925, 1.1775, 0.49, 1.275, 0.5875, 1.3725, 0.6875],
  "SoftwareVersions": "syngo_MR_E11",
  "SpacingBetweenSlices": 2,
  "StationName": "MRC35049",
  "TaskName": "things",
  "TotalReadoutTime": 0.0576811,
  "TxRefAmp": 306.605,
  "WipMemBlock": "8221cb41-38a3-4132-bca5-a7b6bcdb01e9||Sequence: R016 ve11c/master r/e634e98; Dec 19 2017 11:00:25 by eja",
  "dcmmeta_affine": [
    [-1.9993560314178467, -0.020239923149347305, -0.046539608389139175, 109.55936431884766],
    [0.0051057408563792706, 1.7445385456085205, -0.9780383706092834, -54.11943817138672],
    [-0.0504927821457386, 0.9778422117233276, 1.7439252138137817, -102.62206268310547],
    [0.0, 0.0, 0.0, 1.0]
],
  "dcmmeta_reorient_transform": [
    [0.0, -1.0, 0.0, 103.0],
    [1.0, 0.0, 0.0, 0.0],
    [0.0, 0.0, 1.0, 0.0],
    [0.0, 0.0, 0.0, 1.0]
],
  "dcmmeta_shape": [104, 104, 60, 190],
  "dcmmeta_slice_dim": 2,
  "dcmmeta_version": 0.6,
  "global": {
    "const": {
      "AcquisitionMatrix": [104, 0, 0, 104],
      "AngioFlag": "N",
      "BitsAllocated": 16,
      "BitsStored": 16,
      "BodyPartExamined": "BRAIN",
      "Columns": 832,
      "EchoNumbers": 1,
      "EchoTime": 37.0,
      "EchoTrainLength": 104,
      "FlipAngle": 52.0,
      "HighBit": 15,
      "ImageOrientationPatient": [0.99967799945277, -0.0025528704814, -0.025246391077, -0.0101199618008, 0.87226929804561, -0.4889211163983],
      "ImagePositionPatient": [-827.87290143548, -758.72159474147, 372.40963108149],
      "ImageType": [
        "ORIGINAL",
        "PRIMARY",
        "M",
        "MB",
        "ND",
        "MOSAIC"
],
      "ImagedNucleus": "1H",
      "ImagingFrequency": 123.258928,
      "InPlanePhaseEncodingDirection": "COL",
      "MRAcquisitionType": "2D",
      "MagneticFieldStrength": 3.0,
      "Manufacturer": "SIEMENS",
      "ManufacturerModelName": "Prisma_fit",
      "Modality": "MR",
      "NumberOfAverages": 1.0,
      "NumberOfPhaseEncodingSteps": 104,
      "PercentPhaseFieldOfView": 100.0,
      "PercentSampling": 100.0,
      "PerformedProcedureStepStartTime": "102251.250000",
      "PhotometricInterpretation": "MONOCHROME2",
      "PixelBandwidth": 2290.0,
      "PixelRepresentation": 0,
      "PixelSpacing": [2.0, 2.0],
      "ProtocolName": "func_task-things_run-1",
      "RepetitionTime": 1490.0,
      "Rows": 832,
      "SAR": 0.06400966733522,
      "SamplesPerPixel": 1,
      "ScanOptions": "FS",
      "ScanningSequence": "EP",
      "SequenceName": "epfid2d1_104",
      "SequenceVariant": [
        "SK",
        "SS"
],
      "SeriesDescription": "func_task-things_run-1",
      "SeriesNumber": 10,
      "SeriesTime": "104906.491000",
      "SliceLocation": -65.566582183707,
      "SliceThickness": 2.0,
      "SmallestImagePixelValue": 0,
      "SoftwareVersions": "syngo MR E11",
      "SpacingBetweenSlices": 2.0000000388266,
      "SpecificCharacterSet": "ISO_IR 100",
      "StudyID": "1",
      "StudyTime": "102251.202000",
      "TransmitCoilName": "Body",
      "VariableFlipAngleFlag": "N",
      "WindowCenterWidthExplanation": "Algo1",
      "dBdt": 0.0},
    "slices": {}
  },
  "time": {
    "samples": {
      "AcquisitionNumber": [1, 2, 3, 4, 5, 6, 7, 8, 9, 10, 11, 12, 13, 14, 15, 16, 17, 18, 19, 20, 21, 22, 23, 24, 25, 26, 27, 28, 29, 30, 31, 32, 33, 34, 35, 36, 37, 38, 39, 40, 41, 42, 43, 44, 45, 46, 47, 48, 49, 50, 51, 52, 53, 54, 55, 56, 57, 58, 59, 60, 61, 62, 63, 64, 65, 66, 67, 68, 69, 70, 71, 72, 73, 74, 75, 76, 77, 78, 79, 80, 81, 82, 83, 84, 85, 86, 87, 88, 89, 90, 91, 92, 93, 94, 95, 96, 97, 98, 99, 100, 101, 102, 103, 104, 105, 106, 107, 108, 109, 110, 111, 112, 113, 114, 115, 116, 117, 118, 119, 120, 121, 122, 123, 124, 125, 126, 127, 128, 129, 130, 131, 132, 133, 134, 135, 136, 137, 138, 139, 140, 141, 142, 143, 144, 145, 146, 147, 148, 149, 150, 151, 152, 153, 154, 155, 156, 157, 158, 159, 160, 161, 162, 163, 164, 165, 166, 167, 168, 169, 170, 171, 172, 173, 174, 175, 176, 177, 178, 179, 180, 181, 182, 183, 184, 185, 186, 187, 188, 189, 190],
      "AcquisitionTime": ["104755.127500", "104756.617500", "104758.107500", "104759.597500", "104801.087500", "104802.577500", "104804.067500", "104805.557500", "104807.047500", "104808.537500", "104810.027500", "104811.517500", "104813.007500", "104814.497500", "104815.987500", "104817.477500", "104818.967500", "104820.457500", "104821.947500", "104823.437500", "104824.927500", "104826.417500", "104827.907500", "104829.397500", "104830.887500", "104832.377500", "104833.867500", "104835.357500", "104836.847500", "104838.337500", "104839.827500", "104841.317500", "104842.807500", "104844.297500", "104845.787500", "104847.277500", "104848.767500", "104850.257500", "104851.747500", "104853.237500", "104854.727500", "104856.217500", "104857.707500", "104859.197500", "104900.687500", "104902.177500", "104903.667500", "104905.157500", "104906.647500", "104908.137500", "104909.627500", "104911.117500", "104912.607500", "104914.097500", "104915.587500", "104917.077500", "104918.567500", "104920.057500", "104921.547500", "104923.037500", "104924.527500", "104926.017500", "104927.507500", "104928.997500", "104930.487500", "104931.977500", "104933.467500", "104934.957500", "104936.447500", "104937.937500", "104939.427500", "104940.917500", "104942.407500", "104943.897500", "104945.387500", "104946.877500", "104948.367500", "104949.857500", "104951.347500", "104952.837500", "104954.327500", "104955.817500", "104957.307500", "104958.797500", "105000.287500", "105001.777500", "105003.267500", "105004.757500", "105006.247500", "105007.737500", "105009.227500", "105010.717500", "105012.207500", "105013.697500", "105015.187500", "105016.677500", "105018.167500", "105019.657500", "105021.147500", "105022.637500", "105024.127500", "105025.617500", "105027.107500", "105028.597500", "105030.087500", "105031.577500", "105033.067500", "105034.557500", "105036.047500", "105037.537500", "105039.027500", "105040.517500", "105042.007500", "105043.497500", "105044.987500", "105046.477500", "105047.967500", "105049.457500", "105050.947500", "105052.437500", "105053.927500", "105055.417500", "105056.907500", "105058.397500", "105059.887500", "105101.377500", "105102.867500", "105104.357500", "105105.847500", "105107.337500", "105108.827500", "105110.317500", "105111.807500", "105113.297500", "105114.787500", "105116.277500", "105117.767500", "105119.257500", "105120.747500", "105122.237500", "105123.727500", "105125.217500", "105126.707500", "105128.197500", "105129.687500", "105131.177500", "105132.667500", "105134.157500", "105135.647500", "105137.137500", "105138.627500", "105140.117500", "105141.607500", "105143.097500", "105144.587500", "105146.077500", "105147.567500", "105149.057500", "105150.547500", "105152.037500", "105153.527500", "105155.017500", "105156.507500", "105157.997500", "105159.487500", "105200.977500", "105202.467500", "105203.957500", "105205.447500", "105206.937500", "105208.427500", "105209.917500", "105211.407500", "105212.897500", "105214.387500", "105215.877500", "105217.367500", "105218.857500", "105220.347500", "105221.837500", "105223.327500", "105224.817500", "105226.307500", "105227.797500", "105229.287500", "105230.777500", "105232.267500", "105233.757500", "105235.247500", "105236.737500"],
      "ContentTime": ["104906.494000", "104906.498000", "104906.501000", "104906.505000", "104906.508000", "104906.511000", "104906.515000", "104906.518000", "104906.521000", "104906.525000", "104906.528000", "104906.531000", "104906.534000", "104906.538000", "104946.455000", "104946.459000", "104946.462000", "104946.465000", "104946.469000", "104946.472000", "104946.475000", "104946.479000", "104946.482000", "104946.485000", "104946.488000", "104946.492000", "104946.495000", "104946.498000", "104946.502000", "104946.505000", "104946.508000", "104946.512000", "104946.515000", "104946.518000", "104946.522000", "104946.525000", "104946.528000", "104946.531000", "104946.535000", "104946.538000", "104946.541000", "104946.544000", "104946.548000", "104946.551000", "104946.554000", "104946.558000", "104946.561000", "104946.564000", "104946.568000", "104946.571000", "104946.574000", "104946.577000", "104946.581000", "105006.454000", "105006.458000", "105006.461000", "105006.464000", "105006.467000", "105006.479000", "105006.482000", "105006.486000", "105006.489000", "105006.492000", "105006.495000", "105006.498000", "105006.502000", "105006.505000", "105006.508000", "105006.512000", "105006.515000", "105006.518000", "105006.521000", "105006.525000", "105006.528000", "105026.454000", "105026.458000", "105026.461000", "105026.464000", "105026.467000", "105026.471000", "105026.474000", "105026.477000", "105026.481000", "105026.484000", "105026.487000", "105026.490000", "105026.494000", "105026.497000", "105026.500000", "105026.503000", "105026.507000", "105026.510000", "105026.513000", "105026.517000", "105046.454000", "105046.458000", "105046.461000", "105046.464000", "105046.468000", "105046.471000", "105046.474000", "105046.477000", "105046.481000", "105046.484000", "105046.487000", "105046.490000", "105046.494000", "105046.497000", "105046.500000", "105046.503000", "105046.507000", "105046.510000", "105046.513000", "105046.516000", "105126.455000", "105126.459000", "105126.462000", "105126.465000", "105126.469000", "105126.472000", "105126.475000", "105126.479000", "105126.482000", "105126.485000", "105126.489000", "105126.492000", "105126.495000", "105126.498000", "105126.502000", "105126.505000", "105126.508000", "105126.511000", "105126.515000", "105126.518000", "105126.521000", "105126.524000", "105126.528000", "105126.531000", "105126.534000", "105126.538000", "105126.541000", "105206.455000", "105206.459000", "105206.468000", "105206.471000", "105206.474000", "105206.478000", "105206.481000", "105206.484000", "105206.488000", "105206.491000", "105206.495000", "105206.498000", "105206.501000", "105206.510000", "105206.513000", "105206.516000", "105206.536000", "105206.540000", "105206.543000", "105206.546000", "105206.549000", "105206.553000", "105206.556000", "105206.560000", "105206.563000", "105206.566000", "105206.570000", "105238.905000", "105238.909000", "105238.912000", "105238.916000", "105238.919000", "105238.923000", "105238.926000", "105238.930000", "105238.933000", "105238.936000", "105238.940000", "105238.943000", "105238.946000", "105238.950000", "105238.953000", "105238.956000", "105238.960000", "105238.963000", "105238.966000", "105238.970000", "105238.973000", "105238.977000"],
      "InstanceCreationTime": ["104906.494000", "104906.498000", "104906.501000", "104906.505000", "104906.508000", "104906.511000", "104906.515000", "104906.518000", "104906.521000", "104906.525000", "104906.528000", "104906.531000", "104906.534000", "104906.538000", "104946.455000", "104946.459000", "104946.462000", "104946.465000", "104946.469000", "104946.472000", "104946.475000", "104946.479000", "104946.482000", "104946.485000", "104946.488000", "104946.492000", "104946.495000", "104946.498000", "104946.502000", "104946.505000", "104946.508000", "104946.512000", "104946.515000", "104946.518000", "104946.522000", "104946.525000", "104946.528000", "104946.531000", "104946.535000", "104946.538000", "104946.541000", "104946.544000", "104946.548000", "104946.551000", "104946.554000", "104946.558000", "104946.561000", "104946.564000", "104946.568000", "104946.571000", "104946.574000", "104946.577000", "104946.581000", "105006.454000", "105006.458000", "105006.461000", "105006.464000", "105006.467000", "105006.479000", "105006.482000", "105006.486000", "105006.489000", "105006.492000", "105006.495000", "105006.498000", "105006.502000", "105006.505000", "105006.508000", "105006.512000", "105006.515000", "105006.518000", "105006.521000", "105006.525000", "105006.528000", "105026.454000", "105026.458000", "105026.461000", "105026.464000", "105026.467000", "105026.471000", "105026.474000", "105026.477000", "105026.481000", "105026.484000", "105026.487000", "105026.490000", "105026.494000", "105026.497000", "105026.500000", "105026.503000", "105026.507000", "105026.510000", "105026.513000", "105026.517000", "105046.454000", "105046.458000", "105046.461000", "105046.464000", "105046.468000", "105046.471000", "105046.474000", "105046.477000", "105046.481000", "105046.484000", "105046.487000", "105046.490000", "105046.494000", "105046.497000", "105046.500000", "105046.503000", "105046.507000", "105046.510000", "105046.513000", "105046.516000", "105126.455000", "105126.459000", "105126.462000", "105126.465000", "105126.469000", "105126.472000", "105126.475000", "105126.479000", "105126.482000", "105126.485000", "105126.489000", "105126.492000", "105126.495000", "105126.498000", "105126.502000", "105126.505000", "105126.508000", "105126.511000", "105126.515000", "105126.518000", "105126.521000", "105126.524000", "105126.528000", "105126.531000", "105126.534000", "105126.538000", "105126.541000", "105206.455000", "105206.459000", "105206.468000", "105206.471000", "105206.474000", "105206.478000", "105206.481000", "105206.484000", "105206.488000", "105206.491000", "105206.495000", "105206.498000", "105206.501000", "105206.510000", "105206.513000", "105206.516000", "105206.536000", "105206.540000", "105206.543000", "105206.546000", "105206.549000", "105206.553000", "105206.556000", "105206.560000", "105206.563000", "105206.566000", "105206.570000", "105238.905000", "105238.909000", "105238.912000", "105238.916000", "105238.919000", "105238.923000", "105238.926000", "105238.930000", "105238.933000", "105238.936000", "105238.940000", "105238.943000", "105238.946000", "105238.950000", "105238.953000", "105238.956000", "105238.960000", "105238.963000", "105238.966000", "105238.970000", "105238.973000", "105238.977000"],
      "InstanceNumber": [1, 2, 3, 4, 5, 6, 7, 8, 9, 10, 11, 12, 13, 14, 15, 16, 17, 18, 19, 20, 21, 22, 23, 24, 25, 26, 27, 28, 29, 30, 31, 32, 33, 34, 35, 36, 37, 38, 39, 40, 41, 42, 43, 44, 45, 46, 47, 48, 49, 50, 51, 52, 53, 54, 55, 56, 57, 58, 59, 60, 61, 62, 63, 64, 65, 66, 67, 68, 69, 70, 71, 72, 73, 74, 75, 76, 77, 78, 79, 80, 81, 82, 83, 84, 85, 86, 87, 88, 89, 90, 91, 92, 93, 94, 95, 96, 97, 98, 99, 100, 101, 102, 103, 104, 105, 106, 107, 108, 109, 110, 111, 112, 113, 114, 115, 116, 117, 118, 119, 120, 121, 122, 123, 124, 125, 126, 127, 128, 129, 130, 131, 132, 133, 134, 135, 136, 137, 138, 139, 140, 141, 142, 143, 144, 145, 146, 147, 148, 149, 150, 151, 152, 153, 154, 155, 156, 157, 158, 159, 160, 161, 162, 163, 164, 165, 166, 167, 168, 169, 170, 171, 172, 173, 174, 175, 176, 177, 178, 179, 180, 181, 182, 183, 184, 185, 186, 187, 188, 189, 190],
      "LargestImagePixelValue": [49196, 48590, 47938, 47122, 47708, 46793, 46993, 46774, 47076, 47101, 46856, 46687, 46488, 46694, 46658, 45835, 45855, 46635, 46843, 46764, 46247, 46777, 46549, 46493, 46434, 47120, 46078, 47170, 46319, 46398, 46214, 46644, 46784, 46980, 46842, 47023, 46730, 46646, 46460, 46965, 46534, 46546, 47018, 46646, 46743, 47058, 46563, 46668, 46500, 46676, 46338, 46706, 46422, 46947, 46705, 47045, 46845, 47043, 46707, 46588, 46497, 46951, 46790, 46892, 46689, 46420, 46348, 46650, 46569, 46562, 46739, 46575, 46698, 46519, 46719, 46592, 47005, 46586, 46919, 46196, 46847, 46682, 46630, 46719, 46451, 46531, 46517, 46703, 46493, 46028, 46190, 45615, 46025, 45915, 46351, 46644, 46445, 45637, 46248, 46041, 46046, 46258, 45919, 45437, 46182, 46362, 46380, 45947, 46261, 45966, 46407, 45871, 45880, 46226, 45951, 46009, 46066, 46000, 45901, 45760, 45932, 45948, 45235, 45672, 45594, 45736, 45694, 46036, 46026, 45861, 45695, 46115, 45882, 45935, 45929, 46630, 46123, 46186, 45747, 46097, 45642, 46000, 46112, 45504, 46248, 45759, 46091, 45574, 45440, 45206, 45922, 45791, 45827, 45775, 45134, 46126, 45608, 46227, 45838, 45803, 46455, 46054, 46069, 45802, 46218, 45786, 46292, 46063, 46083, 46283, 46003, 45700, 46312, 46555, 45909, 45505, 45915, 45738, 45792, 46138, 46277, 45924, 46032, 46031, 45726, 46401, 47199, 47197, 46650, 46675],
      "WindowCenter": [11349.0, 11279.0, 11250.0, 11248.0, 11273.0, 11247.0, 11244.0, 11243.0, 11268.0, 11263.0, 11239.0, 11238.0, 11242.0, 11289.0, 11295.0, 11264.0, 11236.0, 11257.0, 11296.0, 11310.0, 11297.0, 11285.0, 11270.0, 11270.0, 11235.0, 11229.0, 11222.0, 11285.0, 11319.0, 11330.0, 11296.0, 11264.0, 11224.0, 11236.0, 11268.0, 11307.0, 11284.0, 11272.0, 11244.0, 11262.0, 11258.0, 11262.0, 11260.0, 11260.0, 11260.0, 11273.0, 11283.0, 11286.0, 11269.0, 11266.0, 11267.0, 11285.0, 11284.0, 11285.0, 11266.0, 11274.0, 11257.0, 11257.0, 11265.0, 11268.0, 11264.0, 11256.0, 11262.0, 11254.0, 11250.0, 11251.0, 11272.0, 11271.0, 11269.0, 11257.0, 11267.0, 11256.0, 11269.0, 11252.0, 11267.0, 11259.0, 11272.0, 11257.0, 11267.0, 11247.0, 11236.0, 11240.0, 11266.0, 11263.0, 11240.0, 11244.0, 11237.0, 11261.0, 11271.0, 11293.0, 11284.0, 11282.0, 11253.0, 11249.0, 11253.0, 11282.0, 11305.0, 11280.0, 11257.0, 11230.0, 11227.0, 11253.0, 11253.0, 11235.0, 11230.0, 11218.0, 11231.0, 11241.0, 11235.0, 11226.0, 11219.0, 11220.0, 11223.0, 11246.0, 11234.0, 11254.0, 11242.0, 11229.0, 11243.0, 11250.0, 11255.0, 11259.0, 11230.0, 11237.0, 11246.0, 11245.0, 11224.0, 11228.0, 11210.0, 11249.0, 11258.0, 11246.0, 11203.0, 11219.0, 11238.0, 11250.0, 11248.0, 11232.0, 11226.0, 11228.0, 11238.0, 11244.0, 11243.0, 11219.0, 11212.0, 11210.0, 11253.0, 11273.0, 11281.0, 11264.0, 11227.0, 11206.0, 11197.0, 11254.0, 11260.0, 11257.0, 11268.0, 11258.0, 11220.0, 11187.0, 11191.0, 11208.0, 11236.0, 11207.0, 11210.0, 11195.0, 11213.0, 11216.0, 11197.0, 11219.0, 11214.0, 11200.0, 11215.0, 11231.0, 11238.0, 11250.0, 11253.0, 11243.0, 11233.0, 11224.0, 11221.0, 11221.0, 11215.0, 11231.0, 11225.0, 11222.0, 11235.0, 11238.0, 11231.0, 11223.0],
      "WindowWidth": [24509.0, 24310.0, 24223.0, 24208.0, 24261.0, 24201.0, 24187.0, 24183.0, 24241.0, 24232.0, 24176.0, 24174.0, 24182.0, 24289.0, 24308.0, 24241.0, 24175.0, 24219.0, 24310.0, 24342.0, 24310.0, 24281.0, 24246.0, 24248.0, 24167.0, 24153.0, 24138.0, 24280.0, 24365.0, 24391.0, 24314.0, 24233.0, 24141.0, 24166.0, 24242.0, 24339.0, 24287.0, 24254.0, 24194.0, 24229.0, 24223.0, 24234.0, 24227.0, 24226.0, 24226.0, 24256.0, 24282.0, 24290.0, 24251.0, 24244.0, 24247.0, 24289.0, 24285.0, 24288.0, 24240.0, 24256.0, 24217.0, 24217.0, 24238.0, 24244.0, 24240.0, 24216.0, 24231.0, 24212.0, 24204.0, 24204.0, 24258.0, 24255.0, 24250.0, 24220.0, 24244.0, 24219.0, 24247.0, 24210.0, 24245.0, 24225.0, 24253.0, 24220.0, 24242.0, 24199.0, 24171.0, 24180.0, 24241.0, 24235.0, 24184.0, 24190.0, 24174.0, 24229.0, 24258.0, 24308.0, 24287.0, 24284.0, 24216.0, 24204.0, 24213.0, 24278.0, 24333.0, 24276.0, 24221.0, 24156.0, 24150.0, 24209.0, 24214.0, 24169.0, 24156.0, 24128.0, 24157.0, 24185.0, 24167.0, 24148.0, 24128.0, 24136.0, 24140.0, 24193.0, 24168.0, 24213.0, 24185.0, 24152.0, 24188.0, 24206.0, 24216.0, 24226.0, 24160.0, 24175.0, 24200.0, 24195.0, 24143.0, 24149.0, 24107.0, 24199.0, 24218.0, 24193.0, 24093.0, 24128.0, 24171.0, 24199.0, 24195.0, 24163.0, 24144.0, 24150.0, 24171.0, 24188.0, 24186.0, 24135.0, 24115.0, 24109.0, 24206.0, 24259.0, 24278.0, 24239.0, 24151.0, 24099.0, 24079.0, 24211.0, 24233.0, 24220.0, 24245.0, 24222.0, 24133.0, 24057.0, 24063.0, 24104.0, 24168.0, 24104.0, 24106.0, 24071.0, 24109.0, 24123.0, 24080.0, 24127.0, 24121.0, 24093.0, 24121.0, 24157.0, 24177.0, 24207.0, 24214.0, 24187.0, 24161.0, 24139.0, 24132.0, 24131.0, 24119.0, 24156.0, 24148.0, 24139.0, 24163.0, 24170.0, 24154.0, 24134.0]
    },
    "slices": {}
  }
}