{
  "AcquisitionMatrixPE": 104,
  "AcquisitionNumber": 1,
  "AcquisitionTime": "10:54:1.345000",
  "BandwidthPerPixelPhaseEncode": 17.17,
  "BaseResolution": 104,
  "BodyPartExamined": "BRAIN",
  "CoilString": "HC1-7;NC1_2",
  "ConsistencyInfo": "N4_VE11C_LATEST_20160120",
  "ConversionSoftware": "dcm2niix",
  "ConversionSoftwareVersion": "v1.0.20190902",
  "DerivedVendorReportedEchoSpacing": 0.000560011,
  "DeviceSerialNumber": "167006",
  "DwellTime": 2.1e-06,
  "EchoTime": 0.037,
  "EchoTrainLength": 104,
  "EffectiveEchoSpacing": 0.000560011,
  "FlipAngle": 52,
  "ImageComments": "Unaliased_MB4_PE3_LB",
  "ImageOrientationPatientDICOM": [0.999678, -0.00255287, -0.0252464, -0.01012, 0.872269, -0.488921],
  "ImageType": [
    "ORIGINAL",
    "PRIMARY",
    "P",
    "MB",
    "ND",
    "MOSAIC"
],
  "ImagingFrequency": 123.259,
  "InPlanePhaseEncodingDirectionDICOM": "COL",
  "InstitutionAddress": "Chemin_Queen-Mary_4565_Montreal_District_CA_H3W_1W5",
  "InstitutionName": "IUGM",
  "InstitutionalDepartmentName": "Department",
  "MRAcquisitionType": "2D",
  "MagneticFieldStrength": 3,
  "Manufacturer": "Siemens",
  "ManufacturersModelName": "Prisma_fit",
  "Modality": "MR",
  "MultibandAccelerationFactor": 4,
  "PartialFourier": 1,
  "PatientPosition": "HFS",
  "PercentPhaseFOV": 100,
  "PhaseEncodingDirection": "j",
  "PhaseEncodingSteps": 104,
  "PhaseResolution": 1,
  "PixelBandwidth": 2290,
  "ProcedureStepDescription": "memory_things",
  "ProtocolName": "func_task-things_run-2",
  "PulseSequenceDetails": "%CustomerSeq%_cmrr_mbep2d_bold",
  "ReceiveCoilActiveElements": "HC1-7;NC1,2",
  "ReceiveCoilName": "HeadNeck_64",
  "ReconMatrixPE": 104,
  "RepetitionTime": 1.49,
  "SAR": 0.0640097,
  "ScanOptions": "FS",
  "ScanningSequence": "EP",
  "SequenceName": "epfid2d1_104",
  "SequenceVariant": "SK_SS",
  "SeriesDescription": "func_task-things_run-2",
  "SeriesNumber": 14,
  "ShimSetting": [601, -7176, -8876, 259, 14, -141, 56, -64],
  "SliceThickness": 2,
  "SliceTiming": [0, 0.785, 0.0975, 0.8825, 0.195, 0.98, 0.295, 1.0775, 0.3925, 1.175, 0.49, 1.275, 0.5875, 1.3725, 0.685, 0, 0.785, 0.0975, 0.8825, 0.195, 0.98, 0.295, 1.0775, 0.3925, 1.175, 0.49, 1.275, 0.5875, 1.3725, 0.685, 0, 0.785, 0.0975, 0.8825, 0.195, 0.98, 0.295, 1.0775, 0.3925, 1.175, 0.49, 1.275, 0.5875, 1.3725, 0.685, 0, 0.785, 0.0975, 0.8825, 0.195, 0.98, 0.295, 1.0775, 0.3925, 1.175, 0.49, 1.275, 0.5875, 1.3725, 0.685],
  "SoftwareVersions": "syngo_MR_E11",
  "SpacingBetweenSlices": 2,
  "StationName": "MRC35049",
  "TaskName": "things",
  "TotalReadoutTime": 0.0576811,
  "TxRefAmp": 306.605,
  "WipMemBlock": "7618a92c-8194-4e81-9ad2-9df7a8ed05c4||Sequence: R016 ve11c/master r/e634e98; Dec 19 2017 11:00:25 by eja",
  "dcmmeta_affine": [
    [-1.9993560314178467, -0.020239923149347305, -0.046539608389139175, 109.55936431884766],
    [0.0051057408563792706, 1.7445385456085205, -0.9780383706092834, -54.11943817138672],
    [-0.0504927821457386, 0.9778422117233276, 1.7439252138137817, -102.62206268310547],
    [0.0, 0.0, 0.0, 1.0]
],
  "dcmmeta_reorient_transform": [
    [0.0, -1.0, 0.0, 103.0],
    [1.0, 0.0, 0.0, 0.0],
    [0.0, 0.0, 1.0, 0.0],
    [0.0, 0.0, 0.0, 1.0]
],
  "dcmmeta_shape": [104, 104, 60, 190],
  "dcmmeta_slice_dim": 2,
  "dcmmeta_version": 0.6,
  "global": {
    "const": {
      "AcquisitionMatrix": [104, 0, 0, 104],
      "AngioFlag": "N",
      "BitsAllocated": 16,
      "BitsStored": 16,
      "BodyPartExamined": "BRAIN",
      "Columns": 832,
      "EchoNumbers": 1,
      "EchoTime": 37.0,
      "EchoTrainLength": 104,
      "FlipAngle": 52.0,
      "HighBit": 15,
      "ImageOrientationPatient": [0.99967799945277, -0.0025528704814, -0.025246391077, -0.0101199618008, 0.87226929804561, -0.4889211163983],
      "ImagePositionPatient": [-827.87290143548, -758.72159474147, 372.40963108149],
      "ImageType": [
        "ORIGINAL",
        "PRIMARY",
        "P",
        "MB",
        "ND",
        "MOSAIC"
],
      "ImagedNucleus": "1H",
      "ImagingFrequency": 123.258931,
      "InPlanePhaseEncodingDirection": "COL",
      "LargestImagePixelValue": 4095,
      "MRAcquisitionType": "2D",
      "MagneticFieldStrength": 3.0,
      "Manufacturer": "SIEMENS",
      "ManufacturerModelName": "Prisma_fit",
      "Modality": "MR",
      "NumberOfAverages": 1.0,
      "NumberOfPhaseEncodingSteps": 104,
      "PercentPhaseFieldOfView": 100.0,
      "PercentSampling": 100.0,
      "PerformedProcedureStepStartTime": "102251.250000",
      "PhotometricInterpretation": "MONOCHROME2",
      "PixelBandwidth": 2290.0,
      "PixelRepresentation": 0,
      "PixelSpacing": [2.0, 2.0],
      "ProtocolName": "func_task-things_run-2",
      "RepetitionTime": 1490.0,
      "RescaleIntercept": -4096.0,
      "RescaleSlope": 2.0,
      "RescaleType": "US",
      "Rows": 832,
      "SAR": 0.06400966733522,
      "SamplesPerPixel": 1,
      "ScanOptions": "FS",
      "ScanningSequence": "EP",
      "SequenceName": "epfid2d1_104",
      "SequenceVariant": [
        "SK",
        "SS"
],
      "SeriesDescription": "func_task-things_run-2",
      "SeriesNumber": 14,
      "SeriesTime": "105533.688000",
      "SliceLocation": -65.566582183707,
      "SliceThickness": 2.0,
      "SmallestImagePixelValue": 0,
      "SoftwareVersions": "syngo MR E11",
      "SpacingBetweenSlices": 2.0000000388266,
      "SpecificCharacterSet": "ISO_IR 100",
      "StudyID": "1",
      "StudyTime": "102251.202000",
      "TransmitCoilName": "Body",
      "VariableFlipAngleFlag": "N",
      "WindowCenterWidthExplanation": "Algo1",
      "dBdt": 0.0},
    "slices": {}
  },
  "time": {
    "samples": {
      "AcquisitionNumber": [1, 2, 3, 4, 5, 6, 7, 8, 9, 10, 11, 12, 13, 14, 15, 16, 17, 18, 19, 20, 21, 22, 23, 24, 25, 26, 27, 28, 29, 30, 31, 32, 33, 34, 35, 36, 37, 38, 39, 40, 41, 42, 43, 44, 45, 46, 47, 48, 49, 50, 51, 52, 53, 54, 55, 56, 57, 58, 59, 60, 61, 62, 63, 64, 65, 66, 67, 68, 69, 70, 71, 72, 73, 74, 75, 76, 77, 78, 79, 80, 81, 82, 83, 84, 85, 86, 87, 88, 89, 90, 91, 92, 93, 94, 95, 96, 97, 98, 99, 100, 101, 102, 103, 104, 105, 106, 107, 108, 109, 110, 111, 112, 113, 114, 115, 116, 117, 118, 119, 120, 121, 122, 123, 124, 125, 126, 127, 128, 129, 130, 131, 132, 133, 134, 135, 136, 137, 138, 139, 140, 141, 142, 143, 144, 145, 146, 147, 148, 149, 150, 151, 152, 153, 154, 155, 156, 157, 158, 159, 160, 161, 162, 163, 164, 165, 166, 167, 168, 169, 170, 171, 172, 173, 174, 175, 176, 177, 178, 179, 180, 181, 182, 183, 184, 185, 186, 187, 188, 189, 190],
      "AcquisitionTime": ["105401.345000", "105402.835000", "105404.325000", "105405.815000", "105407.305000", "105408.795000", "105410.285000", "105411.775000", "105413.265000", "105414.755000", "105416.245000", "105417.735000", "105419.225000", "105420.715000", "105422.205000", "105423.695000", "105425.185000", "105426.675000", "105428.165000", "105429.655000", "105431.145000", "105432.635000", "105434.125000", "105435.615000", "105437.105000", "105438.595000", "105440.085000", "105441.575000", "105443.065000", "105444.555000", "105446.045000", "105447.535000", "105449.025000", "105450.515000", "105452.005000", "105453.495000", "105454.985000", "105456.475000", "105457.965000", "105459.455000", "105500.945000", "105502.435000", "105503.925000", "105505.415000", "105506.905000", "105508.395000", "105509.885000", "105511.375000", "105512.865000", "105514.355000", "105515.845000", "105517.335000", "105518.825000", "105520.315000", "105521.805000", "105523.295000", "105524.785000", "105526.275000", "105527.765000", "105529.255000", "105530.745000", "105532.235000", "105533.725000", "105535.215000", "105536.705000", "105538.195000", "105539.685000", "105541.175000", "105542.665000", "105544.155000", "105545.645000", "105547.135000", "105548.625000", "105550.115000", "105551.605000", "105553.095000", "105554.585000", "105556.075000", "105557.565000", "105559.055000", "105600.545000", "105602.035000", "105603.525000", "105605.015000", "105606.505000", "105607.995000", "105609.485000", "105610.975000", "105612.465000", "105613.955000", "105615.445000", "105616.935000", "105618.425000", "105619.915000", "105621.405000", "105622.895000", "105624.385000", "105625.875000", "105627.365000", "105628.855000", "105630.345000", "105631.835000", "105633.325000", "105634.815000", "105636.305000", "105637.795000", "105639.285000", "105640.775000", "105642.265000", "105643.755000", "105645.245000", "105646.735000", "105648.225000", "105649.715000", "105651.205000", "105652.695000", "105654.185000", "105655.675000", "105657.165000", "105658.655000", "105700.145000", "105701.635000", "105703.125000", "105704.615000", "105706.105000", "105707.595000", "105709.085000", "105710.575000", "105712.065000", "105713.555000", "105715.045000", "105716.535000", "105718.025000", "105719.515000", "105721.005000", "105722.495000", "105723.985000", "105725.475000", "105726.965000", "105728.455000", "105729.945000", "105731.435000", "105732.925000", "105734.415000", "105735.905000", "105737.395000", "105738.885000", "105740.375000", "105741.865000", "105743.355000", "105744.845000", "105746.335000", "105747.825000", "105749.315000", "105750.805000", "105752.295000", "105753.785000", "105755.275000", "105756.765000", "105758.255000", "105759.745000", "105801.235000", "105802.725000", "105804.215000", "105805.705000", "105807.195000", "105808.685000", "105810.175000", "105811.665000", "105813.155000", "105814.645000", "105816.135000", "105817.625000", "105819.115000", "105820.605000", "105822.095000", "105823.585000", "105825.075000", "105826.565000", "105828.055000", "105829.545000", "105831.035000", "105832.525000", "105834.015000", "105835.505000", "105836.995000", "105838.485000", "105839.975000", "105841.465000", "105842.955000"],
      "ContentTime": ["105533.690000", "105533.693000", "105533.700000", "105533.703000", "105533.705000", "105533.708000", "105533.711000", "105533.713000", "105533.715000", "105533.718000", "105533.720000", "105533.723000", "105533.725000", "105533.728000", "105533.730000", "105533.733000", "105533.736000", "105533.738000", "105533.741000", "105533.743000", "105533.746000", "105533.748000", "105533.751000", "105533.753000", "105533.755000", "105533.758000", "105533.761000", "105533.763000", "105533.766000", "105533.768000", "105533.771000", "105533.773000", "105533.775000", "105533.778000", "105533.780000", "105533.783000", "105553.590000", "105553.592000", "105553.595000", "105553.597000", "105553.600000", "105553.602000", "105553.605000", "105553.607000", "105553.610000", "105553.612000", "105553.615000", "105553.617000", "105553.620000", "105553.622000", "105553.625000", "105553.627000", "105553.630000", "105553.641000", "105553.643000", "105553.646000", "105613.600000", "105613.603000", "105613.605000", "105613.608000", "105613.610000", "105613.613000", "105613.615000", "105613.618000", "105613.620000", "105613.623000", "105613.625000", "105613.628000", "105613.630000", "105613.633000", "105613.635000", "105613.638000", "105613.640000", "105613.643000", "105613.645000", "105613.648000", "105633.610000", "105633.613000", "105633.616000", "105633.618000", "105633.621000", "105633.624000", "105633.626000", "105633.629000", "105633.631000", "105633.634000", "105633.636000", "105633.639000", "105633.641000", "105633.644000", "105633.646000", "105633.649000", "105633.651000", "105633.654000", "105633.656000", "105633.659000", "105713.643000", "105713.646000", "105713.648000", "105713.651000", "105713.653000", "105713.655000", "105713.658000", "105713.661000", "105713.663000", "105713.666000", "105713.668000", "105713.671000", "105713.673000", "105713.676000", "105713.678000", "105713.681000", "105713.683000", "105713.686000", "105713.688000", "105713.691000", "105713.693000", "105713.695000", "105713.698000", "105713.700000", "105713.703000", "105713.705000", "105713.708000", "105713.710000", "105713.713000", "105713.715000", "105713.718000", "105713.720000", "105753.627000", "105753.630000", "105753.633000", "105753.635000", "105753.638000", "105753.640000", "105753.643000", "105753.645000", "105753.648000", "105753.650000", "105753.653000", "105753.655000", "105753.658000", "105753.660000", "105753.663000", "105753.665000", "105753.668000", "105753.670000", "105753.673000", "105753.675000", "105753.678000", "105753.680000", "105753.683000", "105753.685000", "105753.688000", "105753.690000", "105753.693000", "105833.640000", "105833.643000", "105833.646000", "105833.648000", "105833.651000", "105833.653000", "105833.656000", "105833.658000", "105833.661000", "105833.663000", "105833.666000", "105833.668000", "105833.671000", "105833.673000", "105833.676000", "105833.678000", "105833.681000", "105833.683000", "105833.686000", "105833.688000", "105833.691000", "105833.693000", "105833.696000", "105833.698000", "105833.701000", "105833.703000", "105833.706000", "105845.443000", "105845.446000", "105845.448000", "105845.451000", "105845.453000", "105845.456000", "105845.458000", "105845.461000"],
      "InstanceCreationTime": ["105533.690000", "105533.693000", "105533.700000", "105533.703000", "105533.705000", "105533.708000", "105533.711000", "105533.713000", "105533.715000", "105533.718000", "105533.720000", "105533.723000", "105533.725000", "105533.728000", "105533.730000", "105533.733000", "105533.736000", "105533.738000", "105533.741000", "105533.743000", "105533.746000", "105533.748000", "105533.751000", "105533.753000", "105533.755000", "105533.758000", "105533.761000", "105533.763000", "105533.766000", "105533.768000", "105533.771000", "105533.773000", "105533.775000", "105533.778000", "105533.780000", "105533.783000", "105553.590000", "105553.592000", "105553.595000", "105553.597000", "105553.600000", "105553.602000", "105553.605000", "105553.607000", "105553.610000", "105553.612000", "105553.615000", "105553.617000", "105553.620000", "105553.622000", "105553.625000", "105553.627000", "105553.630000", "105553.641000", "105553.643000", "105553.646000", "105613.600000", "105613.603000", "105613.605000", "105613.608000", "105613.610000", "105613.613000", "105613.615000", "105613.618000", "105613.620000", "105613.623000", "105613.625000", "105613.628000", "105613.630000", "105613.633000", "105613.635000", "105613.638000", "105613.640000", "105613.643000", "105613.645000", "105613.648000", "105633.610000", "105633.613000", "105633.616000", "105633.618000", "105633.621000", "105633.624000", "105633.626000", "105633.629000", "105633.631000", "105633.634000", "105633.636000", "105633.639000", "105633.641000", "105633.644000", "105633.646000", "105633.649000", "105633.651000", "105633.654000", "105633.656000", "105633.659000", "105713.643000", "105713.646000", "105713.648000", "105713.651000", "105713.653000", "105713.655000", "105713.658000", "105713.661000", "105713.663000", "105713.666000", "105713.668000", "105713.671000", "105713.673000", "105713.676000", "105713.678000", "105713.681000", "105713.683000", "105713.686000", "105713.688000", "105713.691000", "105713.693000", "105713.695000", "105713.698000", "105713.700000", "105713.703000", "105713.705000", "105713.708000", "105713.710000", "105713.713000", "105713.715000", "105713.718000", "105713.720000", "105753.627000", "105753.630000", "105753.633000", "105753.635000", "105753.638000", "105753.640000", "105753.643000", "105753.645000", "105753.648000", "105753.650000", "105753.653000", "105753.655000", "105753.658000", "105753.660000", "105753.663000", "105753.665000", "105753.668000", "105753.670000", "105753.673000", "105753.675000", "105753.678000", "105753.680000", "105753.683000", "105753.685000", "105753.688000", "105753.690000", "105753.693000", "105833.640000", "105833.643000", "105833.646000", "105833.648000", "105833.651000", "105833.653000", "105833.656000", "105833.658000", "105833.661000", "105833.663000", "105833.666000", "105833.668000", "105833.671000", "105833.673000", "105833.676000", "105833.678000", "105833.681000", "105833.683000", "105833.686000", "105833.688000", "105833.691000", "105833.693000", "105833.696000", "105833.698000", "105833.701000", "105833.703000", "105833.706000", "105845.443000", "105845.446000", "105845.448000", "105845.451000", "105845.453000", "105845.456000", "105845.458000", "105845.461000"],
      "InstanceNumber": [1, 2, 3, 4, 5, 6, 7, 8, 9, 10, 11, 12, 13, 14, 15, 16, 17, 18, 19, 20, 21, 22, 23, 24, 25, 26, 27, 28, 29, 30, 31, 32, 33, 34, 35, 36, 37, 38, 39, 40, 41, 42, 43, 44, 45, 46, 47, 48, 49, 50, 51, 52, 53, 54, 55, 56, 57, 58, 59, 60, 61, 62, 63, 64, 65, 66, 67, 68, 69, 70, 71, 72, 73, 74, 75, 76, 77, 78, 79, 80, 81, 82, 83, 84, 85, 86, 87, 88, 89, 90, 91, 92, 93, 94, 95, 96, 97, 98, 99, 100, 101, 102, 103, 104, 105, 106, 107, 108, 109, 110, 111, 112, 113, 114, 115, 116, 117, 118, 119, 120, 121, 122, 123, 124, 125, 126, 127, 128, 129, 130, 131, 132, 133, 134, 135, 136, 137, 138, 139, 140, 141, 142, 143, 144, 145, 146, 147, 148, 149, 150, 151, 152, 153, 154, 155, 156, 157, 158, 159, 160, 161, 162, 163, 164, 165, 166, 167, 168, 169, 170, 171, 172, 173, 174, 175, 176, 177, 178, 179, 180, 181, 182, 183, 184, 185, 186, 187, 188, 189, 190],
      "WindowCenter": [4728.0, 4756.0, 4730.0, 4756.0, 4726.0, 4730.0, 4702.0, 4702.0, 4728.0, 4730.0, 4732.0, 4726.0, 4750.0, 4706.0, 4756.0, 4752.0, 4788.0, 4734.0, 4754.0, 4704.0, 4726.0, 4702.0, 4754.0, 4726.0, 4730.0, 4730.0, 4754.0, 4756.0, 4728.0, 4726.0, 4728.0, 4752.0, 4726.0, 4730.0, 4704.0, 4730.0, 4726.0, 4728.0, 4788.0, 4764.0, 4730.0, 4784.0, 4726.0, 4754.0, 4704.0, 4726.0, 4700.0, 4728.0, 4730.0, 4708.0, 4754.0, 4752.0, 4760.0, 4790.0, 4792.0, 4756.0, 4728.0, 4726.0, 4702.0, 4700.0, 4728.0, 4728.0, 4728.0, 4758.0, 4730.0, 4786.0, 4728.0, 4728.0, 4754.0, 4752.0, 4728.0, 4724.0, 4726.0, 4706.0, 4726.0, 4722.0, 4754.0, 4782.0, 4784.0, 4790.0, 4728.0, 4752.0, 4702.0, 4726.0, 4728.0, 4730.0, 4724.0, 4754.0, 4726.0, 4758.0, 4728.0, 4780.0, 4726.0, 4756.0, 4726.0, 4726.0, 4724.0, 4726.0, 4782.0, 4750.0, 4786.0, 4752.0, 4756.0, 4732.0, 4702.0, 4724.0, 4702.0, 4756.0, 4730.0, 4732.0, 4758.0, 4786.0, 4758.0, 4756.0, 4730.0, 4718.0, 4720.0, 4728.0, 4856.0, 4818.0, 4822.0, 4790.0, 4730.0, 4752.0, 4702.0, 4704.0, 4726.0, 4732.0, 4752.0, 4784.0, 4758.0, 4752.0, 4756.0, 4726.0, 4732.0, 4728.0, 4728.0, 4720.0, 4700.0, 4704.0, 4850.0, 4856.0, 4914.0, 4846.0, 4816.0, 4702.0, 4706.0, 4710.0, 4706.0, 4708.0, 4728.0, 4752.0, 4788.0, 4790.0, 4820.0, 4728.0, 4754.0, 4706.0, 4702.0, 4726.0, 4686.0, 4726.0, 4814.0, 4756.0, 4850.0, 4814.0, 4790.0, 4726.0, 4726.0, 4706.0, 4704.0, 4704.0, 4710.0, 4728.0, 4760.0, 4824.0, 4826.0, 4848.0, 4756.0, 4724.0, 4726.0, 4724.0, 4730.0, 4726.0, 4814.0, 4880.0, 4780.0, 4684.0, 4704.0, 4754.0],
      "WindowWidth": [18532.0, 18580.0, 18538.0, 18572.0, 18528.0, 18534.0, 18492.0, 18496.0, 18532.0, 18538.0, 18540.0, 18530.0, 18570.0, 18490.0, 18578.0, 18572.0, 18622.0, 18540.0, 18568.0, 18498.0, 18532.0, 18496.0, 18570.0, 18532.0, 18534.0, 18534.0, 18570.0, 18578.0, 18534.0, 18534.0, 18536.0, 18568.0, 18526.0, 18536.0, 18494.0, 18538.0, 18534.0, 18536.0, 18622.0, 18590.0, 18538.0, 18616.0, 18532.0, 18568.0, 18494.0, 18530.0, 18488.0, 18534.0, 18532.0, 18492.0, 18572.0, 18574.0, 18586.0, 18632.0, 18630.0, 18580.0, 18534.0, 18522.0, 18488.0, 18486.0, 18532.0, 18534.0, 18532.0, 18578.0, 18534.0, 18620.0, 18530.0, 18534.0, 18564.0, 18568.0, 18528.0, 18522.0, 18532.0, 18496.0, 18530.0, 18524.0, 18574.0, 18616.0, 18624.0, 18628.0, 18540.0, 18572.0, 18492.0, 18528.0, 18530.0, 18538.0, 18528.0, 18576.0, 18530.0, 18578.0, 18536.0, 18616.0, 18528.0, 18572.0, 18524.0, 18524.0, 18526.0, 18528.0, 18612.0, 18568.0, 18620.0, 18572.0, 18572.0, 18536.0, 18498.0, 18530.0, 18494.0, 18572.0, 18526.0, 18536.0, 18580.0, 18622.0, 18582.0, 18574.0, 18538.0, 18490.0, 18492.0, 18534.0, 18716.0, 18668.0, 18678.0, 18628.0, 18538.0, 18570.0, 18486.0, 18492.0, 18526.0, 18538.0, 18572.0, 18620.0, 18578.0, 18576.0, 18574.0, 18530.0, 18536.0, 18534.0, 18532.0, 18494.0, 18460.0, 18498.0, 18716.0, 18718.0, 18782.0, 18708.0, 18664.0, 18496.0, 18490.0, 18496.0, 18488.0, 18496.0, 18528.0, 18570.0, 18626.0, 18632.0, 18666.0, 18540.0, 18570.0, 18492.0, 18490.0, 18524.0, 18458.0, 18532.0, 18666.0, 18584.0, 18712.0, 18670.0, 18630.0, 18536.0, 18532.0, 18490.0, 18488.0, 18490.0, 18490.0, 18536.0, 18582.0, 18680.0, 18676.0, 18710.0, 18578.0, 18530.0, 18528.0, 18494.0, 18498.0, 18532.0, 18670.0, 18754.0, 18620.0, 18462.0, 18496.0, 18578.0]
    },
    "slices": {}
  }
}