{
  "AcquisitionMatrixPE": 104,
  "AcquisitionNumber": 1,
  "AcquisitionTime": "11:06:48.305000",
  "BandwidthPerPixelPhaseEncode": 17.17,
  "BaseResolution": 104,
  "BodyPartExamined": "BRAIN",
  "CoilString": "HC1-7;NC1_2",
  "ConsistencyInfo": "N4_VE11C_LATEST_20160120",
  "ConversionSoftware": "dcm2niix",
  "ConversionSoftwareVersion": "v1.0.20190902",
  "DerivedVendorReportedEchoSpacing": 0.000560011,
  "DeviceSerialNumber": "167006",
  "DwellTime": 2.1e-06,
  "EchoTime": 0.037,
  "EchoTrainLength": 104,
  "EffectiveEchoSpacing": 0.000560011,
  "FlipAngle": 52,
  "ImageComments": "Unaliased_MB4_PE3_LB",
  "ImageOrientationPatientDICOM": [0.999678, -0.00255287, -0.0252464, -0.01012, 0.872269, -0.488921],
  "ImageType": [
    "ORIGINAL",
    "PRIMARY",
    "P",
    "MB",
    "ND",
    "MOSAIC"
],
  "ImagingFrequency": 123.259,
  "InPlanePhaseEncodingDirectionDICOM": "COL",
  "InstitutionAddress": "Chemin_Queen-Mary_4565_Montreal_District_CA_H3W_1W5",
  "InstitutionName": "IUGM",
  "InstitutionalDepartmentName": "Department",
  "MRAcquisitionType": "2D",
  "MagneticFieldStrength": 3,
  "Manufacturer": "Siemens",
  "ManufacturersModelName": "Prisma_fit",
  "Modality": "MR",
  "MultibandAccelerationFactor": 4,
  "PartialFourier": 1,
  "PatientPosition": "HFS",
  "PercentPhaseFOV": 100,
  "PhaseEncodingDirection": "j",
  "PhaseEncodingSteps": 104,
  "PhaseResolution": 1,
  "PixelBandwidth": 2290,
  "ProcedureStepDescription": "memory_things",
  "ProtocolName": "func_task-things_run-4",
  "PulseSequenceDetails": "%CustomerSeq%_cmrr_mbep2d_bold",
  "ReceiveCoilActiveElements": "HC1-7;NC1,2",
  "ReceiveCoilName": "HeadNeck_64",
  "ReconMatrixPE": 104,
  "RepetitionTime": 1.49,
  "SAR": 0.0640097,
  "ScanOptions": "FS",
  "ScanningSequence": "EP",
  "SequenceName": "epfid2d1_104",
  "SequenceVariant": "SK_SS",
  "SeriesDescription": "func_task-things_run-4",
  "SeriesNumber": 20,
  "ShimSetting": [601, -7176, -8876, 259, 14, -141, 56, -64],
  "SliceThickness": 2,
  "SliceTiming": [0, 0.785, 0.0975, 0.8825, 0.195, 0.98, 0.295, 1.0775, 0.3925, 1.175, 0.49, 1.275, 0.5875, 1.3725, 0.685, 0, 0.785, 0.0975, 0.8825, 0.195, 0.98, 0.295, 1.0775, 0.3925, 1.175, 0.49, 1.275, 0.5875, 1.3725, 0.685, 0, 0.785, 0.0975, 0.8825, 0.195, 0.98, 0.295, 1.0775, 0.3925, 1.175, 0.49, 1.275, 0.5875, 1.3725, 0.685, 0, 0.785, 0.0975, 0.8825, 0.195, 0.98, 0.295, 1.0775, 0.3925, 1.175, 0.49, 1.275, 0.5875, 1.3725, 0.685],
  "SoftwareVersions": "syngo_MR_E11",
  "SpacingBetweenSlices": 2,
  "StationName": "MRC35049",
  "TaskName": "things",
  "TotalReadoutTime": 0.0576811,
  "TxRefAmp": 306.605,
  "WipMemBlock": "380abe9c-4018-4840-b881-f7b2fe28289a||Sequence: R016 ve11c/master r/e634e98; Dec 19 2017 11:00:25 by eja",
  "dcmmeta_affine": [
    [-1.9993560314178467, -0.020239923149347305, -0.046539608389139175, 109.55936431884766],
    [0.0051057408563792706, 1.7445385456085205, -0.9780383706092834, -54.11943817138672],
    [-0.0504927821457386, 0.9778422117233276, 1.7439252138137817, -102.62206268310547],
    [0.0, 0.0, 0.0, 1.0]
],
  "dcmmeta_reorient_transform": [
    [0.0, -1.0, 0.0, 103.0],
    [1.0, 0.0, 0.0, 0.0],
    [0.0, 0.0, 1.0, 0.0],
    [0.0, 0.0, 0.0, 1.0]
],
  "dcmmeta_shape": [104, 104, 60, 190],
  "dcmmeta_slice_dim": 2,
  "dcmmeta_version": 0.6,
  "global": {
    "const": {
      "AcquisitionMatrix": [104, 0, 0, 104],
      "AngioFlag": "N",
      "BitsAllocated": 16,
      "BitsStored": 16,
      "BodyPartExamined": "BRAIN",
      "Columns": 832,
      "EchoNumbers": 1,
      "EchoTime": 37.0,
      "EchoTrainLength": 104,
      "FlipAngle": 52.0,
      "HighBit": 15,
      "ImageOrientationPatient": [0.99967799945277, -0.0025528704814, -0.025246391077, -0.0101199618008, 0.87226929804561, -0.4889211163983],
      "ImagePositionPatient": [-827.87290143548, -758.72159474147, 372.40963108149],
      "ImageType": [
        "ORIGINAL",
        "PRIMARY",
        "P",
        "MB",
        "ND",
        "MOSAIC"
],
      "ImagedNucleus": "1H",
      "ImagingFrequency": 123.25894,
      "InPlanePhaseEncodingDirection": "COL",
      "LargestImagePixelValue": 4095,
      "MRAcquisitionType": "2D",
      "MagneticFieldStrength": 3.0,
      "Manufacturer": "SIEMENS",
      "ManufacturerModelName": "Prisma_fit",
      "Modality": "MR",
      "NumberOfAverages": 1.0,
      "NumberOfPhaseEncodingSteps": 104,
      "PercentPhaseFieldOfView": 100.0,
      "PercentSampling": 100.0,
      "PerformedProcedureStepStartTime": "102251.250000",
      "PhotometricInterpretation": "MONOCHROME2",
      "PixelBandwidth": 2290.0,
      "PixelRepresentation": 0,
      "PixelSpacing": [2.0, 2.0],
      "ProtocolName": "func_task-things_run-4",
      "RepetitionTime": 1490.0,
      "RescaleIntercept": -4096.0,
      "RescaleSlope": 2.0,
      "RescaleType": "US",
      "Rows": 832,
      "SAR": 0.06400966733522,
      "SamplesPerPixel": 1,
      "ScanOptions": "FS",
      "ScanningSequence": "EP",
      "SequenceName": "epfid2d1_104",
      "SequenceVariant": [
        "SK",
        "SS"
],
      "SeriesDescription": "func_task-things_run-4",
      "SeriesNumber": 20,
      "SeriesTime": "110806.629000",
      "SliceLocation": -65.566582183707,
      "SliceThickness": 2.0,
      "SmallestImagePixelValue": 0,
      "SoftwareVersions": "syngo MR E11",
      "SpacingBetweenSlices": 2.0000000388266,
      "SpecificCharacterSet": "ISO_IR 100",
      "StudyID": "1",
      "StudyTime": "102251.202000",
      "TransmitCoilName": "Body",
      "VariableFlipAngleFlag": "N",
      "WindowCenterWidthExplanation": "Algo1",
      "dBdt": 0.0},
    "slices": {}
  },
  "time": {
    "samples": {
      "AcquisitionNumber": [1, 2, 3, 4, 5, 6, 7, 8, 9, 10, 11, 12, 13, 14, 15, 16, 17, 18, 19, 20, 21, 22, 23, 24, 25, 26, 27, 28, 29, 30, 31, 32, 33, 34, 35, 36, 37, 38, 39, 40, 41, 42, 43, 44, 45, 46, 47, 48, 49, 50, 51, 52, 53, 54, 55, 56, 57, 58, 59, 60, 61, 62, 63, 64, 65, 66, 67, 68, 69, 70, 71, 72, 73, 74, 75, 76, 77, 78, 79, 80, 81, 82, 83, 84, 85, 86, 87, 88, 89, 90, 91, 92, 93, 94, 95, 96, 97, 98, 99, 100, 101, 102, 103, 104, 105, 106, 107, 108, 109, 110, 111, 112, 113, 114, 115, 116, 117, 118, 119, 120, 121, 122, 123, 124, 125, 126, 127, 128, 129, 130, 131, 132, 133, 134, 135, 136, 137, 138, 139, 140, 141, 142, 143, 144, 145, 146, 147, 148, 149, 150, 151, 152, 153, 154, 155, 156, 157, 158, 159, 160, 161, 162, 163, 164, 165, 166, 167, 168, 169, 170, 171, 172, 173, 174, 175, 176, 177, 178, 179, 180, 181, 182, 183, 184, 185, 186, 187, 188, 189, 190],
      "AcquisitionTime": ["110648.305000", "110649.795000", "110651.285000", "110652.775000", "110654.265000", "110655.755000", "110657.245000", "110658.735000", "110700.225000", "110701.715000", "110703.205000", "110704.695000", "110706.185000", "110707.675000", "110709.165000", "110710.655000", "110712.145000", "110713.635000", "110715.125000", "110716.615000", "110718.105000", "110719.595000", "110721.085000", "110722.575000", "110724.065000", "110725.555000", "110727.045000", "110728.535000", "110730.025000", "110731.515000", "110733.005000", "110734.495000", "110735.985000", "110737.475000", "110738.965000", "110740.455000", "110741.945000", "110743.435000", "110744.925000", "110746.415000", "110747.905000", "110749.395000", "110750.885000", "110752.375000", "110753.865000", "110755.355000", "110756.845000", "110758.335000", "110759.825000", "110801.315000", "110802.805000", "110804.295000", "110805.785000", "110807.275000", "110808.765000", "110810.255000", "110811.745000", "110813.235000", "110814.725000", "110816.215000", "110817.705000", "110819.195000", "110820.685000", "110822.175000", "110823.665000", "110825.155000", "110826.645000", "110828.135000", "110829.625000", "110831.115000", "110832.605000", "110834.095000", "110835.585000", "110837.075000", "110838.565000", "110840.055000", "110841.545000", "110843.035000", "110844.525000", "110846.015000", "110847.505000", "110848.995000", "110850.485000", "110851.975000", "110853.465000", "110854.955000", "110856.445000", "110857.935000", "110859.425000", "110900.915000", "110902.405000", "110903.895000", "110905.385000", "110906.875000", "110908.365000", "110909.855000", "110911.345000", "110912.835000", "110914.325000", "110915.815000", "110917.305000", "110918.795000", "110920.285000", "110921.775000", "110923.265000", "110924.755000", "110926.245000", "110927.735000", "110929.225000", "110930.715000", "110932.205000", "110933.695000", "110935.185000", "110936.675000", "110938.165000", "110939.655000", "110941.145000", "110942.635000", "110944.125000", "110945.615000", "110947.105000", "110948.595000", "110950.085000", "110951.575000", "110953.065000", "110954.555000", "110956.045000", "110957.535000", "110959.025000", "111000.515000", "111002.005000", "111003.495000", "111004.985000", "111006.475000", "111007.965000", "111009.455000", "111010.945000", "111012.435000", "111013.925000", "111015.415000", "111016.905000", "111018.395000", "111019.885000", "111021.375000", "111022.865000", "111024.355000", "111025.845000", "111027.335000", "111028.825000", "111030.315000", "111031.805000", "111033.295000", "111034.785000", "111036.275000", "111037.765000", "111039.255000", "111040.745000", "111042.235000", "111043.725000", "111045.215000", "111046.705000", "111048.195000", "111049.685000", "111051.175000", "111052.665000", "111054.155000", "111055.645000", "111057.135000", "111058.625000", "111100.115000", "111101.605000", "111103.095000", "111104.585000", "111106.075000", "111107.565000", "111109.055000", "111110.545000", "111112.035000", "111113.525000", "111115.015000", "111116.505000", "111117.995000", "111119.485000", "111120.975000", "111122.465000", "111123.955000", "111125.445000", "111126.935000", "111128.425000", "111129.915000"],
      "ContentTime": ["110806.631000", "110806.634000", "110806.637000", "110806.647000", "110806.650000", "110806.652000", "110806.655000", "110806.657000", "110806.659000", "110806.662000", "110806.664000", "110806.667000", "110806.669000", "110806.672000", "110806.674000", "110806.677000", "110806.679000", "110806.682000", "110806.684000", "110806.687000", "110806.689000", "110806.692000", "110806.694000", "110806.696000", "110826.560000", "110826.563000", "110826.566000", "110826.568000", "110826.571000", "110826.573000", "110826.576000", "110826.579000", "110826.582000", "110826.584000", "110826.587000", "110826.590000", "110826.592000", "110826.619000", "110826.621000", "110826.624000", "110826.626000", "110826.629000", "110826.631000", "110826.634000", "110846.588000", "110846.591000", "110846.593000", "110846.596000", "110846.598000", "110846.601000", "110846.603000", "110846.606000", "110846.608000", "110846.611000", "110846.613000", "110846.616000", "110846.618000", "110846.621000", "110846.623000", "110846.626000", "110846.628000", "110846.630000", "110846.633000", "110846.635000", "110846.638000", "110906.553000", "110906.555000", "110906.558000", "110906.560000", "110906.563000", "110906.565000", "110906.568000", "110906.571000", "110906.573000", "110906.576000", "110906.578000", "110906.580000", "110906.583000", "110906.585000", "110906.588000", "110906.590000", "110906.593000", "110906.595000", "110906.598000", "110906.600000", "110926.574000", "110926.577000", "110926.580000", "110926.583000", "110926.585000", "110926.588000", "110926.590000", "110926.593000", "110926.595000", "110926.598000", "110926.600000", "110926.603000", "110926.605000", "110926.608000", "110926.610000", "110926.613000", "110926.615000", "110926.618000", "110926.620000", "110926.623000", "111006.600000", "111006.603000", "111006.605000", "111006.608000", "111006.610000", "111006.613000", "111006.615000", "111006.618000", "111006.620000", "111006.623000", "111006.625000", "111006.628000", "111006.630000", "111006.633000", "111006.635000", "111006.638000", "111006.640000", "111006.643000", "111006.645000", "111006.648000", "111006.650000", "111006.652000", "111006.655000", "111006.658000", "111006.660000", "111006.663000", "111006.665000", "111046.608000", "111046.611000", "111046.613000", "111046.616000", "111046.618000", "111046.621000", "111046.623000", "111046.626000", "111046.628000", "111046.630000", "111046.633000", "111046.635000", "111046.638000", "111046.640000", "111046.643000", "111046.645000", "111046.648000", "111046.650000", "111046.653000", "111046.655000", "111046.658000", "111046.660000", "111046.663000", "111046.665000", "111046.668000", "111046.670000", "111046.673000", "111126.592000", "111126.595000", "111126.598000", "111126.600000", "111126.603000", "111126.605000", "111126.608000", "111126.610000", "111126.613000", "111126.615000", "111126.618000", "111126.620000", "111126.623000", "111126.625000", "111126.628000", "111126.630000", "111126.632000", "111126.635000", "111126.637000", "111126.640000", "111126.642000", "111126.645000", "111126.647000", "111126.650000", "111126.652000", "111126.655000", "111126.657000", "111131.932000", "111131.935000", "111131.937000", "111131.940000"],
      "InstanceCreationTime": ["110806.631000", "110806.634000", "110806.637000", "110806.647000", "110806.650000", "110806.652000", "110806.655000", "110806.657000", "110806.659000", "110806.662000", "110806.664000", "110806.667000", "110806.669000", "110806.672000", "110806.674000", "110806.677000", "110806.679000", "110806.682000", "110806.684000", "110806.687000", "110806.689000", "110806.692000", "110806.694000", "110806.696000", "110826.560000", "110826.563000", "110826.566000", "110826.568000", "110826.571000", "110826.573000", "110826.576000", "110826.579000", "110826.582000", "110826.584000", "110826.587000", "110826.590000", "110826.592000", "110826.619000", "110826.621000", "110826.624000", "110826.626000", "110826.629000", "110826.631000", "110826.634000", "110846.588000", "110846.591000", "110846.593000", "110846.596000", "110846.598000", "110846.601000", "110846.603000", "110846.606000", "110846.608000", "110846.611000", "110846.613000", "110846.616000", "110846.618000", "110846.621000", "110846.623000", "110846.626000", "110846.628000", "110846.630000", "110846.633000", "110846.635000", "110846.638000", "110906.553000", "110906.555000", "110906.558000", "110906.560000", "110906.563000", "110906.565000", "110906.568000", "110906.571000", "110906.573000", "110906.576000", "110906.578000", "110906.580000", "110906.583000", "110906.585000", "110906.588000", "110906.590000", "110906.593000", "110906.595000", "110906.598000", "110906.600000", "110926.574000", "110926.577000", "110926.580000", "110926.583000", "110926.585000", "110926.588000", "110926.590000", "110926.593000", "110926.595000", "110926.598000", "110926.600000", "110926.603000", "110926.605000", "110926.608000", "110926.610000", "110926.613000", "110926.615000", "110926.618000", "110926.620000", "110926.623000", "111006.600000", "111006.603000", "111006.605000", "111006.608000", "111006.610000", "111006.613000", "111006.615000", "111006.618000", "111006.620000", "111006.623000", "111006.625000", "111006.628000", "111006.630000", "111006.633000", "111006.635000", "111006.638000", "111006.640000", "111006.643000", "111006.645000", "111006.648000", "111006.650000", "111006.652000", "111006.655000", "111006.658000", "111006.660000", "111006.663000", "111006.665000", "111046.608000", "111046.611000", "111046.613000", "111046.616000", "111046.618000", "111046.621000", "111046.623000", "111046.626000", "111046.628000", "111046.630000", "111046.633000", "111046.635000", "111046.638000", "111046.640000", "111046.643000", "111046.645000", "111046.648000", "111046.650000", "111046.653000", "111046.655000", "111046.658000", "111046.660000", "111046.663000", "111046.665000", "111046.668000", "111046.670000", "111046.673000", "111126.592000", "111126.595000", "111126.598000", "111126.600000", "111126.603000", "111126.605000", "111126.608000", "111126.610000", "111126.613000", "111126.615000", "111126.618000", "111126.620000", "111126.623000", "111126.625000", "111126.628000", "111126.630000", "111126.632000", "111126.635000", "111126.637000", "111126.640000", "111126.642000", "111126.645000", "111126.647000", "111126.650000", "111126.652000", "111126.655000", "111126.657000", "111131.932000", "111131.935000", "111131.937000", "111131.940000"],
      "InstanceNumber": [1, 2, 3, 4, 5, 6, 7, 8, 9, 10, 11, 12, 13, 14, 15, 16, 17, 18, 19, 20, 21, 22, 23, 24, 25, 26, 27, 28, 29, 30, 31, 32, 33, 34, 35, 36, 37, 38, 39, 40, 41, 42, 43, 44, 45, 46, 47, 48, 49, 50, 51, 52, 53, 54, 55, 56, 57, 58, 59, 60, 61, 62, 63, 64, 65, 66, 67, 68, 69, 70, 71, 72, 73, 74, 75, 76, 77, 78, 79, 80, 81, 82, 83, 84, 85, 86, 87, 88, 89, 90, 91, 92, 93, 94, 95, 96, 97, 98, 99, 100, 101, 102, 103, 104, 105, 106, 107, 108, 109, 110, 111, 112, 113, 114, 115, 116, 117, 118, 119, 120, 121, 122, 123, 124, 125, 126, 127, 128, 129, 130, 131, 132, 133, 134, 135, 136, 137, 138, 139, 140, 141, 142, 143, 144, 145, 146, 147, 148, 149, 150, 151, 152, 153, 154, 155, 156, 157, 158, 159, 160, 161, 162, 163, 164, 165, 166, 167, 168, 169, 170, 171, 172, 173, 174, 175, 176, 177, 178, 179, 180, 181, 182, 183, 184, 185, 186, 187, 188, 189, 190],
      "WindowCenter": [4806.0, 4842.0, 4844.0, 4844.0, 4776.0, 4752.0, 4784.0, 4814.0, 4842.0, 4850.0, 4784.0, 4748.0, 4780.0, 4814.0, 4872.0, 4808.0, 4726.0, 4806.0, 4782.0, 4750.0, 4842.0, 4816.0, 4848.0, 4846.0, 4840.0, 4838.0, 4782.0, 4808.0, 4748.0, 4752.0, 4810.0, 4808.0, 4870.0, 4810.0, 4750.0, 4814.0, 4842.0, 4782.0, 4846.0, 4812.0, 4810.0, 4838.0, 4814.0, 4842.0, 4780.0, 4812.0, 4780.0, 4812.0, 4808.0, 4696.0, 4724.0, 4836.0, 4908.0, 4882.0, 4912.0, 4846.0, 4784.0, 4782.0, 4748.0, 4752.0, 4782.0, 4726.0, 4776.0, 4848.0, 4872.0, 4846.0, 4880.0, 4810.0, 4726.0, 4784.0, 4838.0, 4806.0, 4844.0, 4838.0, 4816.0, 4844.0, 4752.0, 4752.0, 4838.0, 4782.0, 4814.0, 4874.0, 4752.0, 4750.0, 4850.0, 4872.0, 4816.0, 4850.0, 4808.0, 4754.0, 4808.0, 4776.0, 4778.0, 4844.0, 4848.0, 4838.0, 4848.0, 4840.0, 4782.0, 4814.0, 4754.0, 4748.0, 4812.0, 4848.0, 4880.0, 4814.0, 4724.0, 4782.0, 4846.0, 4780.0, 4850.0, 4848.0, 4778.0, 4840.0, 4842.0, 4808.0, 4846.0, 4812.0, 4810.0, 4842.0, 4840.0, 4838.0, 4782.0, 4814.0, 4722.0, 4750.0, 4838.0, 4808.0, 4876.0, 4844.0, 4838.0, 4872.0, 4840.0, 4842.0, 4774.0, 4806.0, 4752.0, 4722.0, 4814.0, 4876.0, 4910.0, 4842.0, 4726.0, 4778.0, 4816.0, 4748.0, 4814.0, 4874.0, 4778.0, 4782.0, 4874.0, 4846.0, 4844.0, 4872.0, 4782.0, 4698.0, 4780.0, 4870.0, 4878.0, 4910.0, 4876.0, 4840.0, 4816.0, 4724.0, 4676.0, 4750.0, 4844.0, 4846.0, 4908.0, 4846.0, 4846.0, 4872.0, 4778.0, 4750.0, 4814.0, 4782.0, 4752.0, 4844.0, 4846.0, 4812.0, 4874.0, 4816.0, 4808.0, 4848.0, 4872.0, 4870.0, 4808.0, 4700.0, 4696.0, 4672.0],
      "WindowWidth": [18670.0, 18710.0, 18718.0, 18714.0, 18624.0, 18594.0, 18634.0, 18680.0, 18714.0, 18718.0, 18640.0, 18584.0, 18634.0, 18680.0, 18748.0, 18670.0, 18554.0, 18672.0, 18640.0, 18588.0, 18714.0, 18682.0, 18720.0, 18716.0, 18712.0, 18712.0, 18636.0, 18670.0, 18582.0, 18594.0, 18672.0, 18668.0, 18752.0, 18674.0, 18594.0, 18678.0, 18716.0, 18632.0, 18718.0, 18672.0, 18672.0, 18706.0, 18676.0, 18716.0, 18632.0, 18674.0, 18630.0, 18672.0, 18674.0, 18508.0, 18552.0, 18708.0, 18782.0, 18752.0, 18784.0, 18712.0, 18640.0, 18636.0, 18576.0, 18586.0, 18630.0, 18556.0, 18630.0, 18722.0, 18750.0, 18722.0, 18756.0, 18670.0, 18554.0, 18636.0, 18712.0, 18666.0, 18720.0, 18710.0, 18678.0, 18714.0, 18590.0, 18594.0, 18710.0, 18636.0, 18676.0, 18754.0, 18594.0, 18592.0, 18722.0, 18746.0, 18680.0, 18720.0, 18668.0, 18594.0, 18666.0, 18626.0, 18630.0, 18716.0, 18716.0, 18710.0, 18720.0, 18712.0, 18636.0, 18680.0, 18596.0, 18586.0, 18674.0, 18718.0, 18756.0, 18676.0, 18552.0, 18636.0, 18716.0, 18634.0, 18722.0, 18720.0, 18626.0, 18716.0, 18714.0, 18672.0, 18720.0, 18676.0, 18670.0, 18714.0, 18712.0, 18706.0, 18636.0, 18676.0, 18544.0, 18586.0, 18714.0, 18672.0, 18756.0, 18716.0, 18710.0, 18752.0, 18712.0, 18714.0, 18624.0, 18668.0, 18594.0, 18548.0, 18678.0, 18754.0, 18788.0, 18708.0, 18552.0, 18634.0, 18678.0, 18588.0, 18682.0, 18750.0, 18634.0, 18638.0, 18754.0, 18716.0, 18714.0, 18748.0, 18636.0, 18510.0, 18632.0, 18746.0, 18750.0, 18786.0, 18752.0, 18712.0, 18680.0, 18550.0, 18466.0, 18584.0, 18714.0, 18716.0, 18788.0, 18718.0, 18716.0, 18748.0, 18626.0, 18590.0, 18676.0, 18638.0, 18594.0, 18718.0, 18714.0, 18676.0, 18754.0, 18680.0, 18670.0, 18722.0, 18748.0, 18746.0, 18672.0, 18502.0, 18464.0, 18458.0]
    },
    "slices": {}
  }
}