{
  "AcquisitionMatrixPE": 104,
  "AcquisitionNumber": 1,
  "AcquisitionTime": "11:00:41.030000",
  "BandwidthPerPixelPhaseEncode": 17.17,
  "BaseResolution": 104,
  "BodyPartExamined": "BRAIN",
  "CoilString": "HC1-7;NC1_2",
  "ConsistencyInfo": "N4_VE11C_LATEST_20160120",
  "ConversionSoftware": "dcm2niix",
  "ConversionSoftwareVersion": "v1.0.20190902",
  "DerivedVendorReportedEchoSpacing": 0.000560011,
  "DeviceSerialNumber": "167006",
  "DwellTime": 2.1e-06,
  "EchoTime": 0.037,
  "EchoTrainLength": 104,
  "EffectiveEchoSpacing": 0.000560011,
  "FlipAngle": 52,
  "ImageComments": "Unaliased_MB4_PE3_LB",
  "ImageOrientationPatientDICOM": [0.999678, -0.00255287, -0.0252464, -0.01012, 0.872269, -0.488921],
  "ImageType": [
    "ORIGINAL",
    "PRIMARY",
    "P",
    "MB",
    "ND",
    "MOSAIC"
],
  "ImagingFrequency": 123.259,
  "InPlanePhaseEncodingDirectionDICOM": "COL",
  "InstitutionAddress": "Chemin_Queen-Mary_4565_Montreal_District_CA_H3W_1W5",
  "InstitutionName": "IUGM",
  "InstitutionalDepartmentName": "Department",
  "MRAcquisitionType": "2D",
  "MagneticFieldStrength": 3,
  "Manufacturer": "Siemens",
  "ManufacturersModelName": "Prisma_fit",
  "Modality": "MR",
  "MultibandAccelerationFactor": 4,
  "PartialFourier": 1,
  "PatientPosition": "HFS",
  "PercentPhaseFOV": 100,
  "PhaseEncodingDirection": "j",
  "PhaseEncodingSteps": 104,
  "PhaseResolution": 1,
  "PixelBandwidth": 2290,
  "ProcedureStepDescription": "memory_things",
  "ProtocolName": "func_task-things_run-3",
  "PulseSequenceDetails": "%CustomerSeq%_cmrr_mbep2d_bold",
  "ReceiveCoilActiveElements": "HC1-7;NC1,2",
  "ReceiveCoilName": "HeadNeck_64",
  "ReconMatrixPE": 104,
  "RepetitionTime": 1.49,
  "SAR": 0.0640097,
  "ScanOptions": "FS",
  "ScanningSequence": "EP",
  "SequenceName": "epfid2d1_104",
  "SequenceVariant": "SK_SS",
  "SeriesDescription": "func_task-things_run-3",
  "SeriesNumber": 17,
  "ShimSetting": [601, -7176, -8876, 259, 14, -141, 56, -64],
  "SliceThickness": 2,
  "SliceTiming": [0, 0.7825, 0.0975, 0.88, 0.195, 0.9775, 0.2925, 1.0775, 0.39, 1.175, 0.49, 1.2725, 0.5875, 1.37, 0.685, 0, 0.7825, 0.0975, 0.88, 0.195, 0.9775, 0.2925, 1.0775, 0.39, 1.175, 0.49, 1.2725, 0.5875, 1.37, 0.685, 0, 0.7825, 0.0975, 0.88, 0.195, 0.9775, 0.2925, 1.0775, 0.39, 1.175, 0.49, 1.2725, 0.5875, 1.37, 0.685, 0, 0.7825, 0.0975, 0.88, 0.195, 0.9775, 0.2925, 1.0775, 0.39, 1.175, 0.49, 1.2725, 0.5875, 1.37, 0.685],
  "SoftwareVersions": "syngo_MR_E11",
  "SpacingBetweenSlices": 2,
  "StationName": "MRC35049",
  "TaskName": "things",
  "TotalReadoutTime": 0.0576811,
  "TxRefAmp": 306.605,
  "WipMemBlock": "38732c0c-d987-4859-b49d-54ef4dd2b693||Sequence: R016 ve11c/master r/e634e98; Dec 19 2017 11:00:25 by eja",
  "dcmmeta_affine": [
    [-1.9993560314178467, -0.020239923149347305, -0.046539608389139175, 109.55936431884766],
    [0.0051057408563792706, 1.7445385456085205, -0.9780383706092834, -54.11943817138672],
    [-0.0504927821457386, 0.9778422117233276, 1.7439252138137817, -102.62206268310547],
    [0.0, 0.0, 0.0, 1.0]
],
  "dcmmeta_reorient_transform": [
    [0.0, -1.0, 0.0, 103.0],
    [1.0, 0.0, 0.0, 0.0],
    [0.0, 0.0, 1.0, 0.0],
    [0.0, 0.0, 0.0, 1.0]
],
  "dcmmeta_shape": [104, 104, 60, 190],
  "dcmmeta_slice_dim": 2,
  "dcmmeta_version": 0.6,
  "global": {
    "const": {
      "AcquisitionMatrix": [104, 0, 0, 104],
      "AngioFlag": "N",
      "BitsAllocated": 16,
      "BitsStored": 16,
      "BodyPartExamined": "BRAIN",
      "Columns": 832,
      "EchoNumbers": 1,
      "EchoTime": 37.0,
      "EchoTrainLength": 104,
      "FlipAngle": 52.0,
      "HighBit": 15,
      "ImageOrientationPatient": [0.99967799945277, -0.0025528704814, -0.025246391077, -0.0101199618008, 0.87226929804561, -0.4889211163983],
      "ImagePositionPatient": [-827.87290143548, -758.72159474147, 372.40963108149],
      "ImageType": [
        "ORIGINAL",
        "PRIMARY",
        "P",
        "MB",
        "ND",
        "MOSAIC"
],
      "ImagedNucleus": "1H",
      "ImagingFrequency": 123.258938,
      "InPlanePhaseEncodingDirection": "COL",
      "LargestImagePixelValue": 4095,
      "MRAcquisitionType": "2D",
      "MagneticFieldStrength": 3.0,
      "Manufacturer": "SIEMENS",
      "ManufacturerModelName": "Prisma_fit",
      "Modality": "MR",
      "NumberOfAverages": 1.0,
      "NumberOfPhaseEncodingSteps": 104,
      "PercentPhaseFieldOfView": 100.0,
      "PercentSampling": 100.0,
      "PerformedProcedureStepStartTime": "102251.250000",
      "PhotometricInterpretation": "MONOCHROME2",
      "PixelBandwidth": 2290.0,
      "PixelRepresentation": 0,
      "PixelSpacing": [2.0, 2.0],
      "ProtocolName": "func_task-things_run-3",
      "RepetitionTime": 1490.0,
      "RescaleIntercept": -4096.0,
      "RescaleSlope": 2.0,
      "RescaleType": "US",
      "Rows": 832,
      "SAR": 0.06400966733522,
      "SamplesPerPixel": 1,
      "ScanOptions": "FS",
      "ScanningSequence": "EP",
      "SequenceName": "epfid2d1_104",
      "SequenceVariant": [
        "SK",
        "SS"
],
      "SeriesDescription": "func_task-things_run-3",
      "SeriesNumber": 17,
      "SeriesTime": "110201.818000",
      "SliceLocation": -65.566582183707,
      "SliceThickness": 2.0,
      "SmallestImagePixelValue": 0,
      "SoftwareVersions": "syngo MR E11",
      "SpacingBetweenSlices": 2.0000000388266,
      "SpecificCharacterSet": "ISO_IR 100",
      "StudyID": "1",
      "StudyTime": "102251.202000",
      "TransmitCoilName": "Body",
      "VariableFlipAngleFlag": "N",
      "WindowCenterWidthExplanation": "Algo1",
      "dBdt": 0.0},
    "slices": {}
  },
  "time": {
    "samples": {
      "AcquisitionNumber": [1, 2, 3, 4, 5, 6, 7, 8, 9, 10, 11, 12, 13, 14, 15, 16, 17, 18, 19, 20, 21, 22, 23, 24, 25, 26, 27, 28, 29, 30, 31, 32, 33, 34, 35, 36, 37, 38, 39, 40, 41, 42, 43, 44, 45, 46, 47, 48, 49, 50, 51, 52, 53, 54, 55, 56, 57, 58, 59, 60, 61, 62, 63, 64, 65, 66, 67, 68, 69, 70, 71, 72, 73, 74, 75, 76, 77, 78, 79, 80, 81, 82, 83, 84, 85, 86, 87, 88, 89, 90, 91, 92, 93, 94, 95, 96, 97, 98, 99, 100, 101, 102, 103, 104, 105, 106, 107, 108, 109, 110, 111, 112, 113, 114, 115, 116, 117, 118, 119, 120, 121, 122, 123, 124, 125, 126, 127, 128, 129, 130, 131, 132, 133, 134, 135, 136, 137, 138, 139, 140, 141, 142, 143, 144, 145, 146, 147, 148, 149, 150, 151, 152, 153, 154, 155, 156, 157, 158, 159, 160, 161, 162, 163, 164, 165, 166, 167, 168, 169, 170, 171, 172, 173, 174, 175, 176, 177, 178, 179, 180, 181, 182, 183, 184, 185, 186, 187, 188, 189, 190],
      "AcquisitionTime": ["110041.030000", "110042.520000", "110044.010000", "110045.500000", "110046.990000", "110048.480000", "110049.970000", "110051.460000", "110052.950000", "110054.440000", "110055.930000", "110057.420000", "110058.910000", "110100.400000", "110101.890000", "110103.380000", "110104.870000", "110106.360000", "110107.850000", "110109.340000", "110110.830000", "110112.320000", "110113.810000", "110115.300000", "110116.790000", "110118.280000", "110119.770000", "110121.260000", "110122.750000", "110124.240000", "110125.730000", "110127.220000", "110128.710000", "110130.200000", "110131.690000", "110133.180000", "110134.670000", "110136.160000", "110137.650000", "110139.140000", "110140.630000", "110142.120000", "110143.610000", "110145.100000", "110146.590000", "110148.080000", "110149.570000", "110151.060000", "110152.550000", "110154.040000", "110155.530000", "110157.020000", "110158.510000", "110200.000000", "110201.490000", "110202.980000", "110204.470000", "110205.960000", "110207.450000", "110208.940000", "110210.430000", "110211.920000", "110213.410000", "110214.900000", "110216.390000", "110217.880000", "110219.370000", "110220.860000", "110222.350000", "110223.840000", "110225.330000", "110226.820000", "110228.310000", "110229.800000", "110231.290000", "110232.780000", "110234.270000", "110235.760000", "110237.250000", "110238.740000", "110240.230000", "110241.720000", "110243.210000", "110244.700000", "110246.190000", "110247.680000", "110249.170000", "110250.660000", "110252.150000", "110253.640000", "110255.130000", "110256.620000", "110258.110000", "110259.600000", "110301.090000", "110302.580000", "110304.070000", "110305.560000", "110307.050000", "110308.540000", "110310.030000", "110311.520000", "110313.010000", "110314.500000", "110315.990000", "110317.480000", "110318.970000", "110320.460000", "110321.950000", "110323.440000", "110324.930000", "110326.420000", "110327.910000", "110329.400000", "110330.890000", "110332.380000", "110333.870000", "110335.360000", "110336.850000", "110338.340000", "110339.830000", "110341.320000", "110342.810000", "110344.300000", "110345.790000", "110347.280000", "110348.770000", "110350.260000", "110351.750000", "110353.240000", "110354.730000", "110356.220000", "110357.710000", "110359.200000", "110400.690000", "110402.180000", "110403.670000", "110405.160000", "110406.650000", "110408.140000", "110409.630000", "110411.120000", "110412.610000", "110414.100000", "110415.590000", "110417.080000", "110418.570000", "110420.060000", "110421.550000", "110423.040000", "110424.530000", "110426.020000", "110427.510000", "110429.000000", "110430.490000", "110431.980000", "110433.470000", "110434.960000", "110436.450000", "110437.940000", "110439.430000", "110440.920000", "110442.410000", "110443.900000", "110445.390000", "110446.880000", "110448.370000", "110449.860000", "110451.350000", "110452.840000", "110454.330000", "110455.820000", "110457.310000", "110458.800000", "110500.290000", "110501.780000", "110503.270000", "110504.760000", "110506.250000", "110507.740000", "110509.230000", "110510.720000", "110512.210000", "110513.700000", "110515.190000", "110516.680000", "110518.170000", "110519.660000", "110521.150000", "110522.640000"],
      "ContentTime": ["110201.820000", "110201.823000", "110201.825000", "110201.828000", "110201.830000", "110201.833000", "110201.835000", "110201.838000", "110201.840000", "110201.843000", "110201.845000", "110201.847000", "110201.850000", "110201.853000", "110201.855000", "110201.858000", "110201.860000", "110201.863000", "110201.866000", "110201.869000", "110201.872000", "110201.874000", "110201.877000", "110201.879000", "110201.882000", "110201.885000", "110201.888000", "110201.890000", "110221.292000", "110221.299000", "110221.302000", "110221.304000", "110221.307000", "110221.309000", "110221.312000", "110221.314000", "110221.317000", "110221.319000", "110221.322000", "110221.324000", "110221.327000", "110221.329000", "110221.332000", "110221.334000", "110221.336000", "110221.339000", "110221.341000", "110221.344000", "110241.286000", "110241.291000", "110241.294000", "110241.297000", "110241.300000", "110241.303000", "110241.306000", "110241.309000", "110241.311000", "110241.314000", "110241.316000", "110241.319000", "110241.321000", "110241.324000", "110241.326000", "110241.329000", "110241.331000", "110241.334000", "110241.336000", "110241.339000", "110301.279000", "110301.282000", "110301.284000", "110301.287000", "110301.289000", "110301.293000", "110301.296000", "110301.298000", "110301.300000", "110301.303000", "110301.305000", "110301.308000", "110301.310000", "110301.313000", "110301.315000", "110301.318000", "110301.320000", "110301.323000", "110301.325000", "110301.328000", "110301.330000", "110341.322000", "110341.325000", "110341.328000", "110341.330000", "110341.333000", "110341.335000", "110341.338000", "110341.340000", "110341.343000", "110341.345000", "110341.348000", "110341.350000", "110341.353000", "110341.355000", "110341.358000", "110341.360000", "110341.363000", "110341.365000", "110341.368000", "110341.370000", "110341.373000", "110341.375000", "110341.378000", "110341.380000", "110341.383000", "110341.385000", "110341.388000", "110341.390000", "110341.393000", "110341.395000", "110341.398000", "110421.313000", "110421.316000", "110421.319000", "110421.321000", "110421.324000", "110421.326000", "110421.329000", "110421.331000", "110421.334000", "110421.336000", "110421.339000", "110421.341000", "110421.344000", "110421.346000", "110421.349000", "110421.351000", "110421.354000", "110421.356000", "110421.359000", "110421.361000", "110421.364000", "110421.366000", "110421.369000", "110421.371000", "110421.374000", "110421.376000", "110421.379000", "110501.332000", "110501.334000", "110501.337000", "110501.339000", "110501.342000", "110501.344000", "110501.347000", "110501.349000", "110501.352000", "110501.354000", "110501.357000", "110501.359000", "110501.362000", "110501.364000", "110501.367000", "110501.369000", "110501.372000", "110501.374000", "110501.377000", "110501.379000", "110501.382000", "110501.384000", "110501.387000", "110501.389000", "110501.392000", "110501.394000", "110501.397000", "110524.691000", "110524.694000", "110524.697000", "110524.700000", "110524.703000", "110524.705000", "110524.708000", "110524.710000", "110524.713000", "110524.716000", "110524.719000", "110524.721000", "110524.724000", "110524.727000", "110524.731000", "110524.733000"],
      "InstanceCreationTime": ["110201.820000", "110201.823000", "110201.825000", "110201.828000", "110201.830000", "110201.833000", "110201.835000", "110201.838000", "110201.840000", "110201.843000", "110201.845000", "110201.847000", "110201.850000", "110201.853000", "110201.855000", "110201.858000", "110201.860000", "110201.863000", "110201.866000", "110201.869000", "110201.872000", "110201.874000", "110201.877000", "110201.879000", "110201.882000", "110201.885000", "110201.888000", "110201.890000", "110221.292000", "110221.299000", "110221.302000", "110221.304000", "110221.307000", "110221.309000", "110221.312000", "110221.314000", "110221.317000", "110221.319000", "110221.322000", "110221.324000", "110221.327000", "110221.329000", "110221.332000", "110221.334000", "110221.336000", "110221.339000", "110221.341000", "110221.344000", "110241.286000", "110241.291000", "110241.294000", "110241.297000", "110241.300000", "110241.303000", "110241.306000", "110241.309000", "110241.311000", "110241.314000", "110241.316000", "110241.319000", "110241.321000", "110241.324000", "110241.326000", "110241.329000", "110241.331000", "110241.334000", "110241.336000", "110241.339000", "110301.279000", "110301.282000", "110301.284000", "110301.287000", "110301.289000", "110301.293000", "110301.296000", "110301.298000", "110301.300000", "110301.303000", "110301.305000", "110301.308000", "110301.310000", "110301.313000", "110301.315000", "110301.318000", "110301.320000", "110301.323000", "110301.325000", "110301.328000", "110301.330000", "110341.322000", "110341.325000", "110341.328000", "110341.330000", "110341.333000", "110341.335000", "110341.338000", "110341.340000", "110341.343000", "110341.345000", "110341.348000", "110341.350000", "110341.353000", "110341.355000", "110341.358000", "110341.360000", "110341.363000", "110341.365000", "110341.368000", "110341.370000", "110341.373000", "110341.375000", "110341.378000", "110341.380000", "110341.383000", "110341.385000", "110341.388000", "110341.390000", "110341.393000", "110341.395000", "110341.398000", "110421.313000", "110421.316000", "110421.319000", "110421.321000", "110421.324000", "110421.326000", "110421.329000", "110421.331000", "110421.334000", "110421.336000", "110421.339000", "110421.341000", "110421.344000", "110421.346000", "110421.349000", "110421.351000", "110421.354000", "110421.356000", "110421.359000", "110421.361000", "110421.364000", "110421.366000", "110421.369000", "110421.371000", "110421.374000", "110421.376000", "110421.379000", "110501.332000", "110501.334000", "110501.337000", "110501.339000", "110501.342000", "110501.344000", "110501.347000", "110501.349000", "110501.352000", "110501.354000", "110501.357000", "110501.359000", "110501.362000", "110501.364000", "110501.367000", "110501.369000", "110501.372000", "110501.374000", "110501.377000", "110501.379000", "110501.382000", "110501.384000", "110501.387000", "110501.389000", "110501.392000", "110501.394000", "110501.397000", "110524.691000", "110524.694000", "110524.697000", "110524.700000", "110524.703000", "110524.705000", "110524.708000", "110524.710000", "110524.713000", "110524.716000", "110524.719000", "110524.721000", "110524.724000", "110524.727000", "110524.731000", "110524.733000"],
      "InstanceNumber": [1, 2, 3, 4, 5, 6, 7, 8, 9, 10, 11, 12, 13, 14, 15, 16, 17, 18, 19, 20, 21, 22, 23, 24, 25, 26, 27, 28, 29, 30, 31, 32, 33, 34, 35, 36, 37, 38, 39, 40, 41, 42, 43, 44, 45, 46, 47, 48, 49, 50, 51, 52, 53, 54, 55, 56, 57, 58, 59, 60, 61, 62, 63, 64, 65, 66, 67, 68, 69, 70, 71, 72, 73, 74, 75, 76, 77, 78, 79, 80, 81, 82, 83, 84, 85, 86, 87, 88, 89, 90, 91, 92, 93, 94, 95, 96, 97, 98, 99, 100, 101, 102, 103, 104, 105, 106, 107, 108, 109, 110, 111, 112, 113, 114, 115, 116, 117, 118, 119, 120, 121, 122, 123, 124, 125, 126, 127, 128, 129, 130, 131, 132, 133, 134, 135, 136, 137, 138, 139, 140, 141, 142, 143, 144, 145, 146, 147, 148, 149, 150, 151, 152, 153, 154, 155, 156, 157, 158, 159, 160, 161, 162, 163, 164, 165, 166, 167, 168, 169, 170, 171, 172, 173, 174, 175, 176, 177, 178, 179, 180, 181, 182, 183, 184, 185, 186, 187, 188, 189, 190],
      "WindowCenter": [4884.0, 4848.0, 4844.0, 4910.0, 4878.0, 4756.0, 4812.0, 4882.0, 4918.0, 4898.0, 4898.0, 4914.0, 4888.0, 4856.0, 4816.0, 4818.0, 4782.0, 4810.0, 4886.0, 4918.0, 4848.0, 4882.0, 4918.0, 4912.0, 4890.0, 4888.0, 4848.0, 4888.0, 4816.0, 4810.0, 4884.0, 4878.0, 4886.0, 4918.0, 4912.0, 4918.0, 4890.0, 4914.0, 4852.0, 4880.0, 4846.0, 4850.0, 4854.0, 4810.0, 4910.0, 4884.0, 4778.0, 4816.0, 4914.0, 4906.0, 4902.0, 4902.0, 4820.0, 4724.0, 4780.0, 4848.0, 4880.0, 4918.0, 4890.0, 4912.0, 4914.0, 4918.0, 4912.0, 4888.0, 4852.0, 4842.0, 4880.0, 4852.0, 4782.0, 4844.0, 4916.0, 4912.0, 4918.0, 4916.0, 4910.0, 4890.0, 4818.0, 4820.0, 4884.0, 4818.0, 4810.0, 4886.0, 4920.0, 4922.0, 4920.0, 4814.0, 4754.0, 4848.0, 4910.0, 4880.0, 4912.0, 4882.0, 4884.0, 4914.0, 4884.0, 4874.0, 4912.0, 4872.0, 4878.0, 4910.0, 4848.0, 4878.0, 4914.0, 4908.0, 4916.0, 4878.0, 4816.0, 4884.0, 4884.0, 4910.0, 4888.0, 4886.0, 4886.0, 4784.0, 4876.0, 4884.0, 4884.0, 4914.0, 4884.0, 4916.0, 4874.0, 4842.0, 4874.0, 4916.0, 4878.0, 4908.0, 4912.0, 4880.0, 4878.0, 4880.0, 4782.0, 4786.0, 4908.0, 4918.0, 4918.0, 4920.0, 4888.0, 4882.0, 4882.0, 4752.0, 4780.0, 4880.0, 4882.0, 4884.0, 4920.0, 4920.0, 4918.0, 4914.0, 4876.0, 4886.0, 4878.0, 4884.0, 4844.0, 4878.0, 4880.0, 4746.0, 4816.0, 4918.0, 4902.0, 4902.0, 4846.0, 4812.0, 4882.0, 4852.0, 4816.0, 4886.0, 4880.0, 4886.0, 4918.0, 4908.0, 4890.0, 4914.0, 4784.0, 4780.0, 4880.0, 4888.0, 4916.0, 4918.0, 4886.0, 4886.0, 4890.0, 4850.0, 4880.0, 4882.0, 4814.0, 4782.0, 4880.0, 4914.0, 4922.0, 4918.0],
      "WindowWidth": [18754.0, 18714.0, 18714.0, 18784.0, 18746.0, 18594.0, 18674.0, 18756.0, 18756.0, 18718.0, 18716.0, 18768.0, 18754.0, 18724.0, 18672.0, 18674.0, 18626.0, 18666.0, 18754.0, 18770.0, 18716.0, 18750.0, 18756.0, 18774.0, 18740.0, 18752.0, 18718.0, 18758.0, 18674.0, 18672.0, 18754.0, 18750.0, 18756.0, 18774.0, 18778.0, 18770.0, 18750.0, 18780.0, 18724.0, 18756.0, 18708.0, 18716.0, 18716.0, 18672.0, 18782.0, 18752.0, 18632.0, 18682.0, 18772.0, 18702.0, 18700.0, 18718.0, 18680.0, 18538.0, 18626.0, 18716.0, 18752.0, 18774.0, 18748.0, 18768.0, 18764.0, 18776.0, 18786.0, 18752.0, 18716.0, 18708.0, 18754.0, 18718.0, 18634.0, 18714.0, 18774.0, 18776.0, 18764.0, 18764.0, 18784.0, 18748.0, 18680.0, 18680.0, 18756.0, 18678.0, 18672.0, 18752.0, 18750.0, 18748.0, 18764.0, 18670.0, 18592.0, 18716.0, 18788.0, 18754.0, 18770.0, 18752.0, 18760.0, 18782.0, 18754.0, 18750.0, 18784.0, 18748.0, 18754.0, 18780.0, 18718.0, 18752.0, 18778.0, 18786.0, 18772.0, 18750.0, 18676.0, 18756.0, 18756.0, 18786.0, 18758.0, 18754.0, 18752.0, 18636.0, 18752.0, 18750.0, 18756.0, 18770.0, 18756.0, 18778.0, 18746.0, 18710.0, 18748.0, 18780.0, 18746.0, 18786.0, 18778.0, 18752.0, 18752.0, 18750.0, 18634.0, 18636.0, 18778.0, 18766.0, 18770.0, 18756.0, 18750.0, 18750.0, 18748.0, 18590.0, 18626.0, 18758.0, 18754.0, 18750.0, 18764.0, 18770.0, 18770.0, 18776.0, 18750.0, 18754.0, 18752.0, 18758.0, 18710.0, 18750.0, 18752.0, 18586.0, 18678.0, 18766.0, 18716.0, 18712.0, 18716.0, 18678.0, 18756.0, 18716.0, 18676.0, 18754.0, 18752.0, 18752.0, 18770.0, 18784.0, 18750.0, 18786.0, 18640.0, 18628.0, 18752.0, 18752.0, 18780.0, 18762.0, 18756.0, 18752.0, 18750.0, 18718.0, 18752.0, 18754.0, 18672.0, 18628.0, 18754.0, 18768.0, 18760.0, 18768.0]
    },
    "slices": {}
  }
}