{
  "AcquisitionMatrixPE": 104,
  "AcquisitionNumber": 1,
  "AcquisitionTime": "11:12:52.915000",
  "BandwidthPerPixelPhaseEncode": 17.17,
  "BaseResolution": 104,
  "BodyPartExamined": "BRAIN",
  "CoilString": "HC1-7;NC1_2",
  "ConsistencyInfo": "N4_VE11C_LATEST_20160120",
  "ConversionSoftware": "dcm2niix",
  "ConversionSoftwareVersion": "v1.0.20190902",
  "DerivedVendorReportedEchoSpacing": 0.000560011,
  "DeviceSerialNumber": "167006",
  "DwellTime": 2.1e-06,
  "EchoTime": 0.037,
  "EchoTrainLength": 104,
  "EffectiveEchoSpacing": 0.000560011,
  "FlipAngle": 52,
  "ImageComments": "Unaliased_MB4_PE3_LB",
  "ImageOrientationPatientDICOM": [0.999678, -0.00255287, -0.0252464, -0.01012, 0.872269, -0.488921],
  "ImageType": [
    "ORIGINAL",
    "PRIMARY",
    "M",
    "MB",
    "ND",
    "MOSAIC"
],
  "ImagingFrequency": 123.259,
  "InPlanePhaseEncodingDirectionDICOM": "COL",
  "InstitutionAddress": "Chemin_Queen-Mary_4565_Montreal_District_CA_H3W_1W5",
  "InstitutionName": "IUGM",
  "InstitutionalDepartmentName": "Department",
  "MRAcquisitionType": "2D",
  "MagneticFieldStrength": 3,
  "Manufacturer": "Siemens",
  "ManufacturersModelName": "Prisma_fit",
  "Modality": "MR",
  "MultibandAccelerationFactor": 4,
  "PartialFourier": 1,
  "PatientPosition": "HFS",
  "PercentPhaseFOV": 100,
  "PhaseEncodingDirection": "j",
  "PhaseEncodingSteps": 104,
  "PhaseResolution": 1,
  "PixelBandwidth": 2290,
  "ProcedureStepDescription": "memory_things",
  "ProtocolName": "func_task-things_run-5",
  "PulseSequenceDetails": "%CustomerSeq%_cmrr_mbep2d_bold",
  "ReceiveCoilActiveElements": "HC1-7;NC1,2",
  "ReceiveCoilName": "HeadNeck_64",
  "ReconMatrixPE": 104,
  "RepetitionTime": 1.49,
  "SAR": 0.0640097,
  "ScanOptions": "FS",
  "ScanningSequence": "EP",
  "SequenceName": "epfid2d1_104",
  "SequenceVariant": "SK_SS",
  "SeriesDescription": "func_task-things_run-5",
  "SeriesNumber": 22,
  "ShimSetting": [601, -7176, -8876, 259, 14, -141, 56, -64],
  "SliceThickness": 2,
  "SliceTiming": [0, 0.7825, 0.0975, 0.8825, 0.195, 0.98, 0.2925, 1.0775, 0.3925, 1.175, 0.49, 1.2725, 0.5875, 1.3725, 0.685, 0, 0.7825, 0.0975, 0.8825, 0.195, 0.98, 0.2925, 1.0775, 0.3925, 1.175, 0.49, 1.2725, 0.5875, 1.3725, 0.685, 0, 0.7825, 0.0975, 0.8825, 0.195, 0.98, 0.2925, 1.0775, 0.3925, 1.175, 0.49, 1.2725, 0.5875, 1.3725, 0.685, 0, 0.7825, 0.0975, 0.8825, 0.195, 0.98, 0.2925, 1.0775, 0.3925, 1.175, 0.49, 1.2725, 0.5875, 1.3725, 0.685],
  "SoftwareVersions": "syngo_MR_E11",
  "SpacingBetweenSlices": 2,
  "StationName": "MRC35049",
  "TaskName": "things",
  "TotalReadoutTime": 0.0576811,
  "TxRefAmp": 306.605,
  "WipMemBlock": "4a87be0f-dfc5-4bb2-b7dc-43eec3ff17dc||Sequence: R016 ve11c/master r/e634e98; Dec 19 2017 11:00:25 by eja",
  "dcmmeta_affine": [
    [-1.9993560314178467, -0.020239923149347305, -0.046539608389139175, 109.55936431884766],
    [0.0051057408563792706, 1.7445385456085205, -0.9780383706092834, -54.11943817138672],
    [-0.0504927821457386, 0.9778422117233276, 1.7439252138137817, -102.62206268310547],
    [0.0, 0.0, 0.0, 1.0]
],
  "dcmmeta_reorient_transform": [
    [0.0, -1.0, 0.0, 103.0],
    [1.0, 0.0, 0.0, 0.0],
    [0.0, 0.0, 1.0, 0.0],
    [0.0, 0.0, 0.0, 1.0]
],
  "dcmmeta_shape": [104, 104, 60, 190],
  "dcmmeta_slice_dim": 2,
  "dcmmeta_version": 0.6,
  "global": {
    "const": {
      "AcquisitionMatrix": [104, 0, 0, 104],
      "AngioFlag": "N",
      "BitsAllocated": 16,
      "BitsStored": 16,
      "BodyPartExamined": "BRAIN",
      "Columns": 832,
      "EchoNumbers": 1,
      "EchoTime": 37.0,
      "EchoTrainLength": 104,
      "FlipAngle": 52.0,
      "HighBit": 15,
      "ImageOrientationPatient": [0.99967799945277, -0.0025528704814, -0.025246391077, -0.0101199618008, 0.87226929804561, -0.4889211163983],
      "ImagePositionPatient": [-827.87290143548, -758.72159474147, 372.40963108149],
      "ImageType": [
        "ORIGINAL",
        "PRIMARY",
        "M",
        "MB",
        "ND",
        "MOSAIC"
],
      "ImagedNucleus": "1H",
      "ImagingFrequency": 123.258944,
      "InPlanePhaseEncodingDirection": "COL",
      "MRAcquisitionType": "2D",
      "MagneticFieldStrength": 3.0,
      "Manufacturer": "SIEMENS",
      "ManufacturerModelName": "Prisma_fit",
      "Modality": "MR",
      "NumberOfAverages": 1.0,
      "NumberOfPhaseEncodingSteps": 104,
      "PercentPhaseFieldOfView": 100.0,
      "PercentSampling": 100.0,
      "PerformedProcedureStepStartTime": "102251.250000",
      "PhotometricInterpretation": "MONOCHROME2",
      "PixelBandwidth": 2290.0,
      "PixelRepresentation": 0,
      "PixelSpacing": [2.0, 2.0],
      "ProtocolName": "func_task-things_run-5",
      "RepetitionTime": 1490.0,
      "Rows": 832,
      "SAR": 0.06400966733522,
      "SamplesPerPixel": 1,
      "ScanOptions": "FS",
      "ScanningSequence": "EP",
      "SequenceName": "epfid2d1_104",
      "SequenceVariant": [
        "SK",
        "SS"
],
      "SeriesDescription": "func_task-things_run-5",
      "SeriesNumber": 22,
      "SeriesTime": "111413.516000",
      "SliceLocation": -65.566582183707,
      "SliceThickness": 2.0,
      "SmallestImagePixelValue": 0,
      "SoftwareVersions": "syngo MR E11",
      "SpacingBetweenSlices": 2.0000000388266,
      "SpecificCharacterSet": "ISO_IR 100",
      "StudyID": "1",
      "StudyTime": "102251.202000",
      "TransmitCoilName": "Body",
      "VariableFlipAngleFlag": "N",
      "WindowCenterWidthExplanation": "Algo1",
      "dBdt": 0.0},
    "slices": {}
  },
  "time": {
    "samples": {
      "AcquisitionNumber": [1, 2, 3, 4, 5, 6, 7, 8, 9, 10, 11, 12, 13, 14, 15, 16, 17, 18, 19, 20, 21, 22, 23, 24, 25, 26, 27, 28, 29, 30, 31, 32, 33, 34, 35, 36, 37, 38, 39, 40, 41, 42, 43, 44, 45, 46, 47, 48, 49, 50, 51, 52, 53, 54, 55, 56, 57, 58, 59, 60, 61, 62, 63, 64, 65, 66, 67, 68, 69, 70, 71, 72, 73, 74, 75, 76, 77, 78, 79, 80, 81, 82, 83, 84, 85, 86, 87, 88, 89, 90, 91, 92, 93, 94, 95, 96, 97, 98, 99, 100, 101, 102, 103, 104, 105, 106, 107, 108, 109, 110, 111, 112, 113, 114, 115, 116, 117, 118, 119, 120, 121, 122, 123, 124, 125, 126, 127, 128, 129, 130, 131, 132, 133, 134, 135, 136, 137, 138, 139, 140, 141, 142, 143, 144, 145, 146, 147, 148, 149, 150, 151, 152, 153, 154, 155, 156, 157, 158, 159, 160, 161, 162, 163, 164, 165, 166, 167, 168, 169, 170, 171, 172, 173, 174, 175, 176, 177, 178, 179, 180, 181, 182, 183, 184, 185, 186, 187, 188, 189, 190],
      "AcquisitionTime": ["111252.915000", "111254.405000", "111255.895000", "111257.385000", "111258.875000", "111300.365000", "111301.855000", "111303.345000", "111304.835000", "111306.325000", "111307.815000", "111309.305000", "111310.795000", "111312.285000", "111313.775000", "111315.265000", "111316.755000", "111318.245000", "111319.735000", "111321.225000", "111322.715000", "111324.205000", "111325.695000", "111327.185000", "111328.675000", "111330.165000", "111331.655000", "111333.145000", "111334.635000", "111336.125000", "111337.615000", "111339.105000", "111340.595000", "111342.085000", "111343.575000", "111345.065000", "111346.555000", "111348.045000", "111349.535000", "111351.025000", "111352.515000", "111354.005000", "111355.495000", "111356.985000", "111358.475000", "111359.965000", "111401.455000", "111402.945000", "111404.435000", "111405.925000", "111407.415000", "111408.905000", "111410.395000", "111411.885000", "111413.375000", "111414.865000", "111416.355000", "111417.845000", "111419.335000", "111420.825000", "111422.315000", "111423.805000", "111425.295000", "111426.785000", "111428.275000", "111429.765000", "111431.255000", "111432.745000", "111434.235000", "111435.725000", "111437.215000", "111438.705000", "111440.195000", "111441.685000", "111443.175000", "111444.665000", "111446.155000", "111447.645000", "111449.135000", "111450.625000", "111452.115000", "111453.605000", "111455.095000", "111456.585000", "111458.075000", "111459.565000", "111501.055000", "111502.545000", "111504.035000", "111505.525000", "111507.015000", "111508.505000", "111509.995000", "111511.485000", "111512.975000", "111514.465000", "111515.955000", "111517.445000", "111518.935000", "111520.425000", "111521.915000", "111523.405000", "111524.895000", "111526.385000", "111527.875000", "111529.365000", "111530.855000", "111532.345000", "111533.835000", "111535.325000", "111536.815000", "111538.305000", "111539.795000", "111541.285000", "111542.775000", "111544.265000", "111545.755000", "111547.245000", "111548.735000", "111550.225000", "111551.715000", "111553.205000", "111554.695000", "111556.185000", "111557.675000", "111559.165000", "111600.655000", "111602.145000", "111603.635000", "111605.125000", "111606.615000", "111608.105000", "111609.595000", "111611.085000", "111612.575000", "111614.065000", "111615.555000", "111617.045000", "111618.535000", "111620.025000", "111621.515000", "111623.005000", "111624.495000", "111625.985000", "111627.475000", "111628.965000", "111630.455000", "111631.945000", "111633.435000", "111634.925000", "111636.415000", "111637.905000", "111639.395000", "111640.885000", "111642.375000", "111643.865000", "111645.355000", "111646.845000", "111648.335000", "111649.825000", "111651.315000", "111652.805000", "111654.295000", "111655.785000", "111657.275000", "111658.765000", "111700.255000", "111701.745000", "111703.235000", "111704.725000", "111706.215000", "111707.705000", "111709.195000", "111710.685000", "111712.175000", "111713.665000", "111715.155000", "111716.645000", "111718.135000", "111719.625000", "111721.115000", "111722.605000", "111724.095000", "111725.585000", "111727.075000", "111728.565000", "111730.055000", "111731.545000", "111733.035000", "111734.525000"],
      "ContentTime": ["111413.519000", "111413.523000", "111413.526000", "111413.530000", "111413.533000", "111413.536000", "111413.539000", "111413.543000", "111413.546000", "111413.549000", "111413.552000", "111413.556000", "111413.559000", "111413.562000", "111413.566000", "111413.569000", "111413.572000", "111413.575000", "111413.579000", "111413.582000", "111413.585000", "111413.589000", "111413.592000", "111413.595000", "111413.599000", "111413.602000", "111433.479000", "111433.483000", "111433.486000", "111433.489000", "111433.492000", "111433.496000", "111433.499000", "111433.502000", "111433.505000", "111433.509000", "111433.512000", "111433.515000", "111433.518000", "111433.522000", "111433.528000", "111433.532000", "111433.535000", "111433.538000", "111433.541000", "111433.545000", "111453.479000", "111453.483000", "111453.486000", "111453.489000", "111453.493000", "111453.496000", "111453.499000", "111453.502000", "111453.506000", "111453.509000", "111453.512000", "111453.515000", "111453.519000", "111453.535000", "111453.538000", "111453.541000", "111453.544000", "111453.548000", "111453.551000", "111453.554000", "111513.479000", "111513.483000", "111513.486000", "111513.489000", "111513.493000", "111513.496000", "111513.499000", "111513.502000", "111513.506000", "111513.509000", "111513.512000", "111513.515000", "111513.519000", "111513.522000", "111513.525000", "111513.528000", "111513.532000", "111513.535000", "111513.538000", "111513.541000", "111513.545000", "111533.478000", "111533.482000", "111533.485000", "111533.488000", "111533.492000", "111533.495000", "111533.498000", "111533.502000", "111533.505000", "111533.508000", "111533.512000", "111533.515000", "111533.518000", "111533.522000", "111533.525000", "111533.528000", "111533.531000", "111533.535000", "111533.538000", "111533.541000", "111613.479000", "111613.483000", "111613.486000", "111613.489000", "111613.493000", "111613.496000", "111613.499000", "111613.502000", "111613.506000", "111613.509000", "111613.512000", "111613.516000", "111613.519000", "111613.522000", "111613.525000", "111613.529000", "111613.532000", "111613.535000", "111613.539000", "111613.542000", "111613.545000", "111613.548000", "111613.552000", "111613.555000", "111613.558000", "111613.562000", "111613.573000", "111653.479000", "111653.483000", "111653.486000", "111653.489000", "111653.493000", "111653.496000", "111653.499000", "111653.503000", "111653.506000", "111653.510000", "111653.513000", "111653.516000", "111653.519000", "111653.523000", "111653.526000", "111653.529000", "111653.533000", "111653.536000", "111653.539000", "111653.542000", "111653.546000", "111653.549000", "111653.552000", "111653.555000", "111653.559000", "111653.562000", "111733.479000", "111733.483000", "111733.486000", "111733.489000", "111733.493000", "111733.496000", "111733.499000", "111733.502000", "111733.506000", "111733.509000", "111733.512000", "111733.516000", "111733.519000", "111733.522000", "111733.526000", "111733.529000", "111733.532000", "111733.536000", "111733.539000", "111733.542000", "111733.545000", "111733.549000", "111733.552000", "111733.555000", "111733.559000", "111733.562000", "111733.565000", "111736.862000", "111736.866000", "111736.870000"],
      "InstanceCreationTime": ["111413.519000", "111413.523000", "111413.526000", "111413.530000", "111413.533000", "111413.536000", "111413.539000", "111413.543000", "111413.546000", "111413.549000", "111413.552000", "111413.556000", "111413.559000", "111413.562000", "111413.566000", "111413.569000", "111413.572000", "111413.575000", "111413.579000", "111413.582000", "111413.585000", "111413.589000", "111413.592000", "111413.595000", "111413.599000", "111413.602000", "111433.479000", "111433.483000", "111433.486000", "111433.489000", "111433.492000", "111433.496000", "111433.499000", "111433.502000", "111433.505000", "111433.509000", "111433.512000", "111433.515000", "111433.518000", "111433.522000", "111433.528000", "111433.532000", "111433.535000", "111433.538000", "111433.541000", "111433.545000", "111453.479000", "111453.483000", "111453.486000", "111453.489000", "111453.493000", "111453.496000", "111453.499000", "111453.502000", "111453.506000", "111453.509000", "111453.512000", "111453.515000", "111453.519000", "111453.535000", "111453.538000", "111453.541000", "111453.544000", "111453.548000", "111453.551000", "111453.554000", "111513.479000", "111513.483000", "111513.486000", "111513.489000", "111513.493000", "111513.496000", "111513.499000", "111513.502000", "111513.506000", "111513.509000", "111513.512000", "111513.515000", "111513.519000", "111513.522000", "111513.525000", "111513.528000", "111513.532000", "111513.535000", "111513.538000", "111513.541000", "111513.545000", "111533.478000", "111533.482000", "111533.485000", "111533.488000", "111533.492000", "111533.495000", "111533.498000", "111533.502000", "111533.505000", "111533.508000", "111533.512000", "111533.515000", "111533.518000", "111533.522000", "111533.525000", "111533.528000", "111533.531000", "111533.535000", "111533.538000", "111533.541000", "111613.479000", "111613.483000", "111613.486000", "111613.489000", "111613.493000", "111613.496000", "111613.499000", "111613.502000", "111613.506000", "111613.509000", "111613.512000", "111613.516000", "111613.519000", "111613.522000", "111613.525000", "111613.529000", "111613.532000", "111613.535000", "111613.539000", "111613.542000", "111613.545000", "111613.548000", "111613.552000", "111613.555000", "111613.558000", "111613.562000", "111613.573000", "111653.479000", "111653.483000", "111653.486000", "111653.489000", "111653.493000", "111653.496000", "111653.499000", "111653.503000", "111653.506000", "111653.510000", "111653.513000", "111653.516000", "111653.519000", "111653.523000", "111653.526000", "111653.529000", "111653.533000", "111653.536000", "111653.539000", "111653.542000", "111653.546000", "111653.549000", "111653.552000", "111653.555000", "111653.559000", "111653.562000", "111733.479000", "111733.483000", "111733.486000", "111733.489000", "111733.493000", "111733.496000", "111733.499000", "111733.502000", "111733.506000", "111733.509000", "111733.512000", "111733.516000", "111733.519000", "111733.522000", "111733.526000", "111733.529000", "111733.532000", "111733.536000", "111733.539000", "111733.542000", "111733.545000", "111733.549000", "111733.552000", "111733.555000", "111733.559000", "111733.562000", "111733.565000", "111736.862000", "111736.866000", "111736.870000"],
      "InstanceNumber": [1, 2, 3, 4, 5, 6, 7, 8, 9, 10, 11, 12, 13, 14, 15, 16, 17, 18, 19, 20, 21, 22, 23, 24, 25, 26, 27, 28, 29, 30, 31, 32, 33, 34, 35, 36, 37, 38, 39, 40, 41, 42, 43, 44, 45, 46, 47, 48, 49, 50, 51, 52, 53, 54, 55, 56, 57, 58, 59, 60, 61, 62, 63, 64, 65, 66, 67, 68, 69, 70, 71, 72, 73, 74, 75, 76, 77, 78, 79, 80, 81, 82, 83, 84, 85, 86, 87, 88, 89, 90, 91, 92, 93, 94, 95, 96, 97, 98, 99, 100, 101, 102, 103, 104, 105, 106, 107, 108, 109, 110, 111, 112, 113, 114, 115, 116, 117, 118, 119, 120, 121, 122, 123, 124, 125, 126, 127, 128, 129, 130, 131, 132, 133, 134, 135, 136, 137, 138, 139, 140, 141, 142, 143, 144, 145, 146, 147, 148, 149, 150, 151, 152, 153, 154, 155, 156, 157, 158, 159, 160, 161, 162, 163, 164, 165, 166, 167, 168, 169, 170, 171, 172, 173, 174, 175, 176, 177, 178, 179, 180, 181, 182, 183, 184, 185, 186, 187, 188, 189, 190],
      "LargestImagePixelValue": [44984, 43005, 42232, 42534, 42349, 42441, 42333, 42487, 42591, 42447, 42687, 42948, 41813, 41924, 42905, 42150, 41908, 42408, 41978, 42140, 42458, 42561, 42269, 41701, 42007, 42631, 42249, 41843, 42166, 42204, 41960, 42084, 42046, 41478, 41947, 42006, 42250, 42285, 42650, 41618, 42329, 42236, 41957, 41991, 42603, 42120, 41913, 41636, 42097, 42811, 41475, 41848, 42124, 42015, 43272, 44053, 41938, 41559, 41602, 42199, 42409, 42008, 42213, 42714, 42036, 42757, 42066, 42101, 42390, 41985, 41886, 41942, 42223, 42578, 42088, 42295, 42483, 42730, 42124, 42156, 41439, 41734, 42224, 41866, 42287, 42277, 41993, 42008, 42675, 42323, 41701, 41548, 42439, 41839, 41605, 41996, 41844, 41762, 41889, 41384, 42094, 41990, 41860, 41212, 42227, 42006, 41549, 42619, 42063, 42320, 42732, 41705, 42123, 42045, 42134, 43914, 41956, 42529, 42506, 41968, 41643, 41759, 42057, 42281, 41946, 42403, 42219, 42047, 42646, 42816, 41949, 42077, 42007, 41748, 41959, 42224, 42120, 41961, 41794, 42241, 42111, 41559, 41485, 41859, 41501, 41654, 42651, 42201, 42381, 42350, 42202, 43353, 41523, 41389, 41795, 41847, 42243, 41880, 42564, 42100, 42780, 42580, 42040, 42331, 42154, 41739, 42162, 42167, 42195, 42406, 42301, 42422, 42239, 42114, 42960, 43243, 41931, 41440, 41938, 41685, 42477, 42259, 41684, 42031, 41886, 43250, 42313, 42124, 41655, 42155],
      "WindowCenter": [11095.0, 11000.0, 10970.0, 10992.0, 11006.0, 11001.0, 10978.0, 10960.0, 10958.0, 10967.0, 10966.0, 10989.0, 11006.0, 11025.0, 11028.0, 11012.0, 11025.0, 11019.0, 10998.0, 11009.0, 11025.0, 11033.0, 11021.0, 10999.0, 10993.0, 10996.0, 10997.0, 10998.0, 11002.0, 11010.0, 11014.0, 11008.0, 11016.0, 11031.0, 11027.0, 11017.0, 11021.0, 11023.0, 11036.0, 11039.0, 11029.0, 10999.0, 10971.0, 10949.0, 11013.0, 11051.0, 11051.0, 11032.0, 11026.0, 11036.0, 11004.0, 10987.0, 10957.0, 10964.0, 11018.0, 11049.0, 11035.0, 11015.0, 10958.0, 10948.0, 10982.0, 11017.0, 11024.0, 11027.0, 11026.0, 11018.0, 10961.0, 10927.0, 10961.0, 11016.0, 11041.0, 11025.0, 11004.0, 10998.0, 10982.0, 10981.0, 10977.0, 10989.0, 10989.0, 10982.0, 10957.0, 10961.0, 10983.0, 10996.0, 11003.0, 10987.0, 10984.0, 10990.0, 11008.0, 11000.0, 10993.0, 10973.0, 10966.0, 10970.0, 10992.0, 11017.0, 11028.0, 11011.0, 11001.0, 10995.0, 10994.0, 10985.0, 10999.0, 10986.0, 10979.0, 10973.0, 10975.0, 10994.0, 10984.0, 10980.0, 10984.0, 10983.0, 10981.0, 10980.0, 10980.0, 11008.0, 11000.0, 11005.0, 10998.0, 10990.0, 10988.0, 10985.0, 10967.0, 10984.0, 10997.0, 11002.0, 10998.0, 10990.0, 10977.0, 10973.0, 10969.0, 10972.0, 10983.0, 10977.0, 10973.0, 10972.0, 10970.0, 10973.0, 10979.0, 10977.0, 10981.0, 10986.0, 10985.0, 10977.0, 10981.0, 10986.0, 11003.0, 11008.0, 10992.0, 10993.0, 10992.0, 11001.0, 10989.0, 10980.0, 10966.0, 10965.0, 10989.0, 10989.0, 10992.0, 10988.0, 11000.0, 10996.0, 10983.0, 10982.0, 10980.0, 10980.0, 10995.0, 10983.0, 10979.0, 10975.0, 10966.0, 10981.0, 10972.0, 10983.0, 11003.0, 11016.0, 11005.0, 10978.0, 10936.0, 10907.0, 10980.0, 11020.0, 11018.0, 11007.0, 10978.0, 10975.0, 10978.0, 10977.0, 10954.0, 10932.0],
      "WindowWidth": [23902.0, 23647.0, 23559.0, 23597.0, 23626.0, 23614.0, 23556.0, 23506.0, 23500.0, 23528.0, 23523.0, 23573.0, 23616.0, 23661.0, 23664.0, 23629.0, 23662.0, 23647.0, 23601.0, 23623.0, 23656.0, 23678.0, 23651.0, 23600.0, 23585.0, 23589.0, 23592.0, 23596.0, 23606.0, 23623.0, 23637.0, 23622.0, 23641.0, 23675.0, 23667.0, 23642.0, 23649.0, 23653.0, 23681.0, 23693.0, 23672.0, 23603.0, 23537.0, 23484.0, 23625.0, 23717.0, 23722.0, 23677.0, 23657.0, 23682.0, 23612.0, 23574.0, 23506.0, 23517.0, 23634.0, 23703.0, 23682.0, 23637.0, 23509.0, 23477.0, 23554.0, 23641.0, 23655.0, 23660.0, 23662.0, 23641.0, 23514.0, 23436.0, 23507.0, 23635.0, 23697.0, 23656.0, 23602.0, 23588.0, 23552.0, 23556.0, 23541.0, 23568.0, 23576.0, 23558.0, 23505.0, 23509.0, 23557.0, 23588.0, 23607.0, 23568.0, 23560.0, 23571.0, 23612.0, 23597.0, 23585.0, 23541.0, 23521.0, 23531.0, 23583.0, 23637.0, 23664.0, 23626.0, 23600.0, 23590.0, 23584.0, 23566.0, 23597.0, 23570.0, 23549.0, 23536.0, 23543.0, 23580.0, 23560.0, 23550.0, 23558.0, 23559.0, 23558.0, 23554.0, 23553.0, 23606.0, 23596.0, 23612.0, 23591.0, 23576.0, 23574.0, 23567.0, 23526.0, 23562.0, 23593.0, 23597.0, 23590.0, 23572.0, 23538.0, 23531.0, 23524.0, 23532.0, 23557.0, 23546.0, 23533.0, 23531.0, 23525.0, 23533.0, 23548.0, 23542.0, 23553.0, 23567.0, 23567.0, 23547.0, 23556.0, 23566.0, 23598.0, 23616.0, 23582.0, 23583.0, 23578.0, 23593.0, 23570.0, 23554.0, 23519.0, 23517.0, 23571.0, 23573.0, 23575.0, 23568.0, 23591.0, 23582.0, 23554.0, 23554.0, 23547.0, 23554.0, 23584.0, 23556.0, 23544.0, 23535.0, 23517.0, 23549.0, 23531.0, 23555.0, 23599.0, 23624.0, 23608.0, 23552.0, 23456.0, 23385.0, 23551.0, 23642.0, 23643.0, 23616.0, 23544.0, 23530.0, 23543.0, 23542.0, 23494.0, 23439.0]
    },
    "slices": {}
  }
}