{
  "AcquisitionMatrixPE": 104,
  "AcquisitionNumber": 1,
  "AcquisitionTime": "10:54:1.345000",
  "BandwidthPerPixelPhaseEncode": 17.17,
  "BaseResolution": 104,
  "BodyPartExamined": "BRAIN",
  "CoilString": "HC1-7;NC1_2",
  "ConsistencyInfo": "N4_VE11C_LATEST_20160120",
  "ConversionSoftware": "dcm2niix",
  "ConversionSoftwareVersion": "v1.0.20190902",
  "DerivedVendorReportedEchoSpacing": 0.000560011,
  "DeviceSerialNumber": "167006",
  "DwellTime": 2.1e-06,
  "EchoTime": 0.037,
  "EchoTrainLength": 104,
  "EffectiveEchoSpacing": 0.000560011,
  "FlipAngle": 52,
  "ImageComments": "Unaliased_MB4_PE3_LB",
  "ImageOrientationPatientDICOM": [0.999678, -0.00255287, -0.0252464, -0.01012, 0.872269, -0.488921],
  "ImageType": [
    "ORIGINAL",
    "PRIMARY",
    "M",
    "MB",
    "ND",
    "MOSAIC"
],
  "ImagingFrequency": 123.259,
  "InPlanePhaseEncodingDirectionDICOM": "COL",
  "InstitutionAddress": "Chemin_Queen-Mary_4565_Montreal_District_CA_H3W_1W5",
  "InstitutionName": "IUGM",
  "InstitutionalDepartmentName": "Department",
  "MRAcquisitionType": "2D",
  "MagneticFieldStrength": 3,
  "Manufacturer": "Siemens",
  "ManufacturersModelName": "Prisma_fit",
  "Modality": "MR",
  "MultibandAccelerationFactor": 4,
  "PartialFourier": 1,
  "PatientPosition": "HFS",
  "PercentPhaseFOV": 100,
  "PhaseEncodingDirection": "j",
  "PhaseEncodingSteps": 104,
  "PhaseResolution": 1,
  "PixelBandwidth": 2290,
  "ProcedureStepDescription": "memory_things",
  "ProtocolName": "func_task-things_run-2",
  "PulseSequenceDetails": "%CustomerSeq%_cmrr_mbep2d_bold",
  "ReceiveCoilActiveElements": "HC1-7;NC1,2",
  "ReceiveCoilName": "HeadNeck_64",
  "ReconMatrixPE": 104,
  "RepetitionTime": 1.49,
  "SAR": 0.0640097,
  "ScanOptions": "FS",
  "ScanningSequence": "EP",
  "SequenceName": "epfid2d1_104",
  "SequenceVariant": "SK_SS",
  "SeriesDescription": "func_task-things_run-2",
  "SeriesNumber": 13,
  "ShimSetting": [601, -7176, -8876, 259, 14, -141, 56, -64],
  "SliceThickness": 2,
  "SliceTiming": [0, 0.785, 0.0975, 0.8825, 0.195, 0.98, 0.295, 1.0775, 0.3925, 1.175, 0.49, 1.275, 0.5875, 1.3725, 0.685, 0, 0.785, 0.0975, 0.8825, 0.195, 0.98, 0.295, 1.0775, 0.3925, 1.175, 0.49, 1.275, 0.5875, 1.3725, 0.685, 0, 0.785, 0.0975, 0.8825, 0.195, 0.98, 0.295, 1.0775, 0.3925, 1.175, 0.49, 1.275, 0.5875, 1.3725, 0.685, 0, 0.785, 0.0975, 0.8825, 0.195, 0.98, 0.295, 1.0775, 0.3925, 1.175, 0.49, 1.275, 0.5875, 1.3725, 0.685],
  "SoftwareVersions": "syngo_MR_E11",
  "SpacingBetweenSlices": 2,
  "StationName": "MRC35049",
  "TaskName": "things",
  "TotalReadoutTime": 0.0576811,
  "TxRefAmp": 306.605,
  "WipMemBlock": "7618a92c-8194-4e81-9ad2-9df7a8ed05c4||Sequence: R016 ve11c/master r/e634e98; Dec 19 2017 11:00:25 by eja",
  "dcmmeta_affine": [
    [-1.9993560314178467, -0.020239923149347305, -0.046539608389139175, 109.55936431884766],
    [0.0051057408563792706, 1.7445385456085205, -0.9780383706092834, -54.11943817138672],
    [-0.0504927821457386, 0.9778422117233276, 1.7439252138137817, -102.62206268310547],
    [0.0, 0.0, 0.0, 1.0]
],
  "dcmmeta_reorient_transform": [
    [0.0, -1.0, 0.0, 103.0],
    [1.0, 0.0, 0.0, 0.0],
    [0.0, 0.0, 1.0, 0.0],
    [0.0, 0.0, 0.0, 1.0]
],
  "dcmmeta_shape": [104, 104, 60, 190],
  "dcmmeta_slice_dim": 2,
  "dcmmeta_version": 0.6,
  "global": {
    "const": {
      "AcquisitionMatrix": [104, 0, 0, 104],
      "AngioFlag": "N",
      "BitsAllocated": 16,
      "BitsStored": 16,
      "BodyPartExamined": "BRAIN",
      "Columns": 832,
      "EchoNumbers": 1,
      "EchoTime": 37.0,
      "EchoTrainLength": 104,
      "FlipAngle": 52.0,
      "HighBit": 15,
      "ImageOrientationPatient": [0.99967799945277, -0.0025528704814, -0.025246391077, -0.0101199618008, 0.87226929804561, -0.4889211163983],
      "ImagePositionPatient": [-827.87290143548, -758.72159474147, 372.40963108149],
      "ImageType": [
        "ORIGINAL",
        "PRIMARY",
        "M",
        "MB",
        "ND",
        "MOSAIC"
],
      "ImagedNucleus": "1H",
      "ImagingFrequency": 123.258931,
      "InPlanePhaseEncodingDirection": "COL",
      "MRAcquisitionType": "2D",
      "MagneticFieldStrength": 3.0,
      "Manufacturer": "SIEMENS",
      "ManufacturerModelName": "Prisma_fit",
      "Modality": "MR",
      "NumberOfAverages": 1.0,
      "NumberOfPhaseEncodingSteps": 104,
      "PercentPhaseFieldOfView": 100.0,
      "PercentSampling": 100.0,
      "PerformedProcedureStepStartTime": "102251.250000",
      "PhotometricInterpretation": "MONOCHROME2",
      "PixelBandwidth": 2290.0,
      "PixelRepresentation": 0,
      "PixelSpacing": [2.0, 2.0],
      "ProtocolName": "func_task-things_run-2",
      "RepetitionTime": 1490.0,
      "Rows": 832,
      "SAR": 0.06400966733522,
      "SamplesPerPixel": 1,
      "ScanOptions": "FS",
      "ScanningSequence": "EP",
      "SequenceName": "epfid2d1_104",
      "SequenceVariant": [
        "SK",
        "SS"
],
      "SeriesDescription": "func_task-things_run-2",
      "SeriesNumber": 13,
      "SeriesTime": "105533.517000",
      "SliceLocation": -65.566582183707,
      "SliceThickness": 2.0,
      "SmallestImagePixelValue": 0,
      "SoftwareVersions": "syngo MR E11",
      "SpacingBetweenSlices": 2.0000000388266,
      "SpecificCharacterSet": "ISO_IR 100",
      "StudyID": "1",
      "StudyTime": "102251.202000",
      "TransmitCoilName": "Body",
      "VariableFlipAngleFlag": "N",
      "WindowCenterWidthExplanation": "Algo1",
      "dBdt": 0.0},
    "slices": {}
  },
  "time": {
    "samples": {
      "AcquisitionNumber": [1, 2, 3, 4, 5, 6, 7, 8, 9, 10, 11, 12, 13, 14, 15, 16, 17, 18, 19, 20, 21, 22, 23, 24, 25, 26, 27, 28, 29, 30, 31, 32, 33, 34, 35, 36, 37, 38, 39, 40, 41, 42, 43, 44, 45, 46, 47, 48, 49, 50, 51, 52, 53, 54, 55, 56, 57, 58, 59, 60, 61, 62, 63, 64, 65, 66, 67, 68, 69, 70, 71, 72, 73, 74, 75, 76, 77, 78, 79, 80, 81, 82, 83, 84, 85, 86, 87, 88, 89, 90, 91, 92, 93, 94, 95, 96, 97, 98, 99, 100, 101, 102, 103, 104, 105, 106, 107, 108, 109, 110, 111, 112, 113, 114, 115, 116, 117, 118, 119, 120, 121, 122, 123, 124, 125, 126, 127, 128, 129, 130, 131, 132, 133, 134, 135, 136, 137, 138, 139, 140, 141, 142, 143, 144, 145, 146, 147, 148, 149, 150, 151, 152, 153, 154, 155, 156, 157, 158, 159, 160, 161, 162, 163, 164, 165, 166, 167, 168, 169, 170, 171, 172, 173, 174, 175, 176, 177, 178, 179, 180, 181, 182, 183, 184, 185, 186, 187, 188, 189, 190],
      "AcquisitionTime": ["105401.345000", "105402.835000", "105404.325000", "105405.815000", "105407.305000", "105408.795000", "105410.285000", "105411.775000", "105413.265000", "105414.755000", "105416.245000", "105417.735000", "105419.225000", "105420.715000", "105422.205000", "105423.695000", "105425.185000", "105426.675000", "105428.165000", "105429.655000", "105431.145000", "105432.635000", "105434.125000", "105435.615000", "105437.105000", "105438.595000", "105440.085000", "105441.575000", "105443.065000", "105444.555000", "105446.045000", "105447.535000", "105449.025000", "105450.515000", "105452.005000", "105453.495000", "105454.985000", "105456.475000", "105457.965000", "105459.455000", "105500.945000", "105502.435000", "105503.925000", "105505.415000", "105506.905000", "105508.395000", "105509.885000", "105511.375000", "105512.865000", "105514.355000", "105515.845000", "105517.335000", "105518.825000", "105520.315000", "105521.805000", "105523.295000", "105524.785000", "105526.275000", "105527.765000", "105529.255000", "105530.745000", "105532.235000", "105533.725000", "105535.215000", "105536.705000", "105538.195000", "105539.685000", "105541.175000", "105542.665000", "105544.155000", "105545.645000", "105547.135000", "105548.625000", "105550.115000", "105551.605000", "105553.095000", "105554.585000", "105556.075000", "105557.565000", "105559.055000", "105600.545000", "105602.035000", "105603.525000", "105605.015000", "105606.505000", "105607.995000", "105609.485000", "105610.975000", "105612.465000", "105613.955000", "105615.445000", "105616.935000", "105618.425000", "105619.915000", "105621.405000", "105622.895000", "105624.385000", "105625.875000", "105627.365000", "105628.855000", "105630.345000", "105631.835000", "105633.325000", "105634.815000", "105636.305000", "105637.795000", "105639.285000", "105640.775000", "105642.265000", "105643.755000", "105645.245000", "105646.735000", "105648.225000", "105649.715000", "105651.205000", "105652.695000", "105654.185000", "105655.675000", "105657.165000", "105658.655000", "105700.145000", "105701.635000", "105703.125000", "105704.615000", "105706.105000", "105707.595000", "105709.085000", "105710.575000", "105712.065000", "105713.555000", "105715.045000", "105716.535000", "105718.025000", "105719.515000", "105721.005000", "105722.495000", "105723.985000", "105725.475000", "105726.965000", "105728.455000", "105729.945000", "105731.435000", "105732.925000", "105734.415000", "105735.905000", "105737.395000", "105738.885000", "105740.375000", "105741.865000", "105743.355000", "105744.845000", "105746.335000", "105747.825000", "105749.315000", "105750.805000", "105752.295000", "105753.785000", "105755.275000", "105756.765000", "105758.255000", "105759.745000", "105801.235000", "105802.725000", "105804.215000", "105805.705000", "105807.195000", "105808.685000", "105810.175000", "105811.665000", "105813.155000", "105814.645000", "105816.135000", "105817.625000", "105819.115000", "105820.605000", "105822.095000", "105823.585000", "105825.075000", "105826.565000", "105828.055000", "105829.545000", "105831.035000", "105832.525000", "105834.015000", "105835.505000", "105836.995000", "105838.485000", "105839.975000", "105841.465000", "105842.955000"],
      "ContentTime": ["105533.520000", "105533.524000", "105533.528000", "105533.531000", "105533.534000", "105533.538000", "105533.541000", "105533.544000", "105533.547000", "105533.551000", "105533.554000", "105533.557000", "105533.561000", "105533.564000", "105533.567000", "105533.571000", "105533.574000", "105533.577000", "105533.580000", "105533.584000", "105533.592000", "105533.595000", "105533.598000", "105533.602000", "105533.605000", "105533.608000", "105533.611000", "105533.615000", "105533.618000", "105533.621000", "105533.624000", "105533.628000", "105533.631000", "105533.634000", "105533.637000", "105533.641000", "105553.479000", "105553.483000", "105553.486000", "105553.489000", "105553.492000", "105553.496000", "105553.499000", "105553.502000", "105553.505000", "105553.509000", "105553.512000", "105553.515000", "105553.519000", "105553.522000", "105553.525000", "105553.528000", "105553.532000", "105553.535000", "105553.538000", "105553.542000", "105613.479000", "105613.497000", "105613.500000", "105613.503000", "105613.507000", "105613.510000", "105613.513000", "105613.517000", "105613.520000", "105613.523000", "105613.526000", "105613.530000", "105613.533000", "105613.536000", "105613.539000", "105613.543000", "105613.546000", "105613.549000", "105613.552000", "105613.556000", "105633.479000", "105633.483000", "105633.486000", "105633.489000", "105633.492000", "105633.496000", "105633.499000", "105633.502000", "105633.506000", "105633.509000", "105633.512000", "105633.515000", "105633.519000", "105633.523000", "105633.526000", "105633.530000", "105633.534000", "105633.538000", "105633.542000", "105633.546000", "105713.479000", "105713.483000", "105713.486000", "105713.489000", "105713.493000", "105713.496000", "105713.499000", "105713.503000", "105713.506000", "105713.509000", "105713.513000", "105713.516000", "105713.519000", "105713.522000", "105713.526000", "105713.529000", "105713.532000", "105713.536000", "105713.539000", "105713.542000", "105713.545000", "105713.549000", "105713.552000", "105713.555000", "105713.559000", "105713.562000", "105713.565000", "105713.568000", "105713.572000", "105713.575000", "105713.578000", "105713.582000", "105753.479000", "105753.483000", "105753.486000", "105753.489000", "105753.493000", "105753.496000", "105753.499000", "105753.503000", "105753.506000", "105753.509000", "105753.513000", "105753.516000", "105753.519000", "105753.522000", "105753.526000", "105753.529000", "105753.532000", "105753.536000", "105753.539000", "105753.542000", "105753.545000", "105753.549000", "105753.552000", "105753.555000", "105753.559000", "105753.562000", "105753.565000", "105833.503000", "105833.506000", "105833.510000", "105833.513000", "105833.517000", "105833.520000", "105833.523000", "105833.527000", "105833.530000", "105833.533000", "105833.537000", "105833.540000", "105833.543000", "105833.546000", "105833.550000", "105833.553000", "105833.556000", "105833.560000", "105833.563000", "105833.566000", "105833.569000", "105833.573000", "105833.576000", "105833.580000", "105833.583000", "105833.586000", "105833.590000", "105845.384000", "105845.388000", "105845.391000", "105845.395000", "105845.398000", "105845.402000", "105845.406000", "105845.409000"],
      "InstanceCreationTime": ["105533.520000", "105533.524000", "105533.528000", "105533.531000", "105533.534000", "105533.538000", "105533.541000", "105533.544000", "105533.547000", "105533.551000", "105533.554000", "105533.557000", "105533.561000", "105533.564000", "105533.567000", "105533.571000", "105533.574000", "105533.577000", "105533.580000", "105533.584000", "105533.592000", "105533.595000", "105533.598000", "105533.602000", "105533.605000", "105533.608000", "105533.611000", "105533.615000", "105533.618000", "105533.621000", "105533.624000", "105533.628000", "105533.631000", "105533.634000", "105533.637000", "105533.641000", "105553.479000", "105553.483000", "105553.486000", "105553.489000", "105553.492000", "105553.496000", "105553.499000", "105553.502000", "105553.505000", "105553.509000", "105553.512000", "105553.515000", "105553.519000", "105553.522000", "105553.525000", "105553.528000", "105553.532000", "105553.535000", "105553.538000", "105553.542000", "105613.479000", "105613.497000", "105613.500000", "105613.503000", "105613.507000", "105613.510000", "105613.513000", "105613.517000", "105613.520000", "105613.523000", "105613.526000", "105613.530000", "105613.533000", "105613.536000", "105613.539000", "105613.543000", "105613.546000", "105613.549000", "105613.552000", "105613.556000", "105633.479000", "105633.483000", "105633.486000", "105633.489000", "105633.492000", "105633.496000", "105633.499000", "105633.502000", "105633.506000", "105633.509000", "105633.512000", "105633.515000", "105633.519000", "105633.523000", "105633.526000", "105633.530000", "105633.534000", "105633.538000", "105633.542000", "105633.546000", "105713.479000", "105713.483000", "105713.486000", "105713.489000", "105713.493000", "105713.496000", "105713.499000", "105713.503000", "105713.506000", "105713.509000", "105713.513000", "105713.516000", "105713.519000", "105713.522000", "105713.526000", "105713.529000", "105713.532000", "105713.536000", "105713.539000", "105713.542000", "105713.545000", "105713.549000", "105713.552000", "105713.555000", "105713.559000", "105713.562000", "105713.565000", "105713.568000", "105713.572000", "105713.575000", "105713.578000", "105713.582000", "105753.479000", "105753.483000", "105753.486000", "105753.489000", "105753.493000", "105753.496000", "105753.499000", "105753.503000", "105753.506000", "105753.509000", "105753.513000", "105753.516000", "105753.519000", "105753.522000", "105753.526000", "105753.529000", "105753.532000", "105753.536000", "105753.539000", "105753.542000", "105753.545000", "105753.549000", "105753.552000", "105753.555000", "105753.559000", "105753.562000", "105753.565000", "105833.503000", "105833.506000", "105833.510000", "105833.513000", "105833.517000", "105833.520000", "105833.523000", "105833.527000", "105833.530000", "105833.533000", "105833.537000", "105833.540000", "105833.543000", "105833.546000", "105833.550000", "105833.553000", "105833.556000", "105833.560000", "105833.563000", "105833.566000", "105833.569000", "105833.573000", "105833.576000", "105833.580000", "105833.583000", "105833.586000", "105833.590000", "105845.384000", "105845.388000", "105845.391000", "105845.395000", "105845.398000", "105845.402000", "105845.406000", "105845.409000"],
      "InstanceNumber": [1, 2, 3, 4, 5, 6, 7, 8, 9, 10, 11, 12, 13, 14, 15, 16, 17, 18, 19, 20, 21, 22, 23, 24, 25, 26, 27, 28, 29, 30, 31, 32, 33, 34, 35, 36, 37, 38, 39, 40, 41, 42, 43, 44, 45, 46, 47, 48, 49, 50, 51, 52, 53, 54, 55, 56, 57, 58, 59, 60, 61, 62, 63, 64, 65, 66, 67, 68, 69, 70, 71, 72, 73, 74, 75, 76, 77, 78, 79, 80, 81, 82, 83, 84, 85, 86, 87, 88, 89, 90, 91, 92, 93, 94, 95, 96, 97, 98, 99, 100, 101, 102, 103, 104, 105, 106, 107, 108, 109, 110, 111, 112, 113, 114, 115, 116, 117, 118, 119, 120, 121, 122, 123, 124, 125, 126, 127, 128, 129, 130, 131, 132, 133, 134, 135, 136, 137, 138, 139, 140, 141, 142, 143, 144, 145, 146, 147, 148, 149, 150, 151, 152, 153, 154, 155, 156, 157, 158, 159, 160, 161, 162, 163, 164, 165, 166, 167, 168, 169, 170, 171, 172, 173, 174, 175, 176, 177, 178, 179, 180, 181, 182, 183, 184, 185, 186, 187, 188, 189, 190],
      "LargestImagePixelValue": [48880, 47700, 47806, 46992, 48002, 47336, 47749, 47185, 47157, 46469, 47580, 47660, 47291, 47365, 46572, 46968, 46917, 47703, 47825, 47686, 47009, 47628, 47028, 47228, 47858, 47383, 47241, 47732, 47509, 47538, 47842, 47509, 47681, 47591, 47123, 47025, 47254, 47638, 47369, 46935, 47325, 47308, 46652, 46956, 47151, 47180, 47102, 46964, 47197, 47168, 46750, 47799, 47322, 47752, 47350, 46777, 47052, 47377, 47013, 47711, 47747, 47149, 47539, 47193, 47307, 47551, 47151, 47194, 47622, 46827, 47227, 46866, 47458, 47371, 47022, 47390, 47074, 47427, 47256, 47053, 47547, 47353, 46968, 47318, 46745, 46984, 47099, 46705, 47176, 47036, 47129, 47456, 46942, 46870, 46803, 46608, 47066, 47632, 46835, 46684, 47384, 47420, 47535, 47357, 47423, 47640, 47477, 47424, 47049, 47080, 47393, 47014, 47001, 47226, 47548, 46814, 47000, 45644, 46173, 47902, 47581, 47578, 47276, 47363, 47071, 47503, 47074, 46730, 47189, 47531, 47156, 47112, 46583, 47026, 47221, 47280, 47096, 46393, 46746, 45818, 44834, 46581, 46303, 46230, 46476, 47091, 46395, 46657, 45962, 46626, 46028, 46213, 45755, 46015, 45945, 46113, 45736, 45735, 46678, 46415, 46394, 45526, 45398, 45476, 44945, 45599, 45581, 45492, 45720, 45146, 45400, 45442, 46133, 45036, 46042, 45786, 45909, 45941, 45107, 45639, 45823, 45225, 45532, 45296, 44972, 44774, 44860, 45170, 45669, 45676],
      "WindowCenter": [11299.0, 11238.0, 11218.0, 11207.0, 11208.0, 11204.0, 11223.0, 11209.0, 11215.0, 11205.0, 11217.0, 11203.0, 11206.0, 11226.0, 11236.0, 11241.0, 11204.0, 11183.0, 11206.0, 11251.0, 11259.0, 11256.0, 11234.0, 11194.0, 11180.0, 11173.0, 11200.0, 11226.0, 11205.0, 11175.0, 11168.0, 11172.0, 11201.0, 11208.0, 11187.0, 11188.0, 11211.0, 11225.0, 11212.0, 11207.0, 11215.0, 11204.0, 11178.0, 11173.0, 11179.0, 11181.0, 11186.0, 11184.0, 11180.0, 11189.0, 11198.0, 11195.0, 11195.0, 11196.0, 11183.0, 11176.0, 11186.0, 11198.0, 11195.0, 11195.0, 11187.0, 11179.0, 11183.0, 11171.0, 11176.0, 11182.0, 11177.0, 11179.0, 11191.0, 11177.0, 11173.0, 11197.0, 11238.0, 11235.0, 11207.0, 11189.0, 11182.0, 11196.0, 11200.0, 11200.0, 11193.0, 11198.0, 11172.0, 11176.0, 11149.0, 11150.0, 11161.0, 11180.0, 11183.0, 11181.0, 11163.0, 11161.0, 11161.0, 11190.0, 11184.0, 11201.0, 11199.0, 11211.0, 11194.0, 11179.0, 11180.0, 11174.0, 11184.0, 11176.0, 11179.0, 11178.0, 11179.0, 11181.0, 11188.0, 11203.0, 11197.0, 11183.0, 11178.0, 11179.0, 11184.0, 11184.0, 11204.0, 11179.0, 11153.0, 11163.0, 11187.0, 11209.0, 11199.0, 11180.0, 11160.0, 11169.0, 11162.0, 11145.0, 11134.0, 11164.0, 11192.0, 11206.0, 11189.0, 11187.0, 11151.0, 11137.0, 11177.0, 11213.0, 11238.0, 11223.0, 11167.0, 11126.0, 11096.0, 11111.0, 11182.0, 11207.0, 11186.0, 11139.0, 11111.0, 11131.0, 11134.0, 11160.0, 11147.0, 11134.0, 11123.0, 11148.0, 11173.0, 11176.0, 11202.0, 11200.0, 11181.0, 11177.0, 11175.0, 11165.0, 11173.0, 11179.0, 11151.0, 11122.0, 11122.0, 11115.0, 11150.0, 11152.0, 11162.0, 11146.0, 11138.0, 11111.0, 11097.0, 11128.0, 11149.0, 11173.0, 11159.0, 11146.0, 11165.0, 11162.0, 11122.0, 11114.0, 11134.0, 11181.0, 11200.0, 11174.0],
      "WindowWidth": [24383.0, 24206.0, 24137.0, 24101.0, 24095.0, 24086.0, 24128.0, 24099.0, 24111.0, 24091.0, 24115.0, 24081.0, 24086.0, 24136.0, 24162.0, 24173.0, 24085.0, 24032.0, 24082.0, 24190.0, 24213.0, 24202.0, 24151.0, 24060.0, 24022.0, 24007.0, 24071.0, 24132.0, 24084.0, 24013.0, 23990.0, 24002.0, 24072.0, 24090.0, 24041.0, 24041.0, 24096.0, 24128.0, 24102.0, 24090.0, 24107.0, 24083.0, 24025.0, 24009.0, 24021.0, 24031.0, 24040.0, 24035.0, 24027.0, 24049.0, 24071.0, 24062.0, 24059.0, 24060.0, 24028.0, 24016.0, 24037.0, 24062.0, 24056.0, 24055.0, 24036.0, 24018.0, 24027.0, 24001.0, 24012.0, 24024.0, 24017.0, 24020.0, 24047.0, 24020.0, 24007.0, 24067.0, 24161.0, 24156.0, 24088.0, 24049.0, 24031.0, 24064.0, 24070.0, 24073.0, 24051.0, 24067.0, 24003.0, 24013.0, 23953.0, 23954.0, 23976.0, 24023.0, 24028.0, 24022.0, 23981.0, 23971.0, 23975.0, 24046.0, 24031.0, 24070.0, 24066.0, 24089.0, 24056.0, 24022.0, 24020.0, 24008.0, 24027.0, 24009.0, 24016.0, 24014.0, 24016.0, 24022.0, 24038.0, 24072.0, 24058.0, 24029.0, 24016.0, 24015.0, 24026.0, 24030.0, 24076.0, 24025.0, 23966.0, 23980.0, 24033.0, 24085.0, 24063.0, 24014.0, 23969.0, 23987.0, 23974.0, 23939.0, 23908.0, 23975.0, 24047.0, 24081.0, 24039.0, 24033.0, 23948.0, 23914.0, 24008.0, 24099.0, 24158.0, 24127.0, 24004.0, 23897.0, 23825.0, 23861.0, 24024.0, 24084.0, 24033.0, 23918.0, 23857.0, 23899.0, 23913.0, 23973.0, 23947.0, 23912.0, 23888.0, 23942.0, 24006.0, 24014.0, 24070.0, 24071.0, 24028.0, 24019.0, 24016.0, 23991.0, 24011.0, 24023.0, 23957.0, 23886.0, 23885.0, 23869.0, 23950.0, 23955.0, 23975.0, 23945.0, 23921.0, 23863.0, 23825.0, 23896.0, 23950.0, 24005.0, 23972.0, 23942.0, 23985.0, 23983.0, 23895.0, 23874.0, 23923.0, 24033.0, 24078.0, 24016.0]
    },
    "slices": {}
  }
}