{
  "AcquisitionMatrixPE": 104,
  "AcquisitionNumber": 1,
  "AcquisitionTime": "11:00:41.030000",
  "BandwidthPerPixelPhaseEncode": 17.17,
  "BaseResolution": 104,
  "BodyPartExamined": "BRAIN",
  "CoilString": "HC1-7;NC1_2",
  "ConsistencyInfo": "N4_VE11C_LATEST_20160120",
  "ConversionSoftware": "dcm2niix",
  "ConversionSoftwareVersion": "v1.0.20190902",
  "DerivedVendorReportedEchoSpacing": 0.000560011,
  "DeviceSerialNumber": "167006",
  "DwellTime": 2.1e-06,
  "EchoTime": 0.037,
  "EchoTrainLength": 104,
  "EffectiveEchoSpacing": 0.000560011,
  "FlipAngle": 52,
  "ImageComments": "Unaliased_MB4_PE3_LB",
  "ImageOrientationPatientDICOM": [0.999678, -0.00255287, -0.0252464, -0.01012, 0.872269, -0.488921],
  "ImageType": [
    "ORIGINAL",
    "PRIMARY",
    "M",
    "MB",
    "ND",
    "MOSAIC"
],
  "ImagingFrequency": 123.259,
  "InPlanePhaseEncodingDirectionDICOM": "COL",
  "InstitutionAddress": "Chemin_Queen-Mary_4565_Montreal_District_CA_H3W_1W5",
  "InstitutionName": "IUGM",
  "InstitutionalDepartmentName": "Department",
  "MRAcquisitionType": "2D",
  "MagneticFieldStrength": 3,
  "Manufacturer": "Siemens",
  "ManufacturersModelName": "Prisma_fit",
  "Modality": "MR",
  "MultibandAccelerationFactor": 4,
  "PartialFourier": 1,
  "PatientPosition": "HFS",
  "PercentPhaseFOV": 100,
  "PhaseEncodingDirection": "j",
  "PhaseEncodingSteps": 104,
  "PhaseResolution": 1,
  "PixelBandwidth": 2290,
  "ProcedureStepDescription": "memory_things",
  "ProtocolName": "func_task-things_run-3",
  "PulseSequenceDetails": "%CustomerSeq%_cmrr_mbep2d_bold",
  "ReceiveCoilActiveElements": "HC1-7;NC1,2",
  "ReceiveCoilName": "HeadNeck_64",
  "ReconMatrixPE": 104,
  "RepetitionTime": 1.49,
  "SAR": 0.0640097,
  "ScanOptions": "FS",
  "ScanningSequence": "EP",
  "SequenceName": "epfid2d1_104",
  "SequenceVariant": "SK_SS",
  "SeriesDescription": "func_task-things_run-3",
  "SeriesNumber": 16,
  "ShimSetting": [601, -7176, -8876, 259, 14, -141, 56, -64],
  "SliceThickness": 2,
  "SliceTiming": [0, 0.7825, 0.0975, 0.88, 0.195, 0.9775, 0.2925, 1.0775, 0.39, 1.175, 0.49, 1.2725, 0.5875, 1.37, 0.685, 0, 0.7825, 0.0975, 0.88, 0.195, 0.9775, 0.2925, 1.0775, 0.39, 1.175, 0.49, 1.2725, 0.5875, 1.37, 0.685, 0, 0.7825, 0.0975, 0.88, 0.195, 0.9775, 0.2925, 1.0775, 0.39, 1.175, 0.49, 1.2725, 0.5875, 1.37, 0.685, 0, 0.7825, 0.0975, 0.88, 0.195, 0.9775, 0.2925, 1.0775, 0.39, 1.175, 0.49, 1.2725, 0.5875, 1.37, 0.685],
  "SoftwareVersions": "syngo_MR_E11",
  "SpacingBetweenSlices": 2,
  "StationName": "MRC35049",
  "TaskName": "things",
  "TotalReadoutTime": 0.0576811,
  "TxRefAmp": 306.605,
  "WipMemBlock": "38732c0c-d987-4859-b49d-54ef4dd2b693||Sequence: R016 ve11c/master r/e634e98; Dec 19 2017 11:00:25 by eja",
  "dcmmeta_affine": [
    [-1.9993560314178467, -0.020239923149347305, -0.046539608389139175, 109.55936431884766],
    [0.0051057408563792706, 1.7445385456085205, -0.9780383706092834, -54.11943817138672],
    [-0.0504927821457386, 0.9778422117233276, 1.7439252138137817, -102.62206268310547],
    [0.0, 0.0, 0.0, 1.0]
],
  "dcmmeta_reorient_transform": [
    [0.0, -1.0, 0.0, 103.0],
    [1.0, 0.0, 0.0, 0.0],
    [0.0, 0.0, 1.0, 0.0],
    [0.0, 0.0, 0.0, 1.0]
],
  "dcmmeta_shape": [104, 104, 60, 190],
  "dcmmeta_slice_dim": 2,
  "dcmmeta_version": 0.6,
  "global": {
    "const": {
      "AcquisitionMatrix": [104, 0, 0, 104],
      "AngioFlag": "N",
      "BitsAllocated": 16,
      "BitsStored": 16,
      "BodyPartExamined": "BRAIN",
      "Columns": 832,
      "EchoNumbers": 1,
      "EchoTime": 37.0,
      "EchoTrainLength": 104,
      "FlipAngle": 52.0,
      "HighBit": 15,
      "ImageOrientationPatient": [0.99967799945277, -0.0025528704814, -0.025246391077, -0.0101199618008, 0.87226929804561, -0.4889211163983],
      "ImagePositionPatient": [-827.87290143548, -758.72159474147, 372.40963108149],
      "ImageType": [
        "ORIGINAL",
        "PRIMARY",
        "M",
        "MB",
        "ND",
        "MOSAIC"
],
      "ImagedNucleus": "1H",
      "ImagingFrequency": 123.258938,
      "InPlanePhaseEncodingDirection": "COL",
      "MRAcquisitionType": "2D",
      "MagneticFieldStrength": 3.0,
      "Manufacturer": "SIEMENS",
      "ManufacturerModelName": "Prisma_fit",
      "Modality": "MR",
      "NumberOfAverages": 1.0,
      "NumberOfPhaseEncodingSteps": 104,
      "PercentPhaseFieldOfView": 100.0,
      "PercentSampling": 100.0,
      "PerformedProcedureStepStartTime": "102251.250000",
      "PhotometricInterpretation": "MONOCHROME2",
      "PixelBandwidth": 2290.0,
      "PixelRepresentation": 0,
      "PixelSpacing": [2.0, 2.0],
      "ProtocolName": "func_task-things_run-3",
      "RepetitionTime": 1490.0,
      "Rows": 832,
      "SAR": 0.06400966733522,
      "SamplesPerPixel": 1,
      "ScanOptions": "FS",
      "ScanningSequence": "EP",
      "SequenceName": "epfid2d1_104",
      "SequenceVariant": [
        "SK",
        "SS"
],
      "SeriesDescription": "func_task-things_run-3",
      "SeriesNumber": 16,
      "SeriesTime": "110201.205000",
      "SliceLocation": -65.566582183707,
      "SliceThickness": 2.0,
      "SmallestImagePixelValue": 0,
      "SoftwareVersions": "syngo MR E11",
      "SpacingBetweenSlices": 2.0000000388266,
      "SpecificCharacterSet": "ISO_IR 100",
      "StudyID": "1",
      "StudyTime": "102251.202000",
      "TransmitCoilName": "Body",
      "VariableFlipAngleFlag": "N",
      "WindowCenterWidthExplanation": "Algo1",
      "dBdt": 0.0},
    "slices": {}
  },
  "time": {
    "samples": {
      "AcquisitionNumber": [1, 2, 3, 4, 5, 6, 7, 8, 9, 10, 11, 12, 13, 14, 15, 16, 17, 18, 19, 20, 21, 22, 23, 24, 25, 26, 27, 28, 29, 30, 31, 32, 33, 34, 35, 36, 37, 38, 39, 40, 41, 42, 43, 44, 45, 46, 47, 48, 49, 50, 51, 52, 53, 54, 55, 56, 57, 58, 59, 60, 61, 62, 63, 64, 65, 66, 67, 68, 69, 70, 71, 72, 73, 74, 75, 76, 77, 78, 79, 80, 81, 82, 83, 84, 85, 86, 87, 88, 89, 90, 91, 92, 93, 94, 95, 96, 97, 98, 99, 100, 101, 102, 103, 104, 105, 106, 107, 108, 109, 110, 111, 112, 113, 114, 115, 116, 117, 118, 119, 120, 121, 122, 123, 124, 125, 126, 127, 128, 129, 130, 131, 132, 133, 134, 135, 136, 137, 138, 139, 140, 141, 142, 143, 144, 145, 146, 147, 148, 149, 150, 151, 152, 153, 154, 155, 156, 157, 158, 159, 160, 161, 162, 163, 164, 165, 166, 167, 168, 169, 170, 171, 172, 173, 174, 175, 176, 177, 178, 179, 180, 181, 182, 183, 184, 185, 186, 187, 188, 189, 190],
      "AcquisitionTime": ["110041.030000", "110042.520000", "110044.010000", "110045.500000", "110046.990000", "110048.480000", "110049.970000", "110051.460000", "110052.950000", "110054.440000", "110055.930000", "110057.420000", "110058.910000", "110100.400000", "110101.890000", "110103.380000", "110104.870000", "110106.360000", "110107.850000", "110109.340000", "110110.830000", "110112.320000", "110113.810000", "110115.300000", "110116.790000", "110118.280000", "110119.770000", "110121.260000", "110122.750000", "110124.240000", "110125.730000", "110127.220000", "110128.710000", "110130.200000", "110131.690000", "110133.180000", "110134.670000", "110136.160000", "110137.650000", "110139.140000", "110140.630000", "110142.120000", "110143.610000", "110145.100000", "110146.590000", "110148.080000", "110149.570000", "110151.060000", "110152.550000", "110154.040000", "110155.530000", "110157.020000", "110158.510000", "110200.000000", "110201.490000", "110202.980000", "110204.470000", "110205.960000", "110207.450000", "110208.940000", "110210.430000", "110211.920000", "110213.410000", "110214.900000", "110216.390000", "110217.880000", "110219.370000", "110220.860000", "110222.350000", "110223.840000", "110225.330000", "110226.820000", "110228.310000", "110229.800000", "110231.290000", "110232.780000", "110234.270000", "110235.760000", "110237.250000", "110238.740000", "110240.230000", "110241.720000", "110243.210000", "110244.700000", "110246.190000", "110247.680000", "110249.170000", "110250.660000", "110252.150000", "110253.640000", "110255.130000", "110256.620000", "110258.110000", "110259.600000", "110301.090000", "110302.580000", "110304.070000", "110305.560000", "110307.050000", "110308.540000", "110310.030000", "110311.520000", "110313.010000", "110314.500000", "110315.990000", "110317.480000", "110318.970000", "110320.460000", "110321.950000", "110323.440000", "110324.930000", "110326.420000", "110327.910000", "110329.400000", "110330.890000", "110332.380000", "110333.870000", "110335.360000", "110336.850000", "110338.340000", "110339.830000", "110341.320000", "110342.810000", "110344.300000", "110345.790000", "110347.280000", "110348.770000", "110350.260000", "110351.750000", "110353.240000", "110354.730000", "110356.220000", "110357.710000", "110359.200000", "110400.690000", "110402.180000", "110403.670000", "110405.160000", "110406.650000", "110408.140000", "110409.630000", "110411.120000", "110412.610000", "110414.100000", "110415.590000", "110417.080000", "110418.570000", "110420.060000", "110421.550000", "110423.040000", "110424.530000", "110426.020000", "110427.510000", "110429.000000", "110430.490000", "110431.980000", "110433.470000", "110434.960000", "110436.450000", "110437.940000", "110439.430000", "110440.920000", "110442.410000", "110443.900000", "110445.390000", "110446.880000", "110448.370000", "110449.860000", "110451.350000", "110452.840000", "110454.330000", "110455.820000", "110457.310000", "110458.800000", "110500.290000", "110501.780000", "110503.270000", "110504.760000", "110506.250000", "110507.740000", "110509.230000", "110510.720000", "110512.210000", "110513.700000", "110515.190000", "110516.680000", "110518.170000", "110519.660000", "110521.150000", "110522.640000"],
      "ContentTime": ["110201.208000", "110201.212000", "110201.215000", "110201.219000", "110201.222000", "110201.225000", "110201.229000", "110201.232000", "110201.235000", "110201.238000", "110201.242000", "110201.245000", "110201.248000", "110201.252000", "110201.255000", "110201.258000", "110201.262000", "110201.265000", "110201.269000", "110201.272000", "110201.275000", "110201.278000", "110201.282000", "110201.285000", "110201.288000", "110201.292000", "110201.302000", "110201.305000", "110221.170000", "110221.174000", "110221.177000", "110221.180000", "110221.184000", "110221.187000", "110221.190000", "110221.193000", "110221.197000", "110221.200000", "110221.203000", "110221.206000", "110221.210000", "110221.213000", "110221.216000", "110221.219000", "110221.222000", "110221.226000", "110221.229000", "110221.232000", "110241.170000", "110241.174000", "110241.177000", "110241.180000", "110241.183000", "110241.187000", "110241.190000", "110241.193000", "110241.196000", "110241.200000", "110241.203000", "110241.206000", "110241.209000", "110241.213000", "110241.216000", "110241.219000", "110241.222000", "110241.226000", "110241.240000", "110241.243000", "110301.169000", "110301.173000", "110301.176000", "110301.179000", "110301.183000", "110301.186000", "110301.189000", "110301.193000", "110301.196000", "110301.199000", "110301.202000", "110301.206000", "110301.209000", "110301.212000", "110301.215000", "110301.219000", "110301.222000", "110301.225000", "110301.229000", "110301.232000", "110301.235000", "110341.170000", "110341.174000", "110341.177000", "110341.180000", "110341.184000", "110341.187000", "110341.190000", "110341.196000", "110341.200000", "110341.203000", "110341.206000", "110341.210000", "110341.213000", "110341.216000", "110341.220000", "110341.223000", "110341.226000", "110341.230000", "110341.233000", "110341.236000", "110341.239000", "110341.243000", "110341.246000", "110341.249000", "110341.253000", "110341.256000", "110341.259000", "110341.262000", "110341.266000", "110341.269000", "110341.272000", "110421.170000", "110421.174000", "110421.177000", "110421.180000", "110421.184000", "110421.187000", "110421.190000", "110421.194000", "110421.197000", "110421.200000", "110421.204000", "110421.207000", "110421.210000", "110421.213000", "110421.217000", "110421.220000", "110421.223000", "110421.227000", "110421.230000", "110421.233000", "110421.236000", "110421.240000", "110421.243000", "110421.246000", "110421.249000", "110421.253000", "110421.256000", "110501.169000", "110501.173000", "110501.176000", "110501.179000", "110501.183000", "110501.186000", "110501.189000", "110501.192000", "110501.196000", "110501.199000", "110501.202000", "110501.206000", "110501.209000", "110501.212000", "110501.215000", "110501.219000", "110501.244000", "110501.247000", "110501.251000", "110501.254000", "110501.257000", "110501.260000", "110501.264000", "110501.267000", "110501.270000", "110501.274000", "110501.277000", "110524.557000", "110524.561000", "110524.565000", "110524.568000", "110524.571000", "110524.575000", "110524.578000", "110524.582000", "110524.585000", "110524.588000", "110524.592000", "110524.596000", "110524.599000", "110524.602000", "110524.606000", "110524.609000"],
      "InstanceCreationTime": ["110201.208000", "110201.212000", "110201.215000", "110201.219000", "110201.222000", "110201.225000", "110201.229000", "110201.232000", "110201.235000", "110201.238000", "110201.242000", "110201.245000", "110201.248000", "110201.252000", "110201.255000", "110201.258000", "110201.262000", "110201.265000", "110201.269000", "110201.272000", "110201.275000", "110201.278000", "110201.282000", "110201.285000", "110201.288000", "110201.292000", "110201.302000", "110201.305000", "110221.170000", "110221.174000", "110221.177000", "110221.180000", "110221.184000", "110221.187000", "110221.190000", "110221.193000", "110221.197000", "110221.200000", "110221.203000", "110221.206000", "110221.210000", "110221.213000", "110221.216000", "110221.219000", "110221.222000", "110221.226000", "110221.229000", "110221.232000", "110241.170000", "110241.174000", "110241.177000", "110241.180000", "110241.183000", "110241.187000", "110241.190000", "110241.193000", "110241.196000", "110241.200000", "110241.203000", "110241.206000", "110241.209000", "110241.213000", "110241.216000", "110241.219000", "110241.222000", "110241.226000", "110241.240000", "110241.243000", "110301.169000", "110301.173000", "110301.176000", "110301.179000", "110301.183000", "110301.186000", "110301.189000", "110301.193000", "110301.196000", "110301.199000", "110301.202000", "110301.206000", "110301.209000", "110301.212000", "110301.215000", "110301.219000", "110301.222000", "110301.225000", "110301.229000", "110301.232000", "110301.235000", "110341.170000", "110341.174000", "110341.177000", "110341.180000", "110341.184000", "110341.187000", "110341.190000", "110341.196000", "110341.200000", "110341.203000", "110341.206000", "110341.210000", "110341.213000", "110341.216000", "110341.220000", "110341.223000", "110341.226000", "110341.230000", "110341.233000", "110341.236000", "110341.239000", "110341.243000", "110341.246000", "110341.249000", "110341.253000", "110341.256000", "110341.259000", "110341.262000", "110341.266000", "110341.269000", "110341.272000", "110421.170000", "110421.174000", "110421.177000", "110421.180000", "110421.184000", "110421.187000", "110421.190000", "110421.194000", "110421.197000", "110421.200000", "110421.204000", "110421.207000", "110421.210000", "110421.213000", "110421.217000", "110421.220000", "110421.223000", "110421.227000", "110421.230000", "110421.233000", "110421.236000", "110421.240000", "110421.243000", "110421.246000", "110421.249000", "110421.253000", "110421.256000", "110501.169000", "110501.173000", "110501.176000", "110501.179000", "110501.183000", "110501.186000", "110501.189000", "110501.192000", "110501.196000", "110501.199000", "110501.202000", "110501.206000", "110501.209000", "110501.212000", "110501.215000", "110501.219000", "110501.244000", "110501.247000", "110501.251000", "110501.254000", "110501.257000", "110501.260000", "110501.264000", "110501.267000", "110501.270000", "110501.274000", "110501.277000", "110524.557000", "110524.561000", "110524.565000", "110524.568000", "110524.571000", "110524.575000", "110524.578000", "110524.582000", "110524.585000", "110524.588000", "110524.592000", "110524.596000", "110524.599000", "110524.602000", "110524.606000", "110524.609000"],
      "InstanceNumber": [1, 2, 3, 4, 5, 6, 7, 8, 9, 10, 11, 12, 13, 14, 15, 16, 17, 18, 19, 20, 21, 22, 23, 24, 25, 26, 27, 28, 29, 30, 31, 32, 33, 34, 35, 36, 37, 38, 39, 40, 41, 42, 43, 44, 45, 46, 47, 48, 49, 50, 51, 52, 53, 54, 55, 56, 57, 58, 59, 60, 61, 62, 63, 64, 65, 66, 67, 68, 69, 70, 71, 72, 73, 74, 75, 76, 77, 78, 79, 80, 81, 82, 83, 84, 85, 86, 87, 88, 89, 90, 91, 92, 93, 94, 95, 96, 97, 98, 99, 100, 101, 102, 103, 104, 105, 106, 107, 108, 109, 110, 111, 112, 113, 114, 115, 116, 117, 118, 119, 120, 121, 122, 123, 124, 125, 126, 127, 128, 129, 130, 131, 132, 133, 134, 135, 136, 137, 138, 139, 140, 141, 142, 143, 144, 145, 146, 147, 148, 149, 150, 151, 152, 153, 154, 155, 156, 157, 158, 159, 160, 161, 162, 163, 164, 165, 166, 167, 168, 169, 170, 171, 172, 173, 174, 175, 176, 177, 178, 179, 180, 181, 182, 183, 184, 185, 186, 187, 188, 189, 190],
      "LargestImagePixelValue": [46280, 45607, 45327, 44375, 44241, 44291, 43751, 43787, 43758, 43404, 43541, 44185, 44151, 44519, 44455, 43593, 44227, 43427, 43370, 43346, 44312, 43308, 42982, 43633, 43158, 44536, 44039, 43190, 45066, 43378, 43370, 43812, 43787, 44061, 44722, 43810, 44219, 43338, 44279, 43458, 44092, 44041, 43602, 43794, 42966, 44084, 43630, 43351, 43159, 42950, 43339, 43718, 45237, 44967, 43010, 43595, 44005, 43603, 44307, 43346, 43760, 43769, 44171, 44066, 44213, 44209, 43330, 44500, 44197, 43369, 42842, 43540, 43511, 43993, 44384, 43740, 43998, 43252, 42959, 43785, 43685, 43218, 43545, 44370, 44562, 44351, 44035, 43023, 43039, 43828, 43829, 44267, 43419, 43299, 43853, 43529, 43234, 44002, 43030, 44003, 44013, 43019, 43296, 43237, 43334, 44199, 43775, 43407, 43823, 43386, 43848, 44060, 43509, 43980, 43115, 43140, 44451, 43566, 44944, 44187, 44231, 43777, 43105, 43651, 44629, 44802, 44325, 45157, 44481, 44807, 44952, 44322, 43189, 43864, 44621, 43988, 44730, 45387, 44803, 45889, 44362, 43133, 43522, 44297, 43005, 44718, 44702, 44405, 44761, 44470, 44654, 44587, 44294, 44047, 43263, 45604, 43313, 42643, 42433, 44147, 45043, 44266, 43252, 43771, 44490, 43080, 44407, 43861, 43485, 44343, 43946, 44016, 44993, 44662, 43026, 42934, 43911, 44197, 44925, 43847, 43793, 44762, 43417, 44349, 45082, 44382, 42547, 43786, 44101, 45006],
      "WindowCenter": [11208.0, 11114.0, 11062.0, 11076.0, 11117.0, 11163.0, 11171.0, 11143.0, 11105.0, 11069.0, 11057.0, 11063.0, 11072.0, 11077.0, 11087.0, 11088.0, 11099.0, 11099.0, 11104.0, 11091.0, 11122.0, 11135.0, 11147.0, 11142.0, 11123.0, 11135.0, 11143.0, 11138.0, 11141.0, 11115.0, 11115.0, 11103.0, 11069.0, 11078.0, 11111.0, 11122.0, 11126.0, 11107.0, 11098.0, 11092.0, 11100.0, 11102.0, 11093.0, 11112.0, 11112.0, 11124.0, 11112.0, 11117.0, 11131.0, 11108.0, 11085.0, 11106.0, 11134.0, 11139.0, 11098.0, 11071.0, 11045.0, 11015.0, 11054.0, 11102.0, 11130.0, 11114.0, 11096.0, 11083.0, 11078.0, 11090.0, 11082.0, 11098.0, 11102.0, 11106.0, 11101.0, 11088.0, 11086.0, 11092.0, 11101.0, 11124.0, 11152.0, 11154.0, 11128.0, 11094.0, 11072.0, 11086.0, 11102.0, 11121.0, 11123.0, 11124.0, 11119.0, 11085.0, 11062.0, 11050.0, 11054.0, 11078.0, 11092.0, 11095.0, 11090.0, 11077.0, 11065.0, 11080.0, 11072.0, 11089.0, 11088.0, 11088.0, 11089.0, 11081.0, 11079.0, 11094.0, 11103.0, 11105.0, 11094.0, 11085.0, 11083.0, 11097.0, 11095.0, 11105.0, 11108.0, 11099.0, 11097.0, 11074.0, 11080.0, 11102.0, 11125.0, 11129.0, 11110.0, 11091.0, 11073.0, 11080.0, 11061.0, 11057.0, 11058.0, 11074.0, 11097.0, 11103.0, 11071.0, 11054.0, 11040.0, 11041.0, 11070.0, 11094.0, 11093.0, 11094.0, 11085.0, 11060.0, 11056.0, 11057.0, 11056.0, 11084.0, 11087.0, 11075.0, 11082.0, 11077.0, 11075.0, 11075.0, 11073.0, 11080.0, 11073.0, 11101.0, 11095.0, 11077.0, 11056.0, 11061.0, 11087.0, 11105.0, 11091.0, 11074.0, 11066.0, 11051.0, 11074.0, 11073.0, 11066.0, 11067.0, 11057.0, 11057.0, 11063.0, 11074.0, 11054.0, 11045.0, 11045.0, 11052.0, 11064.0, 11065.0, 11063.0, 11065.0, 11047.0, 11050.0, 11065.0, 11081.0, 11065.0, 11054.0, 11051.0, 11062.0],
      "WindowWidth": [24175.0, 23923.0, 23782.0, 23802.0, 23892.0, 23996.0, 24015.0, 23946.0, 23857.0, 23772.0, 23744.0, 23757.0, 23776.0, 23784.0, 23808.0, 23815.0, 23837.0, 23843.0, 23854.0, 23829.0, 23894.0, 23931.0, 23960.0, 23946.0, 23903.0, 23925.0, 23942.0, 23934.0, 23936.0, 23883.0, 23878.0, 23851.0, 23774.0, 23788.0, 23862.0, 23896.0, 23900.0, 23859.0, 23835.0, 23823.0, 23839.0, 23847.0, 23830.0, 23870.0, 23874.0, 23899.0, 23877.0, 23889.0, 23923.0, 23870.0, 23814.0, 23859.0, 23916.0, 23930.0, 23842.0, 23776.0, 23713.0, 23651.0, 23734.0, 23849.0, 23913.0, 23875.0, 23827.0, 23797.0, 23789.0, 23814.0, 23800.0, 23836.0, 23847.0, 23856.0, 23849.0, 23819.0, 23812.0, 23826.0, 23843.0, 23897.0, 23961.0, 23969.0, 23912.0, 23827.0, 23773.0, 23810.0, 23847.0, 23888.0, 23893.0, 23896.0, 23881.0, 23811.0, 23758.0, 23727.0, 23737.0, 23789.0, 23825.0, 23834.0, 23817.0, 23789.0, 23765.0, 23794.0, 23782.0, 23816.0, 23814.0, 23816.0, 23821.0, 23801.0, 23795.0, 23828.0, 23852.0, 23857.0, 23830.0, 23808.0, 23802.0, 23831.0, 23832.0, 23853.0, 23861.0, 23841.0, 23831.0, 23784.0, 23789.0, 23841.0, 23895.0, 23905.0, 23865.0, 23819.0, 23773.0, 23785.0, 23743.0, 23732.0, 23736.0, 23770.0, 23826.0, 23843.0, 23773.0, 23731.0, 23695.0, 23700.0, 23761.0, 23814.0, 23816.0, 23814.0, 23797.0, 23747.0, 23736.0, 23734.0, 23737.0, 23793.0, 23799.0, 23773.0, 23786.0, 23779.0, 23774.0, 23773.0, 23771.0, 23788.0, 23777.0, 23831.0, 23829.0, 23791.0, 23746.0, 23746.0, 23799.0, 23846.0, 23820.0, 23776.0, 23752.0, 23723.0, 23772.0, 23774.0, 23758.0, 23755.0, 23736.0, 23733.0, 23743.0, 23768.0, 23729.0, 23711.0, 23708.0, 23722.0, 23747.0, 23753.0, 23749.0, 23746.0, 23711.0, 23715.0, 23745.0, 23785.0, 23760.0, 23734.0, 23722.0, 23743.0]
    },
    "slices": {}
  }
}