{
  "AcquisitionMatrixPE": 104,
  "AcquisitionNumber": 1,
  "AcquisitionTime": "11:18:58.402500",
  "BandwidthPerPixelPhaseEncode": 17.17,
  "BaseResolution": 104,
  "BodyPartExamined": "BRAIN",
  "CoilString": "HC1-7;NC1_2",
  "ConsistencyInfo": "N4_VE11C_LATEST_20160120",
  "ConversionSoftware": "dcm2niix",
  "ConversionSoftwareVersion": "v1.0.20190902",
  "DerivedVendorReportedEchoSpacing": 0.000560011,
  "DeviceSerialNumber": "167006",
  "DwellTime": 2.1e-06,
  "EchoTime": 0.037,
  "EchoTrainLength": 104,
  "EffectiveEchoSpacing": 0.000560011,
  "FlipAngle": 52,
  "ImageComments": "Unaliased_MB4_PE3_LB",
  "ImageOrientationPatientDICOM": [0.999678, -0.00255287, -0.0252464, -0.01012, 0.872269, -0.488921],
  "ImageType": [
    "ORIGINAL",
    "PRIMARY",
    "P",
    "MB",
    "ND",
    "MOSAIC"
],
  "ImagingFrequency": 123.259,
  "InPlanePhaseEncodingDirectionDICOM": "COL",
  "InstitutionAddress": "Chemin_Queen-Mary_4565_Montreal_District_CA_H3W_1W5",
  "InstitutionName": "IUGM",
  "InstitutionalDepartmentName": "Department",
  "MRAcquisitionType": "2D",
  "MagneticFieldStrength": 3,
  "Manufacturer": "Siemens",
  "ManufacturersModelName": "Prisma_fit",
  "Modality": "MR",
  "MultibandAccelerationFactor": 4,
  "PartialFourier": 1,
  "PatientPosition": "HFS",
  "PercentPhaseFOV": 100,
  "PhaseEncodingDirection": "j",
  "PhaseEncodingSteps": 104,
  "PhaseResolution": 1,
  "PixelBandwidth": 2290,
  "ProcedureStepDescription": "memory_things",
  "ProtocolName": "func_task-things_run-6",
  "PulseSequenceDetails": "%CustomerSeq%_cmrr_mbep2d_bold",
  "ReceiveCoilActiveElements": "HC1-7;NC1,2",
  "ReceiveCoilName": "HeadNeck_64",
  "ReconMatrixPE": 104,
  "RepetitionTime": 1.49,
  "SAR": 0.0640097,
  "ScanOptions": "FS",
  "ScanningSequence": "EP",
  "SequenceName": "epfid2d1_104",
  "SequenceVariant": "SK_SS",
  "SeriesDescription": "func_task-things_run-6",
  "SeriesNumber": 26,
  "ShimSetting": [601, -7176, -8876, 259, 14, -141, 56, -64],
  "SliceThickness": 2,
  "SliceTiming": [0, 0.785, 0.0975, 0.8825, 0.1975, 0.98, 0.295, 1.0775, 0.3925, 1.1775, 0.49, 1.275, 0.5875, 1.3725, 0.6875, 0, 0.785, 0.0975, 0.8825, 0.1975, 0.98, 0.295, 1.0775, 0.3925, 1.1775, 0.49, 1.275, 0.5875, 1.3725, 0.6875, 0, 0.785, 0.0975, 0.8825, 0.1975, 0.98, 0.295, 1.0775, 0.3925, 1.1775, 0.49, 1.275, 0.5875, 1.3725, 0.6875, 0, 0.785, 0.0975, 0.8825, 0.1975, 0.98, 0.295, 1.0775, 0.3925, 1.1775, 0.49, 1.275, 0.5875, 1.3725, 0.6875],
  "SoftwareVersions": "syngo_MR_E11",
  "SpacingBetweenSlices": 2,
  "StationName": "MRC35049",
  "TaskName": "things",
  "TotalReadoutTime": 0.0576811,
  "TxRefAmp": 306.605,
  "WipMemBlock": "6924a507-ae7b-46cb-aa2a-475ece3ba8e1||Sequence: R016 ve11c/master r/e634e98; Dec 19 2017 11:00:25 by eja",
  "dcmmeta_affine": [
    [-1.9993560314178467, -0.020239923149347305, -0.046539608389139175, 109.55936431884766],
    [0.0051057408563792706, 1.7445385456085205, -0.9780383706092834, -54.11943817138672],
    [-0.0504927821457386, 0.9778422117233276, 1.7439252138137817, -102.62206268310547],
    [0.0, 0.0, 0.0, 1.0]
],
  "dcmmeta_reorient_transform": [
    [0.0, -1.0, 0.0, 103.0],
    [1.0, 0.0, 0.0, 0.0],
    [0.0, 0.0, 1.0, 0.0],
    [0.0, 0.0, 0.0, 1.0]
],
  "dcmmeta_shape": [104, 104, 60, 190],
  "dcmmeta_slice_dim": 2,
  "dcmmeta_version": 0.6,
  "global": {
    "const": {
      "AcquisitionMatrix": [104, 0, 0, 104],
      "AngioFlag": "N",
      "BitsAllocated": 16,
      "BitsStored": 16,
      "BodyPartExamined": "BRAIN",
      "Columns": 832,
      "EchoNumbers": 1,
      "EchoTime": 37.0,
      "EchoTrainLength": 104,
      "FlipAngle": 52.0,
      "HighBit": 15,
      "ImageOrientationPatient": [0.99967799945277, -0.0025528704814, -0.025246391077, -0.0101199618008, 0.87226929804561, -0.4889211163983],
      "ImagePositionPatient": [-827.87290143548, -758.72159474147, 372.40963108149],
      "ImageType": [
        "ORIGINAL",
        "PRIMARY",
        "P",
        "MB",
        "ND",
        "MOSAIC"
],
      "ImagedNucleus": "1H",
      "ImagingFrequency": 123.258946,
      "InPlanePhaseEncodingDirection": "COL",
      "LargestImagePixelValue": 4095,
      "MRAcquisitionType": "2D",
      "MagneticFieldStrength": 3.0,
      "Manufacturer": "SIEMENS",
      "ManufacturerModelName": "Prisma_fit",
      "Modality": "MR",
      "NumberOfAverages": 1.0,
      "NumberOfPhaseEncodingSteps": 104,
      "PercentPhaseFieldOfView": 100.0,
      "PercentSampling": 100.0,
      "PerformedProcedureStepStartTime": "102251.250000",
      "PhotometricInterpretation": "MONOCHROME2",
      "PixelBandwidth": 2290.0,
      "PixelRepresentation": 0,
      "PixelSpacing": [2.0, 2.0],
      "ProtocolName": "func_task-things_run-6",
      "RepetitionTime": 1490.0,
      "RescaleIntercept": -4096.0,
      "RescaleSlope": 2.0,
      "RescaleType": "US",
      "Rows": 832,
      "SAR": 0.06400966733522,
      "SamplesPerPixel": 1,
      "ScanOptions": "FS",
      "ScanningSequence": "EP",
      "SequenceName": "epfid2d1_104",
      "SequenceVariant": [
        "SK",
        "SS"
],
      "SeriesDescription": "func_task-things_run-6",
      "SeriesNumber": 26,
      "SeriesTime": "112001.295000",
      "SliceLocation": -65.566582183707,
      "SliceThickness": 2.0,
      "SmallestImagePixelValue": 0,
      "SoftwareVersions": "syngo MR E11",
      "SpacingBetweenSlices": 2.0000000388266,
      "SpecificCharacterSet": "ISO_IR 100",
      "StudyID": "1",
      "StudyTime": "102251.202000",
      "TransmitCoilName": "Body",
      "VariableFlipAngleFlag": "N",
      "WindowCenterWidthExplanation": "Algo1",
      "dBdt": 0.0},
    "slices": {}
  },
  "time": {
    "samples": {
      "AcquisitionNumber": [1, 2, 3, 4, 5, 6, 7, 8, 9, 10, 11, 12, 13, 14, 15, 16, 17, 18, 19, 20, 21, 22, 23, 24, 25, 26, 27, 28, 29, 30, 31, 32, 33, 34, 35, 36, 37, 38, 39, 40, 41, 42, 43, 44, 45, 46, 47, 48, 49, 50, 51, 52, 53, 54, 55, 56, 57, 58, 59, 60, 61, 62, 63, 64, 65, 66, 67, 68, 69, 70, 71, 72, 73, 74, 75, 76, 77, 78, 79, 80, 81, 82, 83, 84, 85, 86, 87, 88, 89, 90, 91, 92, 93, 94, 95, 96, 97, 98, 99, 100, 101, 102, 103, 104, 105, 106, 107, 108, 109, 110, 111, 112, 113, 114, 115, 116, 117, 118, 119, 120, 121, 122, 123, 124, 125, 126, 127, 128, 129, 130, 131, 132, 133, 134, 135, 136, 137, 138, 139, 140, 141, 142, 143, 144, 145, 146, 147, 148, 149, 150, 151, 152, 153, 154, 155, 156, 157, 158, 159, 160, 161, 162, 163, 164, 165, 166, 167, 168, 169, 170, 171, 172, 173, 174, 175, 176, 177, 178, 179, 180, 181, 182, 183, 184, 185, 186, 187, 188, 189, 190],
      "AcquisitionTime": ["111858.402500", "111859.892500", "111901.382500", "111902.872500", "111904.362500", "111905.852500", "111907.342500", "111908.832500", "111910.322500", "111911.812500", "111913.302500", "111914.792500", "111916.282500", "111917.772500", "111919.262500", "111920.752500", "111922.242500", "111923.732500", "111925.222500", "111926.712500", "111928.202500", "111929.692500", "111931.182500", "111932.672500", "111934.162500", "111935.652500", "111937.142500", "111938.632500", "111940.122500", "111941.612500", "111943.102500", "111944.592500", "111946.082500", "111947.572500", "111949.062500", "111950.552500", "111952.042500", "111953.532500", "111955.022500", "111956.512500", "111958.002500", "111959.492500", "112000.982500", "112002.472500", "112003.962500", "112005.452500", "112006.942500", "112008.432500", "112009.922500", "112011.412500", "112012.902500", "112014.392500", "112015.882500", "112017.372500", "112018.862500", "112020.352500", "112021.842500", "112023.332500", "112024.822500", "112026.312500", "112027.802500", "112029.292500", "112030.782500", "112032.272500", "112033.762500", "112035.252500", "112036.742500", "112038.232500", "112039.722500", "112041.212500", "112042.702500", "112044.192500", "112045.682500", "112047.172500", "112048.662500", "112050.152500", "112051.642500", "112053.132500", "112054.622500", "112056.112500", "112057.602500", "112059.092500", "112100.582500", "112102.072500", "112103.562500", "112105.052500", "112106.542500", "112108.032500", "112109.522500", "112111.012500", "112112.502500", "112113.992500", "112115.482500", "112116.972500", "112118.462500", "112119.952500", "112121.442500", "112122.932500", "112124.422500", "112125.912500", "112127.402500", "112128.892500", "112130.382500", "112131.872500", "112133.362500", "112134.852500", "112136.342500", "112137.832500", "112139.322500", "112140.812500", "112142.302500", "112143.792500", "112145.282500", "112146.772500", "112148.262500", "112149.752500", "112151.242500", "112152.732500", "112154.222500", "112155.712500", "112157.202500", "112158.692500", "112200.182500", "112201.672500", "112203.162500", "112204.652500", "112206.142500", "112207.632500", "112209.122500", "112210.612500", "112212.102500", "112213.592500", "112215.082500", "112216.572500", "112218.062500", "112219.552500", "112221.042500", "112222.532500", "112224.022500", "112225.512500", "112227.002500", "112228.492500", "112229.982500", "112231.472500", "112232.962500", "112234.452500", "112235.942500", "112237.432500", "112238.922500", "112240.412500", "112241.902500", "112243.392500", "112244.882500", "112246.372500", "112247.862500", "112249.352500", "112250.842500", "112252.332500", "112253.822500", "112255.312500", "112256.802500", "112258.292500", "112259.782500", "112301.272500", "112302.762500", "112304.252500", "112305.742500", "112307.232500", "112308.722500", "112310.212500", "112311.702500", "112313.192500", "112314.682500", "112316.172500", "112317.662500", "112319.152500", "112320.642500", "112322.132500", "112323.622500", "112325.112500", "112326.602500", "112328.092500", "112329.582500", "112331.072500", "112332.562500", "112334.052500", "112335.542500", "112337.032500", "112338.522500", "112340.012500"],
      "ContentTime": ["112001.297000", "112001.300000", "112001.302000", "112001.305000", "112001.309000", "112001.311000", "112001.314000", "112001.316000", "112001.319000", "112021.284000", "112021.287000", "112021.289000", "112021.292000", "112021.294000", "112021.297000", "112021.299000", "112021.302000", "112021.304000", "112021.307000", "112021.309000", "112021.312000", "112021.319000", "112021.322000", "112021.325000", "112021.328000", "112021.332000", "112021.335000", "112021.338000", "112021.341000", "112041.289000", "112041.291000", "112041.294000", "112041.296000", "112041.299000", "112041.301000", "112041.304000", "112041.306000", "112041.315000", "112041.318000", "112041.320000", "112041.322000", "112041.325000", "112041.328000", "112041.330000", "112041.332000", "112041.335000", "112041.338000", "112041.340000", "112041.342000", "112041.345000", "112101.306000", "112101.308000", "112101.311000", "112101.313000", "112101.316000", "112101.318000", "112101.321000", "112101.323000", "112101.326000", "112101.328000", "112101.331000", "112101.333000", "112101.336000", "112101.338000", "112101.341000", "112101.343000", "112101.346000", "112101.348000", "112101.351000", "112101.353000", "112121.269000", "112121.272000", "112121.283000", "112121.286000", "112121.288000", "112121.291000", "112121.293000", "112121.296000", "112121.298000", "112121.301000", "112121.303000", "112121.306000", "112121.308000", "112121.310000", "112121.313000", "112121.315000", "112121.318000", "112121.320000", "112121.323000", "112121.325000", "112201.336000", "112201.339000", "112201.341000", "112201.344000", "112201.346000", "112201.349000", "112201.351000", "112201.354000", "112201.356000", "112201.359000", "112201.361000", "112201.364000", "112201.366000", "112201.369000", "112201.371000", "112201.374000", "112201.376000", "112201.379000", "112201.381000", "112201.384000", "112201.386000", "112201.389000", "112201.391000", "112201.394000", "112201.396000", "112201.399000", "112201.401000", "112201.404000", "112201.406000", "112201.409000", "112201.411000", "112201.414000", "112241.304000", "112241.306000", "112241.309000", "112241.311000", "112241.314000", "112241.316000", "112241.319000", "112241.321000", "112241.324000", "112241.326000", "112241.329000", "112241.331000", "112241.334000", "112241.336000", "112241.339000", "112241.341000", "112241.344000", "112241.346000", "112241.349000", "112241.351000", "112241.354000", "112241.356000", "112241.359000", "112241.361000", "112241.364000", "112241.366000", "112321.357000", "112321.360000", "112321.363000", "112321.365000", "112321.368000", "112321.370000", "112321.373000", "112321.375000", "112321.378000", "112321.380000", "112321.383000", "112321.385000", "112321.388000", "112321.390000", "112321.393000", "112321.395000", "112321.398000", "112321.400000", "112321.403000", "112321.405000", "112321.408000", "112321.410000", "112321.413000", "112321.416000", "112321.418000", "112321.421000", "112321.423000", "112342.580000", "112342.583000", "112342.586000", "112342.592000", "112342.594000", "112342.597000", "112342.599000", "112342.602000", "112342.604000", "112342.607000", "112342.609000", "112342.612000", "112342.615000", "112342.617000", "112342.620000"],
      "InstanceCreationTime": ["112001.297000", "112001.300000", "112001.302000", "112001.305000", "112001.309000", "112001.311000", "112001.314000", "112001.316000", "112001.319000", "112021.284000", "112021.287000", "112021.289000", "112021.292000", "112021.294000", "112021.297000", "112021.299000", "112021.302000", "112021.304000", "112021.307000", "112021.309000", "112021.312000", "112021.319000", "112021.322000", "112021.325000", "112021.328000", "112021.332000", "112021.335000", "112021.338000", "112021.341000", "112041.289000", "112041.291000", "112041.294000", "112041.296000", "112041.299000", "112041.301000", "112041.304000", "112041.306000", "112041.315000", "112041.318000", "112041.320000", "112041.322000", "112041.325000", "112041.328000", "112041.330000", "112041.332000", "112041.335000", "112041.338000", "112041.340000", "112041.342000", "112041.345000", "112101.306000", "112101.308000", "112101.311000", "112101.313000", "112101.316000", "112101.318000", "112101.321000", "112101.323000", "112101.326000", "112101.328000", "112101.331000", "112101.333000", "112101.336000", "112101.338000", "112101.341000", "112101.343000", "112101.346000", "112101.348000", "112101.351000", "112101.353000", "112121.269000", "112121.272000", "112121.283000", "112121.286000", "112121.288000", "112121.291000", "112121.293000", "112121.296000", "112121.298000", "112121.301000", "112121.303000", "112121.306000", "112121.308000", "112121.310000", "112121.313000", "112121.315000", "112121.318000", "112121.320000", "112121.323000", "112121.325000", "112201.336000", "112201.339000", "112201.341000", "112201.344000", "112201.346000", "112201.349000", "112201.351000", "112201.354000", "112201.356000", "112201.359000", "112201.361000", "112201.364000", "112201.366000", "112201.369000", "112201.371000", "112201.374000", "112201.376000", "112201.379000", "112201.381000", "112201.384000", "112201.386000", "112201.389000", "112201.391000", "112201.394000", "112201.396000", "112201.399000", "112201.401000", "112201.404000", "112201.406000", "112201.409000", "112201.411000", "112201.414000", "112241.304000", "112241.306000", "112241.309000", "112241.311000", "112241.314000", "112241.316000", "112241.319000", "112241.321000", "112241.324000", "112241.326000", "112241.329000", "112241.331000", "112241.334000", "112241.336000", "112241.339000", "112241.341000", "112241.344000", "112241.346000", "112241.349000", "112241.351000", "112241.354000", "112241.356000", "112241.359000", "112241.361000", "112241.364000", "112241.366000", "112321.357000", "112321.360000", "112321.363000", "112321.365000", "112321.368000", "112321.370000", "112321.373000", "112321.375000", "112321.378000", "112321.380000", "112321.383000", "112321.385000", "112321.388000", "112321.390000", "112321.393000", "112321.395000", "112321.398000", "112321.400000", "112321.403000", "112321.405000", "112321.408000", "112321.410000", "112321.413000", "112321.416000", "112321.418000", "112321.421000", "112321.423000", "112342.580000", "112342.583000", "112342.586000", "112342.592000", "112342.594000", "112342.597000", "112342.599000", "112342.602000", "112342.604000", "112342.607000", "112342.609000", "112342.612000", "112342.615000", "112342.617000", "112342.620000"],
      "InstanceNumber": [1, 2, 3, 4, 5, 6, 7, 8, 9, 10, 11, 12, 13, 14, 15, 16, 17, 18, 19, 20, 21, 22, 23, 24, 25, 26, 27, 28, 29, 30, 31, 32, 33, 34, 35, 36, 37, 38, 39, 40, 41, 42, 43, 44, 45, 46, 47, 48, 49, 50, 51, 52, 53, 54, 55, 56, 57, 58, 59, 60, 61, 62, 63, 64, 65, 66, 67, 68, 69, 70, 71, 72, 73, 74, 75, 76, 77, 78, 79, 80, 81, 82, 83, 84, 85, 86, 87, 88, 89, 90, 91, 92, 93, 94, 95, 96, 97, 98, 99, 100, 101, 102, 103, 104, 105, 106, 107, 108, 109, 110, 111, 112, 113, 114, 115, 116, 117, 118, 119, 120, 121, 122, 123, 124, 125, 126, 127, 128, 129, 130, 131, 132, 133, 134, 135, 136, 137, 138, 139, 140, 141, 142, 143, 144, 145, 146, 147, 148, 149, 150, 151, 152, 153, 154, 155, 156, 157, 158, 159, 160, 161, 162, 163, 164, 165, 166, 167, 168, 169, 170, 171, 172, 173, 174, 175, 176, 177, 178, 179, 180, 181, 182, 183, 184, 185, 186, 187, 188, 189, 190],
      "WindowCenter": [4752.0, 4868.0, 4872.0, 4846.0, 4808.0, 4682.0, 4690.0, 4674.0, 4740.0, 4870.0, 4912.0, 4920.0, 4914.0, 4872.0, 4778.0, 4722.0, 4700.0, 4688.0, 4738.0, 4716.0, 4690.0, 4918.0, 4910.0, 4888.0, 4928.0, 4906.0, 4746.0, 4684.0, 4696.0, 4692.0, 4698.0, 4748.0, 4844.0, 4912.0, 4838.0, 4698.0, 4690.0, 4774.0, 4844.0, 4882.0, 4844.0, 4806.0, 4776.0, 4752.0, 4692.0, 4696.0, 4746.0, 4802.0, 4840.0, 4778.0, 4722.0, 4774.0, 4810.0, 4836.0, 4840.0, 4808.0, 4724.0, 4772.0, 4750.0, 4694.0, 4750.0, 4776.0, 4744.0, 4840.0, 4804.0, 4778.0, 4840.0, 4844.0, 4838.0, 4746.0, 4676.0, 4694.0, 4752.0, 4696.0, 4696.0, 4806.0, 4908.0, 4906.0, 4906.0, 4812.0, 4698.0, 4722.0, 4748.0, 4746.0, 4776.0, 4780.0, 4750.0, 4778.0, 4748.0, 4696.0, 4748.0, 4840.0, 4834.0, 4866.0, 4812.0, 4776.0, 4780.0, 4744.0, 4748.0, 4774.0, 4694.0, 4692.0, 4806.0, 4840.0, 4846.0, 4878.0, 4804.0, 4748.0, 4778.0, 4748.0, 4744.0, 4778.0, 4750.0, 4696.0, 4776.0, 4838.0, 4844.0, 4868.0, 4720.0, 4722.0, 4774.0, 4780.0, 4746.0, 4806.0, 4804.0, 4752.0, 4806.0, 4752.0, 4694.0, 4774.0, 4834.0, 4776.0, 4808.0, 4838.0, 4774.0, 4804.0, 4780.0, 4696.0, 4724.0, 4778.0, 4770.0, 4810.0, 4810.0, 4776.0, 4812.0, 4810.0, 4720.0, 4748.0, 4746.0, 4694.0, 4748.0, 4836.0, 4870.0, 4832.0, 4714.0, 4716.0, 4780.0, 4806.0, 4776.0, 4840.0, 4778.0, 4722.0, 4778.0, 4806.0, 4778.0, 4810.0, 4722.0, 4672.0, 4724.0, 4838.0, 4838.0, 4840.0, 4842.0, 4782.0, 4780.0, 4744.0, 4718.0, 4750.0, 4716.0, 4718.0, 4808.0, 4868.0, 4874.0, 4772.0, 4676.0, 4670.0, 4802.0, 4872.0, 4802.0, 4748.0],
      "WindowWidth": [18598.0, 18752.0, 18752.0, 18720.0, 18672.0, 18472.0, 18462.0, 18462.0, 18588.0, 18756.0, 18780.0, 18776.0, 18784.0, 18750.0, 18628.0, 18552.0, 18510.0, 18464.0, 18490.0, 18458.0, 18510.0, 18770.0, 18662.0, 18624.0, 18724.0, 18780.0, 18584.0, 18468.0, 18468.0, 18460.0, 18494.0, 18586.0, 18718.0, 18780.0, 18710.0, 18510.0, 18504.0, 18634.0, 18718.0, 18754.0, 18718.0, 18672.0, 18632.0, 18588.0, 18500.0, 18514.0, 18590.0, 18668.0, 18714.0, 18634.0, 18554.0, 18630.0, 18676.0, 18710.0, 18712.0, 18674.0, 18554.0, 18624.0, 18596.0, 18514.0, 18600.0, 18630.0, 18590.0, 18716.0, 18670.0, 18640.0, 18720.0, 18716.0, 18710.0, 18588.0, 18468.0, 18504.0, 18594.0, 18510.0, 18516.0, 18680.0, 18784.0, 18780.0, 18780.0, 18678.0, 18516.0, 18552.0, 18584.0, 18586.0, 18630.0, 18636.0, 18594.0, 18636.0, 18586.0, 18510.0, 18592.0, 18716.0, 18712.0, 18748.0, 18682.0, 18630.0, 18634.0, 18586.0, 18590.0, 18626.0, 18502.0, 18506.0, 18674.0, 18716.0, 18722.0, 18756.0, 18668.0, 18592.0, 18634.0, 18596.0, 18588.0, 18632.0, 18594.0, 18514.0, 18634.0, 18714.0, 18716.0, 18746.0, 18552.0, 18548.0, 18630.0, 18642.0, 18592.0, 18672.0, 18668.0, 18596.0, 18674.0, 18596.0, 18512.0, 18634.0, 18712.0, 18632.0, 18676.0, 18714.0, 18630.0, 18674.0, 18636.0, 18516.0, 18558.0, 18642.0, 18628.0, 18680.0, 18682.0, 18634.0, 18680.0, 18678.0, 18548.0, 18592.0, 18590.0, 18508.0, 18598.0, 18708.0, 18750.0, 18714.0, 18542.0, 18548.0, 18638.0, 18674.0, 18636.0, 18716.0, 18634.0, 18556.0, 18636.0, 18672.0, 18636.0, 18676.0, 18558.0, 18468.0, 18560.0, 18714.0, 18718.0, 18716.0, 18720.0, 18638.0, 18636.0, 18584.0, 18548.0, 18594.0, 18548.0, 18550.0, 18682.0, 18746.0, 18758.0, 18630.0, 18468.0, 18466.0, 18672.0, 18754.0, 18674.0, 18598.0]
    },
    "slices": {}
  }
}