{
  "AcquisitionMatrixPE": 104,
  "AcquisitionNumber": 1,
  "AcquisitionTime": "17:03:35.700000",
  "BandwidthPerPixelPhaseEncode": 17.17,
  "BaseResolution": 104,
  "BodyPartExamined": "BRAIN",
  "CoilString": "HC1-7;NC1_2",
  "ConsistencyInfo": "N4_VE11C_LATEST_20160120",
  "ConversionSoftware": "dcm2niix",
  "ConversionSoftwareVersion": "v1.0.20190902",
  "DerivedVendorReportedEchoSpacing": 0.000560011,
  "DeviceSerialNumber": "167006",
  "DwellTime": 2.1e-06,
  "EchoTime": 0.037,
  "EchoTrainLength": 104,
  "EffectiveEchoSpacing": 0.000560011,
  "FlipAngle": 52,
  "ImageComments": "Unaliased_MB4_PE3_LB",
  "ImageOrientationPatientDICOM": [0.997922, 0.036439, 0.0531316, -0.016025, 0.939157, -0.343115],
  "ImageType": [
    "ORIGINAL",
    "PRIMARY",
    "P",
    "MB",
    "ND",
    "MOSAIC"
],
  "ImagingFrequency": 123.259,
  "InPlanePhaseEncodingDirectionDICOM": "COL",
  "InstitutionAddress": "Chemin_Queen-Mary_4565_Montreal_District_CA_H3W_1W5",
  "InstitutionName": "IUGM",
  "InstitutionalDepartmentName": "Department",
  "MRAcquisitionType": "2D",
  "MagneticFieldStrength": 3,
  "Manufacturer": "Siemens",
  "ManufacturersModelName": "Prisma_fit",
  "Modality": "MR",
  "MultibandAccelerationFactor": 4,
  "PartialFourier": 1,
  "PatientPosition": "HFS",
  "PercentPhaseFOV": 100,
  "PhaseEncodingDirection": "j",
  "PhaseEncodingSteps": 104,
  "PhaseResolution": 1,
  "PixelBandwidth": 2290,
  "ProcedureStepDescription": "memory_things",
  "ProtocolName": "func_task-things_run-1",
  "PulseSequenceDetails": "%CustomerSeq%_cmrr_mbep2d_bold",
  "ReceiveCoilActiveElements": "HC1-7;NC1,2",
  "ReceiveCoilName": "HeadNeck_64",
  "ReconMatrixPE": 104,
  "RepetitionTime": 1.49,
  "SAR": 0.0507239,
  "ScanOptions": "FS",
  "ScanningSequence": "EP",
  "SequenceName": "epfid2d1_104",
  "SequenceVariant": "SK_SS",
  "SeriesDescription": "func_task-things_run-1",
  "SeriesNumber": 11,
  "ShimSetting": [645, -7192, -8806, 653, 74, 2, -49, -9],
  "SliceThickness": 2,
  "SliceTiming": [0, 0.785, 0.0975, 0.8825, 0.195, 0.98, 0.295, 1.0775, 0.3925, 1.175, 0.49, 1.2725, 0.5875, 1.3725, 0.685, 0, 0.785, 0.0975, 0.8825, 0.195, 0.98, 0.295, 1.0775, 0.3925, 1.175, 0.49, 1.2725, 0.5875, 1.3725, 0.685, 0, 0.785, 0.0975, 0.8825, 0.195, 0.98, 0.295, 1.0775, 0.3925, 1.175, 0.49, 1.2725, 0.5875, 1.3725, 0.685, 0, 0.785, 0.0975, 0.8825, 0.195, 0.98, 0.295, 1.0775, 0.3925, 1.175, 0.49, 1.2725, 0.5875, 1.3725, 0.685],
  "SoftwareVersions": "syngo_MR_E11",
  "SpacingBetweenSlices": 2,
  "StationName": "MRC35049",
  "TaskName": "things",
  "TotalReadoutTime": 0.0576811,
  "TxRefAmp": 268.645,
  "WipMemBlock": "fdf45a80-f32a-411d-a24b-014cd90b2237||Sequence: R016 ve11c/master r/e634e98; Dec 19 2017 11:00:25 by eja",
  "dcmmeta_affine": [
    [-1.9958449602127075, -0.032050084322690964, 0.124803327023983, 106.22886657714844],
    [-0.07287809252738953, 1.878313660621643, -0.6831008195877075, -55.37710952758789],
    [0.1062631756067276, 0.6862293481826782, 1.8755792379379272, -60.809566497802734],
    [0.0, 0.0, 0.0, 1.0]
],
  "dcmmeta_reorient_transform": [
    [0.0, -1.0, 0.0, 103.0],
    [1.0, 0.0, 0.0, 0.0],
    [0.0, 0.0, 1.0, 0.0],
    [0.0, 0.0, 0.0, 1.0]
],
  "dcmmeta_shape": [104, 104, 60, 190],
  "dcmmeta_slice_dim": 2,
  "dcmmeta_version": 0.6,
  "global": {
    "const": {
      "AcquisitionMatrix": [104, 0, 0, 104],
      "AngioFlag": "N",
      "BitsAllocated": 16,
      "BitsStored": 16,
      "BodyPartExamined": "BRAIN",
      "Columns": 832,
      "EchoNumbers": 1,
      "EchoTime": 37.0,
      "EchoTrainLength": 104,
      "FlipAngle": 52.0,
      "HighBit": 15,
      "ImageOrientationPatient": [0.99792245716818, 0.03643904520033, 0.0531315863146, -0.0160250427009, 0.93915680901912, -0.3431146835673],
      "ImagePositionPatient": [-817.74902726907, -848.32297467909, 220.9797526033],
      "ImageType": [
        "ORIGINAL",
        "PRIMARY",
        "P",
        "MB",
        "ND",
        "MOSAIC"
],
      "ImagedNucleus": "1H",
      "ImagingFrequency": 123.258964,
      "InPlanePhaseEncodingDirection": "COL",
      "LargestImagePixelValue": 4095,
      "MRAcquisitionType": "2D",
      "MagneticFieldStrength": 3.0,
      "Manufacturer": "SIEMENS",
      "ManufacturerModelName": "Prisma_fit",
      "Modality": "MR",
      "NumberOfAverages": 1.0,
      "NumberOfPhaseEncodingSteps": 104,
      "PercentPhaseFieldOfView": 100.0,
      "PercentSampling": 100.0,
      "PerformedProcedureStepStartTime": "162723.599000",
      "PhotometricInterpretation": "MONOCHROME2",
      "PixelBandwidth": 2290.0,
      "PixelRepresentation": 0,
      "PixelSpacing": [2.0, 2.0],
      "ProtocolName": "func_task-things_run-1",
      "RepetitionTime": 1490.0,
      "RescaleIntercept": -4096.0,
      "RescaleSlope": 2.0,
      "RescaleType": "US",
      "Rows": 832,
      "SAR": 0.0507238530437,
      "SamplesPerPixel": 1,
      "ScanOptions": "FS",
      "ScanningSequence": "EP",
      "SequenceName": "epfid2d1_104",
      "SequenceVariant": [
        "SK",
        "SS"
],
      "SeriesDescription": "func_task-things_run-1",
      "SeriesNumber": 11,
      "SeriesTime": "170505.458000",
      "SliceLocation": -31.483647310116,
      "SliceThickness": 2.0,
      "SmallestImagePixelValue": 0,
      "SoftwareVersions": "syngo MR E11",
      "SpacingBetweenSlices": 2.000000056847,
      "SpecificCharacterSet": "ISO_IR 100",
      "StudyID": "1",
      "StudyTime": "162723.537000",
      "TransmitCoilName": "Body",
      "VariableFlipAngleFlag": "N",
      "WindowCenterWidthExplanation": "Algo1",
      "dBdt": 0.0},
    "slices": {}
  },
  "time": {
    "samples": {
      "AcquisitionNumber": [1, 2, 3, 4, 5, 6, 7, 8, 9, 10, 11, 12, 13, 14, 15, 16, 17, 18, 19, 20, 21, 22, 23, 24, 25, 26, 27, 28, 29, 30, 31, 32, 33, 34, 35, 36, 37, 38, 39, 40, 41, 42, 43, 44, 45, 46, 47, 48, 49, 50, 51, 52, 53, 54, 55, 56, 57, 58, 59, 60, 61, 62, 63, 64, 65, 66, 67, 68, 69, 70, 71, 72, 73, 74, 75, 76, 77, 78, 79, 80, 81, 82, 83, 84, 85, 86, 87, 88, 89, 90, 91, 92, 93, 94, 95, 96, 97, 98, 99, 100, 101, 102, 103, 104, 105, 106, 107, 108, 109, 110, 111, 112, 113, 114, 115, 116, 117, 118, 119, 120, 121, 122, 123, 124, 125, 126, 127, 128, 129, 130, 131, 132, 133, 134, 135, 136, 137, 138, 139, 140, 141, 142, 143, 144, 145, 146, 147, 148, 149, 150, 151, 152, 153, 154, 155, 156, 157, 158, 159, 160, 161, 162, 163, 164, 165, 166, 167, 168, 169, 170, 171, 172, 173, 174, 175, 176, 177, 178, 179, 180, 181, 182, 183, 184, 185, 186, 187, 188, 189, 190],
      "AcquisitionTime": ["170335.700000", "170337.190000", "170338.680000", "170340.170000", "170341.660000", "170343.150000", "170344.640000", "170346.130000", "170347.620000", "170349.110000", "170350.600000", "170352.090000", "170353.580000", "170355.070000", "170356.560000", "170358.050000", "170359.540000", "170401.030000", "170402.520000", "170404.010000", "170405.500000", "170406.990000", "170408.480000", "170409.970000", "170411.460000", "170412.950000", "170414.440000", "170415.930000", "170417.420000", "170418.910000", "170420.400000", "170421.890000", "170423.380000", "170424.870000", "170426.360000", "170427.850000", "170429.340000", "170430.830000", "170432.320000", "170433.810000", "170435.300000", "170436.790000", "170438.280000", "170439.770000", "170441.260000", "170442.750000", "170444.240000", "170445.730000", "170447.220000", "170448.710000", "170450.200000", "170451.690000", "170453.180000", "170454.670000", "170456.160000", "170457.650000", "170459.140000", "170500.630000", "170502.120000", "170503.610000", "170505.100000", "170506.590000", "170508.080000", "170509.570000", "170511.060000", "170512.550000", "170514.040000", "170515.530000", "170517.020000", "170518.510000", "170520.000000", "170521.490000", "170522.980000", "170524.470000", "170525.960000", "170527.450000", "170528.940000", "170530.430000", "170531.920000", "170533.410000", "170534.900000", "170536.390000", "170537.880000", "170539.370000", "170540.860000", "170542.350000", "170543.840000", "170545.330000", "170546.820000", "170548.310000", "170549.800000", "170551.290000", "170552.780000", "170554.270000", "170555.760000", "170557.250000", "170558.740000", "170600.230000", "170601.720000", "170603.210000", "170604.700000", "170606.190000", "170607.680000", "170609.170000", "170610.660000", "170612.150000", "170613.640000", "170615.130000", "170616.620000", "170618.110000", "170619.600000", "170621.090000", "170622.580000", "170624.070000", "170625.560000", "170627.050000", "170628.540000", "170630.030000", "170631.520000", "170633.010000", "170634.500000", "170635.990000", "170637.480000", "170638.970000", "170640.460000", "170641.950000", "170643.440000", "170644.930000", "170646.420000", "170647.910000", "170649.400000", "170650.890000", "170652.380000", "170653.870000", "170655.360000", "170656.850000", "170658.340000", "170659.830000", "170701.320000", "170702.810000", "170704.300000", "170705.790000", "170707.280000", "170708.770000", "170710.260000", "170711.750000", "170713.240000", "170714.730000", "170716.220000", "170717.710000", "170719.200000", "170720.690000", "170722.180000", "170723.670000", "170725.160000", "170726.650000", "170728.140000", "170729.630000", "170731.120000", "170732.610000", "170734.100000", "170735.590000", "170737.080000", "170738.570000", "170740.060000", "170741.550000", "170743.040000", "170744.530000", "170746.020000", "170747.510000", "170749.000000", "170750.490000", "170751.980000", "170753.470000", "170754.960000", "170756.450000", "170757.940000", "170759.430000", "170800.920000", "170802.410000", "170803.900000", "170805.390000", "170806.880000", "170808.370000", "170809.860000", "170811.350000", "170812.840000", "170814.330000", "170815.820000", "170817.310000"],
      "ContentTime": ["170505.460000", "170505.463000", "170505.465000", "170505.468000", "170505.470000", "170505.479000", "170505.482000", "170505.484000", "170505.486000", "170505.489000", "170505.491000", "170505.494000", "170505.496000", "170505.499000", "170505.501000", "170505.504000", "170505.506000", "170505.509000", "170505.511000", "170505.513000", "170505.516000", "170505.518000", "170505.521000", "170505.523000", "170505.526000", "170505.528000", "170505.531000", "170505.533000", "170505.536000", "170505.538000", "170505.541000", "170505.543000", "170505.545000", "170525.366000", "170525.368000", "170525.371000", "170525.373000", "170525.376000", "170525.378000", "170525.381000", "170525.383000", "170525.386000", "170525.388000", "170525.391000", "170525.393000", "170525.396000", "170525.398000", "170525.400000", "170525.403000", "170525.405000", "170525.408000", "170525.410000", "170525.413000", "170525.415000", "170545.353000", "170545.356000", "170545.359000", "170545.361000", "170545.363000", "170545.366000", "170545.368000", "170545.371000", "170545.373000", "170545.376000", "170545.379000", "170545.381000", "170545.383000", "170545.386000", "170545.388000", "170545.391000", "170545.393000", "170545.396000", "170545.398000", "170545.400000", "170605.364000", "170605.366000", "170605.369000", "170605.371000", "170605.374000", "170605.376000", "170605.379000", "170605.381000", "170605.383000", "170605.386000", "170605.388000", "170605.391000", "170605.393000", "170605.396000", "170605.398000", "170605.401000", "170605.403000", "170605.406000", "170605.408000", "170605.411000", "170645.418000", "170645.420000", "170645.423000", "170645.425000", "170645.428000", "170645.430000", "170645.433000", "170645.435000", "170645.438000", "170645.440000", "170645.442000", "170645.445000", "170645.447000", "170645.450000", "170645.452000", "170645.455000", "170645.457000", "170645.460000", "170645.462000", "170645.464000", "170645.467000", "170645.469000", "170645.472000", "170645.474000", "170645.477000", "170645.479000", "170645.482000", "170645.484000", "170645.487000", "170645.489000", "170645.492000", "170645.494000", "170645.497000", "170725.396000", "170725.399000", "170725.401000", "170725.404000", "170725.406000", "170725.409000", "170725.411000", "170725.414000", "170725.416000", "170725.419000", "170725.421000", "170725.424000", "170725.426000", "170725.429000", "170725.431000", "170725.434000", "170725.436000", "170725.438000", "170725.441000", "170725.443000", "170725.446000", "170725.448000", "170725.451000", "170725.453000", "170725.456000", "170725.458000", "170805.392000", "170805.395000", "170805.397000", "170805.399000", "170805.402000", "170805.404000", "170805.407000", "170805.409000", "170805.412000", "170805.414000", "170805.417000", "170805.419000", "170805.422000", "170805.432000", "170805.435000", "170805.437000", "170805.440000", "170805.442000", "170805.444000", "170805.447000", "170805.449000", "170805.452000", "170805.454000", "170805.457000", "170805.459000", "170805.462000", "170805.464000", "170819.196000", "170819.198000", "170819.201000", "170819.203000", "170819.206000", "170819.208000", "170819.211000", "170819.213000", "170819.216000", "170819.218000"],
      "InstanceCreationTime": ["170505.460000", "170505.463000", "170505.465000", "170505.468000", "170505.470000", "170505.479000", "170505.482000", "170505.484000", "170505.486000", "170505.489000", "170505.491000", "170505.494000", "170505.496000", "170505.499000", "170505.501000", "170505.504000", "170505.506000", "170505.509000", "170505.511000", "170505.513000", "170505.516000", "170505.518000", "170505.521000", "170505.523000", "170505.526000", "170505.528000", "170505.531000", "170505.533000", "170505.536000", "170505.538000", "170505.541000", "170505.543000", "170505.545000", "170525.366000", "170525.368000", "170525.371000", "170525.373000", "170525.376000", "170525.378000", "170525.381000", "170525.383000", "170525.386000", "170525.388000", "170525.391000", "170525.393000", "170525.396000", "170525.398000", "170525.400000", "170525.403000", "170525.405000", "170525.408000", "170525.410000", "170525.413000", "170525.415000", "170545.353000", "170545.356000", "170545.359000", "170545.361000", "170545.363000", "170545.366000", "170545.368000", "170545.371000", "170545.373000", "170545.376000", "170545.379000", "170545.381000", "170545.383000", "170545.386000", "170545.388000", "170545.391000", "170545.393000", "170545.396000", "170545.398000", "170545.400000", "170605.364000", "170605.366000", "170605.369000", "170605.371000", "170605.374000", "170605.376000", "170605.379000", "170605.381000", "170605.383000", "170605.386000", "170605.388000", "170605.391000", "170605.393000", "170605.396000", "170605.398000", "170605.401000", "170605.403000", "170605.406000", "170605.408000", "170605.411000", "170645.418000", "170645.420000", "170645.423000", "170645.425000", "170645.428000", "170645.430000", "170645.433000", "170645.435000", "170645.438000", "170645.440000", "170645.442000", "170645.445000", "170645.447000", "170645.450000", "170645.452000", "170645.455000", "170645.457000", "170645.460000", "170645.462000", "170645.464000", "170645.467000", "170645.469000", "170645.472000", "170645.474000", "170645.477000", "170645.479000", "170645.482000", "170645.484000", "170645.487000", "170645.489000", "170645.492000", "170645.494000", "170645.497000", "170725.396000", "170725.399000", "170725.401000", "170725.404000", "170725.406000", "170725.409000", "170725.411000", "170725.414000", "170725.416000", "170725.419000", "170725.421000", "170725.424000", "170725.426000", "170725.429000", "170725.431000", "170725.434000", "170725.436000", "170725.438000", "170725.441000", "170725.443000", "170725.446000", "170725.448000", "170725.451000", "170725.453000", "170725.456000", "170725.458000", "170805.392000", "170805.395000", "170805.397000", "170805.399000", "170805.402000", "170805.404000", "170805.407000", "170805.409000", "170805.412000", "170805.414000", "170805.417000", "170805.419000", "170805.422000", "170805.432000", "170805.435000", "170805.437000", "170805.440000", "170805.442000", "170805.444000", "170805.447000", "170805.449000", "170805.452000", "170805.454000", "170805.457000", "170805.459000", "170805.462000", "170805.464000", "170819.196000", "170819.198000", "170819.201000", "170819.203000", "170819.206000", "170819.208000", "170819.211000", "170819.213000", "170819.216000", "170819.218000"],
      "InstanceNumber": [1, 2, 3, 4, 5, 6, 7, 8, 9, 10, 11, 12, 13, 14, 15, 16, 17, 18, 19, 20, 21, 22, 23, 24, 25, 26, 27, 28, 29, 30, 31, 32, 33, 34, 35, 36, 37, 38, 39, 40, 41, 42, 43, 44, 45, 46, 47, 48, 49, 50, 51, 52, 53, 54, 55, 56, 57, 58, 59, 60, 61, 62, 63, 64, 65, 66, 67, 68, 69, 70, 71, 72, 73, 74, 75, 76, 77, 78, 79, 80, 81, 82, 83, 84, 85, 86, 87, 88, 89, 90, 91, 92, 93, 94, 95, 96, 97, 98, 99, 100, 101, 102, 103, 104, 105, 106, 107, 108, 109, 110, 111, 112, 113, 114, 115, 116, 117, 118, 119, 120, 121, 122, 123, 124, 125, 126, 127, 128, 129, 130, 131, 132, 133, 134, 135, 136, 137, 138, 139, 140, 141, 142, 143, 144, 145, 146, 147, 148, 149, 150, 151, 152, 153, 154, 155, 156, 157, 158, 159, 160, 161, 162, 163, 164, 165, 166, 167, 168, 169, 170, 171, 172, 173, 174, 175, 176, 177, 178, 179, 180, 181, 182, 183, 184, 185, 186, 187, 188, 189, 190],
      "WindowCenter": [4794.0, 4794.0, 4788.0, 4792.0, 4798.0, 4822.0, 4800.0, 4800.0, 4822.0, 4800.0, 4792.0, 4790.0, 4794.0, 4796.0, 4798.0, 4798.0, 4800.0, 4822.0, 4796.0, 4796.0, 4824.0, 4802.0, 4792.0, 4792.0, 4788.0, 4822.0, 4798.0, 4796.0, 4798.0, 4822.0, 4798.0, 4798.0, 4798.0, 4790.0, 4794.0, 4796.0, 4794.0, 4796.0, 4800.0, 4798.0, 4800.0, 4800.0, 4798.0, 4794.0, 4798.0, 4800.0, 4798.0, 4802.0, 4824.0, 4796.0, 4798.0, 4796.0, 4796.0, 4796.0, 4822.0, 4796.0, 4796.0, 4824.0, 4800.0, 4800.0, 4822.0, 4822.0, 4798.0, 4796.0, 4800.0, 4800.0, 4798.0, 4824.0, 4802.0, 4798.0, 4824.0, 4800.0, 4800.0, 4822.0, 4798.0, 4796.0, 4800.0, 4800.0, 4820.0, 4826.0, 4800.0, 4798.0, 4822.0, 4824.0, 4798.0, 4822.0, 4822.0, 4798.0, 4824.0, 4798.0, 4796.0, 4822.0, 4822.0, 4796.0, 4796.0, 4794.0, 4826.0, 4824.0, 4798.0, 4802.0, 4824.0, 4800.0, 4798.0, 4798.0, 4798.0, 4828.0, 4830.0, 4822.0, 4796.0, 4796.0, 4798.0, 4798.0, 4798.0, 4800.0, 4802.0, 4826.0, 4824.0, 4800.0, 4826.0, 4822.0, 4800.0, 4822.0, 4826.0, 4800.0, 4794.0, 4826.0, 4824.0, 4822.0, 4824.0, 4800.0, 4824.0, 4824.0, 4802.0, 4824.0, 4800.0, 4800.0, 4826.0, 4800.0, 4826.0, 4826.0, 4824.0, 4824.0, 4824.0, 4824.0, 4826.0, 4798.0, 4826.0, 4824.0, 4824.0, 4824.0, 4800.0, 4824.0, 4800.0, 4800.0, 4824.0, 4802.0, 4828.0, 4824.0, 4802.0, 4824.0, 4800.0, 4822.0, 4828.0, 4824.0, 4804.0, 4798.0, 4824.0, 4830.0, 4802.0, 4798.0, 4796.0, 4800.0, 4800.0, 4802.0, 4826.0, 4802.0, 4802.0, 4804.0, 4800.0, 4828.0, 4802.0, 4822.0, 4828.0, 4800.0, 4824.0, 4826.0, 4824.0, 4828.0, 4822.0, 4826.0],
      "WindowWidth": [18558.0, 18558.0, 18552.0, 18556.0, 18556.0, 18588.0, 18562.0, 18560.0, 18590.0, 18564.0, 18558.0, 18552.0, 18560.0, 18560.0, 18560.0, 18560.0, 18558.0, 18584.0, 18558.0, 18556.0, 18590.0, 18562.0, 18552.0, 18560.0, 18556.0, 18594.0, 18564.0, 18554.0, 18556.0, 18592.0, 18554.0, 18558.0, 18556.0, 18554.0, 18558.0, 18554.0, 18552.0, 18556.0, 18556.0, 18558.0, 18554.0, 18558.0, 18558.0, 18560.0, 18558.0, 18560.0, 18560.0, 18560.0, 18588.0, 18556.0, 18554.0, 18556.0, 18556.0, 18556.0, 18590.0, 18558.0, 18554.0, 18592.0, 18556.0, 18558.0, 18586.0, 18588.0, 18558.0, 18558.0, 18558.0, 18554.0, 18558.0, 18586.0, 18556.0, 18556.0, 18586.0, 18558.0, 18560.0, 18590.0, 18560.0, 18560.0, 18560.0, 18558.0, 18588.0, 18586.0, 18560.0, 18556.0, 18584.0, 18586.0, 18554.0, 18590.0, 18590.0, 18556.0, 18590.0, 18556.0, 18554.0, 18588.0, 18590.0, 18556.0, 18556.0, 18552.0, 18588.0, 18588.0, 18560.0, 18560.0, 18586.0, 18560.0, 18558.0, 18556.0, 18558.0, 18590.0, 18592.0, 18588.0, 18560.0, 18554.0, 18558.0, 18554.0, 18558.0, 18560.0, 18558.0, 18594.0, 18586.0, 18552.0, 18590.0, 18592.0, 18560.0, 18588.0, 18586.0, 18558.0, 18556.0, 18590.0, 18590.0, 18592.0, 18584.0, 18560.0, 18588.0, 18590.0, 18562.0, 18588.0, 18554.0, 18558.0, 18592.0, 18564.0, 18592.0, 18590.0, 18588.0, 18586.0, 18586.0, 18590.0, 18588.0, 18554.0, 18590.0, 18590.0, 18586.0, 18588.0, 18558.0, 18592.0, 18560.0, 18556.0, 18592.0, 18556.0, 18586.0, 18590.0, 18560.0, 18588.0, 18554.0, 18586.0, 18588.0, 18590.0, 18558.0, 18552.0, 18588.0, 18584.0, 18558.0, 18554.0, 18556.0, 18560.0, 18552.0, 18558.0, 18586.0, 18556.0, 18552.0, 18558.0, 18556.0, 18588.0, 18560.0, 18588.0, 18588.0, 18558.0, 18588.0, 18586.0, 18586.0, 18588.0, 18584.0, 18586.0]
    },
    "slices": {}
  }
}