{
  "AcquisitionMatrixPE": 104,
  "AcquisitionNumber": 1,
  "AcquisitionTime": "17:22:19.030000",
  "BandwidthPerPixelPhaseEncode": 17.17,
  "BaseResolution": 104,
  "BodyPartExamined": "BRAIN",
  "CoilString": "HC1-7;NC1_2",
  "ConsistencyInfo": "N4_VE11C_LATEST_20160120",
  "ConversionSoftware": "dcm2niix",
  "ConversionSoftwareVersion": "v1.0.20190902",
  "DerivedVendorReportedEchoSpacing": 0.000560011,
  "DeviceSerialNumber": "167006",
  "DwellTime": 2.1e-06,
  "EchoTime": 0.037,
  "EchoTrainLength": 104,
  "EffectiveEchoSpacing": 0.000560011,
  "FlipAngle": 52,
  "ImageComments": "Unaliased_MB4_PE3_LB",
  "ImageOrientationPatientDICOM": [0.997922, 0.036439, 0.0531316, -0.016025, 0.939157, -0.343115],
  "ImageType": [
    "ORIGINAL",
    "PRIMARY",
    "M",
    "MB",
    "ND",
    "MOSAIC"
],
  "ImagingFrequency": 123.259,
  "InPlanePhaseEncodingDirectionDICOM": "COL",
  "InstitutionAddress": "Chemin_Queen-Mary_4565_Montreal_District_CA_H3W_1W5",
  "InstitutionName": "IUGM",
  "InstitutionalDepartmentName": "Department",
  "MRAcquisitionType": "2D",
  "MagneticFieldStrength": 3,
  "Manufacturer": "Siemens",
  "ManufacturersModelName": "Prisma_fit",
  "Modality": "MR",
  "MultibandAccelerationFactor": 4,
  "PartialFourier": 1,
  "PatientPosition": "HFS",
  "PercentPhaseFOV": 100,
  "PhaseEncodingDirection": "j",
  "PhaseEncodingSteps": 104,
  "PhaseResolution": 1,
  "PixelBandwidth": 2290,
  "ProcedureStepDescription": "memory_things",
  "ProtocolName": "func_task-things_run-4",
  "PulseSequenceDetails": "%CustomerSeq%_cmrr_mbep2d_bold",
  "ReceiveCoilActiveElements": "HC1-7;NC1,2",
  "ReceiveCoilName": "HeadNeck_64",
  "ReconMatrixPE": 104,
  "RepetitionTime": 1.49,
  "SAR": 0.0507239,
  "ScanOptions": "FS",
  "ScanningSequence": "EP",
  "SequenceName": "epfid2d1_104",
  "SequenceVariant": "SK_SS",
  "SeriesDescription": "func_task-things_run-4",
  "SeriesNumber": 19,
  "ShimSetting": [645, -7192, -8806, 653, 74, 2, -49, -9],
  "SliceThickness": 2,
  "SliceTiming": [0, 0.7825, 0.0975, 0.8825, 0.195, 0.98, 0.2925, 1.0775, 0.3925, 1.175, 0.49, 1.2725, 0.5875, 1.3725, 0.685, 0, 0.7825, 0.0975, 0.8825, 0.195, 0.98, 0.2925, 1.0775, 0.3925, 1.175, 0.49, 1.2725, 0.5875, 1.3725, 0.685, 0, 0.7825, 0.0975, 0.8825, 0.195, 0.98, 0.2925, 1.0775, 0.3925, 1.175, 0.49, 1.2725, 0.5875, 1.3725, 0.685, 0, 0.7825, 0.0975, 0.8825, 0.195, 0.98, 0.2925, 1.0775, 0.3925, 1.175, 0.49, 1.2725, 0.5875, 1.3725, 0.685],
  "SoftwareVersions": "syngo_MR_E11",
  "SpacingBetweenSlices": 2,
  "StationName": "MRC35049",
  "TaskName": "things",
  "TotalReadoutTime": 0.0576811,
  "TxRefAmp": 268.645,
  "WipMemBlock": "bc1eba0e-ab2c-4758-802e-a0e717b6dc60||Sequence: R016 ve11c/master r/e634e98; Dec 19 2017 11:00:25 by eja",
  "dcmmeta_affine": [
    [-1.9958449602127075, -0.032050084322690964, 0.124803327023983, 106.22886657714844],
    [-0.07287809252738953, 1.878313660621643, -0.6831008195877075, -55.37710952758789],
    [0.1062631756067276, 0.6862293481826782, 1.8755792379379272, -60.809566497802734],
    [0.0, 0.0, 0.0, 1.0]
],
  "dcmmeta_reorient_transform": [
    [0.0, -1.0, 0.0, 103.0],
    [1.0, 0.0, 0.0, 0.0],
    [0.0, 0.0, 1.0, 0.0],
    [0.0, 0.0, 0.0, 1.0]
],
  "dcmmeta_shape": [104, 104, 60, 190],
  "dcmmeta_slice_dim": 2,
  "dcmmeta_version": 0.6,
  "global": {
    "const": {
      "AcquisitionMatrix": [104, 0, 0, 104],
      "AngioFlag": "N",
      "BitsAllocated": 16,
      "BitsStored": 16,
      "BodyPartExamined": "BRAIN",
      "Columns": 832,
      "EchoNumbers": 1,
      "EchoTime": 37.0,
      "EchoTrainLength": 104,
      "FlipAngle": 52.0,
      "HighBit": 15,
      "ImageOrientationPatient": [0.99792245716818, 0.03643904520033, 0.0531315863146, -0.0160250427009, 0.93915680901912, -0.3431146835673],
      "ImagePositionPatient": [-817.74902726907, -848.32297467909, 220.9797526033],
      "ImageType": [
        "ORIGINAL",
        "PRIMARY",
        "M",
        "MB",
        "ND",
        "MOSAIC"
],
      "ImagedNucleus": "1H",
      "ImagingFrequency": 123.258974,
      "InPlanePhaseEncodingDirection": "COL",
      "MRAcquisitionType": "2D",
      "MagneticFieldStrength": 3.0,
      "Manufacturer": "SIEMENS",
      "ManufacturerModelName": "Prisma_fit",
      "Modality": "MR",
      "NumberOfAverages": 1.0,
      "NumberOfPhaseEncodingSteps": 104,
      "PercentPhaseFieldOfView": 100.0,
      "PercentSampling": 100.0,
      "PerformedProcedureStepStartTime": "162723.599000",
      "PhotometricInterpretation": "MONOCHROME2",
      "PixelBandwidth": 2290.0,
      "PixelRepresentation": 0,
      "PixelSpacing": [2.0, 2.0],
      "ProtocolName": "func_task-things_run-4",
      "RepetitionTime": 1490.0,
      "Rows": 832,
      "SAR": 0.0507238530437,
      "SamplesPerPixel": 1,
      "ScanOptions": "FS",
      "ScanningSequence": "EP",
      "SequenceName": "epfid2d1_104",
      "SequenceVariant": [
        "SK",
        "SS"
],
      "SeriesDescription": "func_task-things_run-4",
      "SeriesNumber": 19,
      "SeriesTime": "172345.281000",
      "SliceLocation": -31.483647310116,
      "SliceThickness": 2.0,
      "SmallestImagePixelValue": 0,
      "SoftwareVersions": "syngo MR E11",
      "SpacingBetweenSlices": 2.000000056847,
      "SpecificCharacterSet": "ISO_IR 100",
      "StudyID": "1",
      "StudyTime": "162723.537000",
      "TransmitCoilName": "Body",
      "VariableFlipAngleFlag": "N",
      "WindowCenterWidthExplanation": "Algo1",
      "dBdt": 0.0},
    "slices": {}
  },
  "time": {
    "samples": {
      "AcquisitionNumber": [1, 2, 3, 4, 5, 6, 7, 8, 9, 10, 11, 12, 13, 14, 15, 16, 17, 18, 19, 20, 21, 22, 23, 24, 25, 26, 27, 28, 29, 30, 31, 32, 33, 34, 35, 36, 37, 38, 39, 40, 41, 42, 43, 44, 45, 46, 47, 48, 49, 50, 51, 52, 53, 54, 55, 56, 57, 58, 59, 60, 61, 62, 63, 64, 65, 66, 67, 68, 69, 70, 71, 72, 73, 74, 75, 76, 77, 78, 79, 80, 81, 82, 83, 84, 85, 86, 87, 88, 89, 90, 91, 92, 93, 94, 95, 96, 97, 98, 99, 100, 101, 102, 103, 104, 105, 106, 107, 108, 109, 110, 111, 112, 113, 114, 115, 116, 117, 118, 119, 120, 121, 122, 123, 124, 125, 126, 127, 128, 129, 130, 131, 132, 133, 134, 135, 136, 137, 138, 139, 140, 141, 142, 143, 144, 145, 146, 147, 148, 149, 150, 151, 152, 153, 154, 155, 156, 157, 158, 159, 160, 161, 162, 163, 164, 165, 166, 167, 168, 169, 170, 171, 172, 173, 174, 175, 176, 177, 178, 179, 180, 181, 182, 183, 184, 185, 186, 187, 188, 189, 190],
      "AcquisitionTime": ["172219.030000", "172220.520000", "172222.010000", "172223.500000", "172224.990000", "172226.480000", "172227.970000", "172229.460000", "172230.950000", "172232.440000", "172233.930000", "172235.420000", "172236.910000", "172238.400000", "172239.890000", "172241.380000", "172242.870000", "172244.360000", "172245.850000", "172247.340000", "172248.830000", "172250.320000", "172251.810000", "172253.300000", "172254.790000", "172256.280000", "172257.770000", "172259.260000", "172300.750000", "172302.240000", "172303.730000", "172305.220000", "172306.710000", "172308.200000", "172309.690000", "172311.180000", "172312.670000", "172314.160000", "172315.650000", "172317.140000", "172318.630000", "172320.120000", "172321.610000", "172323.100000", "172324.590000", "172326.080000", "172327.570000", "172329.060000", "172330.550000", "172332.040000", "172333.530000", "172335.020000", "172336.510000", "172338.000000", "172339.490000", "172340.980000", "172342.470000", "172343.960000", "172345.450000", "172346.940000", "172348.430000", "172349.920000", "172351.410000", "172352.900000", "172354.390000", "172355.880000", "172357.370000", "172358.860000", "172400.350000", "172401.840000", "172403.330000", "172404.820000", "172406.310000", "172407.800000", "172409.290000", "172410.780000", "172412.270000", "172413.760000", "172415.250000", "172416.740000", "172418.230000", "172419.720000", "172421.210000", "172422.700000", "172424.190000", "172425.680000", "172427.170000", "172428.660000", "172430.150000", "172431.640000", "172433.130000", "172434.620000", "172436.110000", "172437.600000", "172439.090000", "172440.580000", "172442.070000", "172443.560000", "172445.050000", "172446.540000", "172448.030000", "172449.520000", "172451.010000", "172452.500000", "172453.990000", "172455.480000", "172456.970000", "172458.460000", "172459.950000", "172501.440000", "172502.930000", "172504.420000", "172505.910000", "172507.400000", "172508.890000", "172510.380000", "172511.870000", "172513.360000", "172514.850000", "172516.340000", "172517.830000", "172519.320000", "172520.810000", "172522.300000", "172523.790000", "172525.280000", "172526.770000", "172528.260000", "172529.750000", "172531.240000", "172532.730000", "172534.220000", "172535.710000", "172537.200000", "172538.690000", "172540.180000", "172541.670000", "172543.160000", "172544.650000", "172546.140000", "172547.630000", "172549.120000", "172550.610000", "172552.100000", "172553.590000", "172555.080000", "172556.570000", "172558.060000", "172559.550000", "172601.040000", "172602.530000", "172604.020000", "172605.510000", "172607.000000", "172608.490000", "172609.980000", "172611.470000", "172612.960000", "172614.450000", "172615.940000", "172617.430000", "172618.920000", "172620.410000", "172621.900000", "172623.390000", "172624.880000", "172626.370000", "172627.860000", "172629.350000", "172630.840000", "172632.330000", "172633.820000", "172635.310000", "172636.800000", "172638.290000", "172639.780000", "172641.270000", "172642.760000", "172644.250000", "172645.740000", "172647.230000", "172648.720000", "172650.210000", "172651.700000", "172653.190000", "172654.680000", "172656.170000", "172657.660000", "172659.150000", "172700.640000"],
      "ContentTime": ["172345.285000", "172345.289000", "172345.293000", "172345.298000", "172345.310000", "172345.314000", "172345.328000", "172345.331000", "172345.334000", "172345.337000", "172345.362000", "172345.365000", "172345.368000", "172345.372000", "172345.375000", "172345.379000", "172345.382000", "172345.385000", "172345.388000", "172345.392000", "172345.395000", "172345.398000", "172345.401000", "172345.405000", "172345.408000", "172345.411000", "172345.414000", "172345.418000", "172345.421000", "172345.424000", "172345.428000", "172345.431000", "172405.255000", "172405.259000", "172405.262000", "172405.265000", "172405.268000", "172405.271000", "172405.275000", "172405.278000", "172405.281000", "172405.284000", "172405.288000", "172405.291000", "172405.294000", "172405.298000", "172405.301000", "172405.305000", "172405.308000", "172405.311000", "172405.314000", "172405.318000", "172405.321000", "172425.254000", "172425.258000", "172425.261000", "172425.264000", "172425.268000", "172425.271000", "172425.274000", "172425.277000", "172425.281000", "172425.284000", "172425.287000", "172425.290000", "172425.294000", "172425.297000", "172425.300000", "172425.303000", "172425.306000", "172425.310000", "172425.313000", "172425.316000", "172445.254000", "172445.258000", "172445.261000", "172445.264000", "172445.267000", "172445.270000", "172445.274000", "172445.277000", "172445.280000", "172445.283000", "172445.287000", "172445.290000", "172445.293000", "172445.297000", "172445.300000", "172445.303000", "172445.306000", "172445.310000", "172445.313000", "172445.316000", "172525.255000", "172525.259000", "172525.262000", "172525.265000", "172525.268000", "172525.272000", "172525.275000", "172525.278000", "172525.281000", "172525.285000", "172525.288000", "172525.291000", "172525.294000", "172525.298000", "172525.301000", "172525.304000", "172525.308000", "172525.311000", "172525.314000", "172525.317000", "172525.321000", "172525.324000", "172525.327000", "172525.331000", "172525.334000", "172525.337000", "172525.340000", "172525.344000", "172525.347000", "172525.350000", "172525.353000", "172605.255000", "172605.259000", "172605.262000", "172605.265000", "172605.269000", "172605.272000", "172605.275000", "172605.278000", "172605.281000", "172605.285000", "172605.288000", "172605.291000", "172605.294000", "172605.298000", "172605.301000", "172605.304000", "172605.307000", "172605.311000", "172605.314000", "172605.317000", "172605.320000", "172605.324000", "172605.327000", "172605.330000", "172605.334000", "172605.337000", "172605.340000", "172645.254000", "172645.258000", "172645.261000", "172645.264000", "172645.267000", "172645.271000", "172645.274000", "172645.277000", "172645.281000", "172645.284000", "172645.287000", "172645.290000", "172645.294000", "172645.297000", "172645.300000", "172645.304000", "172645.307000", "172645.310000", "172645.314000", "172645.317000", "172645.321000", "172645.325000", "172645.329000", "172645.332000", "172645.336000", "172645.339000", "172703.273000", "172703.276000", "172703.280000", "172703.283000", "172703.286000", "172703.289000", "172703.293000", "172703.296000", "172703.299000", "172703.302000", "172703.306000", "172703.309000", "172703.312000"],
      "InstanceCreationTime": ["172345.285000", "172345.289000", "172345.293000", "172345.298000", "172345.310000", "172345.314000", "172345.328000", "172345.331000", "172345.334000", "172345.337000", "172345.362000", "172345.365000", "172345.368000", "172345.372000", "172345.375000", "172345.379000", "172345.382000", "172345.385000", "172345.388000", "172345.392000", "172345.395000", "172345.398000", "172345.401000", "172345.405000", "172345.408000", "172345.411000", "172345.414000", "172345.418000", "172345.421000", "172345.424000", "172345.428000", "172345.431000", "172405.255000", "172405.259000", "172405.262000", "172405.265000", "172405.268000", "172405.271000", "172405.275000", "172405.278000", "172405.281000", "172405.284000", "172405.288000", "172405.291000", "172405.294000", "172405.298000", "172405.301000", "172405.305000", "172405.308000", "172405.311000", "172405.314000", "172405.318000", "172405.321000", "172425.254000", "172425.258000", "172425.261000", "172425.264000", "172425.268000", "172425.271000", "172425.274000", "172425.277000", "172425.281000", "172425.284000", "172425.287000", "172425.290000", "172425.294000", "172425.297000", "172425.300000", "172425.303000", "172425.306000", "172425.310000", "172425.313000", "172425.316000", "172445.254000", "172445.258000", "172445.261000", "172445.264000", "172445.267000", "172445.270000", "172445.274000", "172445.277000", "172445.280000", "172445.283000", "172445.287000", "172445.290000", "172445.293000", "172445.297000", "172445.300000", "172445.303000", "172445.306000", "172445.310000", "172445.313000", "172445.316000", "172525.255000", "172525.259000", "172525.262000", "172525.265000", "172525.268000", "172525.272000", "172525.275000", "172525.278000", "172525.281000", "172525.285000", "172525.288000", "172525.291000", "172525.294000", "172525.298000", "172525.301000", "172525.304000", "172525.308000", "172525.311000", "172525.314000", "172525.317000", "172525.321000", "172525.324000", "172525.327000", "172525.331000", "172525.334000", "172525.337000", "172525.340000", "172525.344000", "172525.347000", "172525.350000", "172525.353000", "172605.255000", "172605.259000", "172605.262000", "172605.265000", "172605.269000", "172605.272000", "172605.275000", "172605.278000", "172605.281000", "172605.285000", "172605.288000", "172605.291000", "172605.294000", "172605.298000", "172605.301000", "172605.304000", "172605.307000", "172605.311000", "172605.314000", "172605.317000", "172605.320000", "172605.324000", "172605.327000", "172605.330000", "172605.334000", "172605.337000", "172605.340000", "172645.254000", "172645.258000", "172645.261000", "172645.264000", "172645.267000", "172645.271000", "172645.274000", "172645.277000", "172645.281000", "172645.284000", "172645.287000", "172645.290000", "172645.294000", "172645.297000", "172645.300000", "172645.304000", "172645.307000", "172645.310000", "172645.314000", "172645.317000", "172645.321000", "172645.325000", "172645.329000", "172645.332000", "172645.336000", "172645.339000", "172703.273000", "172703.276000", "172703.280000", "172703.283000", "172703.286000", "172703.289000", "172703.293000", "172703.296000", "172703.299000", "172703.302000", "172703.306000", "172703.309000", "172703.312000"],
      "InstanceNumber": [1, 2, 3, 4, 5, 6, 7, 8, 9, 10, 11, 12, 13, 14, 15, 16, 17, 18, 19, 20, 21, 22, 23, 24, 25, 26, 27, 28, 29, 30, 31, 32, 33, 34, 35, 36, 37, 38, 39, 40, 41, 42, 43, 44, 45, 46, 47, 48, 49, 50, 51, 52, 53, 54, 55, 56, 57, 58, 59, 60, 61, 62, 63, 64, 65, 66, 67, 68, 69, 70, 71, 72, 73, 74, 75, 76, 77, 78, 79, 80, 81, 82, 83, 84, 85, 86, 87, 88, 89, 90, 91, 92, 93, 94, 95, 96, 97, 98, 99, 100, 101, 102, 103, 104, 105, 106, 107, 108, 109, 110, 111, 112, 113, 114, 115, 116, 117, 118, 119, 120, 121, 122, 123, 124, 125, 126, 127, 128, 129, 130, 131, 132, 133, 134, 135, 136, 137, 138, 139, 140, 141, 142, 143, 144, 145, 146, 147, 148, 149, 150, 151, 152, 153, 154, 155, 156, 157, 158, 159, 160, 161, 162, 163, 164, 165, 166, 167, 168, 169, 170, 171, 172, 173, 174, 175, 176, 177, 178, 179, 180, 181, 182, 183, 184, 185, 186, 187, 188, 189, 190],
      "LargestImagePixelValue": [42446, 41988, 40670, 40884, 40848, 40093, 40405, 41186, 40689, 39961, 40752, 42611, 40502, 42103, 41767, 42110, 42374, 41783, 42218, 42851, 41874, 41937, 42256, 42109, 42502, 42129, 42099, 41838, 41641, 42731, 41823, 41454, 41894, 41974, 42069, 42631, 42041, 40805, 42432, 41687, 41613, 42781, 42333, 41325, 42258, 42140, 42305, 41729, 41892, 42610, 42482, 42008, 42073, 43199, 42166, 43402, 43019, 44130, 41583, 42022, 43038, 42322, 43671, 41166, 42773, 43792, 42971, 43548, 43502, 45381, 43056, 44194, 44028, 43784, 44166, 42921, 43489, 45331, 44761, 45521, 44657, 45531, 44742, 41625, 43304, 43550, 43300, 44769, 44625, 44466, 44118, 42519, 45566, 42808, 42546, 43617, 42980, 43943, 45029, 42360, 41733, 43181, 44025, 43049, 43853, 43574, 42626, 44179, 43869, 43854, 44337, 44308, 46295, 47915, 40440, 41044, 40468, 40009, 42178, 40879, 40754, 40839, 41436, 40270, 41482, 41048, 41504, 41689, 41182, 40032, 40752, 40856, 40880, 40726, 40966, 40442, 39637, 40290, 39730, 41176, 41548, 41230, 40174, 40973, 40441, 40102, 46197, 40242, 41015, 40161, 40631, 40948, 40142, 40711, 41311, 40143, 39871, 40000, 40030, 40026, 40180, 40088, 39399, 40147, 40400, 39916, 40213, 40098, 42563, 40561, 40318, 41054, 40052, 39299, 39959, 40251, 40810, 40905, 40366, 40122, 39796, 40641, 39945, 39679, 39540, 40304, 41880, 40064, 40666, 40145],
      "WindowCenter": [10518.0, 10461.0, 10413.0, 10396.0, 10398.0, 10398.0, 10396.0, 10409.0, 10412.0, 10401.0, 10412.0, 10444.0, 10420.0, 10437.0, 10454.0, 10453.0, 10454.0, 10455.0, 10461.0, 10482.0, 10466.0, 10473.0, 10473.0, 10463.0, 10469.0, 10469.0, 10460.0, 10463.0, 10458.0, 10477.0, 10476.0, 10468.0, 10473.0, 10491.0, 10478.0, 10472.0, 10462.0, 10443.0, 10456.0, 10458.0, 10465.0, 10484.0, 10482.0, 10459.0, 10453.0, 10445.0, 10466.0, 10490.0, 10483.0, 10471.0, 10447.0, 10437.0, 10454.0, 10473.0, 10462.0, 10463.0, 10450.0, 10458.0, 10420.0, 10434.0, 10439.0, 10449.0, 10461.0, 10431.0, 10446.0, 10431.0, 10447.0, 10468.0, 10476.0, 10488.0, 10466.0, 10484.0, 10477.0, 10477.0, 10483.0, 10483.0, 10518.0, 10519.0, 10503.0, 10484.0, 10468.0, 10487.0, 10487.0, 10464.0, 10485.0, 10474.0, 10465.0, 10472.0, 10455.0, 10462.0, 10465.0, 10459.0, 10482.0, 10441.0, 10441.0, 10441.0, 10437.0, 10475.0, 10496.0, 10472.0, 10444.0, 10440.0, 10449.0, 10462.0, 10487.0, 10482.0, 10470.0, 10481.0, 10453.0, 10444.0, 10456.0, 10478.0, 10503.0, 10504.0, 10426.0, 10429.0, 10441.0, 10462.0, 10513.0, 10494.0, 10470.0, 10461.0, 10487.0, 10496.0, 10507.0, 10496.0, 10482.0, 10472.0, 10454.0, 10426.0, 10436.0, 10428.0, 10428.0, 10422.0, 10410.0, 10403.0, 10397.0, 10407.0, 10416.0, 10453.0, 10470.0, 10448.0, 10426.0, 10421.0, 10422.0, 10423.0, 10483.0, 10431.0, 10437.0, 10436.0, 10433.0, 10453.0, 10452.0, 10469.0, 10480.0, 10446.0, 10431.0, 10408.0, 10411.0, 10419.0, 10440.0, 10464.0, 10459.0, 10443.0, 10432.0, 10400.0, 10393.0, 10387.0, 10416.0, 10418.0, 10423.0, 10436.0, 10408.0, 10401.0, 10406.0, 10413.0, 10439.0, 10439.0, 10418.0, 10410.0, 10409.0, 10433.0, 10430.0, 10425.0, 10418.0, 10409.0, 10418.0, 10394.0, 10410.0, 10429.0],
      "WindowWidth": [22380.0, 22233.0, 22115.0, 22062.0, 22065.0, 22068.0, 22064.0, 22089.0, 22099.0, 22075.0, 22101.0, 22169.0, 22116.0, 22149.0, 22190.0, 22182.0, 22187.0, 22190.0, 22206.0, 22252.0, 22219.0, 22233.0, 22234.0, 22210.0, 22225.0, 22225.0, 22203.0, 22212.0, 22202.0, 22241.0, 22242.0, 22226.0, 22231.0, 22277.0, 22247.0, 22228.0, 22206.0, 22166.0, 22186.0, 22200.0, 22216.0, 22255.0, 22251.0, 22199.0, 22178.0, 22163.0, 22215.0, 22276.0, 22253.0, 22221.0, 22167.0, 22146.0, 22190.0, 22223.0, 22203.0, 22195.0, 22173.0, 22184.0, 22115.0, 22137.0, 22147.0, 22173.0, 22196.0, 22131.0, 22157.0, 22121.0, 22163.0, 22208.0, 22227.0, 22245.0, 22207.0, 22244.0, 22230.0, 22227.0, 22240.0, 22247.0, 22331.0, 22323.0, 22288.0, 22237.0, 22202.0, 22246.0, 22246.0, 22213.0, 22252.0, 22221.0, 22205.0, 22212.0, 22168.0, 22188.0, 22198.0, 22191.0, 22229.0, 22151.0, 22152.0, 22142.0, 22135.0, 22224.0, 22265.0, 22226.0, 22166.0, 22143.0, 22161.0, 22201.0, 22252.0, 22236.0, 22213.0, 22232.0, 22164.0, 22150.0, 22173.0, 22230.0, 22283.0, 22281.0, 22128.0, 22131.0, 22163.0, 22215.0, 22327.0, 22285.0, 22225.0, 22201.0, 22267.0, 22294.0, 22316.0, 22292.0, 22252.0, 22229.0, 22186.0, 22126.0, 22145.0, 22125.0, 22130.0, 22116.0, 22082.0, 22071.0, 22056.0, 22077.0, 22107.0, 22188.0, 22227.0, 22170.0, 22124.0, 22109.0, 22112.0, 22116.0, 22239.0, 22133.0, 22149.0, 22153.0, 22139.0, 22182.0, 22185.0, 22225.0, 22244.0, 22167.0, 22140.0, 22080.0, 22083.0, 22103.0, 22155.0, 22216.0, 22205.0, 22158.0, 22132.0, 22060.0, 22041.0, 22027.0, 22095.0, 22103.0, 22114.0, 22141.0, 22075.0, 22061.0, 22074.0, 22090.0, 22149.0, 22153.0, 22105.0, 22088.0, 22083.0, 22138.0, 22139.0, 22124.0, 22107.0, 22081.0, 22105.0, 22049.0, 22083.0, 22134.0]
    },
    "slices": {}
  }
}