{
  "AcquisitionMatrixPE": 104,
  "AcquisitionNumber": 1,
  "AcquisitionTime": "17:35:23.410000",
  "BandwidthPerPixelPhaseEncode": 17.17,
  "BaseResolution": 104,
  "BodyPartExamined": "BRAIN",
  "CoilString": "HC1-7;NC1_2",
  "ConsistencyInfo": "N4_VE11C_LATEST_20160120",
  "ConversionSoftware": "dcm2niix",
  "ConversionSoftwareVersion": "v1.0.20190902",
  "DerivedVendorReportedEchoSpacing": 0.000560011,
  "DeviceSerialNumber": "167006",
  "DwellTime": 2.1e-06,
  "EchoTime": 0.037,
  "EchoTrainLength": 104,
  "EffectiveEchoSpacing": 0.000560011,
  "FlipAngle": 52,
  "ImageComments": "Unaliased_MB4_PE3_LB",
  "ImageOrientationPatientDICOM": [0.997922, 0.036439, 0.0531316, -0.016025, 0.939157, -0.343115],
  "ImageType": [
    "ORIGINAL",
    "PRIMARY",
    "P",
    "MB",
    "ND",
    "MOSAIC"
],
  "ImagingFrequency": 123.259,
  "InPlanePhaseEncodingDirectionDICOM": "COL",
  "InstitutionAddress": "Chemin_Queen-Mary_4565_Montreal_District_CA_H3W_1W5",
  "InstitutionName": "IUGM",
  "InstitutionalDepartmentName": "Department",
  "MRAcquisitionType": "2D",
  "MagneticFieldStrength": 3,
  "Manufacturer": "Siemens",
  "ManufacturersModelName": "Prisma_fit",
  "Modality": "MR",
  "MultibandAccelerationFactor": 4,
  "PartialFourier": 1,
  "PatientPosition": "HFS",
  "PercentPhaseFOV": 100,
  "PhaseEncodingDirection": "j",
  "PhaseEncodingSteps": 104,
  "PhaseResolution": 1,
  "PixelBandwidth": 2290,
  "ProcedureStepDescription": "memory_things",
  "ProtocolName": "func_task-things_run-6",
  "PulseSequenceDetails": "%CustomerSeq%_cmrr_mbep2d_bold",
  "ReceiveCoilActiveElements": "HC1-7;NC1,2",
  "ReceiveCoilName": "HeadNeck_64",
  "ReconMatrixPE": 104,
  "RepetitionTime": 1.49,
  "SAR": 0.0507239,
  "ScanOptions": "FS",
  "ScanningSequence": "EP",
  "SequenceName": "epfid2d1_104",
  "SequenceVariant": "SK_SS",
  "SeriesDescription": "func_task-things_run-6",
  "SeriesNumber": 26,
  "ShimSetting": [645, -7192, -8806, 653, 74, 2, -49, -9],
  "SliceThickness": 2,
  "SliceTiming": [0, 0.7825, 0.0975, 0.8825, 0.195, 0.98, 0.2925, 1.0775, 0.3925, 1.175, 0.49, 1.2725, 0.5875, 1.3725, 0.685, 0, 0.7825, 0.0975, 0.8825, 0.195, 0.98, 0.2925, 1.0775, 0.3925, 1.175, 0.49, 1.2725, 0.5875, 1.3725, 0.685, 0, 0.7825, 0.0975, 0.8825, 0.195, 0.98, 0.2925, 1.0775, 0.3925, 1.175, 0.49, 1.2725, 0.5875, 1.3725, 0.685, 0, 0.7825, 0.0975, 0.8825, 0.195, 0.98, 0.2925, 1.0775, 0.3925, 1.175, 0.49, 1.2725, 0.5875, 1.3725, 0.685],
  "SoftwareVersions": "syngo_MR_E11",
  "SpacingBetweenSlices": 2,
  "StationName": "MRC35049",
  "TaskName": "things",
  "TotalReadoutTime": 0.0576811,
  "TxRefAmp": 268.645,
  "WipMemBlock": "b5e5cd7b-334a-4584-a9bf-d604b87f0436||Sequence: R016 ve11c/master r/e634e98; Dec 19 2017 11:00:25 by eja",
  "dcmmeta_affine": [
    [-1.9958449602127075, -0.032050084322690964, 0.124803327023983, 106.22886657714844],
    [-0.07287809252738953, 1.878313660621643, -0.6831008195877075, -55.37710952758789],
    [0.1062631756067276, 0.6862293481826782, 1.8755792379379272, -60.809566497802734],
    [0.0, 0.0, 0.0, 1.0]
],
  "dcmmeta_reorient_transform": [
    [0.0, -1.0, 0.0, 103.0],
    [1.0, 0.0, 0.0, 0.0],
    [0.0, 0.0, 1.0, 0.0],
    [0.0, 0.0, 0.0, 1.0]
],
  "dcmmeta_shape": [104, 104, 60, 190],
  "dcmmeta_slice_dim": 2,
  "dcmmeta_version": 0.6,
  "global": {
    "const": {
      "AcquisitionMatrix": [104, 0, 0, 104],
      "AngioFlag": "N",
      "BitsAllocated": 16,
      "BitsStored": 16,
      "BodyPartExamined": "BRAIN",
      "Columns": 832,
      "EchoNumbers": 1,
      "EchoTime": 37.0,
      "EchoTrainLength": 104,
      "FlipAngle": 52.0,
      "HighBit": 15,
      "ImageOrientationPatient": [0.99792245716818, 0.03643904520033, 0.0531315863146, -0.0160250427009, 0.93915680901912, -0.3431146835673],
      "ImagePositionPatient": [-817.74902726907, -848.32297467909, 220.9797526033],
      "ImageType": [
        "ORIGINAL",
        "PRIMARY",
        "P",
        "MB",
        "ND",
        "MOSAIC"
],
      "ImagedNucleus": "1H",
      "ImagingFrequency": 123.258978,
      "InPlanePhaseEncodingDirection": "COL",
      "LargestImagePixelValue": 4095,
      "MRAcquisitionType": "2D",
      "MagneticFieldStrength": 3.0,
      "Manufacturer": "SIEMENS",
      "ManufacturerModelName": "Prisma_fit",
      "Modality": "MR",
      "NumberOfAverages": 1.0,
      "NumberOfPhaseEncodingSteps": 104,
      "PercentPhaseFieldOfView": 100.0,
      "PercentSampling": 100.0,
      "PerformedProcedureStepStartTime": "162723.599000",
      "PhotometricInterpretation": "MONOCHROME2",
      "PixelBandwidth": 2290.0,
      "PixelRepresentation": 0,
      "PixelSpacing": [2.0, 2.0],
      "ProtocolName": "func_task-things_run-6",
      "RepetitionTime": 1490.0,
      "RescaleIntercept": -4096.0,
      "RescaleSlope": 2.0,
      "RescaleType": "US",
      "Rows": 832,
      "SAR": 0.0507238530437,
      "SamplesPerPixel": 1,
      "ScanOptions": "FS",
      "ScanningSequence": "EP",
      "SequenceName": "epfid2d1_104",
      "SequenceVariant": [
        "SK",
        "SS"
],
      "SeriesDescription": "func_task-things_run-6",
      "SeriesNumber": 26,
      "SeriesTime": "173642.062000",
      "SliceLocation": -31.483647310116,
      "SliceThickness": 2.0,
      "SmallestImagePixelValue": 0,
      "SoftwareVersions": "syngo MR E11",
      "SpacingBetweenSlices": 2.000000056847,
      "SpecificCharacterSet": "ISO_IR 100",
      "StudyID": "1",
      "StudyTime": "162723.537000",
      "TransmitCoilName": "Body",
      "VariableFlipAngleFlag": "N",
      "WindowCenterWidthExplanation": "Algo1",
      "dBdt": 0.0},
    "slices": {}
  },
  "time": {
    "samples": {
      "AcquisitionNumber": [1, 2, 3, 4, 5, 6, 7, 8, 9, 10, 11, 12, 13, 14, 15, 16, 17, 18, 19, 20, 21, 22, 23, 24, 25, 26, 27, 28, 29, 30, 31, 32, 33, 34, 35, 36, 37, 38, 39, 40, 41, 42, 43, 44, 45, 46, 47, 48, 49, 50, 51, 52, 53, 54, 55, 56, 57, 58, 59, 60, 61, 62, 63, 64, 65, 66, 67, 68, 69, 70, 71, 72, 73, 74, 75, 76, 77, 78, 79, 80, 81, 82, 83, 84, 85, 86, 87, 88, 89, 90, 91, 92, 93, 94, 95, 96, 97, 98, 99, 100, 101, 102, 103, 104, 105, 106, 107, 108, 109, 110, 111, 112, 113, 114, 115, 116, 117, 118, 119, 120, 121, 122, 123, 124, 125, 126, 127, 128, 129, 130, 131, 132, 133, 134, 135, 136, 137, 138, 139, 140, 141, 142, 143, 144, 145, 146, 147, 148, 149, 150, 151, 152, 153, 154, 155, 156, 157, 158, 159, 160, 161, 162, 163, 164, 165, 166, 167, 168, 169, 170, 171, 172, 173, 174, 175, 176, 177, 178, 179, 180, 181, 182, 183, 184, 185, 186, 187, 188, 189, 190],
      "AcquisitionTime": ["173523.410000", "173524.900000", "173526.390000", "173527.880000", "173529.370000", "173530.860000", "173532.350000", "173533.840000", "173535.330000", "173536.820000", "173538.310000", "173539.800000", "173541.290000", "173542.780000", "173544.270000", "173545.760000", "173547.250000", "173548.740000", "173550.230000", "173551.720000", "173553.210000", "173554.700000", "173556.190000", "173557.680000", "173559.170000", "173600.660000", "173602.150000", "173603.640000", "173605.130000", "173606.620000", "173608.110000", "173609.600000", "173611.090000", "173612.580000", "173614.070000", "173615.560000", "173617.050000", "173618.540000", "173620.030000", "173621.520000", "173623.010000", "173624.500000", "173625.990000", "173627.480000", "173628.970000", "173630.460000", "173631.950000", "173633.440000", "173634.930000", "173636.420000", "173637.910000", "173639.400000", "173640.890000", "173642.380000", "173643.870000", "173645.360000", "173646.850000", "173648.340000", "173649.830000", "173651.320000", "173652.810000", "173654.300000", "173655.790000", "173657.280000", "173658.770000", "173700.260000", "173701.750000", "173703.240000", "173704.730000", "173706.220000", "173707.710000", "173709.200000", "173710.690000", "173712.180000", "173713.670000", "173715.160000", "173716.650000", "173718.140000", "173719.630000", "173721.120000", "173722.610000", "173724.100000", "173725.590000", "173727.080000", "173728.570000", "173730.060000", "173731.550000", "173733.040000", "173734.530000", "173736.020000", "173737.510000", "173739.000000", "173740.490000", "173741.980000", "173743.470000", "173744.960000", "173746.450000", "173747.940000", "173749.430000", "173750.920000", "173752.410000", "173753.900000", "173755.390000", "173756.880000", "173758.370000", "173759.860000", "173801.350000", "173802.840000", "173804.330000", "173805.820000", "173807.310000", "173808.800000", "173810.290000", "173811.780000", "173813.270000", "173814.760000", "173816.250000", "173817.740000", "173819.230000", "173820.720000", "173822.210000", "173823.700000", "173825.190000", "173826.680000", "173828.170000", "173829.660000", "173831.150000", "173832.640000", "173834.130000", "173835.620000", "173837.110000", "173838.600000", "173840.090000", "173841.580000", "173843.070000", "173844.560000", "173846.050000", "173847.540000", "173849.030000", "173850.520000", "173852.010000", "173853.500000", "173854.990000", "173856.480000", "173857.970000", "173859.460000", "173900.950000", "173902.440000", "173903.930000", "173905.420000", "173906.910000", "173908.400000", "173909.890000", "173911.380000", "173912.870000", "173914.360000", "173915.850000", "173917.340000", "173918.830000", "173920.320000", "173921.810000", "173923.300000", "173924.790000", "173926.280000", "173927.770000", "173929.260000", "173930.750000", "173932.240000", "173933.730000", "173935.220000", "173936.710000", "173938.200000", "173939.690000", "173941.180000", "173942.670000", "173944.160000", "173945.650000", "173947.140000", "173948.630000", "173950.120000", "173951.610000", "173953.100000", "173954.590000", "173956.080000", "173957.570000", "173959.060000", "174000.550000", "174002.040000", "174003.530000", "174005.020000"],
      "ContentTime": ["173642.064000", "173642.067000", "173642.070000", "173642.072000", "173642.074000", "173642.081000", "173642.083000", "173642.086000", "173642.088000", "173642.091000", "173642.093000", "173642.096000", "173642.098000", "173642.101000", "173642.103000", "173642.105000", "173642.108000", "173642.110000", "173642.113000", "173642.115000", "173642.118000", "173642.120000", "173642.123000", "173642.125000", "173701.994000", "173701.997000", "173702.000000", "173702.003000", "173702.005000", "173702.008000", "173702.011000", "173702.014000", "173702.016000", "173702.019000", "173702.021000", "173702.024000", "173702.026000", "173702.029000", "173702.031000", "173702.033000", "173702.036000", "173702.038000", "173702.041000", "173702.043000", "173702.046000", "173721.988000", "173721.990000", "173721.993000", "173721.995000", "173721.998000", "173722.001000", "173722.004000", "173722.006000", "173722.008000", "173722.011000", "173722.013000", "173722.016000", "173722.018000", "173722.021000", "173722.023000", "173722.026000", "173722.028000", "173722.030000", "173722.033000", "173722.035000", "173741.986000", "173741.989000", "173741.991000", "173741.994000", "173741.996000", "173741.999000", "173742.001000", "173742.004000", "173742.006000", "173742.009000", "173742.011000", "173742.014000", "173742.016000", "173742.019000", "173742.021000", "173742.023000", "173742.026000", "173742.028000", "173742.031000", "173742.042000", "173801.996000", "173802.001000", "173802.004000", "173802.007000", "173802.009000", "173802.012000", "173802.015000", "173802.017000", "173802.020000", "173802.023000", "173802.026000", "173802.028000", "173802.031000", "173802.033000", "173802.035000", "173802.038000", "173802.040000", "173802.043000", "173802.045000", "173802.048000", "173842.026000", "173842.029000", "173842.031000", "173842.034000", "173842.036000", "173842.039000", "173842.041000", "173842.044000", "173842.046000", "173842.048000", "173842.051000", "173842.053000", "173842.056000", "173842.058000", "173842.061000", "173842.063000", "173842.066000", "173842.068000", "173842.070000", "173842.073000", "173842.075000", "173842.078000", "173842.080000", "173842.083000", "173842.085000", "173842.087000", "173842.090000", "173922.006000", "173922.008000", "173922.011000", "173922.013000", "173922.016000", "173922.018000", "173922.021000", "173922.023000", "173922.026000", "173922.028000", "173922.031000", "173922.033000", "173922.035000", "173922.038000", "173922.040000", "173922.043000", "173922.045000", "173922.048000", "173922.050000", "173922.053000", "173922.055000", "173922.058000", "173922.060000", "173922.062000", "173922.065000", "173922.068000", "173922.071000", "173941.958000", "173941.961000", "173941.963000", "173941.966000", "173941.968000", "173941.970000", "173941.973000", "173941.975000", "173941.978000", "173941.980000", "173941.983000", "173941.985000", "173941.988000", "173941.990000", "174007.078000", "174007.081000", "174007.083000", "174007.086000", "174007.092000", "174007.095000", "174007.097000", "174007.099000", "174007.102000", "174007.105000", "174007.107000", "174007.110000", "174007.112000", "174007.115000", "174007.117000", "174007.120000", "174007.122000"],
      "InstanceCreationTime": ["173642.064000", "173642.067000", "173642.070000", "173642.072000", "173642.074000", "173642.081000", "173642.083000", "173642.086000", "173642.088000", "173642.091000", "173642.093000", "173642.096000", "173642.098000", "173642.101000", "173642.103000", "173642.105000", "173642.108000", "173642.110000", "173642.113000", "173642.115000", "173642.118000", "173642.120000", "173642.123000", "173642.125000", "173701.994000", "173701.997000", "173702.000000", "173702.003000", "173702.005000", "173702.008000", "173702.011000", "173702.014000", "173702.016000", "173702.019000", "173702.021000", "173702.024000", "173702.026000", "173702.029000", "173702.031000", "173702.033000", "173702.036000", "173702.038000", "173702.041000", "173702.043000", "173702.046000", "173721.988000", "173721.990000", "173721.993000", "173721.995000", "173721.998000", "173722.001000", "173722.004000", "173722.006000", "173722.008000", "173722.011000", "173722.013000", "173722.016000", "173722.018000", "173722.021000", "173722.023000", "173722.026000", "173722.028000", "173722.030000", "173722.033000", "173722.035000", "173741.986000", "173741.989000", "173741.991000", "173741.994000", "173741.996000", "173741.999000", "173742.001000", "173742.004000", "173742.006000", "173742.009000", "173742.011000", "173742.014000", "173742.016000", "173742.019000", "173742.021000", "173742.023000", "173742.026000", "173742.028000", "173742.031000", "173742.042000", "173801.996000", "173802.001000", "173802.004000", "173802.007000", "173802.009000", "173802.012000", "173802.015000", "173802.017000", "173802.020000", "173802.023000", "173802.026000", "173802.028000", "173802.031000", "173802.033000", "173802.035000", "173802.038000", "173802.040000", "173802.043000", "173802.045000", "173802.048000", "173842.026000", "173842.029000", "173842.031000", "173842.034000", "173842.036000", "173842.039000", "173842.041000", "173842.044000", "173842.046000", "173842.048000", "173842.051000", "173842.053000", "173842.056000", "173842.058000", "173842.061000", "173842.063000", "173842.066000", "173842.068000", "173842.070000", "173842.073000", "173842.075000", "173842.078000", "173842.080000", "173842.083000", "173842.085000", "173842.087000", "173842.090000", "173922.006000", "173922.008000", "173922.011000", "173922.013000", "173922.016000", "173922.018000", "173922.021000", "173922.023000", "173922.026000", "173922.028000", "173922.031000", "173922.033000", "173922.035000", "173922.038000", "173922.040000", "173922.043000", "173922.045000", "173922.048000", "173922.050000", "173922.053000", "173922.055000", "173922.058000", "173922.060000", "173922.062000", "173922.065000", "173922.068000", "173922.071000", "173941.958000", "173941.961000", "173941.963000", "173941.966000", "173941.968000", "173941.970000", "173941.973000", "173941.975000", "173941.978000", "173941.980000", "173941.983000", "173941.985000", "173941.988000", "173941.990000", "174007.078000", "174007.081000", "174007.083000", "174007.086000", "174007.092000", "174007.095000", "174007.097000", "174007.099000", "174007.102000", "174007.105000", "174007.107000", "174007.110000", "174007.112000", "174007.115000", "174007.117000", "174007.120000", "174007.122000"],
      "InstanceNumber": [1, 2, 3, 4, 5, 6, 7, 8, 9, 10, 11, 12, 13, 14, 15, 16, 17, 18, 19, 20, 21, 22, 23, 24, 25, 26, 27, 28, 29, 30, 31, 32, 33, 34, 35, 36, 37, 38, 39, 40, 41, 42, 43, 44, 45, 46, 47, 48, 49, 50, 51, 52, 53, 54, 55, 56, 57, 58, 59, 60, 61, 62, 63, 64, 65, 66, 67, 68, 69, 70, 71, 72, 73, 74, 75, 76, 77, 78, 79, 80, 81, 82, 83, 84, 85, 86, 87, 88, 89, 90, 91, 92, 93, 94, 95, 96, 97, 98, 99, 100, 101, 102, 103, 104, 105, 106, 107, 108, 109, 110, 111, 112, 113, 114, 115, 116, 117, 118, 119, 120, 121, 122, 123, 124, 125, 126, 127, 128, 129, 130, 131, 132, 133, 134, 135, 136, 137, 138, 139, 140, 141, 142, 143, 144, 145, 146, 147, 148, 149, 150, 151, 152, 153, 154, 155, 156, 157, 158, 159, 160, 161, 162, 163, 164, 165, 166, 167, 168, 169, 170, 171, 172, 173, 174, 175, 176, 177, 178, 179, 180, 181, 182, 183, 184, 185, 186, 187, 188, 189, 190],
      "WindowCenter": [4828.0, 4830.0, 4856.0, 4828.0, 4826.0, 4826.0, 4826.0, 4824.0, 4824.0, 4826.0, 4828.0, 4828.0, 4828.0, 4830.0, 4828.0, 4830.0, 4828.0, 4828.0, 4828.0, 4826.0, 4828.0, 4830.0, 4830.0, 4854.0, 4826.0, 4824.0, 4830.0, 4828.0, 4830.0, 4830.0, 4830.0, 4830.0, 4830.0, 4826.0, 4832.0, 4830.0, 4830.0, 4830.0, 4824.0, 4828.0, 4828.0, 4828.0, 4826.0, 4826.0, 4856.0, 4828.0, 4830.0, 4830.0, 4826.0, 4832.0, 4826.0, 4826.0, 4824.0, 4826.0, 4830.0, 4828.0, 4830.0, 4828.0, 4826.0, 4830.0, 4854.0, 4826.0, 4852.0, 4828.0, 4832.0, 4828.0, 4830.0, 4850.0, 4826.0, 4854.0, 4852.0, 4828.0, 4828.0, 4826.0, 4828.0, 4830.0, 4826.0, 4852.0, 4828.0, 4830.0, 4854.0, 4828.0, 4852.0, 4828.0, 4828.0, 4830.0, 4828.0, 4830.0, 4852.0, 4830.0, 4830.0, 4828.0, 4828.0, 4830.0, 4826.0, 4830.0, 4828.0, 4828.0, 4828.0, 4830.0, 4832.0, 4828.0, 4830.0, 4828.0, 4832.0, 4832.0, 4828.0, 4830.0, 4828.0, 4828.0, 4828.0, 4826.0, 4854.0, 4828.0, 4834.0, 4830.0, 4830.0, 4828.0, 4830.0, 4852.0, 4832.0, 4856.0, 4852.0, 4854.0, 4830.0, 4834.0, 4854.0, 4828.0, 4828.0, 4828.0, 4828.0, 4824.0, 4828.0, 4854.0, 4830.0, 4852.0, 4852.0, 4828.0, 4854.0, 4850.0, 4828.0, 4852.0, 4830.0, 4854.0, 4826.0, 4828.0, 4828.0, 4832.0, 4854.0, 4854.0, 4828.0, 4854.0, 4830.0, 4830.0, 4828.0, 4830.0, 4854.0, 4828.0, 4828.0, 4826.0, 4830.0, 4826.0, 4826.0, 4830.0, 4830.0, 4830.0, 4852.0, 4830.0, 4850.0, 4828.0, 4852.0, 4828.0, 4828.0, 4830.0, 4830.0, 4832.0, 4854.0, 4828.0, 4852.0, 4828.0, 4826.0, 4852.0, 4830.0, 4832.0, 4856.0, 4828.0, 4832.0, 4832.0, 4826.0, 4832.0],
      "WindowWidth": [18590.0, 18596.0, 18632.0, 18588.0, 18588.0, 18590.0, 18590.0, 18586.0, 18590.0, 18588.0, 18592.0, 18592.0, 18592.0, 18590.0, 18592.0, 18594.0, 18594.0, 18588.0, 18592.0, 18594.0, 18596.0, 18594.0, 18592.0, 18626.0, 18592.0, 18586.0, 18594.0, 18590.0, 18592.0, 18596.0, 18590.0, 18590.0, 18590.0, 18588.0, 18596.0, 18590.0, 18590.0, 18594.0, 18590.0, 18594.0, 18586.0, 18594.0, 18586.0, 18590.0, 18628.0, 18590.0, 18592.0, 18594.0, 18588.0, 18594.0, 18590.0, 18590.0, 18592.0, 18590.0, 18592.0, 18590.0, 18592.0, 18592.0, 18590.0, 18594.0, 18624.0, 18586.0, 18626.0, 18590.0, 18590.0, 18592.0, 18590.0, 18624.0, 18590.0, 18624.0, 18624.0, 18588.0, 18588.0, 18590.0, 18584.0, 18594.0, 18584.0, 18624.0, 18588.0, 18592.0, 18622.0, 18590.0, 18624.0, 18592.0, 18590.0, 18588.0, 18590.0, 18596.0, 18624.0, 18594.0, 18592.0, 18588.0, 18586.0, 18590.0, 18586.0, 18588.0, 18586.0, 18590.0, 18590.0, 18596.0, 18596.0, 18590.0, 18596.0, 18590.0, 18592.0, 18600.0, 18586.0, 18590.0, 18590.0, 18588.0, 18586.0, 18588.0, 18622.0, 18588.0, 18596.0, 18592.0, 18594.0, 18586.0, 18586.0, 18622.0, 18588.0, 18624.0, 18624.0, 18626.0, 18590.0, 18594.0, 18630.0, 18592.0, 18590.0, 18590.0, 18590.0, 18586.0, 18590.0, 18622.0, 18588.0, 18626.0, 18624.0, 18592.0, 18624.0, 18626.0, 18588.0, 18622.0, 18590.0, 18630.0, 18582.0, 18588.0, 18590.0, 18590.0, 18628.0, 18618.0, 18588.0, 18620.0, 18594.0, 18592.0, 18590.0, 18590.0, 18628.0, 18592.0, 18592.0, 18590.0, 18594.0, 18588.0, 18590.0, 18596.0, 18590.0, 18590.0, 18626.0, 18594.0, 18622.0, 18590.0, 18628.0, 18590.0, 18590.0, 18588.0, 18588.0, 18592.0, 18622.0, 18590.0, 18624.0, 18592.0, 18584.0, 18624.0, 18592.0, 18592.0, 18626.0, 18592.0, 18594.0, 18592.0, 18588.0, 18594.0]
    },
    "slices": {}
  }
}