{
  "AcquisitionMatrixPE": 104,
  "AcquisitionNumber": 1,
  "AcquisitionTime": "17:22:19.030000",
  "BandwidthPerPixelPhaseEncode": 17.17,
  "BaseResolution": 104,
  "BodyPartExamined": "BRAIN",
  "CoilString": "HC1-7;NC1_2",
  "ConsistencyInfo": "N4_VE11C_LATEST_20160120",
  "ConversionSoftware": "dcm2niix",
  "ConversionSoftwareVersion": "v1.0.20190902",
  "DerivedVendorReportedEchoSpacing": 0.000560011,
  "DeviceSerialNumber": "167006",
  "DwellTime": 2.1e-06,
  "EchoTime": 0.037,
  "EchoTrainLength": 104,
  "EffectiveEchoSpacing": 0.000560011,
  "FlipAngle": 52,
  "ImageComments": "Unaliased_MB4_PE3_LB",
  "ImageOrientationPatientDICOM": [0.997922, 0.036439, 0.0531316, -0.016025, 0.939157, -0.343115],
  "ImageType": [
    "ORIGINAL",
    "PRIMARY",
    "P",
    "MB",
    "ND",
    "MOSAIC"
],
  "ImagingFrequency": 123.259,
  "InPlanePhaseEncodingDirectionDICOM": "COL",
  "InstitutionAddress": "Chemin_Queen-Mary_4565_Montreal_District_CA_H3W_1W5",
  "InstitutionName": "IUGM",
  "InstitutionalDepartmentName": "Department",
  "MRAcquisitionType": "2D",
  "MagneticFieldStrength": 3,
  "Manufacturer": "Siemens",
  "ManufacturersModelName": "Prisma_fit",
  "Modality": "MR",
  "MultibandAccelerationFactor": 4,
  "PartialFourier": 1,
  "PatientPosition": "HFS",
  "PercentPhaseFOV": 100,
  "PhaseEncodingDirection": "j",
  "PhaseEncodingSteps": 104,
  "PhaseResolution": 1,
  "PixelBandwidth": 2290,
  "ProcedureStepDescription": "memory_things",
  "ProtocolName": "func_task-things_run-4",
  "PulseSequenceDetails": "%CustomerSeq%_cmrr_mbep2d_bold",
  "ReceiveCoilActiveElements": "HC1-7;NC1,2",
  "ReceiveCoilName": "HeadNeck_64",
  "ReconMatrixPE": 104,
  "RepetitionTime": 1.49,
  "SAR": 0.0507239,
  "ScanOptions": "FS",
  "ScanningSequence": "EP",
  "SequenceName": "epfid2d1_104",
  "SequenceVariant": "SK_SS",
  "SeriesDescription": "func_task-things_run-4",
  "SeriesNumber": 20,
  "ShimSetting": [645, -7192, -8806, 653, 74, 2, -49, -9],
  "SliceThickness": 2,
  "SliceTiming": [0, 0.7825, 0.0975, 0.8825, 0.195, 0.98, 0.2925, 1.0775, 0.3925, 1.175, 0.49, 1.2725, 0.5875, 1.3725, 0.685, 0, 0.7825, 0.0975, 0.8825, 0.195, 0.98, 0.2925, 1.0775, 0.3925, 1.175, 0.49, 1.2725, 0.5875, 1.3725, 0.685, 0, 0.7825, 0.0975, 0.8825, 0.195, 0.98, 0.2925, 1.0775, 0.3925, 1.175, 0.49, 1.2725, 0.5875, 1.3725, 0.685, 0, 0.7825, 0.0975, 0.8825, 0.195, 0.98, 0.2925, 1.0775, 0.3925, 1.175, 0.49, 1.2725, 0.5875, 1.3725, 0.685],
  "SoftwareVersions": "syngo_MR_E11",
  "SpacingBetweenSlices": 2,
  "StationName": "MRC35049",
  "TaskName": "things",
  "TotalReadoutTime": 0.0576811,
  "TxRefAmp": 268.645,
  "WipMemBlock": "bc1eba0e-ab2c-4758-802e-a0e717b6dc60||Sequence: R016 ve11c/master r/e634e98; Dec 19 2017 11:00:25 by eja",
  "dcmmeta_affine": [
    [-1.9958449602127075, -0.032050084322690964, 0.124803327023983, 106.22886657714844],
    [-0.07287809252738953, 1.878313660621643, -0.6831008195877075, -55.37710952758789],
    [0.1062631756067276, 0.6862293481826782, 1.8755792379379272, -60.809566497802734],
    [0.0, 0.0, 0.0, 1.0]
],
  "dcmmeta_reorient_transform": [
    [0.0, -1.0, 0.0, 103.0],
    [1.0, 0.0, 0.0, 0.0],
    [0.0, 0.0, 1.0, 0.0],
    [0.0, 0.0, 0.0, 1.0]
],
  "dcmmeta_shape": [104, 104, 60, 190],
  "dcmmeta_slice_dim": 2,
  "dcmmeta_version": 0.6,
  "global": {
    "const": {
      "AcquisitionMatrix": [104, 0, 0, 104],
      "AngioFlag": "N",
      "BitsAllocated": 16,
      "BitsStored": 16,
      "BodyPartExamined": "BRAIN",
      "Columns": 832,
      "EchoNumbers": 1,
      "EchoTime": 37.0,
      "EchoTrainLength": 104,
      "FlipAngle": 52.0,
      "HighBit": 15,
      "ImageOrientationPatient": [0.99792245716818, 0.03643904520033, 0.0531315863146, -0.0160250427009, 0.93915680901912, -0.3431146835673],
      "ImagePositionPatient": [-817.74902726907, -848.32297467909, 220.9797526033],
      "ImageType": [
        "ORIGINAL",
        "PRIMARY",
        "P",
        "MB",
        "ND",
        "MOSAIC"
],
      "ImagedNucleus": "1H",
      "ImagingFrequency": 123.258974,
      "InPlanePhaseEncodingDirection": "COL",
      "LargestImagePixelValue": 4095,
      "MRAcquisitionType": "2D",
      "MagneticFieldStrength": 3.0,
      "Manufacturer": "SIEMENS",
      "ManufacturerModelName": "Prisma_fit",
      "Modality": "MR",
      "NumberOfAverages": 1.0,
      "NumberOfPhaseEncodingSteps": 104,
      "PercentPhaseFieldOfView": 100.0,
      "PercentSampling": 100.0,
      "PerformedProcedureStepStartTime": "162723.599000",
      "PhotometricInterpretation": "MONOCHROME2",
      "PixelBandwidth": 2290.0,
      "PixelRepresentation": 0,
      "PixelSpacing": [2.0, 2.0],
      "ProtocolName": "func_task-things_run-4",
      "RepetitionTime": 1490.0,
      "RescaleIntercept": -4096.0,
      "RescaleSlope": 2.0,
      "RescaleType": "US",
      "Rows": 832,
      "SAR": 0.0507238530437,
      "SamplesPerPixel": 1,
      "ScanOptions": "FS",
      "ScanningSequence": "EP",
      "SequenceName": "epfid2d1_104",
      "SequenceVariant": [
        "SK",
        "SS"
],
      "SeriesDescription": "func_task-things_run-4",
      "SeriesNumber": 20,
      "SeriesTime": "172345.480000",
      "SliceLocation": -31.483647310116,
      "SliceThickness": 2.0,
      "SmallestImagePixelValue": 0,
      "SoftwareVersions": "syngo MR E11",
      "SpacingBetweenSlices": 2.000000056847,
      "SpecificCharacterSet": "ISO_IR 100",
      "StudyID": "1",
      "StudyTime": "162723.537000",
      "TransmitCoilName": "Body",
      "VariableFlipAngleFlag": "N",
      "WindowCenterWidthExplanation": "Algo1",
      "dBdt": 0.0},
    "slices": {}
  },
  "time": {
    "samples": {
      "AcquisitionNumber": [1, 2, 3, 4, 5, 6, 7, 8, 9, 10, 11, 12, 13, 14, 15, 16, 17, 18, 19, 20, 21, 22, 23, 24, 25, 26, 27, 28, 29, 30, 31, 32, 33, 34, 35, 36, 37, 38, 39, 40, 41, 42, 43, 44, 45, 46, 47, 48, 49, 50, 51, 52, 53, 54, 55, 56, 57, 58, 59, 60, 61, 62, 63, 64, 65, 66, 67, 68, 69, 70, 71, 72, 73, 74, 75, 76, 77, 78, 79, 80, 81, 82, 83, 84, 85, 86, 87, 88, 89, 90, 91, 92, 93, 94, 95, 96, 97, 98, 99, 100, 101, 102, 103, 104, 105, 106, 107, 108, 109, 110, 111, 112, 113, 114, 115, 116, 117, 118, 119, 120, 121, 122, 123, 124, 125, 126, 127, 128, 129, 130, 131, 132, 133, 134, 135, 136, 137, 138, 139, 140, 141, 142, 143, 144, 145, 146, 147, 148, 149, 150, 151, 152, 153, 154, 155, 156, 157, 158, 159, 160, 161, 162, 163, 164, 165, 166, 167, 168, 169, 170, 171, 172, 173, 174, 175, 176, 177, 178, 179, 180, 181, 182, 183, 184, 185, 186, 187, 188, 189, 190],
      "AcquisitionTime": ["172219.030000", "172220.520000", "172222.010000", "172223.500000", "172224.990000", "172226.480000", "172227.970000", "172229.460000", "172230.950000", "172232.440000", "172233.930000", "172235.420000", "172236.910000", "172238.400000", "172239.890000", "172241.380000", "172242.870000", "172244.360000", "172245.850000", "172247.340000", "172248.830000", "172250.320000", "172251.810000", "172253.300000", "172254.790000", "172256.280000", "172257.770000", "172259.260000", "172300.750000", "172302.240000", "172303.730000", "172305.220000", "172306.710000", "172308.200000", "172309.690000", "172311.180000", "172312.670000", "172314.160000", "172315.650000", "172317.140000", "172318.630000", "172320.120000", "172321.610000", "172323.100000", "172324.590000", "172326.080000", "172327.570000", "172329.060000", "172330.550000", "172332.040000", "172333.530000", "172335.020000", "172336.510000", "172338.000000", "172339.490000", "172340.980000", "172342.470000", "172343.960000", "172345.450000", "172346.940000", "172348.430000", "172349.920000", "172351.410000", "172352.900000", "172354.390000", "172355.880000", "172357.370000", "172358.860000", "172400.350000", "172401.840000", "172403.330000", "172404.820000", "172406.310000", "172407.800000", "172409.290000", "172410.780000", "172412.270000", "172413.760000", "172415.250000", "172416.740000", "172418.230000", "172419.720000", "172421.210000", "172422.700000", "172424.190000", "172425.680000", "172427.170000", "172428.660000", "172430.150000", "172431.640000", "172433.130000", "172434.620000", "172436.110000", "172437.600000", "172439.090000", "172440.580000", "172442.070000", "172443.560000", "172445.050000", "172446.540000", "172448.030000", "172449.520000", "172451.010000", "172452.500000", "172453.990000", "172455.480000", "172456.970000", "172458.460000", "172459.950000", "172501.440000", "172502.930000", "172504.420000", "172505.910000", "172507.400000", "172508.890000", "172510.380000", "172511.870000", "172513.360000", "172514.850000", "172516.340000", "172517.830000", "172519.320000", "172520.810000", "172522.300000", "172523.790000", "172525.280000", "172526.770000", "172528.260000", "172529.750000", "172531.240000", "172532.730000", "172534.220000", "172535.710000", "172537.200000", "172538.690000", "172540.180000", "172541.670000", "172543.160000", "172544.650000", "172546.140000", "172547.630000", "172549.120000", "172550.610000", "172552.100000", "172553.590000", "172555.080000", "172556.570000", "172558.060000", "172559.550000", "172601.040000", "172602.530000", "172604.020000", "172605.510000", "172607.000000", "172608.490000", "172609.980000", "172611.470000", "172612.960000", "172614.450000", "172615.940000", "172617.430000", "172618.920000", "172620.410000", "172621.900000", "172623.390000", "172624.880000", "172626.370000", "172627.860000", "172629.350000", "172630.840000", "172632.330000", "172633.820000", "172635.310000", "172636.800000", "172638.290000", "172639.780000", "172641.270000", "172642.760000", "172644.250000", "172645.740000", "172647.230000", "172648.720000", "172650.210000", "172651.700000", "172653.190000", "172654.680000", "172656.170000", "172657.660000", "172659.150000", "172700.640000"],
      "ContentTime": ["172345.482000", "172345.485000", "172345.487000", "172345.496000", "172345.499000", "172345.502000", "172345.504000", "172345.506000", "172345.509000", "172345.511000", "172345.514000", "172345.516000", "172345.519000", "172345.521000", "172345.524000", "172345.526000", "172345.529000", "172345.531000", "172345.534000", "172345.536000", "172345.539000", "172345.541000", "172345.544000", "172345.546000", "172345.549000", "172345.551000", "172345.554000", "172345.562000", "172345.565000", "172345.567000", "172345.570000", "172345.572000", "172405.354000", "172405.357000", "172405.359000", "172405.362000", "172405.364000", "172405.366000", "172405.369000", "172405.371000", "172405.374000", "172405.376000", "172405.379000", "172405.381000", "172405.384000", "172405.386000", "172405.389000", "172405.392000", "172405.395000", "172405.397000", "172405.400000", "172405.402000", "172405.405000", "172425.358000", "172425.361000", "172425.364000", "172425.366000", "172425.369000", "172425.371000", "172425.373000", "172425.376000", "172425.378000", "172425.381000", "172425.383000", "172425.386000", "172425.388000", "172425.391000", "172425.393000", "172425.396000", "172425.398000", "172425.401000", "172425.403000", "172425.406000", "172445.346000", "172445.348000", "172445.351000", "172445.353000", "172445.356000", "172445.358000", "172445.361000", "172445.363000", "172445.366000", "172445.368000", "172445.371000", "172445.373000", "172445.376000", "172445.383000", "172445.407000", "172445.409000", "172445.412000", "172445.414000", "172445.416000", "172445.419000", "172525.412000", "172525.415000", "172525.417000", "172525.420000", "172525.422000", "172525.425000", "172525.427000", "172525.430000", "172525.432000", "172525.434000", "172525.437000", "172525.439000", "172525.442000", "172525.444000", "172525.447000", "172525.449000", "172525.452000", "172525.454000", "172525.457000", "172525.459000", "172525.462000", "172525.464000", "172525.467000", "172525.470000", "172525.472000", "172525.475000", "172525.477000", "172525.479000", "172525.482000", "172525.484000", "172525.487000", "172605.419000", "172605.422000", "172605.425000", "172605.427000", "172605.429000", "172605.432000", "172605.435000", "172605.437000", "172605.440000", "172605.442000", "172605.445000", "172605.447000", "172605.450000", "172605.452000", "172605.455000", "172605.457000", "172605.460000", "172605.462000", "172605.465000", "172605.467000", "172605.470000", "172605.472000", "172605.474000", "172605.477000", "172605.479000", "172605.482000", "172605.484000", "172645.421000", "172645.423000", "172645.426000", "172645.428000", "172645.431000", "172645.433000", "172645.436000", "172645.438000", "172645.441000", "172645.443000", "172645.445000", "172645.448000", "172645.450000", "172645.453000", "172645.455000", "172645.468000", "172645.470000", "172645.472000", "172645.475000", "172645.477000", "172645.480000", "172645.482000", "172645.485000", "172645.487000", "172645.490000", "172645.492000", "172703.368000", "172703.371000", "172703.373000", "172703.376000", "172703.378000", "172703.381000", "172703.383000", "172703.386000", "172703.389000", "172703.391000", "172703.394000", "172703.396000", "172703.399000"],
      "InstanceCreationTime": ["172345.482000", "172345.485000", "172345.487000", "172345.496000", "172345.499000", "172345.502000", "172345.504000", "172345.506000", "172345.509000", "172345.511000", "172345.514000", "172345.516000", "172345.519000", "172345.521000", "172345.524000", "172345.526000", "172345.529000", "172345.531000", "172345.534000", "172345.536000", "172345.539000", "172345.541000", "172345.544000", "172345.546000", "172345.549000", "172345.551000", "172345.554000", "172345.562000", "172345.565000", "172345.567000", "172345.570000", "172345.572000", "172405.354000", "172405.357000", "172405.359000", "172405.362000", "172405.364000", "172405.366000", "172405.369000", "172405.371000", "172405.374000", "172405.376000", "172405.379000", "172405.381000", "172405.384000", "172405.386000", "172405.389000", "172405.392000", "172405.395000", "172405.397000", "172405.400000", "172405.402000", "172405.405000", "172425.358000", "172425.361000", "172425.364000", "172425.366000", "172425.369000", "172425.371000", "172425.373000", "172425.376000", "172425.378000", "172425.381000", "172425.383000", "172425.386000", "172425.388000", "172425.391000", "172425.393000", "172425.396000", "172425.398000", "172425.401000", "172425.403000", "172425.406000", "172445.346000", "172445.348000", "172445.351000", "172445.353000", "172445.356000", "172445.358000", "172445.361000", "172445.363000", "172445.366000", "172445.368000", "172445.371000", "172445.373000", "172445.376000", "172445.383000", "172445.407000", "172445.409000", "172445.412000", "172445.414000", "172445.416000", "172445.419000", "172525.412000", "172525.415000", "172525.417000", "172525.420000", "172525.422000", "172525.425000", "172525.427000", "172525.430000", "172525.432000", "172525.434000", "172525.437000", "172525.439000", "172525.442000", "172525.444000", "172525.447000", "172525.449000", "172525.452000", "172525.454000", "172525.457000", "172525.459000", "172525.462000", "172525.464000", "172525.467000", "172525.470000", "172525.472000", "172525.475000", "172525.477000", "172525.479000", "172525.482000", "172525.484000", "172525.487000", "172605.419000", "172605.422000", "172605.425000", "172605.427000", "172605.429000", "172605.432000", "172605.435000", "172605.437000", "172605.440000", "172605.442000", "172605.445000", "172605.447000", "172605.450000", "172605.452000", "172605.455000", "172605.457000", "172605.460000", "172605.462000", "172605.465000", "172605.467000", "172605.470000", "172605.472000", "172605.474000", "172605.477000", "172605.479000", "172605.482000", "172605.484000", "172645.421000", "172645.423000", "172645.426000", "172645.428000", "172645.431000", "172645.433000", "172645.436000", "172645.438000", "172645.441000", "172645.443000", "172645.445000", "172645.448000", "172645.450000", "172645.453000", "172645.455000", "172645.468000", "172645.470000", "172645.472000", "172645.475000", "172645.477000", "172645.480000", "172645.482000", "172645.485000", "172645.487000", "172645.490000", "172645.492000", "172703.368000", "172703.371000", "172703.373000", "172703.376000", "172703.378000", "172703.381000", "172703.383000", "172703.386000", "172703.389000", "172703.391000", "172703.394000", "172703.396000", "172703.399000"],
      "InstanceNumber": [1, 2, 3, 4, 5, 6, 7, 8, 9, 10, 11, 12, 13, 14, 15, 16, 17, 18, 19, 20, 21, 22, 23, 24, 25, 26, 27, 28, 29, 30, 31, 32, 33, 34, 35, 36, 37, 38, 39, 40, 41, 42, 43, 44, 45, 46, 47, 48, 49, 50, 51, 52, 53, 54, 55, 56, 57, 58, 59, 60, 61, 62, 63, 64, 65, 66, 67, 68, 69, 70, 71, 72, 73, 74, 75, 76, 77, 78, 79, 80, 81, 82, 83, 84, 85, 86, 87, 88, 89, 90, 91, 92, 93, 94, 95, 96, 97, 98, 99, 100, 101, 102, 103, 104, 105, 106, 107, 108, 109, 110, 111, 112, 113, 114, 115, 116, 117, 118, 119, 120, 121, 122, 123, 124, 125, 126, 127, 128, 129, 130, 131, 132, 133, 134, 135, 136, 137, 138, 139, 140, 141, 142, 143, 144, 145, 146, 147, 148, 149, 150, 151, 152, 153, 154, 155, 156, 157, 158, 159, 160, 161, 162, 163, 164, 165, 166, 167, 168, 169, 170, 171, 172, 173, 174, 175, 176, 177, 178, 179, 180, 181, 182, 183, 184, 185, 186, 187, 188, 189, 190],
      "WindowCenter": [4830.0, 4828.0, 4826.0, 4826.0, 4826.0, 4828.0, 4832.0, 4830.0, 4824.0, 4830.0, 4826.0, 4824.0, 4826.0, 4826.0, 4826.0, 4826.0, 4824.0, 4828.0, 4826.0, 4828.0, 4830.0, 4828.0, 4826.0, 4826.0, 4824.0, 4826.0, 4828.0, 4828.0, 4826.0, 4826.0, 4824.0, 4830.0, 4824.0, 4826.0, 4826.0, 4824.0, 4822.0, 4828.0, 4822.0, 4824.0, 4830.0, 4828.0, 4826.0, 4828.0, 4828.0, 4852.0, 4830.0, 4826.0, 4826.0, 4824.0, 4826.0, 4824.0, 4826.0, 4826.0, 4826.0, 4828.0, 4828.0, 4826.0, 4826.0, 4826.0, 4826.0, 4826.0, 4828.0, 4828.0, 4826.0, 4852.0, 4824.0, 4826.0, 4828.0, 4826.0, 4824.0, 4826.0, 4824.0, 4826.0, 4828.0, 4826.0, 4824.0, 4826.0, 4824.0, 4826.0, 4828.0, 4828.0, 4826.0, 4824.0, 4826.0, 4824.0, 4824.0, 4828.0, 4830.0, 4828.0, 4830.0, 4826.0, 4826.0, 4828.0, 4824.0, 4828.0, 4824.0, 4824.0, 4826.0, 4826.0, 4826.0, 4826.0, 4832.0, 4828.0, 4824.0, 4828.0, 4824.0, 4828.0, 4822.0, 4828.0, 4828.0, 4824.0, 4824.0, 4826.0, 4826.0, 4826.0, 4826.0, 4828.0, 4828.0, 4830.0, 4830.0, 4828.0, 4828.0, 4852.0, 4826.0, 4830.0, 4828.0, 4828.0, 4850.0, 4828.0, 4830.0, 4850.0, 4828.0, 4830.0, 4830.0, 4826.0, 4830.0, 4826.0, 4830.0, 4828.0, 4828.0, 4826.0, 4828.0, 4828.0, 4828.0, 4826.0, 4828.0, 4828.0, 4830.0, 4830.0, 4828.0, 4828.0, 4832.0, 4828.0, 4854.0, 4828.0, 4826.0, 4826.0, 4828.0, 4828.0, 4830.0, 4822.0, 4854.0, 4824.0, 4826.0, 4826.0, 4826.0, 4830.0, 4826.0, 4826.0, 4832.0, 4828.0, 4826.0, 4826.0, 4828.0, 4826.0, 4824.0, 4826.0, 4826.0, 4828.0, 4828.0, 4830.0, 4828.0, 4826.0, 4832.0, 4828.0, 4800.0, 4832.0, 4828.0, 4826.0],
      "WindowWidth": [18590.0, 18590.0, 18592.0, 18588.0, 18590.0, 18592.0, 18596.0, 18590.0, 18588.0, 18596.0, 18592.0, 18588.0, 18592.0, 18588.0, 18590.0, 18594.0, 18590.0, 18592.0, 18588.0, 18592.0, 18594.0, 18586.0, 18592.0, 18588.0, 18588.0, 18592.0, 18592.0, 18590.0, 18594.0, 18590.0, 18584.0, 18596.0, 18590.0, 18590.0, 18592.0, 18592.0, 18584.0, 18594.0, 18588.0, 18586.0, 18594.0, 18592.0, 18590.0, 18588.0, 18592.0, 18624.0, 18594.0, 18588.0, 18590.0, 18588.0, 18590.0, 18590.0, 18594.0, 18592.0, 18592.0, 18588.0, 18590.0, 18590.0, 18590.0, 18590.0, 18592.0, 18590.0, 18590.0, 18590.0, 18590.0, 18620.0, 18588.0, 18592.0, 18584.0, 18582.0, 18580.0, 18588.0, 18582.0, 18586.0, 18586.0, 18590.0, 18584.0, 18592.0, 18584.0, 18582.0, 18590.0, 18590.0, 18590.0, 18582.0, 18586.0, 18584.0, 18584.0, 18592.0, 18586.0, 18584.0, 18592.0, 18580.0, 18586.0, 18588.0, 18584.0, 18588.0, 18586.0, 18586.0, 18590.0, 18588.0, 18590.0, 18588.0, 18594.0, 18586.0, 18584.0, 18590.0, 18586.0, 18594.0, 18588.0, 18594.0, 18586.0, 18584.0, 18590.0, 18586.0, 18586.0, 18594.0, 18588.0, 18592.0, 18594.0, 18592.0, 18592.0, 18590.0, 18592.0, 18628.0, 18590.0, 18592.0, 18592.0, 18590.0, 18626.0, 18590.0, 18596.0, 18624.0, 18590.0, 18594.0, 18588.0, 18586.0, 18594.0, 18588.0, 18592.0, 18596.0, 18590.0, 18586.0, 18592.0, 18586.0, 18594.0, 18586.0, 18584.0, 18594.0, 18590.0, 18592.0, 18584.0, 18592.0, 18594.0, 18588.0, 18626.0, 18590.0, 18584.0, 18590.0, 18586.0, 18586.0, 18590.0, 18580.0, 18622.0, 18584.0, 18586.0, 18586.0, 18586.0, 18592.0, 18584.0, 18586.0, 18592.0, 18586.0, 18582.0, 18582.0, 18588.0, 18586.0, 18582.0, 18582.0, 18586.0, 18590.0, 18584.0, 18588.0, 18588.0, 18582.0, 18592.0, 18584.0, 18558.0, 18588.0, 18592.0, 18584.0]
    },
    "slices": {}
  }
}