{
  "AcquisitionMatrixPE": 104,
  "AcquisitionNumber": 1,
  "AcquisitionTime": "17:29:22.405000",
  "BandwidthPerPixelPhaseEncode": 17.17,
  "BaseResolution": 104,
  "BodyPartExamined": "BRAIN",
  "CoilString": "HC1-7;NC1_2",
  "ConsistencyInfo": "N4_VE11C_LATEST_20160120",
  "ConversionSoftware": "dcm2niix",
  "ConversionSoftwareVersion": "v1.0.20190902",
  "DerivedVendorReportedEchoSpacing": 0.000560011,
  "DeviceSerialNumber": "167006",
  "DwellTime": 2.1e-06,
  "EchoTime": 0.037,
  "EchoTrainLength": 104,
  "EffectiveEchoSpacing": 0.000560011,
  "FlipAngle": 52,
  "ImageComments": "Unaliased_MB4_PE3_LB",
  "ImageOrientationPatientDICOM": [0.997922, 0.036439, 0.0531316, -0.016025, 0.939157, -0.343115],
  "ImageType": [
    "ORIGINAL",
    "PRIMARY",
    "M",
    "MB",
    "ND",
    "MOSAIC"
],
  "ImagingFrequency": 123.259,
  "InPlanePhaseEncodingDirectionDICOM": "COL",
  "InstitutionAddress": "Chemin_Queen-Mary_4565_Montreal_District_CA_H3W_1W5",
  "InstitutionName": "IUGM",
  "InstitutionalDepartmentName": "Department",
  "MRAcquisitionType": "2D",
  "MagneticFieldStrength": 3,
  "Manufacturer": "Siemens",
  "ManufacturersModelName": "Prisma_fit",
  "Modality": "MR",
  "MultibandAccelerationFactor": 4,
  "PartialFourier": 1,
  "PatientPosition": "HFS",
  "PercentPhaseFOV": 100,
  "PhaseEncodingDirection": "j",
  "PhaseEncodingSteps": 104,
  "PhaseResolution": 1,
  "PixelBandwidth": 2290,
  "ProcedureStepDescription": "memory_things",
  "ProtocolName": "func_task-things_run-5",
  "PulseSequenceDetails": "%CustomerSeq%_cmrr_mbep2d_bold",
  "ReceiveCoilActiveElements": "HC1-7;NC1,2",
  "ReceiveCoilName": "HeadNeck_64",
  "ReconMatrixPE": 104,
  "RepetitionTime": 1.49,
  "SAR": 0.0507239,
  "ScanOptions": "FS",
  "ScanningSequence": "EP",
  "SequenceName": "epfid2d1_104",
  "SequenceVariant": "SK_SS",
  "SeriesDescription": "func_task-things_run-5",
  "SeriesNumber": 22,
  "ShimSetting": [645, -7192, -8806, 653, 74, 2, -49, -9],
  "SliceThickness": 2,
  "SliceTiming": [0, 0.785, 0.0975, 0.8825, 0.195, 0.98, 0.295, 1.0775, 0.3925, 1.175, 0.49, 1.275, 0.5875, 1.3725, 0.685, 0, 0.785, 0.0975, 0.8825, 0.195, 0.98, 0.295, 1.0775, 0.3925, 1.175, 0.49, 1.275, 0.5875, 1.3725, 0.685, 0, 0.785, 0.0975, 0.8825, 0.195, 0.98, 0.295, 1.0775, 0.3925, 1.175, 0.49, 1.275, 0.5875, 1.3725, 0.685, 0, 0.785, 0.0975, 0.8825, 0.195, 0.98, 0.295, 1.0775, 0.3925, 1.175, 0.49, 1.275, 0.5875, 1.3725, 0.685],
  "SoftwareVersions": "syngo_MR_E11",
  "SpacingBetweenSlices": 2,
  "StationName": "MRC35049",
  "TaskName": "things",
  "TotalReadoutTime": 0.0576811,
  "TxRefAmp": 268.645,
  "WipMemBlock": "f5c62745-fcc6-4c97-8bd8-e2dd397b52aa||Sequence: R016 ve11c/master r/e634e98; Dec 19 2017 11:00:25 by eja",
  "dcmmeta_affine": [
    [-1.9958449602127075, -0.032050084322690964, 0.124803327023983, 106.22886657714844],
    [-0.07287809252738953, 1.878313660621643, -0.6831008195877075, -55.37710952758789],
    [0.1062631756067276, 0.6862293481826782, 1.8755792379379272, -60.809566497802734],
    [0.0, 0.0, 0.0, 1.0]
],
  "dcmmeta_reorient_transform": [
    [0.0, -1.0, 0.0, 103.0],
    [1.0, 0.0, 0.0, 0.0],
    [0.0, 0.0, 1.0, 0.0],
    [0.0, 0.0, 0.0, 1.0]
],
  "dcmmeta_shape": [104, 104, 60, 190],
  "dcmmeta_slice_dim": 2,
  "dcmmeta_version": 0.6,
  "global": {
    "const": {
      "AcquisitionMatrix": [104, 0, 0, 104],
      "AngioFlag": "N",
      "BitsAllocated": 16,
      "BitsStored": 16,
      "BodyPartExamined": "BRAIN",
      "Columns": 832,
      "EchoNumbers": 1,
      "EchoTime": 37.0,
      "EchoTrainLength": 104,
      "FlipAngle": 52.0,
      "HighBit": 15,
      "ImageOrientationPatient": [0.99792245716818, 0.03643904520033, 0.0531315863146, -0.0160250427009, 0.93915680901912, -0.3431146835673],
      "ImagePositionPatient": [-817.74902726907, -848.32297467909, 220.9797526033],
      "ImageType": [
        "ORIGINAL",
        "PRIMARY",
        "M",
        "MB",
        "ND",
        "MOSAIC"
],
      "ImagedNucleus": "1H",
      "ImagingFrequency": 123.258976,
      "InPlanePhaseEncodingDirection": "COL",
      "MRAcquisitionType": "2D",
      "MagneticFieldStrength": 3.0,
      "Manufacturer": "SIEMENS",
      "ManufacturerModelName": "Prisma_fit",
      "Modality": "MR",
      "NumberOfAverages": 1.0,
      "NumberOfPhaseEncodingSteps": 104,
      "PercentPhaseFieldOfView": 100.0,
      "PercentSampling": 100.0,
      "PerformedProcedureStepStartTime": "162723.599000",
      "PhotometricInterpretation": "MONOCHROME2",
      "PixelBandwidth": 2290.0,
      "PixelRepresentation": 0,
      "PixelSpacing": [2.0, 2.0],
      "ProtocolName": "func_task-things_run-5",
      "RepetitionTime": 1490.0,
      "Rows": 832,
      "SAR": 0.0507238530437,
      "SamplesPerPixel": 1,
      "ScanOptions": "FS",
      "ScanningSequence": "EP",
      "SequenceName": "epfid2d1_104",
      "SequenceVariant": [
        "SK",
        "SS"
],
      "SeriesDescription": "func_task-things_run-5",
      "SeriesNumber": 22,
      "SeriesTime": "173023.692000",
      "SliceLocation": -31.483647310116,
      "SliceThickness": 2.0,
      "SmallestImagePixelValue": 0,
      "SoftwareVersions": "syngo MR E11",
      "SpacingBetweenSlices": 2.000000056847,
      "SpecificCharacterSet": "ISO_IR 100",
      "StudyID": "1",
      "StudyTime": "162723.537000",
      "TransmitCoilName": "Body",
      "VariableFlipAngleFlag": "N",
      "WindowCenterWidthExplanation": "Algo1",
      "dBdt": 0.0},
    "slices": {}
  },
  "time": {
    "samples": {
      "AcquisitionNumber": [1, 2, 3, 4, 5, 6, 7, 8, 9, 10, 11, 12, 13, 14, 15, 16, 17, 18, 19, 20, 21, 22, 23, 24, 25, 26, 27, 28, 29, 30, 31, 32, 33, 34, 35, 36, 37, 38, 39, 40, 41, 42, 43, 44, 45, 46, 47, 48, 49, 50, 51, 52, 53, 54, 55, 56, 57, 58, 59, 60, 61, 62, 63, 64, 65, 66, 67, 68, 69, 70, 71, 72, 73, 74, 75, 76, 77, 78, 79, 80, 81, 82, 83, 84, 85, 86, 87, 88, 89, 90, 91, 92, 93, 94, 95, 96, 97, 98, 99, 100, 101, 102, 103, 104, 105, 106, 107, 108, 109, 110, 111, 112, 113, 114, 115, 116, 117, 118, 119, 120, 121, 122, 123, 124, 125, 126, 127, 128, 129, 130, 131, 132, 133, 134, 135, 136, 137, 138, 139, 140, 141, 142, 143, 144, 145, 146, 147, 148, 149, 150, 151, 152, 153, 154, 155, 156, 157, 158, 159, 160, 161, 162, 163, 164, 165, 166, 167, 168, 169, 170, 171, 172, 173, 174, 175, 176, 177, 178, 179, 180, 181, 182, 183, 184, 185, 186, 187, 188, 189, 190],
      "AcquisitionTime": ["172922.405000", "172923.895000", "172925.385000", "172926.875000", "172928.365000", "172929.855000", "172931.345000", "172932.835000", "172934.325000", "172935.815000", "172937.305000", "172938.795000", "172940.285000", "172941.775000", "172943.265000", "172944.755000", "172946.245000", "172947.735000", "172949.225000", "172950.715000", "172952.205000", "172953.695000", "172955.185000", "172956.675000", "172958.165000", "172959.655000", "173001.145000", "173002.635000", "173004.125000", "173005.615000", "173007.105000", "173008.595000", "173010.085000", "173011.575000", "173013.065000", "173014.555000", "173016.045000", "173017.535000", "173019.025000", "173020.515000", "173022.005000", "173023.495000", "173024.985000", "173026.475000", "173027.965000", "173029.455000", "173030.945000", "173032.435000", "173033.925000", "173035.415000", "173036.905000", "173038.395000", "173039.885000", "173041.375000", "173042.865000", "173044.355000", "173045.845000", "173047.335000", "173048.825000", "173050.315000", "173051.805000", "173053.295000", "173054.785000", "173056.275000", "173057.765000", "173059.255000", "173100.745000", "173102.235000", "173103.725000", "173105.215000", "173106.705000", "173108.195000", "173109.685000", "173111.175000", "173112.665000", "173114.155000", "173115.645000", "173117.135000", "173118.625000", "173120.115000", "173121.605000", "173123.095000", "173124.585000", "173126.075000", "173127.565000", "173129.055000", "173130.545000", "173132.035000", "173133.525000", "173135.015000", "173136.505000", "173137.995000", "173139.485000", "173140.975000", "173142.465000", "173143.955000", "173145.445000", "173146.935000", "173148.425000", "173149.915000", "173151.405000", "173152.895000", "173154.385000", "173155.875000", "173157.365000", "173158.855000", "173200.345000", "173201.835000", "173203.325000", "173204.815000", "173206.305000", "173207.795000", "173209.285000", "173210.775000", "173212.265000", "173213.755000", "173215.245000", "173216.735000", "173218.225000", "173219.715000", "173221.205000", "173222.695000", "173224.185000", "173225.675000", "173227.165000", "173228.655000", "173230.145000", "173231.635000", "173233.125000", "173234.615000", "173236.105000", "173237.595000", "173239.085000", "173240.575000", "173242.065000", "173243.555000", "173245.045000", "173246.535000", "173248.025000", "173249.515000", "173251.005000", "173252.495000", "173253.985000", "173255.475000", "173256.965000", "173258.455000", "173259.945000", "173301.435000", "173302.925000", "173304.415000", "173305.905000", "173307.395000", "173308.885000", "173310.375000", "173311.865000", "173313.355000", "173314.845000", "173316.335000", "173317.825000", "173319.315000", "173320.805000", "173322.295000", "173323.785000", "173325.275000", "173326.765000", "173328.255000", "173329.745000", "173331.235000", "173332.725000", "173334.215000", "173335.705000", "173337.195000", "173338.685000", "173340.175000", "173341.665000", "173343.155000", "173344.645000", "173346.135000", "173347.625000", "173349.115000", "173350.605000", "173352.095000", "173353.585000", "173355.075000", "173356.565000", "173358.055000", "173359.545000", "173401.035000", "173402.525000", "173404.015000"],
      "ContentTime": ["173023.695000", "173023.708000", "173023.711000", "173023.714000", "173023.738000", "173023.741000", "173023.745000", "173043.659000", "173043.669000", "173043.672000", "173043.675000", "173043.679000", "173043.682000", "173043.685000", "173043.689000", "173043.693000", "173043.696000", "173043.699000", "173043.702000", "173043.707000", "173043.711000", "173043.714000", "173043.717000", "173043.720000", "173043.723000", "173043.727000", "173043.730000", "173103.659000", "173103.663000", "173103.666000", "173103.669000", "173103.672000", "173103.676000", "173103.679000", "173103.682000", "173103.685000", "173103.688000", "173103.692000", "173103.695000", "173103.699000", "173103.702000", "173103.705000", "173103.709000", "173103.712000", "173103.715000", "173103.718000", "173103.721000", "173103.724000", "173123.659000", "173123.663000", "173123.666000", "173123.669000", "173123.673000", "173123.676000", "173123.679000", "173123.682000", "173123.685000", "173123.689000", "173123.698000", "173123.702000", "173123.705000", "173123.708000", "173123.711000", "173123.714000", "173123.718000", "173123.721000", "173123.724000", "173123.727000", "173143.659000", "173143.663000", "173143.666000", "173143.669000", "173143.673000", "173143.676000", "173143.679000", "173143.682000", "173143.685000", "173143.689000", "173143.692000", "173143.695000", "173143.699000", "173143.702000", "173143.705000", "173143.708000", "173143.711000", "173143.715000", "173143.718000", "173143.721000", "173223.659000", "173223.663000", "173223.666000", "173223.669000", "173223.684000", "173223.687000", "173223.690000", "173223.693000", "173223.696000", "173223.700000", "173223.703000", "173223.706000", "173223.709000", "173223.713000", "173223.716000", "173223.719000", "173223.722000", "173223.726000", "173223.729000", "173223.732000", "173223.736000", "173223.739000", "173223.742000", "173223.745000", "173223.748000", "173223.752000", "173223.755000", "173223.758000", "173223.761000", "173223.765000", "173223.768000", "173223.771000", "173223.774000", "173303.659000", "173303.663000", "173303.666000", "173303.669000", "173303.672000", "173303.676000", "173303.679000", "173303.682000", "173303.686000", "173303.689000", "173303.692000", "173303.695000", "173303.699000", "173303.702000", "173303.705000", "173303.708000", "173303.712000", "173303.715000", "173303.718000", "173303.721000", "173303.725000", "173303.728000", "173303.731000", "173303.734000", "173303.738000", "173303.741000", "173303.744000", "173343.659000", "173343.663000", "173343.666000", "173343.670000", "173343.673000", "173343.691000", "173343.696000", "173343.701000", "173343.704000", "173343.707000", "173343.711000", "173343.714000", "173343.717000", "173343.721000", "173343.724000", "173343.727000", "173343.730000", "173343.734000", "173343.737000", "173343.740000", "173343.744000", "173343.747000", "173343.750000", "173343.753000", "173343.757000", "173343.760000", "173406.099000", "173406.103000", "173406.106000", "173406.109000", "173406.113000", "173406.116000", "173406.119000", "173406.123000", "173406.126000", "173406.129000", "173406.133000", "173406.136000", "173406.139000", "173406.143000", "173406.146000", "173406.150000"],
      "InstanceCreationTime": ["173023.695000", "173023.708000", "173023.711000", "173023.714000", "173023.738000", "173023.741000", "173023.745000", "173043.659000", "173043.669000", "173043.672000", "173043.675000", "173043.679000", "173043.682000", "173043.685000", "173043.689000", "173043.693000", "173043.696000", "173043.699000", "173043.702000", "173043.707000", "173043.711000", "173043.714000", "173043.717000", "173043.720000", "173043.723000", "173043.727000", "173043.730000", "173103.659000", "173103.663000", "173103.666000", "173103.669000", "173103.672000", "173103.676000", "173103.679000", "173103.682000", "173103.685000", "173103.688000", "173103.692000", "173103.695000", "173103.699000", "173103.702000", "173103.705000", "173103.709000", "173103.712000", "173103.715000", "173103.718000", "173103.721000", "173103.724000", "173123.659000", "173123.663000", "173123.666000", "173123.669000", "173123.673000", "173123.676000", "173123.679000", "173123.682000", "173123.685000", "173123.689000", "173123.698000", "173123.702000", "173123.705000", "173123.708000", "173123.711000", "173123.714000", "173123.718000", "173123.721000", "173123.724000", "173123.727000", "173143.659000", "173143.663000", "173143.666000", "173143.669000", "173143.673000", "173143.676000", "173143.679000", "173143.682000", "173143.685000", "173143.689000", "173143.692000", "173143.695000", "173143.699000", "173143.702000", "173143.705000", "173143.708000", "173143.711000", "173143.715000", "173143.718000", "173143.721000", "173223.659000", "173223.663000", "173223.666000", "173223.669000", "173223.684000", "173223.687000", "173223.690000", "173223.693000", "173223.696000", "173223.700000", "173223.703000", "173223.706000", "173223.709000", "173223.713000", "173223.716000", "173223.719000", "173223.722000", "173223.726000", "173223.729000", "173223.732000", "173223.736000", "173223.739000", "173223.742000", "173223.745000", "173223.748000", "173223.752000", "173223.755000", "173223.758000", "173223.761000", "173223.765000", "173223.768000", "173223.771000", "173223.774000", "173303.659000", "173303.663000", "173303.666000", "173303.669000", "173303.672000", "173303.676000", "173303.679000", "173303.682000", "173303.686000", "173303.689000", "173303.692000", "173303.695000", "173303.699000", "173303.702000", "173303.705000", "173303.708000", "173303.712000", "173303.715000", "173303.718000", "173303.721000", "173303.725000", "173303.728000", "173303.731000", "173303.734000", "173303.738000", "173303.741000", "173303.744000", "173343.659000", "173343.663000", "173343.666000", "173343.670000", "173343.673000", "173343.691000", "173343.696000", "173343.701000", "173343.704000", "173343.707000", "173343.711000", "173343.714000", "173343.717000", "173343.721000", "173343.724000", "173343.727000", "173343.730000", "173343.734000", "173343.737000", "173343.740000", "173343.744000", "173343.747000", "173343.750000", "173343.753000", "173343.757000", "173343.760000", "173406.099000", "173406.103000", "173406.106000", "173406.109000", "173406.113000", "173406.116000", "173406.119000", "173406.123000", "173406.126000", "173406.129000", "173406.133000", "173406.136000", "173406.139000", "173406.143000", "173406.146000", "173406.150000"],
      "InstanceNumber": [1, 2, 3, 4, 5, 6, 7, 8, 9, 10, 11, 12, 13, 14, 15, 16, 17, 18, 19, 20, 21, 22, 23, 24, 25, 26, 27, 28, 29, 30, 31, 32, 33, 34, 35, 36, 37, 38, 39, 40, 41, 42, 43, 44, 45, 46, 47, 48, 49, 50, 51, 52, 53, 54, 55, 56, 57, 58, 59, 60, 61, 62, 63, 64, 65, 66, 67, 68, 69, 70, 71, 72, 73, 74, 75, 76, 77, 78, 79, 80, 81, 82, 83, 84, 85, 86, 87, 88, 89, 90, 91, 92, 93, 94, 95, 96, 97, 98, 99, 100, 101, 102, 103, 104, 105, 106, 107, 108, 109, 110, 111, 112, 113, 114, 115, 116, 117, 118, 119, 120, 121, 122, 123, 124, 125, 126, 127, 128, 129, 130, 131, 132, 133, 134, 135, 136, 137, 138, 139, 140, 141, 142, 143, 144, 145, 146, 147, 148, 149, 150, 151, 152, 153, 154, 155, 156, 157, 158, 159, 160, 161, 162, 163, 164, 165, 166, 167, 168, 169, 170, 171, 172, 173, 174, 175, 176, 177, 178, 179, 180, 181, 182, 183, 184, 185, 186, 187, 188, 189, 190],
      "LargestImagePixelValue": [44559, 42801, 42001, 42386, 42251, 42685, 42263, 41755, 41995, 41650, 43317, 42272, 41830, 41951, 42172, 42960, 42315, 42191, 41838, 42677, 42582, 43901, 42772, 43653, 43171, 43071, 42035, 43678, 43572, 42909, 43244, 43141, 42509, 42957, 44181, 43757, 43571, 42965, 43628, 43273, 43294, 44272, 43612, 43282, 43007, 43121, 43631, 43373, 43052, 42854, 43226, 43165, 42225, 42910, 43044, 43786, 43677, 43981, 43043, 43670, 43144, 44371, 44178, 43892, 43596, 43966, 44395, 43744, 44754, 43437, 44278, 44070, 44585, 43887, 44849, 44685, 44362, 44044, 43941, 43932, 44944, 44434, 43900, 43951, 44271, 44422, 43873, 44956, 43894, 46669, 44798, 44342, 44749, 43704, 45442, 45658, 45089, 44624, 45164, 44514, 45417, 45051, 44121, 43948, 43699, 44980, 44937, 44100, 44858, 44494, 45213, 45059, 44090, 44541, 43859, 45258, 44635, 44409, 44020, 44932, 45147, 44929, 43763, 43367, 43960, 43682, 43215, 43358, 44493, 43421, 44040, 43675, 44915, 44543, 44460, 44171, 43717, 44505, 43270, 44700, 43929, 44251, 44111, 43447, 43737, 44204, 43907, 44340, 44333, 43551, 44253, 48491, 41961, 41557, 43195, 42755, 41883, 42326, 42462, 43546, 42867, 42129, 42721, 42200, 41878, 41981, 42290, 41837, 42052, 41454, 41612, 41687, 41208, 41405, 41445, 41231, 41498, 45127, 40833, 41370, 41335, 41821, 40086, 40117, 44755, 41659, 40415, 39948, 39962, 40744],
      "WindowCenter": [10509.0, 10446.0, 10426.0, 10440.0, 10452.0, 10451.0, 10442.0, 10442.0, 10450.0, 10437.0, 10451.0, 10459.0, 10462.0, 10453.0, 10441.0, 10462.0, 10466.0, 10464.0, 10461.0, 10473.0, 10465.0, 10474.0, 10498.0, 10512.0, 10503.0, 10503.0, 10488.0, 10484.0, 10483.0, 10471.0, 10459.0, 10472.0, 10469.0, 10462.0, 10484.0, 10495.0, 10481.0, 10458.0, 10446.0, 10449.0, 10457.0, 10460.0, 10446.0, 10439.0, 10431.0, 10457.0, 10474.0, 10485.0, 10493.0, 10491.0, 10489.0, 10486.0, 10457.0, 10450.0, 10461.0, 10471.0, 10462.0, 10478.0, 10477.0, 10474.0, 10468.0, 10469.0, 10450.0, 10443.0, 10454.0, 10469.0, 10495.0, 10483.0, 10477.0, 10467.0, 10479.0, 10487.0, 10495.0, 10501.0, 10506.0, 10485.0, 10476.0, 10469.0, 10452.0, 10461.0, 10475.0, 10484.0, 10480.0, 10482.0, 10488.0, 10496.0, 10479.0, 10481.0, 10470.0, 10537.0, 10516.0, 10503.0, 10508.0, 10502.0, 10499.0, 10493.0, 10481.0, 10466.0, 10479.0, 10479.0, 10488.0, 10498.0, 10480.0, 10480.0, 10483.0, 10498.0, 10520.0, 10515.0, 10496.0, 10486.0, 10476.0, 10462.0, 10460.0, 10483.0, 10510.0, 10523.0, 10502.0, 10482.0, 10464.0, 10451.0, 10473.0, 10471.0, 10450.0, 10457.0, 10465.0, 10480.0, 10495.0, 10474.0, 10482.0, 10461.0, 10447.0, 10448.0, 10466.0, 10459.0, 10467.0, 10454.0, 10447.0, 10453.0, 10451.0, 10468.0, 10469.0, 10490.0, 10494.0, 10499.0, 10490.0, 10476.0, 10465.0, 10468.0, 10484.0, 10484.0, 10501.0, 10502.0, 10463.0, 10461.0, 10469.0, 10490.0, 10471.0, 10460.0, 10449.0, 10457.0, 10454.0, 10447.0, 10459.0, 10459.0, 10463.0, 10461.0, 10448.0, 10428.0, 10451.0, 10449.0, 10471.0, 10480.0, 10476.0, 10453.0, 10445.0, 10431.0, 10434.0, 10486.0, 10450.0, 10450.0, 10432.0, 10434.0, 10420.0, 10413.0, 10478.0, 10426.0, 10411.0, 10405.0, 10412.0, 10429.0],
      "WindowWidth": [22354.0, 22187.0, 22131.0, 22159.0, 22185.0, 22180.0, 22164.0, 22162.0, 22178.0, 22152.0, 22177.0, 22201.0, 22211.0, 22187.0, 22157.0, 22210.0, 22220.0, 22210.0, 22208.0, 22235.0, 22215.0, 22231.0, 22291.0, 22320.0, 22301.0, 22298.0, 22272.0, 22257.0, 22254.0, 22227.0, 22196.0, 22228.0, 22222.0, 22202.0, 22248.0, 22278.0, 22247.0, 22193.0, 22162.0, 22174.0, 22193.0, 22191.0, 22165.0, 22151.0, 22133.0, 22197.0, 22234.0, 22271.0, 22279.0, 22278.0, 22270.0, 22260.0, 22194.0, 22175.0, 22207.0, 22223.0, 22203.0, 22238.0, 22238.0, 22225.0, 22215.0, 22213.0, 22167.0, 22156.0, 22183.0, 22214.0, 22281.0, 22250.0, 22231.0, 22212.0, 22239.0, 22259.0, 22273.0, 22293.0, 22299.0, 22248.0, 22225.0, 22214.0, 22174.0, 22198.0, 22227.0, 22250.0, 22243.0, 22249.0, 22260.0, 22279.0, 22236.0, 22236.0, 22218.0, 22370.0, 22322.0, 22291.0, 22302.0, 22294.0, 22275.0, 22261.0, 22237.0, 22205.0, 22232.0, 22238.0, 22255.0, 22278.0, 22239.0, 22239.0, 22249.0, 22277.0, 22336.0, 22321.0, 22271.0, 22251.0, 22225.0, 22191.0, 22192.0, 22246.0, 22317.0, 22339.0, 22294.0, 22244.0, 22200.0, 22164.0, 22216.0, 22224.0, 22178.0, 22185.0, 22203.0, 22239.0, 22278.0, 22227.0, 22242.0, 22200.0, 22157.0, 22165.0, 22201.0, 22187.0, 22202.0, 22174.0, 22159.0, 22168.0, 22171.0, 22202.0, 22222.0, 22266.0, 22276.0, 22287.0, 22263.0, 22228.0, 22201.0, 22204.0, 22242.0, 22244.0, 22289.0, 22289.0, 22207.0, 22206.0, 22214.0, 22267.0, 22223.0, 22195.0, 22169.0, 22186.0, 22187.0, 22164.0, 22190.0, 22198.0, 22206.0, 22201.0, 22166.0, 22116.0, 22177.0, 22169.0, 22226.0, 22244.0, 22239.0, 22187.0, 22159.0, 22130.0, 22135.0, 22253.0, 22179.0, 22183.0, 22133.0, 22132.0, 22109.0, 22093.0, 22231.0, 22114.0, 22083.0, 22071.0, 22084.0, 22123.0]
    },
    "slices": {}
  }
}