{
  "AcquisitionMatrixPE": 104,
  "AcquisitionNumber": 1,
  "AcquisitionTime": "17:16:2.242500",
  "BandwidthPerPixelPhaseEncode": 17.17,
  "BaseResolution": 104,
  "BodyPartExamined": "BRAIN",
  "CoilString": "HC1-7;NC1_2",
  "ConsistencyInfo": "N4_VE11C_LATEST_20160120",
  "ConversionSoftware": "dcm2niix",
  "ConversionSoftwareVersion": "v1.0.20190902",
  "DerivedVendorReportedEchoSpacing": 0.000560011,
  "DeviceSerialNumber": "167006",
  "DwellTime": 2.1e-06,
  "EchoTime": 0.037,
  "EchoTrainLength": 104,
  "EffectiveEchoSpacing": 0.000560011,
  "FlipAngle": 52,
  "ImageComments": "Unaliased_MB4_PE3_LB",
  "ImageOrientationPatientDICOM": [0.997922, 0.036439, 0.0531316, -0.016025, 0.939157, -0.343115],
  "ImageType": [
    "ORIGINAL",
    "PRIMARY",
    "P",
    "MB",
    "ND",
    "MOSAIC"
],
  "ImagingFrequency": 123.259,
  "InPlanePhaseEncodingDirectionDICOM": "COL",
  "InstitutionAddress": "Chemin_Queen-Mary_4565_Montreal_District_CA_H3W_1W5",
  "InstitutionName": "IUGM",
  "InstitutionalDepartmentName": "Department",
  "MRAcquisitionType": "2D",
  "MagneticFieldStrength": 3,
  "Manufacturer": "Siemens",
  "ManufacturersModelName": "Prisma_fit",
  "Modality": "MR",
  "MultibandAccelerationFactor": 4,
  "PartialFourier": 1,
  "PatientPosition": "HFS",
  "PercentPhaseFOV": 100,
  "PhaseEncodingDirection": "j",
  "PhaseEncodingSteps": 104,
  "PhaseResolution": 1,
  "PixelBandwidth": 2290,
  "ProcedureStepDescription": "memory_things",
  "ProtocolName": "func_task-things_run-3",
  "PulseSequenceDetails": "%CustomerSeq%_cmrr_mbep2d_bold",
  "ReceiveCoilActiveElements": "HC1-7;NC1,2",
  "ReceiveCoilName": "HeadNeck_64",
  "ReconMatrixPE": 104,
  "RepetitionTime": 1.49,
  "SAR": 0.0507239,
  "ScanOptions": "FS",
  "ScanningSequence": "EP",
  "SequenceName": "epfid2d1_104",
  "SequenceVariant": "SK_SS",
  "SeriesDescription": "func_task-things_run-3",
  "SeriesNumber": 17,
  "ShimSetting": [645, -7192, -8806, 653, 74, 2, -49, -9],
  "SliceThickness": 2,
  "SliceTiming": [0, 0.785, 0.0975, 0.8825, 0.1975, 0.98, 0.295, 1.0775, 0.3925, 1.1775, 0.49, 1.275, 0.5875, 1.3725, 0.6875, 0, 0.785, 0.0975, 0.8825, 0.1975, 0.98, 0.295, 1.0775, 0.3925, 1.1775, 0.49, 1.275, 0.5875, 1.3725, 0.6875, 0, 0.785, 0.0975, 0.8825, 0.1975, 0.98, 0.295, 1.0775, 0.3925, 1.1775, 0.49, 1.275, 0.5875, 1.3725, 0.6875, 0, 0.785, 0.0975, 0.8825, 0.1975, 0.98, 0.295, 1.0775, 0.3925, 1.1775, 0.49, 1.275, 0.5875, 1.3725, 0.6875],
  "SoftwareVersions": "syngo_MR_E11",
  "SpacingBetweenSlices": 2,
  "StationName": "MRC35049",
  "TaskName": "things",
  "TotalReadoutTime": 0.0576811,
  "TxRefAmp": 268.645,
  "WipMemBlock": "e5e074fb-7538-4a12-a8e3-bc6487797800||Sequence: R016 ve11c/master r/e634e98; Dec 19 2017 11:00:25 by eja",
  "dcmmeta_affine": [
    [-1.9958449602127075, -0.032050084322690964, 0.124803327023983, 106.22886657714844],
    [-0.07287809252738953, 1.878313660621643, -0.6831008195877075, -55.37710952758789],
    [0.1062631756067276, 0.6862293481826782, 1.8755792379379272, -60.809566497802734],
    [0.0, 0.0, 0.0, 1.0]
],
  "dcmmeta_reorient_transform": [
    [0.0, -1.0, 0.0, 103.0],
    [1.0, 0.0, 0.0, 0.0],
    [0.0, 0.0, 1.0, 0.0],
    [0.0, 0.0, 0.0, 1.0]
],
  "dcmmeta_shape": [104, 104, 60, 190],
  "dcmmeta_slice_dim": 2,
  "dcmmeta_version": 0.6,
  "global": {
    "const": {
      "AcquisitionMatrix": [104, 0, 0, 104],
      "AngioFlag": "N",
      "BitsAllocated": 16,
      "BitsStored": 16,
      "BodyPartExamined": "BRAIN",
      "Columns": 832,
      "EchoNumbers": 1,
      "EchoTime": 37.0,
      "EchoTrainLength": 104,
      "FlipAngle": 52.0,
      "HighBit": 15,
      "ImageOrientationPatient": [0.99792245716818, 0.03643904520033, 0.0531315863146, -0.0160250427009, 0.93915680901912, -0.3431146835673],
      "ImagePositionPatient": [-817.74902726907, -848.32297467909, 220.9797526033],
      "ImageType": [
        "ORIGINAL",
        "PRIMARY",
        "P",
        "MB",
        "ND",
        "MOSAIC"
],
      "ImagedNucleus": "1H",
      "ImagingFrequency": 123.258972,
      "InPlanePhaseEncodingDirection": "COL",
      "LargestImagePixelValue": 4095,
      "MRAcquisitionType": "2D",
      "MagneticFieldStrength": 3.0,
      "Manufacturer": "SIEMENS",
      "ManufacturerModelName": "Prisma_fit",
      "Modality": "MR",
      "NumberOfAverages": 1.0,
      "NumberOfPhaseEncodingSteps": 104,
      "PercentPhaseFieldOfView": 100.0,
      "PercentSampling": 100.0,
      "PerformedProcedureStepStartTime": "162723.599000",
      "PhotometricInterpretation": "MONOCHROME2",
      "PixelBandwidth": 2290.0,
      "PixelRepresentation": 0,
      "PixelSpacing": [2.0, 2.0],
      "ProtocolName": "func_task-things_run-3",
      "RepetitionTime": 1490.0,
      "RescaleIntercept": -4096.0,
      "RescaleSlope": 2.0,
      "RescaleType": "US",
      "Rows": 832,
      "SAR": 0.0507238530437,
      "SamplesPerPixel": 1,
      "ScanOptions": "FS",
      "ScanningSequence": "EP",
      "SequenceName": "epfid2d1_104",
      "SequenceVariant": [
        "SK",
        "SS"
],
      "SeriesDescription": "func_task-things_run-3",
      "SeriesNumber": 17,
      "SeriesTime": "171722.031000",
      "SliceLocation": -31.483647310116,
      "SliceThickness": 2.0,
      "SmallestImagePixelValue": 0,
      "SoftwareVersions": "syngo MR E11",
      "SpacingBetweenSlices": 2.000000056847,
      "SpecificCharacterSet": "ISO_IR 100",
      "StudyID": "1",
      "StudyTime": "162723.537000",
      "TransmitCoilName": "Body",
      "VariableFlipAngleFlag": "N",
      "WindowCenterWidthExplanation": "Algo1",
      "dBdt": 0.0},
    "slices": {}
  },
  "time": {
    "samples": {
      "AcquisitionNumber": [1, 2, 3, 4, 5, 6, 7, 8, 9, 10, 11, 12, 13, 14, 15, 16, 17, 18, 19, 20, 21, 22, 23, 24, 25, 26, 27, 28, 29, 30, 31, 32, 33, 34, 35, 36, 37, 38, 39, 40, 41, 42, 43, 44, 45, 46, 47, 48, 49, 50, 51, 52, 53, 54, 55, 56, 57, 58, 59, 60, 61, 62, 63, 64, 65, 66, 67, 68, 69, 70, 71, 72, 73, 74, 75, 76, 77, 78, 79, 80, 81, 82, 83, 84, 85, 86, 87, 88, 89, 90, 91, 92, 93, 94, 95, 96, 97, 98, 99, 100, 101, 102, 103, 104, 105, 106, 107, 108, 109, 110, 111, 112, 113, 114, 115, 116, 117, 118, 119, 120, 121, 122, 123, 124, 125, 126, 127, 128, 129, 130, 131, 132, 133, 134, 135, 136, 137, 138, 139, 140, 141, 142, 143, 144, 145, 146, 147, 148, 149, 150, 151, 152, 153, 154, 155, 156, 157, 158, 159, 160, 161, 162, 163, 164, 165, 166, 167, 168, 169, 170, 171, 172, 173, 174, 175, 176, 177, 178, 179, 180, 181, 182, 183, 184, 185, 186, 187, 188, 189, 190],
      "AcquisitionTime": ["171602.242500", "171603.732500", "171605.222500", "171606.712500", "171608.202500", "171609.692500", "171611.182500", "171612.672500", "171614.162500", "171615.652500", "171617.142500", "171618.632500", "171620.122500", "171621.612500", "171623.102500", "171624.592500", "171626.082500", "171627.572500", "171629.062500", "171630.552500", "171632.042500", "171633.532500", "171635.022500", "171636.512500", "171638.002500", "171639.492500", "171640.982500", "171642.472500", "171643.962500", "171645.452500", "171646.942500", "171648.432500", "171649.922500", "171651.412500", "171652.902500", "171654.392500", "171655.882500", "171657.372500", "171658.862500", "171700.352500", "171701.842500", "171703.332500", "171704.822500", "171706.312500", "171707.802500", "171709.292500", "171710.782500", "171712.272500", "171713.762500", "171715.252500", "171716.742500", "171718.232500", "171719.722500", "171721.212500", "171722.702500", "171724.192500", "171725.682500", "171727.172500", "171728.662500", "171730.152500", "171731.642500", "171733.132500", "171734.622500", "171736.112500", "171737.602500", "171739.092500", "171740.582500", "171742.072500", "171743.562500", "171745.052500", "171746.542500", "171748.032500", "171749.522500", "171751.012500", "171752.502500", "171753.992500", "171755.482500", "171756.972500", "171758.462500", "171759.952500", "171801.442500", "171802.932500", "171804.422500", "171805.912500", "171807.402500", "171808.892500", "171810.382500", "171811.872500", "171813.362500", "171814.852500", "171816.342500", "171817.832500", "171819.322500", "171820.812500", "171822.302500", "171823.792500", "171825.282500", "171826.772500", "171828.262500", "171829.752500", "171831.242500", "171832.732500", "171834.222500", "171835.712500", "171837.202500", "171838.692500", "171840.182500", "171841.672500", "171843.162500", "171844.652500", "171846.142500", "171847.632500", "171849.122500", "171850.612500", "171852.102500", "171853.592500", "171855.082500", "171856.572500", "171858.062500", "171859.552500", "171901.042500", "171902.532500", "171904.022500", "171905.512500", "171907.002500", "171908.492500", "171909.982500", "171911.472500", "171912.962500", "171914.452500", "171915.942500", "171917.432500", "171918.922500", "171920.412500", "171921.902500", "171923.392500", "171924.882500", "171926.372500", "171927.862500", "171929.352500", "171930.842500", "171932.332500", "171933.822500", "171935.312500", "171936.802500", "171938.292500", "171939.782500", "171941.272500", "171942.762500", "171944.252500", "171945.742500", "171947.232500", "171948.722500", "171950.212500", "171951.702500", "171953.192500", "171954.682500", "171956.172500", "171957.662500", "171959.152500", "172000.642500", "172002.132500", "172003.622500", "172005.112500", "172006.602500", "172008.092500", "172009.582500", "172011.072500", "172012.562500", "172014.052500", "172015.542500", "172017.032500", "172018.522500", "172020.012500", "172021.502500", "172022.992500", "172024.482500", "172025.972500", "172027.462500", "172028.952500", "172030.442500", "172031.932500", "172033.422500", "172034.912500", "172036.402500", "172037.892500", "172039.382500", "172040.872500", "172042.362500", "172043.852500"],
      "ContentTime": ["171722.033000", "171722.035000", "171722.038000", "171722.040000", "171722.043000", "171722.045000", "171722.048000", "171722.050000", "171722.053000", "171722.055000", "171722.058000", "171722.060000", "171722.072000", "171722.075000", "171722.077000", "171722.079000", "171722.082000", "171722.084000", "171722.087000", "171722.089000", "171722.092000", "171722.094000", "171722.097000", "171722.099000", "171722.102000", "171722.104000", "171741.984000", "171741.987000", "171741.989000", "171741.992000", "171741.994000", "171741.997000", "171742.000000", "171742.003000", "171742.005000", "171742.009000", "171742.011000", "171742.014000", "171742.016000", "171742.019000", "171742.021000", "171742.024000", "171742.026000", "171742.028000", "171742.031000", "171742.033000", "171802.491000", "171802.494000", "171802.496000", "171802.498000", "171802.501000", "171802.503000", "171802.511000", "171802.514000", "171802.516000", "171802.519000", "171802.521000", "171802.524000", "171802.526000", "171802.529000", "171802.531000", "171802.533000", "171802.536000", "171802.539000", "171802.541000", "171802.543000", "171822.023000", "171822.026000", "171822.028000", "171822.031000", "171822.033000", "171822.036000", "171822.038000", "171822.041000", "171822.043000", "171822.046000", "171822.048000", "171822.051000", "171822.053000", "171822.055000", "171822.058000", "171822.060000", "171822.063000", "171822.065000", "171822.068000", "171822.070000", "171822.073000", "171902.054000", "171902.057000", "171902.059000", "171902.062000", "171902.064000", "171902.067000", "171902.069000", "171902.072000", "171902.074000", "171902.077000", "171902.079000", "171902.081000", "171902.084000", "171902.086000", "171902.089000", "171902.091000", "171902.094000", "171902.096000", "171902.099000", "171902.101000", "171902.104000", "171902.106000", "171902.109000", "171902.111000", "171902.114000", "171902.116000", "171902.119000", "171902.121000", "171902.124000", "171902.126000", "171902.129000", "171902.131000", "171942.016000", "171942.019000", "171942.021000", "171942.024000", "171942.026000", "171942.028000", "171942.031000", "171942.033000", "171942.036000", "171942.038000", "171942.041000", "171942.043000", "171942.046000", "171942.048000", "171942.051000", "171942.053000", "171942.056000", "171942.058000", "171942.061000", "171942.063000", "171942.066000", "171942.068000", "171942.071000", "171942.073000", "171942.076000", "171942.078000", "171942.081000", "172022.017000", "172022.020000", "172022.023000", "172022.025000", "172022.028000", "172022.030000", "172022.032000", "172022.035000", "172022.037000", "172022.040000", "172022.042000", "172022.045000", "172022.047000", "172022.050000", "172022.052000", "172022.055000", "172022.057000", "172022.060000", "172022.062000", "172022.065000", "172022.067000", "172022.070000", "172022.072000", "172022.075000", "172022.077000", "172022.080000", "172022.082000", "172046.390000", "172046.393000", "172046.395000", "172046.398000", "172046.400000", "172046.403000", "172046.405000", "172046.408000", "172046.410000", "172046.413000", "172046.415000", "172046.418000", "172046.420000", "172046.423000", "172046.425000", "172046.428000", "172046.430000"],
      "InstanceCreationTime": ["171722.033000", "171722.035000", "171722.038000", "171722.040000", "171722.043000", "171722.045000", "171722.048000", "171722.050000", "171722.053000", "171722.055000", "171722.058000", "171722.060000", "171722.072000", "171722.075000", "171722.077000", "171722.079000", "171722.082000", "171722.084000", "171722.087000", "171722.089000", "171722.092000", "171722.094000", "171722.097000", "171722.099000", "171722.102000", "171722.104000", "171741.984000", "171741.987000", "171741.989000", "171741.992000", "171741.994000", "171741.997000", "171742.000000", "171742.003000", "171742.005000", "171742.009000", "171742.011000", "171742.014000", "171742.016000", "171742.019000", "171742.021000", "171742.024000", "171742.026000", "171742.028000", "171742.031000", "171742.033000", "171802.491000", "171802.494000", "171802.496000", "171802.498000", "171802.501000", "171802.503000", "171802.511000", "171802.514000", "171802.516000", "171802.519000", "171802.521000", "171802.524000", "171802.526000", "171802.529000", "171802.531000", "171802.533000", "171802.536000", "171802.539000", "171802.541000", "171802.543000", "171822.023000", "171822.026000", "171822.028000", "171822.031000", "171822.033000", "171822.036000", "171822.038000", "171822.041000", "171822.043000", "171822.046000", "171822.048000", "171822.051000", "171822.053000", "171822.055000", "171822.058000", "171822.060000", "171822.063000", "171822.065000", "171822.068000", "171822.070000", "171822.073000", "171902.054000", "171902.057000", "171902.059000", "171902.062000", "171902.064000", "171902.067000", "171902.069000", "171902.072000", "171902.074000", "171902.077000", "171902.079000", "171902.081000", "171902.084000", "171902.086000", "171902.089000", "171902.091000", "171902.094000", "171902.096000", "171902.099000", "171902.101000", "171902.104000", "171902.106000", "171902.109000", "171902.111000", "171902.114000", "171902.116000", "171902.119000", "171902.121000", "171902.124000", "171902.126000", "171902.129000", "171902.131000", "171942.016000", "171942.019000", "171942.021000", "171942.024000", "171942.026000", "171942.028000", "171942.031000", "171942.033000", "171942.036000", "171942.038000", "171942.041000", "171942.043000", "171942.046000", "171942.048000", "171942.051000", "171942.053000", "171942.056000", "171942.058000", "171942.061000", "171942.063000", "171942.066000", "171942.068000", "171942.071000", "171942.073000", "171942.076000", "171942.078000", "171942.081000", "172022.017000", "172022.020000", "172022.023000", "172022.025000", "172022.028000", "172022.030000", "172022.032000", "172022.035000", "172022.037000", "172022.040000", "172022.042000", "172022.045000", "172022.047000", "172022.050000", "172022.052000", "172022.055000", "172022.057000", "172022.060000", "172022.062000", "172022.065000", "172022.067000", "172022.070000", "172022.072000", "172022.075000", "172022.077000", "172022.080000", "172022.082000", "172046.390000", "172046.393000", "172046.395000", "172046.398000", "172046.400000", "172046.403000", "172046.405000", "172046.408000", "172046.410000", "172046.413000", "172046.415000", "172046.418000", "172046.420000", "172046.423000", "172046.425000", "172046.428000", "172046.430000"],
      "InstanceNumber": [1, 2, 3, 4, 5, 6, 7, 8, 9, 10, 11, 12, 13, 14, 15, 16, 17, 18, 19, 20, 21, 22, 23, 24, 25, 26, 27, 28, 29, 30, 31, 32, 33, 34, 35, 36, 37, 38, 39, 40, 41, 42, 43, 44, 45, 46, 47, 48, 49, 50, 51, 52, 53, 54, 55, 56, 57, 58, 59, 60, 61, 62, 63, 64, 65, 66, 67, 68, 69, 70, 71, 72, 73, 74, 75, 76, 77, 78, 79, 80, 81, 82, 83, 84, 85, 86, 87, 88, 89, 90, 91, 92, 93, 94, 95, 96, 97, 98, 99, 100, 101, 102, 103, 104, 105, 106, 107, 108, 109, 110, 111, 112, 113, 114, 115, 116, 117, 118, 119, 120, 121, 122, 123, 124, 125, 126, 127, 128, 129, 130, 131, 132, 133, 134, 135, 136, 137, 138, 139, 140, 141, 142, 143, 144, 145, 146, 147, 148, 149, 150, 151, 152, 153, 154, 155, 156, 157, 158, 159, 160, 161, 162, 163, 164, 165, 166, 167, 168, 169, 170, 171, 172, 173, 174, 175, 176, 177, 178, 179, 180, 181, 182, 183, 184, 185, 186, 187, 188, 189, 190],
      "WindowCenter": [4822.0, 4826.0, 4822.0, 4822.0, 4800.0, 4830.0, 4826.0, 4826.0, 4826.0, 4822.0, 4824.0, 4826.0, 4824.0, 4824.0, 4828.0, 4824.0, 4826.0, 4830.0, 4830.0, 4856.0, 4828.0, 4800.0, 4796.0, 4824.0, 4802.0, 4824.0, 4854.0, 4828.0, 4828.0, 4854.0, 4826.0, 4800.0, 4824.0, 4824.0, 4824.0, 4828.0, 4828.0, 4824.0, 4828.0, 4828.0, 4826.0, 4830.0, 4828.0, 4826.0, 4828.0, 4826.0, 4826.0, 4828.0, 4826.0, 4828.0, 4828.0, 4828.0, 4826.0, 4824.0, 4828.0, 4822.0, 4800.0, 4830.0, 4828.0, 4826.0, 4826.0, 4824.0, 4824.0, 4828.0, 4826.0, 4828.0, 4828.0, 4824.0, 4828.0, 4828.0, 4824.0, 4828.0, 4828.0, 4824.0, 4830.0, 4824.0, 4830.0, 4828.0, 4826.0, 4828.0, 4824.0, 4826.0, 4824.0, 4826.0, 4828.0, 4826.0, 4828.0, 4826.0, 4824.0, 4826.0, 4830.0, 4826.0, 4824.0, 4828.0, 4824.0, 4830.0, 4802.0, 4826.0, 4826.0, 4822.0, 4826.0, 4828.0, 4826.0, 4828.0, 4826.0, 4826.0, 4826.0, 4826.0, 4826.0, 4824.0, 4824.0, 4828.0, 4826.0, 4828.0, 4828.0, 4824.0, 4826.0, 4826.0, 4828.0, 4830.0, 4830.0, 4830.0, 4824.0, 4828.0, 4854.0, 4826.0, 4824.0, 4826.0, 4826.0, 4826.0, 4822.0, 4828.0, 4830.0, 4828.0, 4828.0, 4830.0, 4828.0, 4824.0, 4824.0, 4828.0, 4826.0, 4826.0, 4828.0, 4828.0, 4828.0, 4826.0, 4828.0, 4830.0, 4828.0, 4828.0, 4826.0, 4830.0, 4800.0, 4826.0, 4828.0, 4824.0, 4828.0, 4830.0, 4828.0, 4830.0, 4826.0, 4824.0, 4822.0, 4826.0, 4828.0, 4826.0, 4828.0, 4824.0, 4828.0, 4830.0, 4826.0, 4828.0, 4830.0, 4826.0, 4830.0, 4828.0, 4826.0, 4826.0, 4828.0, 4828.0, 4830.0, 4828.0, 4826.0, 4826.0, 4828.0, 4826.0, 4824.0, 4830.0, 4830.0, 4824.0],
      "WindowWidth": [18584.0, 18590.0, 18588.0, 18586.0, 18554.0, 18592.0, 18590.0, 18596.0, 18588.0, 18584.0, 18590.0, 18590.0, 18584.0, 18588.0, 18592.0, 18588.0, 18588.0, 18588.0, 18592.0, 18630.0, 18586.0, 18558.0, 18554.0, 18584.0, 18558.0, 18584.0, 18628.0, 18590.0, 18592.0, 18624.0, 18586.0, 18556.0, 18588.0, 18586.0, 18586.0, 18588.0, 18588.0, 18586.0, 18588.0, 18586.0, 18592.0, 18592.0, 18588.0, 18586.0, 18598.0, 18588.0, 18588.0, 18590.0, 18588.0, 18588.0, 18584.0, 18586.0, 18588.0, 18582.0, 18590.0, 18592.0, 18556.0, 18596.0, 18592.0, 18590.0, 18592.0, 18584.0, 18588.0, 18590.0, 18582.0, 18590.0, 18588.0, 18586.0, 18590.0, 18588.0, 18588.0, 18588.0, 18588.0, 18586.0, 18596.0, 18586.0, 18590.0, 18590.0, 18588.0, 18590.0, 18588.0, 18590.0, 18586.0, 18586.0, 18588.0, 18588.0, 18594.0, 18588.0, 18584.0, 18584.0, 18592.0, 18586.0, 18582.0, 18592.0, 18590.0, 18590.0, 18552.0, 18588.0, 18584.0, 18584.0, 18594.0, 18588.0, 18586.0, 18590.0, 18590.0, 18584.0, 18584.0, 18586.0, 18588.0, 18586.0, 18584.0, 18588.0, 18590.0, 18592.0, 18586.0, 18590.0, 18586.0, 18590.0, 18592.0, 18592.0, 18592.0, 18594.0, 18588.0, 18592.0, 18624.0, 18588.0, 18584.0, 18588.0, 18584.0, 18584.0, 18584.0, 18588.0, 18584.0, 18586.0, 18590.0, 18586.0, 18590.0, 18588.0, 18584.0, 18588.0, 18584.0, 18586.0, 18588.0, 18588.0, 18588.0, 18584.0, 18588.0, 18592.0, 18586.0, 18588.0, 18590.0, 18584.0, 18556.0, 18586.0, 18584.0, 18582.0, 18592.0, 18590.0, 18586.0, 18592.0, 18584.0, 18584.0, 18578.0, 18584.0, 18590.0, 18590.0, 18588.0, 18582.0, 18590.0, 18594.0, 18586.0, 18592.0, 18592.0, 18590.0, 18590.0, 18588.0, 18586.0, 18590.0, 18588.0, 18592.0, 18594.0, 18586.0, 18588.0, 18580.0, 18588.0, 18590.0, 18580.0, 18592.0, 18586.0, 18586.0]
    },
    "slices": {}
  }
}