{
  "AcquisitionMatrixPE": 104,
  "AcquisitionNumber": 1,
  "AcquisitionTime": "17:09:53.530000",
  "BandwidthPerPixelPhaseEncode": 17.17,
  "BaseResolution": 104,
  "BodyPartExamined": "BRAIN",
  "CoilString": "HC1-7;NC1_2",
  "ConsistencyInfo": "N4_VE11C_LATEST_20160120",
  "ConversionSoftware": "dcm2niix",
  "ConversionSoftwareVersion": "v1.0.20190902",
  "DerivedVendorReportedEchoSpacing": 0.000560011,
  "DeviceSerialNumber": "167006",
  "DwellTime": 2.1e-06,
  "EchoTime": 0.037,
  "EchoTrainLength": 104,
  "EffectiveEchoSpacing": 0.000560011,
  "FlipAngle": 52,
  "ImageComments": "Unaliased_MB4_PE3_LB",
  "ImageOrientationPatientDICOM": [0.997922, 0.036439, 0.0531316, -0.016025, 0.939157, -0.343115],
  "ImageType": [
    "ORIGINAL",
    "PRIMARY",
    "M",
    "MB",
    "ND",
    "MOSAIC"
],
  "ImagingFrequency": 123.259,
  "InPlanePhaseEncodingDirectionDICOM": "COL",
  "InstitutionAddress": "Chemin_Queen-Mary_4565_Montreal_District_CA_H3W_1W5",
  "InstitutionName": "IUGM",
  "InstitutionalDepartmentName": "Department",
  "MRAcquisitionType": "2D",
  "MagneticFieldStrength": 3,
  "Manufacturer": "Siemens",
  "ManufacturersModelName": "Prisma_fit",
  "Modality": "MR",
  "MultibandAccelerationFactor": 4,
  "PartialFourier": 1,
  "PatientPosition": "HFS",
  "PercentPhaseFOV": 100,
  "PhaseEncodingDirection": "j",
  "PhaseEncodingSteps": 104,
  "PhaseResolution": 1,
  "PixelBandwidth": 2290,
  "ProcedureStepDescription": "memory_things",
  "ProtocolName": "func_task-things_run-2",
  "PulseSequenceDetails": "%CustomerSeq%_cmrr_mbep2d_bold",
  "ReceiveCoilActiveElements": "HC1-7;NC1,2",
  "ReceiveCoilName": "HeadNeck_64",
  "ReconMatrixPE": 104,
  "RepetitionTime": 1.49,
  "SAR": 0.0507239,
  "ScanOptions": "FS",
  "ScanningSequence": "EP",
  "SequenceName": "epfid2d1_104",
  "SequenceVariant": "SK_SS",
  "SeriesDescription": "func_task-things_run-2",
  "SeriesNumber": 13,
  "ShimSetting": [645, -7192, -8806, 653, 74, 2, -49, -9],
  "SliceThickness": 2,
  "SliceTiming": [0, 0.785, 0.0975, 0.8825, 0.195, 0.98, 0.295, 1.0775, 0.3925, 1.175, 0.49, 1.275, 0.5875, 1.3725, 0.685, 0, 0.785, 0.0975, 0.8825, 0.195, 0.98, 0.295, 1.0775, 0.3925, 1.175, 0.49, 1.275, 0.5875, 1.3725, 0.685, 0, 0.785, 0.0975, 0.8825, 0.195, 0.98, 0.295, 1.0775, 0.3925, 1.175, 0.49, 1.275, 0.5875, 1.3725, 0.685, 0, 0.785, 0.0975, 0.8825, 0.195, 0.98, 0.295, 1.0775, 0.3925, 1.175, 0.49, 1.275, 0.5875, 1.3725, 0.685],
  "SoftwareVersions": "syngo_MR_E11",
  "SpacingBetweenSlices": 2,
  "StationName": "MRC35049",
  "TaskName": "things",
  "TotalReadoutTime": 0.0576811,
  "TxRefAmp": 268.645,
  "WipMemBlock": "1b4d0474-19e5-4a7f-a181-2059d0e662c6||Sequence: R016 ve11c/master r/e634e98; Dec 19 2017 11:00:25 by eja",
  "dcmmeta_affine": [
    [-1.9958449602127075, -0.032050084322690964, 0.124803327023983, 106.22886657714844],
    [-0.07287809252738953, 1.878313660621643, -0.6831008195877075, -55.37710952758789],
    [0.1062631756067276, 0.6862293481826782, 1.8755792379379272, -60.809566497802734],
    [0.0, 0.0, 0.0, 1.0]
],
  "dcmmeta_reorient_transform": [
    [0.0, -1.0, 0.0, 103.0],
    [1.0, 0.0, 0.0, 0.0],
    [0.0, 0.0, 1.0, 0.0],
    [0.0, 0.0, 0.0, 1.0]
],
  "dcmmeta_shape": [104, 104, 60, 190],
  "dcmmeta_slice_dim": 2,
  "dcmmeta_version": 0.6,
  "global": {
    "const": {
      "AcquisitionMatrix": [104, 0, 0, 104],
      "AngioFlag": "N",
      "BitsAllocated": 16,
      "BitsStored": 16,
      "BodyPartExamined": "BRAIN",
      "Columns": 832,
      "EchoNumbers": 1,
      "EchoTime": 37.0,
      "EchoTrainLength": 104,
      "FlipAngle": 52.0,
      "HighBit": 15,
      "ImageOrientationPatient": [0.99792245716818, 0.03643904520033, 0.0531315863146, -0.0160250427009, 0.93915680901912, -0.3431146835673],
      "ImagePositionPatient": [-817.74902726907, -848.32297467909, 220.9797526033],
      "ImageType": [
        "ORIGINAL",
        "PRIMARY",
        "M",
        "MB",
        "ND",
        "MOSAIC"
],
      "ImagedNucleus": "1H",
      "ImagingFrequency": 123.258967,
      "InPlanePhaseEncodingDirection": "COL",
      "MRAcquisitionType": "2D",
      "MagneticFieldStrength": 3.0,
      "Manufacturer": "SIEMENS",
      "ManufacturerModelName": "Prisma_fit",
      "Modality": "MR",
      "NumberOfAverages": 1.0,
      "NumberOfPhaseEncodingSteps": 104,
      "PercentPhaseFieldOfView": 100.0,
      "PercentSampling": 100.0,
      "PerformedProcedureStepStartTime": "162723.599000",
      "PhotometricInterpretation": "MONOCHROME2",
      "PixelBandwidth": 2290.0,
      "PixelRepresentation": 0,
      "PixelSpacing": [2.0, 2.0],
      "ProtocolName": "func_task-things_run-2",
      "RepetitionTime": 1490.0,
      "Rows": 832,
      "SAR": 0.0507238530437,
      "SamplesPerPixel": 1,
      "ScanOptions": "FS",
      "ScanningSequence": "EP",
      "SequenceName": "epfid2d1_104",
      "SequenceVariant": [
        "SK",
        "SS"
],
      "SeriesDescription": "func_task-things_run-2",
      "SeriesNumber": 13,
      "SeriesTime": "171103.692000",
      "SliceLocation": -31.483647310116,
      "SliceThickness": 2.0,
      "SmallestImagePixelValue": 0,
      "SoftwareVersions": "syngo MR E11",
      "SpacingBetweenSlices": 2.000000056847,
      "SpecificCharacterSet": "ISO_IR 100",
      "StudyID": "1",
      "StudyTime": "162723.537000",
      "TransmitCoilName": "Body",
      "VariableFlipAngleFlag": "N",
      "WindowCenterWidthExplanation": "Algo1",
      "dBdt": 0.0},
    "slices": {}
  },
  "time": {
    "samples": {
      "AcquisitionNumber": [1, 2, 3, 4, 5, 6, 7, 8, 9, 10, 11, 12, 13, 14, 15, 16, 17, 18, 19, 20, 21, 22, 23, 24, 25, 26, 27, 28, 29, 30, 31, 32, 33, 34, 35, 36, 37, 38, 39, 40, 41, 42, 43, 44, 45, 46, 47, 48, 49, 50, 51, 52, 53, 54, 55, 56, 57, 58, 59, 60, 61, 62, 63, 64, 65, 66, 67, 68, 69, 70, 71, 72, 73, 74, 75, 76, 77, 78, 79, 80, 81, 82, 83, 84, 85, 86, 87, 88, 89, 90, 91, 92, 93, 94, 95, 96, 97, 98, 99, 100, 101, 102, 103, 104, 105, 106, 107, 108, 109, 110, 111, 112, 113, 114, 115, 116, 117, 118, 119, 120, 121, 122, 123, 124, 125, 126, 127, 128, 129, 130, 131, 132, 133, 134, 135, 136, 137, 138, 139, 140, 141, 142, 143, 144, 145, 146, 147, 148, 149, 150, 151, 152, 153, 154, 155, 156, 157, 158, 159, 160, 161, 162, 163, 164, 165, 166, 167, 168, 169, 170, 171, 172, 173, 174, 175, 176, 177, 178, 179, 180, 181, 182, 183, 184, 185, 186, 187, 188, 189, 190],
      "AcquisitionTime": ["170953.530000", "170955.020000", "170956.510000", "170958.000000", "170959.490000", "171000.980000", "171002.470000", "171003.960000", "171005.450000", "171006.940000", "171008.430000", "171009.920000", "171011.410000", "171012.900000", "171014.390000", "171015.880000", "171017.370000", "171018.860000", "171020.350000", "171021.840000", "171023.330000", "171024.820000", "171026.310000", "171027.800000", "171029.290000", "171030.780000", "171032.270000", "171033.760000", "171035.250000", "171036.740000", "171038.230000", "171039.720000", "171041.210000", "171042.700000", "171044.190000", "171045.680000", "171047.170000", "171048.660000", "171050.150000", "171051.640000", "171053.130000", "171054.620000", "171056.110000", "171057.600000", "171059.090000", "171100.580000", "171102.070000", "171103.560000", "171105.050000", "171106.540000", "171108.030000", "171109.520000", "171111.010000", "171112.500000", "171113.990000", "171115.480000", "171116.970000", "171118.460000", "171119.950000", "171121.440000", "171122.930000", "171124.420000", "171125.910000", "171127.400000", "171128.890000", "171130.380000", "171131.870000", "171133.360000", "171134.850000", "171136.340000", "171137.830000", "171139.320000", "171140.810000", "171142.300000", "171143.790000", "171145.280000", "171146.770000", "171148.260000", "171149.750000", "171151.240000", "171152.730000", "171154.220000", "171155.710000", "171157.200000", "171158.690000", "171200.180000", "171201.670000", "171203.160000", "171204.650000", "171206.140000", "171207.630000", "171209.120000", "171210.610000", "171212.100000", "171213.590000", "171215.080000", "171216.570000", "171218.060000", "171219.550000", "171221.040000", "171222.530000", "171224.020000", "171225.510000", "171227.000000", "171228.490000", "171229.980000", "171231.470000", "171232.960000", "171234.450000", "171235.940000", "171237.430000", "171238.920000", "171240.410000", "171241.900000", "171243.390000", "171244.880000", "171246.370000", "171247.860000", "171249.350000", "171250.840000", "171252.330000", "171253.820000", "171255.310000", "171256.800000", "171258.290000", "171259.780000", "171301.270000", "171302.760000", "171304.250000", "171305.740000", "171307.230000", "171308.720000", "171310.210000", "171311.700000", "171313.190000", "171314.680000", "171316.170000", "171317.660000", "171319.150000", "171320.640000", "171322.130000", "171323.620000", "171325.110000", "171326.600000", "171328.090000", "171329.580000", "171331.070000", "171332.560000", "171334.050000", "171335.540000", "171337.030000", "171338.520000", "171340.010000", "171341.500000", "171342.990000", "171344.480000", "171345.970000", "171347.460000", "171348.950000", "171350.440000", "171351.930000", "171353.420000", "171354.910000", "171356.400000", "171357.890000", "171359.380000", "171400.870000", "171402.360000", "171403.850000", "171405.340000", "171406.830000", "171408.320000", "171409.810000", "171411.300000", "171412.790000", "171414.280000", "171415.770000", "171417.260000", "171418.750000", "171420.240000", "171421.730000", "171423.220000", "171424.710000", "171426.200000", "171427.690000", "171429.180000", "171430.670000", "171432.160000", "171433.650000", "171435.140000"],
      "ContentTime": ["171103.695000", "171103.699000", "171103.702000", "171103.705000", "171103.709000", "171103.712000", "171103.715000", "171103.718000", "171103.722000", "171103.729000", "171103.732000", "171103.736000", "171103.739000", "171103.742000", "171103.745000", "171103.749000", "171103.752000", "171123.659000", "171123.663000", "171123.666000", "171123.669000", "171123.672000", "171123.676000", "171123.679000", "171123.682000", "171123.685000", "171123.689000", "171123.692000", "171123.695000", "171123.698000", "171123.701000", "171123.705000", "171123.708000", "171123.711000", "171123.715000", "171123.718000", "171123.721000", "171123.724000", "171143.659000", "171143.663000", "171143.666000", "171143.669000", "171143.672000", "171143.676000", "171143.679000", "171143.682000", "171143.685000", "171143.689000", "171143.692000", "171143.695000", "171143.698000", "171143.701000", "171143.705000", "171143.708000", "171143.711000", "171143.714000", "171143.718000", "171143.721000", "171203.659000", "171203.663000", "171203.666000", "171203.669000", "171203.672000", "171203.676000", "171203.679000", "171203.682000", "171203.685000", "171203.689000", "171203.692000", "171203.695000", "171203.698000", "171203.702000", "171203.705000", "171203.708000", "171203.711000", "171203.715000", "171203.718000", "171203.721000", "171223.659000", "171223.663000", "171223.666000", "171223.669000", "171223.673000", "171223.676000", "171223.679000", "171223.682000", "171223.686000", "171223.689000", "171223.692000", "171223.695000", "171223.699000", "171223.702000", "171223.705000", "171223.709000", "171223.731000", "171223.734000", "171223.738000", "171223.741000", "171223.744000", "171303.659000", "171303.663000", "171303.666000", "171303.669000", "171303.673000", "171303.676000", "171303.679000", "171303.682000", "171303.686000", "171303.689000", "171303.692000", "171303.695000", "171303.699000", "171303.702000", "171303.705000", "171303.708000", "171303.712000", "171303.715000", "171303.718000", "171303.721000", "171303.725000", "171303.728000", "171303.731000", "171303.735000", "171303.738000", "171303.741000", "171303.744000", "171303.748000", "171343.659000", "171343.663000", "171343.666000", "171343.670000", "171343.673000", "171343.676000", "171343.680000", "171343.683000", "171343.686000", "171343.689000", "171343.693000", "171343.696000", "171343.699000", "171343.703000", "171343.706000", "171343.709000", "171343.713000", "171343.716000", "171343.720000", "171343.723000", "171343.726000", "171343.730000", "171343.733000", "171343.736000", "171343.740000", "171343.743000", "171343.746000", "171423.660000", "171423.664000", "171423.667000", "171423.671000", "171423.674000", "171423.677000", "171423.681000", "171423.684000", "171423.687000", "171423.690000", "171423.693000", "171423.697000", "171423.700000", "171423.703000", "171423.707000", "171423.710000", "171423.713000", "171423.717000", "171423.720000", "171423.723000", "171423.727000", "171423.730000", "171423.733000", "171423.736000", "171423.740000", "171423.743000", "171437.267000", "171437.270000", "171437.274000", "171437.277000", "171437.280000", "171437.284000", "171437.287000", "171437.290000", "171437.294000", "171437.297000"],
      "InstanceCreationTime": ["171103.695000", "171103.699000", "171103.702000", "171103.705000", "171103.709000", "171103.712000", "171103.715000", "171103.718000", "171103.722000", "171103.729000", "171103.732000", "171103.736000", "171103.739000", "171103.742000", "171103.745000", "171103.749000", "171103.752000", "171123.659000", "171123.663000", "171123.666000", "171123.669000", "171123.672000", "171123.676000", "171123.679000", "171123.682000", "171123.685000", "171123.689000", "171123.692000", "171123.695000", "171123.698000", "171123.701000", "171123.705000", "171123.708000", "171123.711000", "171123.715000", "171123.718000", "171123.721000", "171123.724000", "171143.659000", "171143.663000", "171143.666000", "171143.669000", "171143.672000", "171143.676000", "171143.679000", "171143.682000", "171143.685000", "171143.689000", "171143.692000", "171143.695000", "171143.698000", "171143.701000", "171143.705000", "171143.708000", "171143.711000", "171143.714000", "171143.718000", "171143.721000", "171203.659000", "171203.663000", "171203.666000", "171203.669000", "171203.672000", "171203.676000", "171203.679000", "171203.682000", "171203.685000", "171203.689000", "171203.692000", "171203.695000", "171203.698000", "171203.702000", "171203.705000", "171203.708000", "171203.711000", "171203.715000", "171203.718000", "171203.721000", "171223.659000", "171223.663000", "171223.666000", "171223.669000", "171223.673000", "171223.676000", "171223.679000", "171223.682000", "171223.686000", "171223.689000", "171223.692000", "171223.695000", "171223.699000", "171223.702000", "171223.705000", "171223.709000", "171223.731000", "171223.734000", "171223.738000", "171223.741000", "171223.744000", "171303.659000", "171303.663000", "171303.666000", "171303.669000", "171303.673000", "171303.676000", "171303.679000", "171303.682000", "171303.686000", "171303.689000", "171303.692000", "171303.695000", "171303.699000", "171303.702000", "171303.705000", "171303.708000", "171303.712000", "171303.715000", "171303.718000", "171303.721000", "171303.725000", "171303.728000", "171303.731000", "171303.735000", "171303.738000", "171303.741000", "171303.744000", "171303.748000", "171343.659000", "171343.663000", "171343.666000", "171343.670000", "171343.673000", "171343.676000", "171343.680000", "171343.683000", "171343.686000", "171343.689000", "171343.693000", "171343.696000", "171343.699000", "171343.703000", "171343.706000", "171343.709000", "171343.713000", "171343.716000", "171343.720000", "171343.723000", "171343.726000", "171343.730000", "171343.733000", "171343.736000", "171343.740000", "171343.743000", "171343.746000", "171423.660000", "171423.664000", "171423.667000", "171423.671000", "171423.674000", "171423.677000", "171423.681000", "171423.684000", "171423.687000", "171423.690000", "171423.693000", "171423.697000", "171423.700000", "171423.703000", "171423.707000", "171423.710000", "171423.713000", "171423.717000", "171423.720000", "171423.723000", "171423.727000", "171423.730000", "171423.733000", "171423.736000", "171423.740000", "171423.743000", "171437.267000", "171437.270000", "171437.274000", "171437.277000", "171437.280000", "171437.284000", "171437.287000", "171437.290000", "171437.294000", "171437.297000"],
      "InstanceNumber": [1, 2, 3, 4, 5, 6, 7, 8, 9, 10, 11, 12, 13, 14, 15, 16, 17, 18, 19, 20, 21, 22, 23, 24, 25, 26, 27, 28, 29, 30, 31, 32, 33, 34, 35, 36, 37, 38, 39, 40, 41, 42, 43, 44, 45, 46, 47, 48, 49, 50, 51, 52, 53, 54, 55, 56, 57, 58, 59, 60, 61, 62, 63, 64, 65, 66, 67, 68, 69, 70, 71, 72, 73, 74, 75, 76, 77, 78, 79, 80, 81, 82, 83, 84, 85, 86, 87, 88, 89, 90, 91, 92, 93, 94, 95, 96, 97, 98, 99, 100, 101, 102, 103, 104, 105, 106, 107, 108, 109, 110, 111, 112, 113, 114, 115, 116, 117, 118, 119, 120, 121, 122, 123, 124, 125, 126, 127, 128, 129, 130, 131, 132, 133, 134, 135, 136, 137, 138, 139, 140, 141, 142, 143, 144, 145, 146, 147, 148, 149, 150, 151, 152, 153, 154, 155, 156, 157, 158, 159, 160, 161, 162, 163, 164, 165, 166, 167, 168, 169, 170, 171, 172, 173, 174, 175, 176, 177, 178, 179, 180, 181, 182, 183, 184, 185, 186, 187, 188, 189, 190],
      "LargestImagePixelValue": [47696, 45389, 44488, 43601, 43723, 41603, 41032, 41338, 41944, 41445, 41583, 40912, 40721, 41221, 42385, 40018, 41526, 39810, 40569, 41208, 41282, 41077, 41369, 41437, 40628, 40317, 40121, 41160, 41060, 42260, 43041, 42564, 42568, 43535, 43759, 42405, 42604, 40678, 41508, 42414, 42487, 41996, 41744, 42236, 42118, 41656, 42520, 41714, 42064, 42644, 42911, 42832, 42452, 42749, 42352, 42117, 42398, 42367, 42337, 43017, 42351, 42660, 42312, 42325, 42893, 42724, 42988, 41864, 42733, 42845, 42679, 42520, 42181, 42886, 42965, 43400, 42467, 43617, 44240, 44093, 43663, 44003, 43119, 43010, 42507, 42871, 42895, 43097, 43077, 42781, 43104, 43163, 43265, 44209, 43793, 43801, 43062, 44637, 42955, 43966, 43782, 43967, 43692, 44245, 43514, 42906, 42591, 43757, 42628, 44082, 43803, 42355, 42315, 43560, 43504, 43689, 43326, 43057, 43945, 44382, 43166, 43186, 44704, 45155, 44449, 43222, 43780, 43257, 43402, 43853, 42888, 43692, 43104, 43280, 42398, 43221, 43444, 42868, 42285, 42290, 43238, 44345, 44314, 45121, 44503, 43782, 43961, 43841, 43297, 44498, 43002, 44927, 43926, 43620, 43731, 44291, 43494, 43606, 44260, 44100, 43191, 44130, 43914, 43631, 44409, 44749, 44357, 44560, 43864, 45667, 45226, 44991, 45092, 44572, 44041, 44171, 44249, 44032, 44109, 45243, 44811, 44548, 44974, 44203, 44753, 44847, 43651, 42331, 44616, 44133],
      "WindowCenter": [10573.0, 10508.0, 10490.0, 10477.0, 10457.0, 10423.0, 10444.0, 10467.0, 10460.0, 10450.0, 10449.0, 10438.0, 10446.0, 10461.0, 10480.0, 10468.0, 10486.0, 10462.0, 10492.0, 10499.0, 10481.0, 10456.0, 10460.0, 10453.0, 10438.0, 10448.0, 10443.0, 10469.0, 10463.0, 10473.0, 10489.0, 10489.0, 10497.0, 10509.0, 10509.0, 10483.0, 10479.0, 10460.0, 10469.0, 10497.0, 10509.0, 10488.0, 10489.0, 10497.0, 10474.0, 10468.0, 10478.0, 10465.0, 10482.0, 10490.0, 10489.0, 10495.0, 10489.0, 10497.0, 10500.0, 10496.0, 10493.0, 10485.0, 10483.0, 10495.0, 10495.0, 10500.0, 10492.0, 10483.0, 10489.0, 10502.0, 10515.0, 10503.0, 10524.0, 10509.0, 10491.0, 10484.0, 10475.0, 10476.0, 10488.0, 10493.0, 10475.0, 10482.0, 10502.0, 10511.0, 10508.0, 10515.0, 10522.0, 10519.0, 10493.0, 10480.0, 10472.0, 10459.0, 10455.0, 10452.0, 10458.0, 10465.0, 10465.0, 10476.0, 10462.0, 10470.0, 10478.0, 10503.0, 10502.0, 10498.0, 10492.0, 10489.0, 10495.0, 10522.0, 10513.0, 10500.0, 10492.0, 10500.0, 10482.0, 10497.0, 10507.0, 10500.0, 10501.0, 10509.0, 10507.0, 10524.0, 10525.0, 10507.0, 10517.0, 10520.0, 10481.0, 10459.0, 10462.0, 10477.0, 10474.0, 10455.0, 10463.0, 10456.0, 10461.0, 10504.0, 10512.0, 10500.0, 10483.0, 10461.0, 10444.0, 10455.0, 10471.0, 10477.0, 10482.0, 10476.0, 10484.0, 10488.0, 10504.0, 10526.0, 10539.0, 10523.0, 10509.0, 10501.0, 10486.0, 10493.0, 10486.0, 10515.0, 10515.0, 10511.0, 10515.0, 10515.0, 10496.0, 10506.0, 10512.0, 10512.0, 10503.0, 10493.0, 10497.0, 10484.0, 10485.0, 10500.0, 10485.0, 10484.0, 10474.0, 10483.0, 10479.0, 10471.0, 10470.0, 10473.0, 10467.0, 10466.0, 10481.0, 10503.0, 10496.0, 10515.0, 10525.0, 10511.0, 10515.0, 10505.0, 10486.0, 10482.0, 10462.0, 10453.0, 10492.0, 10514.0],
      "WindowWidth": [22508.0, 22352.0, 22301.0, 22268.0, 22213.0, 22138.0, 22193.0, 22241.0, 22224.0, 22201.0, 22201.0, 22178.0, 22199.0, 22229.0, 22273.0, 22251.0, 22286.0, 22235.0, 22302.0, 22315.0, 22273.0, 22216.0, 22226.0, 22209.0, 22174.0, 22206.0, 22194.0, 22250.0, 22235.0, 22250.0, 22282.0, 22293.0, 22305.0, 22328.0, 22327.0, 22268.0, 22256.0, 22221.0, 22235.0, 22303.0, 22333.0, 22287.0, 22297.0, 22309.0, 22251.0, 22244.0, 22258.0, 22233.0, 22274.0, 22293.0, 22287.0, 22299.0, 22287.0, 22306.0, 22313.0, 22305.0, 22294.0, 22273.0, 22271.0, 22297.0, 22308.0, 22314.0, 22297.0, 22272.0, 22286.0, 22314.0, 22346.0, 22321.0, 22366.0, 22333.0, 22288.0, 22278.0, 22258.0, 22254.0, 22284.0, 22293.0, 22254.0, 22261.0, 22306.0, 22324.0, 22324.0, 22337.0, 22357.0, 22353.0, 22291.0, 22258.0, 22242.0, 22207.0, 22197.0, 22193.0, 22204.0, 22221.0, 22219.0, 22245.0, 22212.0, 22226.0, 22254.0, 22310.0, 22316.0, 22299.0, 22285.0, 22276.0, 22291.0, 22354.0, 22334.0, 22306.0, 22288.0, 22304.0, 22262.0, 22291.0, 22316.0, 22310.0, 22311.0, 22327.0, 22317.0, 22361.0, 22367.0, 22324.0, 22341.0, 22347.0, 22264.0, 22208.0, 22204.0, 22240.0, 22236.0, 22192.0, 22211.0, 22199.0, 22211.0, 22313.0, 22337.0, 22302.0, 22259.0, 22210.0, 22173.0, 22197.0, 22234.0, 22250.0, 22263.0, 22249.0, 22260.0, 22269.0, 22309.0, 22357.0, 22391.0, 22356.0, 22318.0, 22302.0, 22270.0, 22282.0, 22270.0, 22328.0, 22336.0, 22330.0, 22334.0, 22341.0, 22291.0, 22318.0, 22330.0, 22331.0, 22314.0, 22283.0, 22298.0, 22268.0, 22265.0, 22303.0, 22265.0, 22265.0, 22246.0, 22255.0, 22250.0, 22234.0, 22228.0, 22234.0, 22225.0, 22221.0, 22255.0, 22306.0, 22285.0, 22328.0, 22356.0, 22326.0, 22332.0, 22318.0, 22268.0, 22259.0, 22212.0, 22191.0, 22287.0, 22349.0]
    },
    "slices": {}
  }
}