{
  "AcquisitionMatrixPE": 104,
  "AcquisitionNumber": 1,
  "AcquisitionTime": "17:29:22.405000",
  "BandwidthPerPixelPhaseEncode": 17.17,
  "BaseResolution": 104,
  "BodyPartExamined": "BRAIN",
  "CoilString": "HC1-7;NC1_2",
  "ConsistencyInfo": "N4_VE11C_LATEST_20160120",
  "ConversionSoftware": "dcm2niix",
  "ConversionSoftwareVersion": "v1.0.20190902",
  "DerivedVendorReportedEchoSpacing": 0.000560011,
  "DeviceSerialNumber": "167006",
  "DwellTime": 2.1e-06,
  "EchoTime": 0.037,
  "EchoTrainLength": 104,
  "EffectiveEchoSpacing": 0.000560011,
  "FlipAngle": 52,
  "ImageComments": "Unaliased_MB4_PE3_LB",
  "ImageOrientationPatientDICOM": [0.997922, 0.036439, 0.0531316, -0.016025, 0.939157, -0.343115],
  "ImageType": [
    "ORIGINAL",
    "PRIMARY",
    "P",
    "MB",
    "ND",
    "MOSAIC"
],
  "ImagingFrequency": 123.259,
  "InPlanePhaseEncodingDirectionDICOM": "COL",
  "InstitutionAddress": "Chemin_Queen-Mary_4565_Montreal_District_CA_H3W_1W5",
  "InstitutionName": "IUGM",
  "InstitutionalDepartmentName": "Department",
  "MRAcquisitionType": "2D",
  "MagneticFieldStrength": 3,
  "Manufacturer": "Siemens",
  "ManufacturersModelName": "Prisma_fit",
  "Modality": "MR",
  "MultibandAccelerationFactor": 4,
  "PartialFourier": 1,
  "PatientPosition": "HFS",
  "PercentPhaseFOV": 100,
  "PhaseEncodingDirection": "j",
  "PhaseEncodingSteps": 104,
  "PhaseResolution": 1,
  "PixelBandwidth": 2290,
  "ProcedureStepDescription": "memory_things",
  "ProtocolName": "func_task-things_run-5",
  "PulseSequenceDetails": "%CustomerSeq%_cmrr_mbep2d_bold",
  "ReceiveCoilActiveElements": "HC1-7;NC1,2",
  "ReceiveCoilName": "HeadNeck_64",
  "ReconMatrixPE": 104,
  "RepetitionTime": 1.49,
  "SAR": 0.0507239,
  "ScanOptions": "FS",
  "ScanningSequence": "EP",
  "SequenceName": "epfid2d1_104",
  "SequenceVariant": "SK_SS",
  "SeriesDescription": "func_task-things_run-5",
  "SeriesNumber": 23,
  "ShimSetting": [645, -7192, -8806, 653, 74, 2, -49, -9],
  "SliceThickness": 2,
  "SliceTiming": [0, 0.785, 0.0975, 0.8825, 0.195, 0.98, 0.295, 1.0775, 0.3925, 1.175, 0.49, 1.275, 0.5875, 1.3725, 0.685, 0, 0.785, 0.0975, 0.8825, 0.195, 0.98, 0.295, 1.0775, 0.3925, 1.175, 0.49, 1.275, 0.5875, 1.3725, 0.685, 0, 0.785, 0.0975, 0.8825, 0.195, 0.98, 0.295, 1.0775, 0.3925, 1.175, 0.49, 1.275, 0.5875, 1.3725, 0.685, 0, 0.785, 0.0975, 0.8825, 0.195, 0.98, 0.295, 1.0775, 0.3925, 1.175, 0.49, 1.275, 0.5875, 1.3725, 0.685],
  "SoftwareVersions": "syngo_MR_E11",
  "SpacingBetweenSlices": 2,
  "StationName": "MRC35049",
  "TaskName": "things",
  "TotalReadoutTime": 0.0576811,
  "TxRefAmp": 268.645,
  "WipMemBlock": "f5c62745-fcc6-4c97-8bd8-e2dd397b52aa||Sequence: R016 ve11c/master r/e634e98; Dec 19 2017 11:00:25 by eja",
  "dcmmeta_affine": [
    [-1.9958449602127075, -0.032050084322690964, 0.124803327023983, 106.22886657714844],
    [-0.07287809252738953, 1.878313660621643, -0.6831008195877075, -55.37710952758789],
    [0.1062631756067276, 0.6862293481826782, 1.8755792379379272, -60.809566497802734],
    [0.0, 0.0, 0.0, 1.0]
],
  "dcmmeta_reorient_transform": [
    [0.0, -1.0, 0.0, 103.0],
    [1.0, 0.0, 0.0, 0.0],
    [0.0, 0.0, 1.0, 0.0],
    [0.0, 0.0, 0.0, 1.0]
],
  "dcmmeta_shape": [104, 104, 60, 190],
  "dcmmeta_slice_dim": 2,
  "dcmmeta_version": 0.6,
  "global": {
    "const": {
      "AcquisitionMatrix": [104, 0, 0, 104],
      "AngioFlag": "N",
      "BitsAllocated": 16,
      "BitsStored": 16,
      "BodyPartExamined": "BRAIN",
      "Columns": 832,
      "EchoNumbers": 1,
      "EchoTime": 37.0,
      "EchoTrainLength": 104,
      "FlipAngle": 52.0,
      "HighBit": 15,
      "ImageOrientationPatient": [0.99792245716818, 0.03643904520033, 0.0531315863146, -0.0160250427009, 0.93915680901912, -0.3431146835673],
      "ImagePositionPatient": [-817.74902726907, -848.32297467909, 220.9797526033],
      "ImageType": [
        "ORIGINAL",
        "PRIMARY",
        "P",
        "MB",
        "ND",
        "MOSAIC"
],
      "ImagedNucleus": "1H",
      "ImagingFrequency": 123.258976,
      "InPlanePhaseEncodingDirection": "COL",
      "LargestImagePixelValue": 4095,
      "MRAcquisitionType": "2D",
      "MagneticFieldStrength": 3.0,
      "Manufacturer": "SIEMENS",
      "ManufacturerModelName": "Prisma_fit",
      "Modality": "MR",
      "NumberOfAverages": 1.0,
      "NumberOfPhaseEncodingSteps": 104,
      "PercentPhaseFieldOfView": 100.0,
      "PercentSampling": 100.0,
      "PerformedProcedureStepStartTime": "162723.599000",
      "PhotometricInterpretation": "MONOCHROME2",
      "PixelBandwidth": 2290.0,
      "PixelRepresentation": 0,
      "PixelSpacing": [2.0, 2.0],
      "ProtocolName": "func_task-things_run-5",
      "RepetitionTime": 1490.0,
      "RescaleIntercept": -4096.0,
      "RescaleSlope": 2.0,
      "RescaleType": "US",
      "Rows": 832,
      "SAR": 0.0507238530437,
      "SamplesPerPixel": 1,
      "ScanOptions": "FS",
      "ScanningSequence": "EP",
      "SequenceName": "epfid2d1_104",
      "SequenceVariant": [
        "SK",
        "SS"
],
      "SeriesDescription": "func_task-things_run-5",
      "SeriesNumber": 23,
      "SeriesTime": "173023.783000",
      "SliceLocation": -31.483647310116,
      "SliceThickness": 2.0,
      "SmallestImagePixelValue": 0,
      "SoftwareVersions": "syngo MR E11",
      "SpacingBetweenSlices": 2.000000056847,
      "SpecificCharacterSet": "ISO_IR 100",
      "StudyID": "1",
      "StudyTime": "162723.537000",
      "TransmitCoilName": "Body",
      "VariableFlipAngleFlag": "N",
      "WindowCenterWidthExplanation": "Algo1",
      "dBdt": 0.0},
    "slices": {}
  },
  "time": {
    "samples": {
      "AcquisitionNumber": [1, 2, 3, 4, 5, 6, 7, 8, 9, 10, 11, 12, 13, 14, 15, 16, 17, 18, 19, 20, 21, 22, 23, 24, 25, 26, 27, 28, 29, 30, 31, 32, 33, 34, 35, 36, 37, 38, 39, 40, 41, 42, 43, 44, 45, 46, 47, 48, 49, 50, 51, 52, 53, 54, 55, 56, 57, 58, 59, 60, 61, 62, 63, 64, 65, 66, 67, 68, 69, 70, 71, 72, 73, 74, 75, 76, 77, 78, 79, 80, 81, 82, 83, 84, 85, 86, 87, 88, 89, 90, 91, 92, 93, 94, 95, 96, 97, 98, 99, 100, 101, 102, 103, 104, 105, 106, 107, 108, 109, 110, 111, 112, 113, 114, 115, 116, 117, 118, 119, 120, 121, 122, 123, 124, 125, 126, 127, 128, 129, 130, 131, 132, 133, 134, 135, 136, 137, 138, 139, 140, 141, 142, 143, 144, 145, 146, 147, 148, 149, 150, 151, 152, 153, 154, 155, 156, 157, 158, 159, 160, 161, 162, 163, 164, 165, 166, 167, 168, 169, 170, 171, 172, 173, 174, 175, 176, 177, 178, 179, 180, 181, 182, 183, 184, 185, 186, 187, 188, 189, 190],
      "AcquisitionTime": ["172922.405000", "172923.895000", "172925.385000", "172926.875000", "172928.365000", "172929.855000", "172931.345000", "172932.835000", "172934.325000", "172935.815000", "172937.305000", "172938.795000", "172940.285000", "172941.775000", "172943.265000", "172944.755000", "172946.245000", "172947.735000", "172949.225000", "172950.715000", "172952.205000", "172953.695000", "172955.185000", "172956.675000", "172958.165000", "172959.655000", "173001.145000", "173002.635000", "173004.125000", "173005.615000", "173007.105000", "173008.595000", "173010.085000", "173011.575000", "173013.065000", "173014.555000", "173016.045000", "173017.535000", "173019.025000", "173020.515000", "173022.005000", "173023.495000", "173024.985000", "173026.475000", "173027.965000", "173029.455000", "173030.945000", "173032.435000", "173033.925000", "173035.415000", "173036.905000", "173038.395000", "173039.885000", "173041.375000", "173042.865000", "173044.355000", "173045.845000", "173047.335000", "173048.825000", "173050.315000", "173051.805000", "173053.295000", "173054.785000", "173056.275000", "173057.765000", "173059.255000", "173100.745000", "173102.235000", "173103.725000", "173105.215000", "173106.705000", "173108.195000", "173109.685000", "173111.175000", "173112.665000", "173114.155000", "173115.645000", "173117.135000", "173118.625000", "173120.115000", "173121.605000", "173123.095000", "173124.585000", "173126.075000", "173127.565000", "173129.055000", "173130.545000", "173132.035000", "173133.525000", "173135.015000", "173136.505000", "173137.995000", "173139.485000", "173140.975000", "173142.465000", "173143.955000", "173145.445000", "173146.935000", "173148.425000", "173149.915000", "173151.405000", "173152.895000", "173154.385000", "173155.875000", "173157.365000", "173158.855000", "173200.345000", "173201.835000", "173203.325000", "173204.815000", "173206.305000", "173207.795000", "173209.285000", "173210.775000", "173212.265000", "173213.755000", "173215.245000", "173216.735000", "173218.225000", "173219.715000", "173221.205000", "173222.695000", "173224.185000", "173225.675000", "173227.165000", "173228.655000", "173230.145000", "173231.635000", "173233.125000", "173234.615000", "173236.105000", "173237.595000", "173239.085000", "173240.575000", "173242.065000", "173243.555000", "173245.045000", "173246.535000", "173248.025000", "173249.515000", "173251.005000", "173252.495000", "173253.985000", "173255.475000", "173256.965000", "173258.455000", "173259.945000", "173301.435000", "173302.925000", "173304.415000", "173305.905000", "173307.395000", "173308.885000", "173310.375000", "173311.865000", "173313.355000", "173314.845000", "173316.335000", "173317.825000", "173319.315000", "173320.805000", "173322.295000", "173323.785000", "173325.275000", "173326.765000", "173328.255000", "173329.745000", "173331.235000", "173332.725000", "173334.215000", "173335.705000", "173337.195000", "173338.685000", "173340.175000", "173341.665000", "173343.155000", "173344.645000", "173346.135000", "173347.625000", "173349.115000", "173350.605000", "173352.095000", "173353.585000", "173355.075000", "173356.565000", "173358.055000", "173359.545000", "173401.035000", "173402.525000", "173404.015000"],
      "ContentTime": ["173023.785000", "173023.788000", "173023.790000", "173023.793000", "173023.802000", "173023.805000", "173023.807000", "173043.794000", "173043.797000", "173043.799000", "173043.802000", "173043.804000", "173043.807000", "173043.809000", "173043.812000", "173043.814000", "173043.817000", "173043.819000", "173043.822000", "173043.824000", "173043.827000", "173043.829000", "173043.831000", "173043.834000", "173043.836000", "173043.839000", "173043.841000", "173103.770000", "173103.773000", "173103.776000", "173103.778000", "173103.780000", "173103.783000", "173103.785000", "173103.788000", "173103.790000", "173103.793000", "173103.801000", "173103.803000", "173103.806000", "173103.808000", "173103.811000", "173103.813000", "173103.816000", "173103.818000", "173103.821000", "173103.824000", "173103.826000", "173123.775000", "173123.778000", "173123.780000", "173123.783000", "173123.785000", "173123.788000", "173123.790000", "173123.792000", "173123.795000", "173123.797000", "173123.800000", "173123.802000", "173123.805000", "173123.807000", "173123.810000", "173123.812000", "173123.815000", "173123.817000", "173123.819000", "173123.822000", "173143.774000", "173143.777000", "173143.779000", "173143.782000", "173143.784000", "173143.787000", "173143.789000", "173143.801000", "173143.803000", "173143.805000", "173143.808000", "173143.810000", "173143.813000", "173143.815000", "173143.818000", "173143.820000", "173143.822000", "173143.825000", "173143.827000", "173143.830000", "173223.823000", "173223.826000", "173223.829000", "173223.831000", "173223.834000", "173223.836000", "173223.838000", "173223.841000", "173223.843000", "173223.846000", "173223.848000", "173223.851000", "173223.853000", "173223.856000", "173223.858000", "173223.861000", "173223.863000", "173223.866000", "173223.868000", "173223.871000", "173223.873000", "173223.876000", "173223.878000", "173223.881000", "173223.883000", "173223.886000", "173223.888000", "173223.891000", "173223.893000", "173223.896000", "173223.898000", "173223.901000", "173223.903000", "173304.190000", "173304.193000", "173304.195000", "173304.198000", "173304.200000", "173304.203000", "173304.205000", "173304.208000", "173304.217000", "173304.219000", "173304.221000", "173304.224000", "173304.227000", "173304.229000", "173304.231000", "173304.234000", "173304.237000", "173304.239000", "173304.241000", "173304.244000", "173304.246000", "173304.249000", "173304.251000", "173304.254000", "173304.256000", "173304.259000", "173304.261000", "173343.820000", "173343.823000", "173343.826000", "173343.828000", "173343.831000", "173343.833000", "173343.836000", "173343.838000", "173343.841000", "173343.843000", "173343.846000", "173343.848000", "173343.851000", "173343.853000", "173343.856000", "173343.858000", "173343.860000", "173343.863000", "173343.865000", "173343.868000", "173343.870000", "173343.873000", "173343.875000", "173343.878000", "173343.880000", "173343.883000", "173406.204000", "173406.207000", "173406.210000", "173406.212000", "173406.215000", "173406.217000", "173406.220000", "173406.222000", "173406.225000", "173406.227000", "173406.230000", "173406.232000", "173406.235000", "173406.237000", "173406.240000", "173406.242000"],
      "InstanceCreationTime": ["173023.785000", "173023.788000", "173023.790000", "173023.793000", "173023.802000", "173023.805000", "173023.807000", "173043.794000", "173043.797000", "173043.799000", "173043.802000", "173043.804000", "173043.807000", "173043.809000", "173043.812000", "173043.814000", "173043.817000", "173043.819000", "173043.822000", "173043.824000", "173043.827000", "173043.829000", "173043.831000", "173043.834000", "173043.836000", "173043.839000", "173043.841000", "173103.770000", "173103.773000", "173103.776000", "173103.778000", "173103.780000", "173103.783000", "173103.785000", "173103.788000", "173103.790000", "173103.793000", "173103.801000", "173103.803000", "173103.806000", "173103.808000", "173103.811000", "173103.813000", "173103.816000", "173103.818000", "173103.821000", "173103.824000", "173103.826000", "173123.775000", "173123.778000", "173123.780000", "173123.783000", "173123.785000", "173123.788000", "173123.790000", "173123.792000", "173123.795000", "173123.797000", "173123.800000", "173123.802000", "173123.805000", "173123.807000", "173123.810000", "173123.812000", "173123.815000", "173123.817000", "173123.819000", "173123.822000", "173143.774000", "173143.777000", "173143.779000", "173143.782000", "173143.784000", "173143.787000", "173143.789000", "173143.801000", "173143.803000", "173143.805000", "173143.808000", "173143.810000", "173143.813000", "173143.815000", "173143.818000", "173143.820000", "173143.822000", "173143.825000", "173143.827000", "173143.830000", "173223.823000", "173223.826000", "173223.829000", "173223.831000", "173223.834000", "173223.836000", "173223.838000", "173223.841000", "173223.843000", "173223.846000", "173223.848000", "173223.851000", "173223.853000", "173223.856000", "173223.858000", "173223.861000", "173223.863000", "173223.866000", "173223.868000", "173223.871000", "173223.873000", "173223.876000", "173223.878000", "173223.881000", "173223.883000", "173223.886000", "173223.888000", "173223.891000", "173223.893000", "173223.896000", "173223.898000", "173223.901000", "173223.903000", "173304.190000", "173304.193000", "173304.195000", "173304.198000", "173304.200000", "173304.203000", "173304.205000", "173304.208000", "173304.217000", "173304.219000", "173304.221000", "173304.224000", "173304.227000", "173304.229000", "173304.231000", "173304.234000", "173304.237000", "173304.239000", "173304.241000", "173304.244000", "173304.246000", "173304.249000", "173304.251000", "173304.254000", "173304.256000", "173304.259000", "173304.261000", "173343.820000", "173343.823000", "173343.826000", "173343.828000", "173343.831000", "173343.833000", "173343.836000", "173343.838000", "173343.841000", "173343.843000", "173343.846000", "173343.848000", "173343.851000", "173343.853000", "173343.856000", "173343.858000", "173343.860000", "173343.863000", "173343.865000", "173343.868000", "173343.870000", "173343.873000", "173343.875000", "173343.878000", "173343.880000", "173343.883000", "173406.204000", "173406.207000", "173406.210000", "173406.212000", "173406.215000", "173406.217000", "173406.220000", "173406.222000", "173406.225000", "173406.227000", "173406.230000", "173406.232000", "173406.235000", "173406.237000", "173406.240000", "173406.242000"],
      "InstanceNumber": [1, 2, 3, 4, 5, 6, 7, 8, 9, 10, 11, 12, 13, 14, 15, 16, 17, 18, 19, 20, 21, 22, 23, 24, 25, 26, 27, 28, 29, 30, 31, 32, 33, 34, 35, 36, 37, 38, 39, 40, 41, 42, 43, 44, 45, 46, 47, 48, 49, 50, 51, 52, 53, 54, 55, 56, 57, 58, 59, 60, 61, 62, 63, 64, 65, 66, 67, 68, 69, 70, 71, 72, 73, 74, 75, 76, 77, 78, 79, 80, 81, 82, 83, 84, 85, 86, 87, 88, 89, 90, 91, 92, 93, 94, 95, 96, 97, 98, 99, 100, 101, 102, 103, 104, 105, 106, 107, 108, 109, 110, 111, 112, 113, 114, 115, 116, 117, 118, 119, 120, 121, 122, 123, 124, 125, 126, 127, 128, 129, 130, 131, 132, 133, 134, 135, 136, 137, 138, 139, 140, 141, 142, 143, 144, 145, 146, 147, 148, 149, 150, 151, 152, 153, 154, 155, 156, 157, 158, 159, 160, 161, 162, 163, 164, 165, 166, 167, 168, 169, 170, 171, 172, 173, 174, 175, 176, 177, 178, 179, 180, 181, 182, 183, 184, 185, 186, 187, 188, 189, 190],
      "WindowCenter": [4826.0, 4828.0, 4852.0, 4826.0, 4824.0, 4830.0, 4826.0, 4824.0, 4826.0, 4854.0, 4828.0, 4828.0, 4826.0, 4850.0, 4828.0, 4828.0, 4828.0, 4830.0, 4828.0, 4830.0, 4850.0, 4828.0, 4826.0, 4830.0, 4830.0, 4828.0, 4854.0, 4828.0, 4826.0, 4832.0, 4830.0, 4826.0, 4856.0, 4858.0, 4854.0, 4824.0, 4820.0, 4824.0, 4830.0, 4828.0, 4828.0, 4856.0, 4854.0, 4852.0, 4854.0, 4830.0, 4850.0, 4826.0, 4826.0, 4830.0, 4826.0, 4828.0, 4856.0, 4852.0, 4830.0, 4852.0, 4828.0, 4828.0, 4826.0, 4828.0, 4826.0, 4826.0, 4852.0, 4828.0, 4852.0, 4830.0, 4826.0, 4852.0, 4828.0, 4826.0, 4828.0, 4854.0, 4852.0, 4830.0, 4828.0, 4826.0, 4828.0, 4830.0, 4830.0, 4856.0, 4830.0, 4850.0, 4828.0, 4856.0, 4832.0, 4830.0, 4830.0, 4828.0, 4828.0, 4828.0, 4830.0, 4852.0, 4826.0, 4854.0, 4854.0, 4828.0, 4828.0, 4828.0, 4828.0, 4830.0, 4828.0, 4830.0, 4826.0, 4826.0, 4854.0, 4852.0, 4828.0, 4856.0, 4852.0, 4828.0, 4832.0, 4828.0, 4852.0, 4826.0, 4824.0, 4826.0, 4830.0, 4830.0, 4854.0, 4832.0, 4828.0, 4828.0, 4824.0, 4830.0, 4854.0, 4830.0, 4854.0, 4852.0, 4830.0, 4854.0, 4832.0, 4828.0, 4828.0, 4830.0, 4854.0, 4828.0, 4828.0, 4828.0, 4852.0, 4830.0, 4826.0, 4854.0, 4830.0, 4828.0, 4830.0, 4826.0, 4832.0, 4830.0, 4832.0, 4828.0, 4830.0, 4830.0, 4830.0, 4858.0, 4854.0, 4832.0, 4828.0, 4828.0, 4854.0, 4830.0, 4834.0, 4830.0, 4828.0, 4852.0, 4832.0, 4830.0, 4850.0, 4828.0, 4854.0, 4828.0, 4832.0, 4828.0, 4826.0, 4834.0, 4828.0, 4830.0, 4828.0, 4830.0, 4832.0, 4830.0, 4834.0, 4828.0, 4830.0, 4830.0, 4828.0, 4828.0, 4828.0, 4832.0, 4828.0, 4832.0],
      "WindowWidth": [18588.0, 18594.0, 18626.0, 18592.0, 18590.0, 18594.0, 18590.0, 18588.0, 18588.0, 18624.0, 18596.0, 18590.0, 18592.0, 18622.0, 18592.0, 18590.0, 18594.0, 18594.0, 18596.0, 18592.0, 18620.0, 18590.0, 18592.0, 18594.0, 18596.0, 18594.0, 18626.0, 18590.0, 18594.0, 18600.0, 18594.0, 18596.0, 18628.0, 18640.0, 18626.0, 18588.0, 18588.0, 18592.0, 18594.0, 18592.0, 18594.0, 18624.0, 18624.0, 18628.0, 18624.0, 18592.0, 18626.0, 18592.0, 18590.0, 18592.0, 18586.0, 18594.0, 18634.0, 18626.0, 18592.0, 18630.0, 18596.0, 18592.0, 18592.0, 18592.0, 18590.0, 18592.0, 18626.0, 18594.0, 18628.0, 18594.0, 18592.0, 18624.0, 18594.0, 18592.0, 18594.0, 18630.0, 18626.0, 18594.0, 18596.0, 18596.0, 18594.0, 18594.0, 18590.0, 18622.0, 18596.0, 18626.0, 18594.0, 18628.0, 18596.0, 18596.0, 18596.0, 18592.0, 18592.0, 18598.0, 18592.0, 18630.0, 18588.0, 18628.0, 18632.0, 18592.0, 18598.0, 18594.0, 18592.0, 18596.0, 18590.0, 18590.0, 18590.0, 18588.0, 18624.0, 18626.0, 18594.0, 18624.0, 18624.0, 18594.0, 18594.0, 18592.0, 18624.0, 18592.0, 18588.0, 18590.0, 18598.0, 18596.0, 18630.0, 18596.0, 18594.0, 18588.0, 18584.0, 18592.0, 18624.0, 18594.0, 18630.0, 18626.0, 18592.0, 18624.0, 18598.0, 18592.0, 18596.0, 18592.0, 18624.0, 18590.0, 18594.0, 18590.0, 18622.0, 18590.0, 18596.0, 18628.0, 18592.0, 18598.0, 18596.0, 18590.0, 18596.0, 18592.0, 18596.0, 18592.0, 18594.0, 18596.0, 18590.0, 18634.0, 18624.0, 18598.0, 18590.0, 18592.0, 18626.0, 18592.0, 18596.0, 18596.0, 18596.0, 18628.0, 18596.0, 18594.0, 18624.0, 18594.0, 18630.0, 18590.0, 18592.0, 18586.0, 18592.0, 18596.0, 18590.0, 18594.0, 18592.0, 18592.0, 18596.0, 18588.0, 18592.0, 18586.0, 18586.0, 18590.0, 18590.0, 18588.0, 18590.0, 18586.0, 18590.0, 18586.0]
    },
    "slices": {}
  }
}