{
  "AcquisitionMatrixPE": 104,
  "AcquisitionNumber": 1,
  "AcquisitionTime": "15:32:46.220000",
  "BandwidthPerPixelPhaseEncode": 17.17,
  "BaseResolution": 104,
  "BodyPartExamined": "BRAIN",
  "CoilString": "HC1-7;NC1_2",
  "ConsistencyInfo": "N4_VE11C_LATEST_20160120",
  "ConversionSoftware": "dcm2niix",
  "ConversionSoftwareVersion": "v1.0.20190902",
  "DerivedVendorReportedEchoSpacing": 0.000560011,
  "DeviceSerialNumber": "167006",
  "DwellTime": 2.1e-06,
  "EchoTime": 0.037,
  "EchoTrainLength": 104,
  "EffectiveEchoSpacing": 0.000560011,
  "FlipAngle": 52,
  "ImageComments": "Unaliased_MB4_PE3_LB",
  "ImageOrientationPatientDICOM": [0.997576, -0.0668215, 0.019407, 0.0695824, 0.957221, -0.280868],
  "ImageType": [
    "ORIGINAL",
    "PRIMARY",
    "P",
    "MB",
    "ND",
    "MOSAIC"
],
  "ImagingFrequency": 123.259,
  "InPlanePhaseEncodingDirectionDICOM": "COL",
  "InstitutionAddress": "Chemin_Queen-Mary_4565_Montreal_District_CA_H3W_1W5",
  "InstitutionName": "IUGM",
  "InstitutionalDepartmentName": "Department",
  "MRAcquisitionType": "2D",
  "MagneticFieldStrength": 3,
  "Manufacturer": "Siemens",
  "ManufacturersModelName": "Prisma_fit",
  "Modality": "MR",
  "MultibandAccelerationFactor": 4,
  "PartialFourier": 1,
  "PatientPosition": "HFS",
  "PercentPhaseFOV": 100,
  "PhaseEncodingDirection": "j",
  "PhaseEncodingSteps": 104,
  "PhaseResolution": 1,
  "PixelBandwidth": 2290,
  "ProcedureStepDescription": "memory_things",
  "ProtocolName": "func_task-things_run-2",
  "PulseSequenceDetails": "%CustomerSeq%_cmrr_mbep2d_bold",
  "ReceiveCoilActiveElements": "HC1-7;NC1,2",
  "ReceiveCoilName": "HeadNeck_64",
  "ReconMatrixPE": 104,
  "RepetitionTime": 1.49,
  "SAR": 0.0448602,
  "ScanOptions": "FS",
  "ScanningSequence": "EP",
  "SequenceName": "epfid2d1_104",
  "SequenceVariant": "SK_SS",
  "SeriesDescription": "func_task-things_run-2",
  "SeriesNumber": 14,
  "ShimSetting": [629, -7264, -8782, 647, -23, -215, 2, -16],
  "SliceThickness": 2,
  "SliceTiming": [0, 0.785, 0.0975, 0.8825, 0.195, 0.98, 0.295, 1.0775, 0.3925, 1.175, 0.49, 1.275, 0.5875, 1.3725, 0.685, 0, 0.785, 0.0975, 0.8825, 0.195, 0.98, 0.295, 1.0775, 0.3925, 1.175, 0.49, 1.275, 0.5875, 1.3725, 0.685, 0, 0.785, 0.0975, 0.8825, 0.195, 0.98, 0.295, 1.0775, 0.3925, 1.175, 0.49, 1.275, 0.5875, 1.3725, 0.685, 0, 0.785, 0.0975, 0.8825, 0.195, 0.98, 0.295, 1.0775, 0.3925, 1.175, 0.49, 1.275, 0.5875, 1.3725, 0.685],
  "SoftwareVersions": "syngo_MR_E11",
  "SpacingBetweenSlices": 2,
  "StationName": "MRC35049",
  "TaskName": "things",
  "TotalReadoutTime": 0.0576811,
  "TxRefAmp": 262.018,
  "WipMemBlock": "d388f396-0ffd-43c3-8933-e592d6fa9c38||Sequence: R016 ve11c/master r/e634e98; Dec 19 2017 11:00:25 by eja",
  "dcmmeta_affine": [
    [-1.9951523542404175, 0.1391647309064865, -0.0003823584411293268, 99.87901306152344],
    [0.13364294171333313, 1.9144415855407715, -0.5630747079849243, -74.6865234375],
    [0.03881406784057617, 0.5617355108261108, 1.9191005229949951, -53.60455322265625],
    [0.0, 0.0, 0.0, 1.0]
],
  "dcmmeta_reorient_transform": [
    [0.0, -1.0, 0.0, 103.0],
    [1.0, 0.0, 0.0, 0.0],
    [0.0, 0.0, 1.0, 0.0],
    [0.0, 0.0, 0.0, 1.0]
],
  "dcmmeta_shape": [104, 104, 60, 190],
  "dcmmeta_slice_dim": 2,
  "dcmmeta_version": 0.6,
  "global": {
    "const": {
      "AcquisitionMatrix": [104, 0, 0, 104],
      "AngioFlag": "N",
      "BitsAllocated": 16,
      "BitsStored": 16,
      "BodyPartExamined": "BRAIN",
      "Columns": 832,
      "EchoNumbers": 1,
      "EchoTime": 37.0,
      "EchoTrainLength": 104,
      "FlipAngle": 52.0,
      "HighBit": 15,
      "ImageOrientationPatient": [0.99757619166961, -0.0668214698943, 0.01940703416618, 0.06958236317103, 0.95722077159696, -0.2808677431797],
      "ImagePositionPatient": [-891.1044113179, -770.71164452321, 194.59759627619],
      "ImageType": [
        "ORIGINAL",
        "PRIMARY",
        "P",
        "MB",
        "ND",
        "MOSAIC"
],
      "ImagedNucleus": "1H",
      "ImagingFrequency": 123.258871,
      "InPlanePhaseEncodingDirection": "COL",
      "LargestImagePixelValue": 4095,
      "MRAcquisitionType": "2D",
      "MagneticFieldStrength": 3.0,
      "Manufacturer": "SIEMENS",
      "ManufacturerModelName": "Prisma_fit",
      "Modality": "MR",
      "NumberOfAverages": 1.0,
      "NumberOfPhaseEncodingSteps": 104,
      "PercentPhaseFieldOfView": 100.0,
      "PercentSampling": 100.0,
      "PerformedProcedureStepStartTime": "150137.961000",
      "PhotometricInterpretation": "MONOCHROME2",
      "PixelBandwidth": 2290.0,
      "PixelRepresentation": 0,
      "PixelSpacing": [2.0, 2.0],
      "ProtocolName": "func_task-things_run-2",
      "RepetitionTime": 1490.0,
      "RescaleIntercept": -4096.0,
      "RescaleSlope": 2.0,
      "RescaleType": "US",
      "Rows": 832,
      "SAR": 0.04486017529863,
      "SamplesPerPixel": 1,
      "ScanOptions": "FS",
      "ScanningSequence": "EP",
      "SequenceName": "epfid2d1_104",
      "SequenceVariant": [
        "SK",
        "SS"
],
      "SeriesDescription": "func_task-things_run-2",
      "SeriesNumber": 14,
      "SeriesTime": "153417.846000",
      "SliceLocation": -30.428311359306,
      "SliceThickness": 2.0,
      "SmallestImagePixelValue": 0,
      "SoftwareVersions": "syngo MR E11",
      "SpacingBetweenSlices": 1.9999999984936,
      "SpecificCharacterSet": "ISO_IR 100",
      "StudyID": "1",
      "StudyTime": "150137.866000",
      "TransmitCoilName": "Body",
      "VariableFlipAngleFlag": "N",
      "WindowCenterWidthExplanation": "Algo1",
      "dBdt": 0.0},
    "slices": {}
  },
  "time": {
    "samples": {
      "AcquisitionNumber": [1, 2, 3, 4, 5, 6, 7, 8, 9, 10, 11, 12, 13, 14, 15, 16, 17, 18, 19, 20, 21, 22, 23, 24, 25, 26, 27, 28, 29, 30, 31, 32, 33, 34, 35, 36, 37, 38, 39, 40, 41, 42, 43, 44, 45, 46, 47, 48, 49, 50, 51, 52, 53, 54, 55, 56, 57, 58, 59, 60, 61, 62, 63, 64, 65, 66, 67, 68, 69, 70, 71, 72, 73, 74, 75, 76, 77, 78, 79, 80, 81, 82, 83, 84, 85, 86, 87, 88, 89, 90, 91, 92, 93, 94, 95, 96, 97, 98, 99, 100, 101, 102, 103, 104, 105, 106, 107, 108, 109, 110, 111, 112, 113, 114, 115, 116, 117, 118, 119, 120, 121, 122, 123, 124, 125, 126, 127, 128, 129, 130, 131, 132, 133, 134, 135, 136, 137, 138, 139, 140, 141, 142, 143, 144, 145, 146, 147, 148, 149, 150, 151, 152, 153, 154, 155, 156, 157, 158, 159, 160, 161, 162, 163, 164, 165, 166, 167, 168, 169, 170, 171, 172, 173, 174, 175, 176, 177, 178, 179, 180, 181, 182, 183, 184, 185, 186, 187, 188, 189, 190],
      "AcquisitionTime": ["153246.220000", "153247.710000", "153249.200000", "153250.690000", "153252.180000", "153253.670000", "153255.160000", "153256.650000", "153258.140000", "153259.630000", "153301.120000", "153302.610000", "153304.100000", "153305.590000", "153307.080000", "153308.570000", "153310.060000", "153311.550000", "153313.040000", "153314.530000", "153316.020000", "153317.510000", "153319.000000", "153320.490000", "153321.980000", "153323.470000", "153324.960000", "153326.450000", "153327.940000", "153329.430000", "153330.920000", "153332.410000", "153333.900000", "153335.390000", "153336.880000", "153338.370000", "153339.860000", "153341.350000", "153342.840000", "153344.330000", "153345.820000", "153347.310000", "153348.800000", "153350.290000", "153351.780000", "153353.270000", "153354.760000", "153356.250000", "153357.740000", "153359.230000", "153400.720000", "153402.210000", "153403.700000", "153405.190000", "153406.680000", "153408.170000", "153409.660000", "153411.150000", "153412.640000", "153414.130000", "153415.620000", "153417.110000", "153418.600000", "153420.090000", "153421.580000", "153423.070000", "153424.560000", "153426.050000", "153427.540000", "153429.030000", "153430.520000", "153432.010000", "153433.500000", "153434.990000", "153436.480000", "153437.970000", "153439.460000", "153440.950000", "153442.440000", "153443.930000", "153445.420000", "153446.910000", "153448.400000", "153449.890000", "153451.380000", "153452.870000", "153454.360000", "153455.850000", "153457.340000", "153458.830000", "153500.320000", "153501.810000", "153503.300000", "153504.790000", "153506.280000", "153507.770000", "153509.260000", "153510.750000", "153512.240000", "153513.730000", "153515.220000", "153516.710000", "153518.200000", "153519.690000", "153521.180000", "153522.670000", "153524.160000", "153525.650000", "153527.140000", "153528.630000", "153530.120000", "153531.610000", "153533.100000", "153534.590000", "153536.080000", "153537.570000", "153539.060000", "153540.550000", "153542.040000", "153543.530000", "153545.020000", "153546.510000", "153548.000000", "153549.490000", "153550.980000", "153552.470000", "153553.960000", "153555.450000", "153556.940000", "153558.430000", "153559.920000", "153601.410000", "153602.900000", "153604.390000", "153605.880000", "153607.370000", "153608.860000", "153610.350000", "153611.840000", "153613.330000", "153614.820000", "153616.310000", "153617.800000", "153619.290000", "153620.780000", "153622.270000", "153623.760000", "153625.250000", "153626.740000", "153628.230000", "153629.720000", "153631.210000", "153632.700000", "153634.190000", "153635.680000", "153637.170000", "153638.660000", "153640.150000", "153641.640000", "153643.130000", "153644.620000", "153646.110000", "153647.600000", "153649.090000", "153650.580000", "153652.070000", "153653.560000", "153655.050000", "153656.540000", "153658.030000", "153659.520000", "153701.010000", "153702.500000", "153703.990000", "153705.480000", "153706.970000", "153708.460000", "153709.950000", "153711.440000", "153712.930000", "153714.420000", "153715.910000", "153717.400000", "153718.890000", "153720.380000", "153721.870000", "153723.360000", "153724.850000", "153726.340000", "153727.830000"],
      "ContentTime": ["153417.848000", "153417.851000", "153417.854000", "153417.856000", "153417.870000", "153417.873000", "153417.875000", "153417.878000", "153417.880000", "153417.883000", "153417.885000", "153417.888000", "153417.890000", "153417.892000", "153417.895000", "153417.897000", "153417.900000", "153417.902000", "153417.905000", "153417.907000", "153417.910000", "153417.912000", "153417.915000", "153417.917000", "153417.920000", "153417.922000", "153417.925000", "153417.927000", "153417.930000", "153417.932000", "153417.935000", "153417.937000", "153417.940000", "153417.942000", "153417.945000", "153417.947000", "153417.950000", "153437.731000", "153437.734000", "153437.736000", "153437.739000", "153437.741000", "153437.744000", "153437.746000", "153437.749000", "153437.751000", "153437.758000", "153437.760000", "153437.763000", "153437.765000", "153437.768000", "153437.819000", "153437.822000", "153437.824000", "153437.827000", "153437.829000", "153437.831000", "153457.753000", "153457.755000", "153457.758000", "153457.761000", "153457.763000", "153457.766000", "153457.768000", "153457.771000", "153457.774000", "153457.776000", "153457.779000", "153457.781000", "153457.784000", "153457.786000", "153457.789000", "153457.791000", "153457.794000", "153457.796000", "153457.799000", "153457.801000", "153517.746000", "153517.749000", "153517.751000", "153517.754000", "153517.756000", "153517.759000", "153517.761000", "153517.764000", "153517.767000", "153517.787000", "153517.789000", "153517.792000", "153517.794000", "153517.797000", "153517.799000", "153517.802000", "153517.804000", "153517.807000", "153517.809000", "153517.812000", "153517.814000", "153558.285000", "153558.287000", "153558.290000", "153558.292000", "153558.295000", "153558.297000", "153558.300000", "153558.302000", "153558.305000", "153558.307000", "153558.310000", "153558.312000", "153558.315000", "153558.317000", "153558.320000", "153558.322000", "153558.325000", "153558.327000", "153558.330000", "153558.332000", "153558.335000", "153558.337000", "153558.340000", "153558.342000", "153558.345000", "153558.348000", "153558.350000", "153558.352000", "153558.355000", "153558.358000", "153637.768000", "153637.804000", "153637.806000", "153637.809000", "153637.811000", "153637.814000", "153637.816000", "153637.819000", "153637.821000", "153637.824000", "153637.826000", "153637.829000", "153637.831000", "153637.834000", "153637.836000", "153637.839000", "153637.841000", "153637.844000", "153637.847000", "153637.849000", "153637.852000", "153637.854000", "153637.857000", "153637.859000", "153637.862000", "153637.864000", "153717.786000", "153717.789000", "153717.791000", "153717.803000", "153717.806000", "153717.808000", "153717.811000", "153717.813000", "153717.816000", "153717.818000", "153717.821000", "153717.824000", "153717.826000", "153717.829000", "153717.831000", "153717.834000", "153717.836000", "153717.839000", "153717.841000", "153717.844000", "153717.846000", "153717.849000", "153717.851000", "153717.854000", "153717.856000", "153717.859000", "153717.861000", "153730.072000", "153730.075000", "153730.078000", "153730.080000", "153730.083000", "153730.085000", "153730.088000", "153730.090000", "153730.093000"],
      "InstanceCreationTime": ["153417.848000", "153417.851000", "153417.854000", "153417.856000", "153417.870000", "153417.873000", "153417.875000", "153417.878000", "153417.880000", "153417.883000", "153417.885000", "153417.888000", "153417.890000", "153417.892000", "153417.895000", "153417.897000", "153417.900000", "153417.902000", "153417.905000", "153417.907000", "153417.910000", "153417.912000", "153417.915000", "153417.917000", "153417.920000", "153417.922000", "153417.925000", "153417.927000", "153417.930000", "153417.932000", "153417.935000", "153417.937000", "153417.940000", "153417.942000", "153417.945000", "153417.947000", "153417.950000", "153437.731000", "153437.734000", "153437.736000", "153437.739000", "153437.741000", "153437.744000", "153437.746000", "153437.749000", "153437.751000", "153437.758000", "153437.760000", "153437.763000", "153437.765000", "153437.768000", "153437.819000", "153437.822000", "153437.824000", "153437.827000", "153437.829000", "153437.831000", "153457.753000", "153457.755000", "153457.758000", "153457.761000", "153457.763000", "153457.766000", "153457.768000", "153457.771000", "153457.774000", "153457.776000", "153457.779000", "153457.781000", "153457.784000", "153457.786000", "153457.789000", "153457.791000", "153457.794000", "153457.796000", "153457.799000", "153457.801000", "153517.746000", "153517.749000", "153517.751000", "153517.754000", "153517.756000", "153517.759000", "153517.761000", "153517.764000", "153517.767000", "153517.787000", "153517.789000", "153517.792000", "153517.794000", "153517.797000", "153517.799000", "153517.802000", "153517.804000", "153517.807000", "153517.809000", "153517.812000", "153517.814000", "153558.285000", "153558.287000", "153558.290000", "153558.292000", "153558.295000", "153558.297000", "153558.300000", "153558.302000", "153558.305000", "153558.307000", "153558.310000", "153558.312000", "153558.315000", "153558.317000", "153558.320000", "153558.322000", "153558.325000", "153558.327000", "153558.330000", "153558.332000", "153558.335000", "153558.337000", "153558.340000", "153558.342000", "153558.345000", "153558.348000", "153558.350000", "153558.352000", "153558.355000", "153558.358000", "153637.768000", "153637.804000", "153637.806000", "153637.809000", "153637.811000", "153637.814000", "153637.816000", "153637.819000", "153637.821000", "153637.824000", "153637.826000", "153637.829000", "153637.831000", "153637.834000", "153637.836000", "153637.839000", "153637.841000", "153637.844000", "153637.847000", "153637.849000", "153637.852000", "153637.854000", "153637.857000", "153637.859000", "153637.862000", "153637.864000", "153717.786000", "153717.789000", "153717.791000", "153717.803000", "153717.806000", "153717.808000", "153717.811000", "153717.813000", "153717.816000", "153717.818000", "153717.821000", "153717.824000", "153717.826000", "153717.829000", "153717.831000", "153717.834000", "153717.836000", "153717.839000", "153717.841000", "153717.844000", "153717.846000", "153717.849000", "153717.851000", "153717.854000", "153717.856000", "153717.859000", "153717.861000", "153730.072000", "153730.075000", "153730.078000", "153730.080000", "153730.083000", "153730.085000", "153730.088000", "153730.090000", "153730.093000"],
      "InstanceNumber": [1, 2, 3, 4, 5, 6, 7, 8, 9, 10, 11, 12, 13, 14, 15, 16, 17, 18, 19, 20, 21, 22, 23, 24, 25, 26, 27, 28, 29, 30, 31, 32, 33, 34, 35, 36, 37, 38, 39, 40, 41, 42, 43, 44, 45, 46, 47, 48, 49, 50, 51, 52, 53, 54, 55, 56, 57, 58, 59, 60, 61, 62, 63, 64, 65, 66, 67, 68, 69, 70, 71, 72, 73, 74, 75, 76, 77, 78, 79, 80, 81, 82, 83, 84, 85, 86, 87, 88, 89, 90, 91, 92, 93, 94, 95, 96, 97, 98, 99, 100, 101, 102, 103, 104, 105, 106, 107, 108, 109, 110, 111, 112, 113, 114, 115, 116, 117, 118, 119, 120, 121, 122, 123, 124, 125, 126, 127, 128, 129, 130, 131, 132, 133, 134, 135, 136, 137, 138, 139, 140, 141, 142, 143, 144, 145, 146, 147, 148, 149, 150, 151, 152, 153, 154, 155, 156, 157, 158, 159, 160, 161, 162, 163, 164, 165, 166, 167, 168, 169, 170, 171, 172, 173, 174, 175, 176, 177, 178, 179, 180, 181, 182, 183, 184, 185, 186, 187, 188, 189, 190],
      "WindowCenter": [4872.0, 4872.0, 4874.0, 4866.0, 4870.0, 4874.0, 4840.0, 4872.0, 4874.0, 4868.0, 4874.0, 4874.0, 4874.0, 4874.0, 4838.0, 4868.0, 4832.0, 4844.0, 4874.0, 4870.0, 4872.0, 4868.0, 4870.0, 4844.0, 4772.0, 4836.0, 4874.0, 4866.0, 4866.0, 4844.0, 4874.0, 4874.0, 4872.0, 4832.0, 4838.0, 4868.0, 4866.0, 4872.0, 4872.0, 4870.0, 4798.0, 4802.0, 4870.0, 4872.0, 4874.0, 4878.0, 4872.0, 4874.0, 4866.0, 4808.0, 4868.0, 4868.0, 4874.0, 4874.0, 4870.0, 4874.0, 4870.0, 4874.0, 4876.0, 4868.0, 4874.0, 4840.0, 4802.0, 4870.0, 4870.0, 4874.0, 4874.0, 4872.0, 4874.0, 4842.0, 4834.0, 4870.0, 4876.0, 4836.0, 4872.0, 4872.0, 4842.0, 4876.0, 4870.0, 4870.0, 4876.0, 4830.0, 4830.0, 4872.0, 4878.0, 4874.0, 4868.0, 4842.0, 4872.0, 4834.0, 4868.0, 4870.0, 4872.0, 4872.0, 4842.0, 4872.0, 4870.0, 4870.0, 4868.0, 4870.0, 4870.0, 4866.0, 4870.0, 4802.0, 4866.0, 4842.0, 4868.0, 4866.0, 4844.0, 4870.0, 4802.0, 4834.0, 4830.0, 4802.0, 4870.0, 4872.0, 4872.0, 4872.0, 4832.0, 4776.0, 4840.0, 4868.0, 4836.0, 4842.0, 4844.0, 4834.0, 4862.0, 4846.0, 4846.0, 4832.0, 4834.0, 4870.0, 4844.0, 4830.0, 4838.0, 4776.0, 4808.0, 4878.0, 4880.0, 4874.0, 4872.0, 4872.0, 4872.0, 4846.0, 4844.0, 4840.0, 4868.0, 4836.0, 4868.0, 4872.0, 4806.0, 4874.0, 4874.0, 4878.0, 4874.0, 4870.0, 4872.0, 4806.0, 4834.0, 4832.0, 4872.0, 4866.0, 4872.0, 4872.0, 4874.0, 4876.0, 4842.0, 4844.0, 4834.0, 4842.0, 4868.0, 4840.0, 4872.0, 4876.0, 4876.0, 4838.0, 4864.0, 4876.0, 4870.0, 4870.0, 4804.0, 4838.0, 4872.0, 4872.0, 4870.0, 4870.0, 4872.0, 4874.0, 4872.0, 4844.0],
      "WindowWidth": [18674.0, 18672.0, 18674.0, 18678.0, 18676.0, 18682.0, 18650.0, 18680.0, 18680.0, 18680.0, 18680.0, 18680.0, 18682.0, 18682.0, 18646.0, 18680.0, 18636.0, 18646.0, 18674.0, 18682.0, 18680.0, 18678.0, 18680.0, 18646.0, 18568.0, 18640.0, 18680.0, 18684.0, 18686.0, 18644.0, 18678.0, 18680.0, 18686.0, 18638.0, 18642.0, 18680.0, 18674.0, 18686.0, 18680.0, 18680.0, 18600.0, 18600.0, 18684.0, 18678.0, 18684.0, 18682.0, 18688.0, 18688.0, 18682.0, 18602.0, 18682.0, 18682.0, 18686.0, 18680.0, 18682.0, 18680.0, 18682.0, 18676.0, 18684.0, 18682.0, 18680.0, 18644.0, 18598.0, 18680.0, 18676.0, 18684.0, 18676.0, 18684.0, 18678.0, 18646.0, 18638.0, 18682.0, 18684.0, 18640.0, 18678.0, 18678.0, 18652.0, 18684.0, 18684.0, 18678.0, 18678.0, 18642.0, 18634.0, 18682.0, 18684.0, 18682.0, 18676.0, 18652.0, 18682.0, 18638.0, 18682.0, 18680.0, 18676.0, 18676.0, 18646.0, 18686.0, 18680.0, 18684.0, 18682.0, 18682.0, 18678.0, 18676.0, 18686.0, 18606.0, 18686.0, 18648.0, 18682.0, 18682.0, 18650.0, 18684.0, 18602.0, 18644.0, 18632.0, 18604.0, 18686.0, 18682.0, 18682.0, 18682.0, 18638.0, 18568.0, 18648.0, 18682.0, 18646.0, 18650.0, 18650.0, 18642.0, 18680.0, 18654.0, 18652.0, 18642.0, 18636.0, 18682.0, 18650.0, 18638.0, 18642.0, 18562.0, 18604.0, 18686.0, 18680.0, 18674.0, 18682.0, 18678.0, 18682.0, 18644.0, 18648.0, 18640.0, 18678.0, 18640.0, 18682.0, 18682.0, 18604.0, 18684.0, 18682.0, 18680.0, 18676.0, 18682.0, 18682.0, 18600.0, 18634.0, 18636.0, 18680.0, 18678.0, 18680.0, 18684.0, 18682.0, 18686.0, 18644.0, 18650.0, 18638.0, 18646.0, 18684.0, 18642.0, 18686.0, 18684.0, 18686.0, 18644.0, 18682.0, 18682.0, 18678.0, 18684.0, 18602.0, 18646.0, 18682.0, 18682.0, 18682.0, 18678.0, 18680.0, 18682.0, 18682.0, 18648.0]
    },
    "slices": {}
  }
}