{
  "AcquisitionMatrixPE": 104,
  "AcquisitionNumber": 1,
  "AcquisitionTime": "16:03:10.580000",
  "BandwidthPerPixelPhaseEncode": 17.17,
  "BaseResolution": 104,
  "BodyPartExamined": "BRAIN",
  "CoilString": "HC1-7;NC1_2",
  "ConsistencyInfo": "N4_VE11C_LATEST_20160120",
  "ConversionSoftware": "dcm2niix",
  "ConversionSoftwareVersion": "v1.0.20190902",
  "DerivedVendorReportedEchoSpacing": 0.000560011,
  "DeviceSerialNumber": "167006",
  "DwellTime": 2.1e-06,
  "EchoTime": 0.037,
  "EchoTrainLength": 104,
  "EffectiveEchoSpacing": 0.000560011,
  "FlipAngle": 52,
  "ImageComments": "Unaliased_MB4_PE3_LB",
  "ImageOrientationPatientDICOM": [0.997576, -0.0668215, 0.019407, 0.0695824, 0.957221, -0.280868],
  "ImageType": [
    "ORIGINAL",
    "PRIMARY",
    "P",
    "MB",
    "ND",
    "MOSAIC"
],
  "ImagingFrequency": 123.259,
  "InPlanePhaseEncodingDirectionDICOM": "COL",
  "InstitutionAddress": "Chemin_Queen-Mary_4565_Montreal_District_CA_H3W_1W5",
  "InstitutionName": "IUGM",
  "InstitutionalDepartmentName": "Department",
  "MRAcquisitionType": "2D",
  "MagneticFieldStrength": 3,
  "Manufacturer": "Siemens",
  "ManufacturersModelName": "Prisma_fit",
  "Modality": "MR",
  "MultibandAccelerationFactor": 4,
  "PartialFourier": 1,
  "PatientPosition": "HFS",
  "PercentPhaseFOV": 100,
  "PhaseEncodingDirection": "j",
  "PhaseEncodingSteps": 104,
  "PhaseResolution": 1,
  "PixelBandwidth": 2290,
  "ProcedureStepDescription": "memory_things",
  "ProtocolName": "func_task-things_run-6",
  "PulseSequenceDetails": "%CustomerSeq%_cmrr_mbep2d_bold",
  "ReceiveCoilActiveElements": "HC1-7;NC1,2",
  "ReceiveCoilName": "HeadNeck_64",
  "ReconMatrixPE": 104,
  "RepetitionTime": 1.49,
  "SAR": 0.0448602,
  "ScanOptions": "FS",
  "ScanningSequence": "EP",
  "SequenceName": "epfid2d1_104",
  "SequenceVariant": "SK_SS",
  "SeriesDescription": "func_task-things_run-6",
  "SeriesNumber": 32,
  "ShimSetting": [629, -7264, -8782, 647, -23, -215, 2, -16],
  "SliceThickness": 2,
  "SliceTiming": [0, 0.785, 0.0975, 0.8825, 0.195, 0.98, 0.295, 1.0775, 0.3925, 1.175, 0.49, 1.275, 0.5875, 1.3725, 0.685, 0, 0.785, 0.0975, 0.8825, 0.195, 0.98, 0.295, 1.0775, 0.3925, 1.175, 0.49, 1.275, 0.5875, 1.3725, 0.685, 0, 0.785, 0.0975, 0.8825, 0.195, 0.98, 0.295, 1.0775, 0.3925, 1.175, 0.49, 1.275, 0.5875, 1.3725, 0.685, 0, 0.785, 0.0975, 0.8825, 0.195, 0.98, 0.295, 1.0775, 0.3925, 1.175, 0.49, 1.275, 0.5875, 1.3725, 0.685],
  "SoftwareVersions": "syngo_MR_E11",
  "SpacingBetweenSlices": 2,
  "StationName": "MRC35049",
  "TaskName": "things",
  "TotalReadoutTime": 0.0576811,
  "TxRefAmp": 262.018,
  "WipMemBlock": "65ed4537-6cea-4404-8bf8-be06f1e4984c||Sequence: R016 ve11c/master r/e634e98; Dec 19 2017 11:00:25 by eja",
  "dcmmeta_affine": [
    [-1.9951523542404175, 0.1391647309064865, -0.0003823584411293268, 99.87901306152344],
    [0.13364294171333313, 1.9144415855407715, -0.5630747079849243, -74.6865234375],
    [0.03881406784057617, 0.5617355108261108, 1.9191005229949951, -53.60455322265625],
    [0.0, 0.0, 0.0, 1.0]
],
  "dcmmeta_reorient_transform": [
    [0.0, -1.0, 0.0, 103.0],
    [1.0, 0.0, 0.0, 0.0],
    [0.0, 0.0, 1.0, 0.0],
    [0.0, 0.0, 0.0, 1.0]
],
  "dcmmeta_shape": [104, 104, 60, 190],
  "dcmmeta_slice_dim": 2,
  "dcmmeta_version": 0.6,
  "global": {
    "const": {
      "AcquisitionMatrix": [104, 0, 0, 104],
      "AngioFlag": "N",
      "BitsAllocated": 16,
      "BitsStored": 16,
      "BodyPartExamined": "BRAIN",
      "Columns": 832,
      "EchoNumbers": 1,
      "EchoTime": 37.0,
      "EchoTrainLength": 104,
      "FlipAngle": 52.0,
      "HighBit": 15,
      "ImageOrientationPatient": [0.99757619166961, -0.0668214698943, 0.01940703416618, 0.06958236317103, 0.95722077159696, -0.2808677431797],
      "ImagePositionPatient": [-891.1044113179, -770.71164452321, 194.59759627619],
      "ImageType": [
        "ORIGINAL",
        "PRIMARY",
        "P",
        "MB",
        "ND",
        "MOSAIC"
],
      "ImagedNucleus": "1H",
      "ImagingFrequency": 123.258884,
      "InPlanePhaseEncodingDirection": "COL",
      "LargestImagePixelValue": 4095,
      "MRAcquisitionType": "2D",
      "MagneticFieldStrength": 3.0,
      "Manufacturer": "SIEMENS",
      "ManufacturerModelName": "Prisma_fit",
      "Modality": "MR",
      "NumberOfAverages": 1.0,
      "NumberOfPhaseEncodingSteps": 104,
      "PercentPhaseFieldOfView": 100.0,
      "PercentSampling": 100.0,
      "PerformedProcedureStepStartTime": "150137.961000",
      "PhotometricInterpretation": "MONOCHROME2",
      "PixelBandwidth": 2290.0,
      "PixelRepresentation": 0,
      "PixelSpacing": [2.0, 2.0],
      "ProtocolName": "func_task-things_run-6",
      "RepetitionTime": 1490.0,
      "RescaleIntercept": -4096.0,
      "RescaleSlope": 2.0,
      "RescaleType": "US",
      "Rows": 832,
      "SAR": 0.04486017529863,
      "SamplesPerPixel": 1,
      "ScanOptions": "FS",
      "ScanningSequence": "EP",
      "SequenceName": "epfid2d1_104",
      "SequenceVariant": [
        "SK",
        "SS"
],
      "SeriesDescription": "func_task-things_run-6",
      "SeriesNumber": 32,
      "SeriesTime": "160437.832000",
      "SliceLocation": -30.428311359306,
      "SliceThickness": 2.0,
      "SmallestImagePixelValue": 0,
      "SoftwareVersions": "syngo MR E11",
      "SpacingBetweenSlices": 1.9999999984936,
      "SpecificCharacterSet": "ISO_IR 100",
      "StudyID": "1",
      "StudyTime": "150137.866000",
      "TransmitCoilName": "Body",
      "VariableFlipAngleFlag": "N",
      "WindowCenterWidthExplanation": "Algo1",
      "dBdt": 0.0},
    "slices": {}
  },
  "time": {
    "samples": {
      "AcquisitionNumber": [1, 2, 3, 4, 5, 6, 7, 8, 9, 10, 11, 12, 13, 14, 15, 16, 17, 18, 19, 20, 21, 22, 23, 24, 25, 26, 27, 28, 29, 30, 31, 32, 33, 34, 35, 36, 37, 38, 39, 40, 41, 42, 43, 44, 45, 46, 47, 48, 49, 50, 51, 52, 53, 54, 55, 56, 57, 58, 59, 60, 61, 62, 63, 64, 65, 66, 67, 68, 69, 70, 71, 72, 73, 74, 75, 76, 77, 78, 79, 80, 81, 82, 83, 84, 85, 86, 87, 88, 89, 90, 91, 92, 93, 94, 95, 96, 97, 98, 99, 100, 101, 102, 103, 104, 105, 106, 107, 108, 109, 110, 111, 112, 113, 114, 115, 116, 117, 118, 119, 120, 121, 122, 123, 124, 125, 126, 127, 128, 129, 130, 131, 132, 133, 134, 135, 136, 137, 138, 139, 140, 141, 142, 143, 144, 145, 146, 147, 148, 149, 150, 151, 152, 153, 154, 155, 156, 157, 158, 159, 160, 161, 162, 163, 164, 165, 166, 167, 168, 169, 170, 171, 172, 173, 174, 175, 176, 177, 178, 179, 180, 181, 182, 183, 184, 185, 186, 187, 188, 189, 190],
      "AcquisitionTime": ["160310.580000", "160312.070000", "160313.560000", "160315.050000", "160316.540000", "160318.030000", "160319.520000", "160321.010000", "160322.500000", "160323.990000", "160325.480000", "160326.970000", "160328.460000", "160329.950000", "160331.440000", "160332.930000", "160334.420000", "160335.910000", "160337.400000", "160338.890000", "160340.380000", "160341.870000", "160343.360000", "160344.850000", "160346.340000", "160347.830000", "160349.320000", "160350.810000", "160352.300000", "160353.790000", "160355.280000", "160356.770000", "160358.260000", "160359.750000", "160401.240000", "160402.730000", "160404.220000", "160405.710000", "160407.200000", "160408.690000", "160410.180000", "160411.670000", "160413.160000", "160414.650000", "160416.140000", "160417.630000", "160419.120000", "160420.610000", "160422.100000", "160423.590000", "160425.080000", "160426.570000", "160428.060000", "160429.550000", "160431.040000", "160432.530000", "160434.020000", "160435.510000", "160437.000000", "160438.490000", "160439.980000", "160441.470000", "160442.960000", "160444.450000", "160445.940000", "160447.430000", "160448.920000", "160450.410000", "160451.900000", "160453.390000", "160454.880000", "160456.370000", "160457.860000", "160459.350000", "160500.840000", "160502.330000", "160503.820000", "160505.310000", "160506.800000", "160508.290000", "160509.780000", "160511.270000", "160512.760000", "160514.250000", "160515.740000", "160517.230000", "160518.720000", "160520.210000", "160521.700000", "160523.190000", "160524.680000", "160526.170000", "160527.660000", "160529.150000", "160530.640000", "160532.130000", "160533.620000", "160535.110000", "160536.600000", "160538.090000", "160539.580000", "160541.070000", "160542.560000", "160544.050000", "160545.540000", "160547.030000", "160548.520000", "160550.010000", "160551.500000", "160552.990000", "160554.480000", "160555.970000", "160557.460000", "160558.950000", "160600.440000", "160601.930000", "160603.420000", "160604.910000", "160606.400000", "160607.890000", "160609.380000", "160610.870000", "160612.360000", "160613.850000", "160615.340000", "160616.830000", "160618.320000", "160619.810000", "160621.300000", "160622.790000", "160624.280000", "160625.770000", "160627.260000", "160628.750000", "160630.240000", "160631.730000", "160633.220000", "160634.710000", "160636.200000", "160637.690000", "160639.180000", "160640.670000", "160642.160000", "160643.650000", "160645.140000", "160646.630000", "160648.120000", "160649.610000", "160651.100000", "160652.590000", "160654.080000", "160655.570000", "160657.060000", "160658.550000", "160700.040000", "160701.530000", "160703.020000", "160704.510000", "160706.000000", "160707.490000", "160708.980000", "160710.470000", "160711.960000", "160713.450000", "160714.940000", "160716.430000", "160717.920000", "160719.410000", "160720.900000", "160722.390000", "160723.880000", "160725.370000", "160726.860000", "160728.350000", "160729.840000", "160731.330000", "160732.820000", "160734.310000", "160735.800000", "160737.290000", "160738.780000", "160740.270000", "160741.760000", "160743.250000", "160744.740000", "160746.230000", "160747.720000", "160749.210000", "160750.700000", "160752.190000"],
      "ContentTime": ["160437.834000", "160437.837000", "160437.839000", "160437.842000", "160437.844000", "160437.847000", "160437.849000", "160437.852000", "160437.854000", "160437.857000", "160437.859000", "160437.862000", "160437.864000", "160437.867000", "160437.869000", "160437.872000", "160437.874000", "160437.877000", "160437.879000", "160437.882000", "160437.884000", "160437.887000", "160437.907000", "160437.910000", "160437.912000", "160437.915000", "160437.917000", "160437.920000", "160437.923000", "160437.925000", "160437.928000", "160437.930000", "160437.932000", "160437.935000", "160457.757000", "160457.760000", "160457.762000", "160457.765000", "160457.767000", "160457.770000", "160457.772000", "160457.775000", "160457.777000", "160457.780000", "160457.783000", "160457.785000", "160457.787000", "160457.790000", "160457.795000", "160457.799000", "160457.802000", "160457.804000", "160457.808000", "160457.811000", "160517.738000", "160517.741000", "160517.744000", "160517.746000", "160517.749000", "160517.751000", "160517.754000", "160517.756000", "160517.759000", "160517.761000", "160517.764000", "160517.766000", "160517.787000", "160517.807000", "160517.810000", "160517.812000", "160517.815000", "160517.817000", "160517.820000", "160517.822000", "160517.825000", "160537.738000", "160537.740000", "160537.743000", "160537.745000", "160537.748000", "160537.750000", "160537.753000", "160537.755000", "160537.758000", "160537.760000", "160537.763000", "160537.765000", "160537.768000", "160537.771000", "160537.773000", "160537.776000", "160537.778000", "160537.781000", "160537.783000", "160537.786000", "160617.770000", "160617.772000", "160617.775000", "160617.777000", "160617.780000", "160617.782000", "160617.785000", "160617.788000", "160617.790000", "160617.793000", "160617.795000", "160617.798000", "160617.800000", "160617.803000", "160617.805000", "160617.808000", "160617.810000", "160617.813000", "160617.815000", "160617.818000", "160617.820000", "160617.823000", "160617.826000", "160617.828000", "160617.831000", "160617.833000", "160617.836000", "160617.838000", "160617.841000", "160617.843000", "160657.810000", "160657.813000", "160657.815000", "160657.818000", "160657.820000", "160657.823000", "160657.825000", "160657.828000", "160657.830000", "160657.833000", "160657.835000", "160657.838000", "160657.840000", "160657.843000", "160657.845000", "160657.848000", "160657.851000", "160657.853000", "160657.856000", "160657.858000", "160657.861000", "160657.863000", "160657.866000", "160657.868000", "160657.871000", "160657.873000", "160657.876000", "160737.784000", "160737.787000", "160737.789000", "160737.792000", "160737.794000", "160737.797000", "160737.799000", "160737.802000", "160737.804000", "160737.807000", "160737.809000", "160737.812000", "160737.814000", "160737.817000", "160737.819000", "160737.822000", "160737.824000", "160737.827000", "160737.830000", "160737.832000", "160737.835000", "160737.837000", "160737.840000", "160737.842000", "160737.845000", "160737.847000", "160754.279000", "160754.282000", "160754.285000", "160754.287000", "160754.290000", "160754.292000", "160754.295000", "160754.297000", "160754.300000", "160754.302000", "160754.305000", "160754.307000"],
      "InstanceCreationTime": ["160437.834000", "160437.837000", "160437.839000", "160437.842000", "160437.844000", "160437.847000", "160437.849000", "160437.852000", "160437.854000", "160437.857000", "160437.859000", "160437.862000", "160437.864000", "160437.867000", "160437.869000", "160437.872000", "160437.874000", "160437.877000", "160437.879000", "160437.882000", "160437.884000", "160437.887000", "160437.907000", "160437.910000", "160437.912000", "160437.915000", "160437.917000", "160437.920000", "160437.923000", "160437.925000", "160437.928000", "160437.930000", "160437.932000", "160437.935000", "160457.757000", "160457.760000", "160457.762000", "160457.765000", "160457.767000", "160457.770000", "160457.772000", "160457.775000", "160457.777000", "160457.780000", "160457.783000", "160457.785000", "160457.787000", "160457.790000", "160457.795000", "160457.799000", "160457.802000", "160457.804000", "160457.808000", "160457.811000", "160517.738000", "160517.741000", "160517.744000", "160517.746000", "160517.749000", "160517.751000", "160517.754000", "160517.756000", "160517.759000", "160517.761000", "160517.764000", "160517.766000", "160517.787000", "160517.807000", "160517.810000", "160517.812000", "160517.815000", "160517.817000", "160517.820000", "160517.822000", "160517.825000", "160537.738000", "160537.740000", "160537.743000", "160537.745000", "160537.748000", "160537.750000", "160537.753000", "160537.755000", "160537.758000", "160537.760000", "160537.763000", "160537.765000", "160537.768000", "160537.771000", "160537.773000", "160537.776000", "160537.778000", "160537.781000", "160537.783000", "160537.786000", "160617.770000", "160617.772000", "160617.775000", "160617.777000", "160617.780000", "160617.782000", "160617.785000", "160617.788000", "160617.790000", "160617.793000", "160617.795000", "160617.798000", "160617.800000", "160617.803000", "160617.805000", "160617.808000", "160617.810000", "160617.813000", "160617.815000", "160617.818000", "160617.820000", "160617.823000", "160617.826000", "160617.828000", "160617.831000", "160617.833000", "160617.836000", "160617.838000", "160617.841000", "160617.843000", "160657.810000", "160657.813000", "160657.815000", "160657.818000", "160657.820000", "160657.823000", "160657.825000", "160657.828000", "160657.830000", "160657.833000", "160657.835000", "160657.838000", "160657.840000", "160657.843000", "160657.845000", "160657.848000", "160657.851000", "160657.853000", "160657.856000", "160657.858000", "160657.861000", "160657.863000", "160657.866000", "160657.868000", "160657.871000", "160657.873000", "160657.876000", "160737.784000", "160737.787000", "160737.789000", "160737.792000", "160737.794000", "160737.797000", "160737.799000", "160737.802000", "160737.804000", "160737.807000", "160737.809000", "160737.812000", "160737.814000", "160737.817000", "160737.819000", "160737.822000", "160737.824000", "160737.827000", "160737.830000", "160737.832000", "160737.835000", "160737.837000", "160737.840000", "160737.842000", "160737.845000", "160737.847000", "160754.279000", "160754.282000", "160754.285000", "160754.287000", "160754.290000", "160754.292000", "160754.295000", "160754.297000", "160754.300000", "160754.302000", "160754.305000", "160754.307000"],
      "InstanceNumber": [1, 2, 3, 4, 5, 6, 7, 8, 9, 10, 11, 12, 13, 14, 15, 16, 17, 18, 19, 20, 21, 22, 23, 24, 25, 26, 27, 28, 29, 30, 31, 32, 33, 34, 35, 36, 37, 38, 39, 40, 41, 42, 43, 44, 45, 46, 47, 48, 49, 50, 51, 52, 53, 54, 55, 56, 57, 58, 59, 60, 61, 62, 63, 64, 65, 66, 67, 68, 69, 70, 71, 72, 73, 74, 75, 76, 77, 78, 79, 80, 81, 82, 83, 84, 85, 86, 87, 88, 89, 90, 91, 92, 93, 94, 95, 96, 97, 98, 99, 100, 101, 102, 103, 104, 105, 106, 107, 108, 109, 110, 111, 112, 113, 114, 115, 116, 117, 118, 119, 120, 121, 122, 123, 124, 125, 126, 127, 128, 129, 130, 131, 132, 133, 134, 135, 136, 137, 138, 139, 140, 141, 142, 143, 144, 145, 146, 147, 148, 149, 150, 151, 152, 153, 154, 155, 156, 157, 158, 159, 160, 161, 162, 163, 164, 165, 166, 167, 168, 169, 170, 171, 172, 173, 174, 175, 176, 177, 178, 179, 180, 181, 182, 183, 184, 185, 186, 187, 188, 189, 190],
      "WindowCenter": [4852.0, 4852.0, 4852.0, 4850.0, 4854.0, 4852.0, 4850.0, 4864.0, 4804.0, 4832.0, 4870.0, 4876.0, 4854.0, 4826.0, 4828.0, 4874.0, 4876.0, 4902.0, 4834.0, 4872.0, 4876.0, 4878.0, 4868.0, 4860.0, 4878.0, 4824.0, 4824.0, 4824.0, 4828.0, 4872.0, 4876.0, 4870.0, 4872.0, 4876.0, 4882.0, 4876.0, 4872.0, 4852.0, 4828.0, 4826.0, 4848.0, 4874.0, 4876.0, 4878.0, 4876.0, 4876.0, 4874.0, 4874.0, 4852.0, 4850.0, 4850.0, 4826.0, 4872.0, 4874.0, 4872.0, 4876.0, 4870.0, 4854.0, 4848.0, 4874.0, 4874.0, 4876.0, 4876.0, 4838.0, 4874.0, 4854.0, 4852.0, 4826.0, 4852.0, 4874.0, 4862.0, 4806.0, 4870.0, 4876.0, 4848.0, 4850.0, 4852.0, 4850.0, 4850.0, 4870.0, 4832.0, 4874.0, 4874.0, 4854.0, 4880.0, 4874.0, 4876.0, 4852.0, 4854.0, 4850.0, 4876.0, 4872.0, 4874.0, 4876.0, 4878.0, 4848.0, 4852.0, 4872.0, 4852.0, 4848.0, 4846.0, 4842.0, 4776.0, 4876.0, 4856.0, 4852.0, 4850.0, 4850.0, 4850.0, 4872.0, 4878.0, 4878.0, 4876.0, 4878.0, 4876.0, 4900.0, 4850.0, 4876.0, 4878.0, 4854.0, 4854.0, 4854.0, 4872.0, 4876.0, 4876.0, 4862.0, 4836.0, 4874.0, 4850.0, 4852.0, 4878.0, 4852.0, 4852.0, 4876.0, 4874.0, 4876.0, 4870.0, 4876.0, 4876.0, 4874.0, 4876.0, 4874.0, 4878.0, 4848.0, 4876.0, 4874.0, 4878.0, 4874.0, 4870.0, 4872.0, 4874.0, 4854.0, 4848.0, 4876.0, 4874.0, 4878.0, 4876.0, 4872.0, 4802.0, 4876.0, 4826.0, 4848.0, 4828.0, 4850.0, 4854.0, 4874.0, 4876.0, 4874.0, 4864.0, 4830.0, 4876.0, 4880.0, 4852.0, 4850.0, 4874.0, 4854.0, 4878.0, 4874.0, 4876.0, 4876.0, 4876.0, 4876.0, 4874.0, 4846.0, 4874.0, 4874.0, 4874.0, 4872.0, 4878.0, 4872.0],
      "WindowWidth": [18628.0, 18632.0, 18630.0, 18634.0, 18628.0, 18630.0, 18636.0, 18682.0, 18604.0, 18640.0, 18688.0, 18678.0, 18630.0, 18594.0, 18596.0, 18664.0, 18674.0, 18714.0, 18644.0, 18686.0, 18676.0, 18680.0, 18688.0, 18678.0, 18684.0, 18588.0, 18588.0, 18592.0, 18594.0, 18668.0, 18684.0, 18686.0, 18688.0, 18684.0, 18674.0, 18678.0, 18686.0, 18638.0, 18594.0, 18590.0, 18624.0, 18682.0, 18684.0, 18688.0, 18686.0, 18680.0, 18690.0, 18674.0, 18628.0, 18636.0, 18634.0, 18590.0, 18666.0, 18674.0, 18664.0, 18682.0, 18666.0, 18628.0, 18624.0, 18662.0, 18680.0, 18666.0, 18682.0, 18646.0, 18676.0, 18620.0, 18624.0, 18594.0, 18630.0, 18664.0, 18678.0, 18598.0, 18680.0, 18668.0, 18624.0, 18618.0, 18626.0, 18624.0, 18630.0, 18686.0, 18636.0, 18680.0, 18662.0, 18630.0, 18670.0, 18684.0, 18668.0, 18630.0, 18634.0, 18628.0, 18668.0, 18688.0, 18668.0, 18678.0, 18688.0, 18632.0, 18628.0, 18674.0, 18630.0, 18620.0, 18624.0, 18650.0, 18564.0, 18668.0, 18630.0, 18622.0, 18622.0, 18626.0, 18630.0, 18664.0, 18678.0, 18678.0, 18680.0, 18676.0, 18686.0, 18714.0, 18626.0, 18668.0, 18680.0, 18626.0, 18626.0, 18628.0, 18662.0, 18672.0, 18682.0, 18682.0, 18646.0, 18678.0, 18626.0, 18622.0, 18664.0, 18632.0, 18628.0, 18668.0, 18666.0, 18692.0, 18688.0, 18684.0, 18672.0, 18680.0, 18658.0, 18678.0, 18670.0, 18624.0, 18666.0, 18688.0, 18672.0, 18666.0, 18686.0, 18690.0, 18674.0, 18630.0, 18624.0, 18664.0, 18682.0, 18678.0, 18668.0, 18666.0, 18604.0, 18680.0, 18586.0, 18622.0, 18590.0, 18624.0, 18630.0, 18672.0, 18672.0, 18678.0, 18678.0, 18640.0, 18682.0, 18666.0, 18632.0, 18626.0, 18668.0, 18630.0, 18686.0, 18674.0, 18676.0, 18686.0, 18676.0, 18674.0, 18658.0, 18622.0, 18676.0, 18682.0, 18666.0, 18666.0, 18674.0, 18688.0]
    },
    "slices": {}
  }
}