{
  "AcquisitionMatrixPE": 104,
  "AcquisitionNumber": 1,
  "AcquisitionTime": "15:48:24.925000",
  "BandwidthPerPixelPhaseEncode": 17.17,
  "BaseResolution": 104,
  "BodyPartExamined": "BRAIN",
  "CoilString": "HC1-7;NC1_2",
  "ConsistencyInfo": "N4_VE11C_LATEST_20160120",
  "ConversionSoftware": "dcm2niix",
  "ConversionSoftwareVersion": "v1.0.20190902",
  "DerivedVendorReportedEchoSpacing": 0.000560011,
  "DeviceSerialNumber": "167006",
  "DwellTime": 2.1e-06,
  "EchoTime": 0.037,
  "EchoTrainLength": 104,
  "EffectiveEchoSpacing": 0.000560011,
  "FlipAngle": 52,
  "ImageComments": "Unaliased_MB4_PE3_LB",
  "ImageOrientationPatientDICOM": [0.997576, -0.0668215, 0.019407, 0.0695824, 0.957221, -0.280868],
  "ImageType": [
    "ORIGINAL",
    "PRIMARY",
    "P",
    "MB",
    "ND",
    "MOSAIC"
],
  "ImagingFrequency": 123.259,
  "InPlanePhaseEncodingDirectionDICOM": "COL",
  "InstitutionAddress": "Chemin_Queen-Mary_4565_Montreal_District_CA_H3W_1W5",
  "InstitutionName": "IUGM",
  "InstitutionalDepartmentName": "Department",
  "MRAcquisitionType": "2D",
  "MagneticFieldStrength": 3,
  "Manufacturer": "Siemens",
  "ManufacturersModelName": "Prisma_fit",
  "Modality": "MR",
  "MultibandAccelerationFactor": 4,
  "PartialFourier": 1,
  "PatientPosition": "HFS",
  "PercentPhaseFOV": 100,
  "PhaseEncodingDirection": "j",
  "PhaseEncodingSteps": 104,
  "PhaseResolution": 1,
  "PixelBandwidth": 2290,
  "ProcedureStepDescription": "memory_things",
  "ProtocolName": "func_task-things_run-4",
  "PulseSequenceDetails": "%CustomerSeq%_cmrr_mbep2d_bold",
  "ReceiveCoilActiveElements": "HC1-7;NC1,2",
  "ReceiveCoilName": "HeadNeck_64",
  "ReconMatrixPE": 104,
  "RepetitionTime": 1.49,
  "SAR": 0.0448602,
  "ScanOptions": "FS",
  "ScanningSequence": "EP",
  "SequenceName": "epfid2d1_104",
  "SequenceVariant": "SK_SS",
  "SeriesDescription": "func_task-things_run-4",
  "SeriesNumber": 23,
  "ShimSetting": [629, -7264, -8782, 647, -23, -215, 2, -16],
  "SliceThickness": 2,
  "SliceTiming": [0, 0.785, 0.0975, 0.8825, 0.1975, 0.98, 0.295, 1.0775, 0.3925, 1.1775, 0.49, 1.275, 0.5875, 1.3725, 0.6875, 0, 0.785, 0.0975, 0.8825, 0.1975, 0.98, 0.295, 1.0775, 0.3925, 1.1775, 0.49, 1.275, 0.5875, 1.3725, 0.6875, 0, 0.785, 0.0975, 0.8825, 0.1975, 0.98, 0.295, 1.0775, 0.3925, 1.1775, 0.49, 1.275, 0.5875, 1.3725, 0.6875, 0, 0.785, 0.0975, 0.8825, 0.1975, 0.98, 0.295, 1.0775, 0.3925, 1.1775, 0.49, 1.275, 0.5875, 1.3725, 0.6875],
  "SoftwareVersions": "syngo_MR_E11",
  "SpacingBetweenSlices": 2,
  "StationName": "MRC35049",
  "TaskName": "things",
  "TotalReadoutTime": 0.0576811,
  "TxRefAmp": 262.018,
  "WipMemBlock": "83421c4a-c965-47f1-bde5-87e910435629||Sequence: R016 ve11c/master r/e634e98; Dec 19 2017 11:00:25 by eja",
  "dcmmeta_affine": [
    [-1.9951523542404175, 0.1391647309064865, -0.0003823584411293268, 99.87901306152344],
    [0.13364294171333313, 1.9144415855407715, -0.5630747079849243, -74.6865234375],
    [0.03881406784057617, 0.5617355108261108, 1.9191005229949951, -53.60455322265625],
    [0.0, 0.0, 0.0, 1.0]
],
  "dcmmeta_reorient_transform": [
    [0.0, -1.0, 0.0, 103.0],
    [1.0, 0.0, 0.0, 0.0],
    [0.0, 0.0, 1.0, 0.0],
    [0.0, 0.0, 0.0, 1.0]
],
  "dcmmeta_shape": [104, 104, 60, 190],
  "dcmmeta_slice_dim": 2,
  "dcmmeta_version": 0.6,
  "global": {
    "const": {
      "AcquisitionMatrix": [104, 0, 0, 104],
      "AngioFlag": "N",
      "BitsAllocated": 16,
      "BitsStored": 16,
      "BodyPartExamined": "BRAIN",
      "Columns": 832,
      "EchoNumbers": 1,
      "EchoTime": 37.0,
      "EchoTrainLength": 104,
      "FlipAngle": 52.0,
      "HighBit": 15,
      "ImageOrientationPatient": [0.99757619166961, -0.0668214698943, 0.01940703416618, 0.06958236317103, 0.95722077159696, -0.2808677431797],
      "ImagePositionPatient": [-891.1044113179, -770.71164452321, 194.59759627619],
      "ImageType": [
        "ORIGINAL",
        "PRIMARY",
        "P",
        "MB",
        "ND",
        "MOSAIC"
],
      "ImagedNucleus": "1H",
      "ImagingFrequency": 123.258875,
      "InPlanePhaseEncodingDirection": "COL",
      "LargestImagePixelValue": 4095,
      "MRAcquisitionType": "2D",
      "MagneticFieldStrength": 3.0,
      "Manufacturer": "SIEMENS",
      "ManufacturerModelName": "Prisma_fit",
      "Modality": "MR",
      "NumberOfAverages": 1.0,
      "NumberOfPhaseEncodingSteps": 104,
      "PercentPhaseFieldOfView": 100.0,
      "PercentSampling": 100.0,
      "PerformedProcedureStepStartTime": "150137.961000",
      "PhotometricInterpretation": "MONOCHROME2",
      "PixelBandwidth": 2290.0,
      "PixelRepresentation": 0,
      "PixelSpacing": [2.0, 2.0],
      "ProtocolName": "func_task-things_run-4",
      "RepetitionTime": 1490.0,
      "RescaleIntercept": -4096.0,
      "RescaleSlope": 2.0,
      "RescaleType": "US",
      "Rows": 832,
      "SAR": 0.04486017529863,
      "SamplesPerPixel": 1,
      "ScanOptions": "FS",
      "ScanningSequence": "EP",
      "SequenceName": "epfid2d1_104",
      "SequenceVariant": [
        "SK",
        "SS"
],
      "SeriesDescription": "func_task-things_run-4",
      "SeriesNumber": 23,
      "SeriesTime": "154957.855000",
      "SliceLocation": -30.428311359306,
      "SliceThickness": 2.0,
      "SmallestImagePixelValue": 0,
      "SoftwareVersions": "syngo MR E11",
      "SpacingBetweenSlices": 1.9999999984936,
      "SpecificCharacterSet": "ISO_IR 100",
      "StudyID": "1",
      "StudyTime": "150137.866000",
      "TransmitCoilName": "Body",
      "VariableFlipAngleFlag": "N",
      "WindowCenterWidthExplanation": "Algo1",
      "dBdt": 0.0},
    "slices": {}
  },
  "time": {
    "samples": {
      "AcquisitionNumber": [1, 2, 3, 4, 5, 6, 7, 8, 9, 10, 11, 12, 13, 14, 15, 16, 17, 18, 19, 20, 21, 22, 23, 24, 25, 26, 27, 28, 29, 30, 31, 32, 33, 34, 35, 36, 37, 38, 39, 40, 41, 42, 43, 44, 45, 46, 47, 48, 49, 50, 51, 52, 53, 54, 55, 56, 57, 58, 59, 60, 61, 62, 63, 64, 65, 66, 67, 68, 69, 70, 71, 72, 73, 74, 75, 76, 77, 78, 79, 80, 81, 82, 83, 84, 85, 86, 87, 88, 89, 90, 91, 92, 93, 94, 95, 96, 97, 98, 99, 100, 101, 102, 103, 104, 105, 106, 107, 108, 109, 110, 111, 112, 113, 114, 115, 116, 117, 118, 119, 120, 121, 122, 123, 124, 125, 126, 127, 128, 129, 130, 131, 132, 133, 134, 135, 136, 137, 138, 139, 140, 141, 142, 143, 144, 145, 146, 147, 148, 149, 150, 151, 152, 153, 154, 155, 156, 157, 158, 159, 160, 161, 162, 163, 164, 165, 166, 167, 168, 169, 170, 171, 172, 173, 174, 175, 176, 177, 178, 179, 180, 181, 182, 183, 184, 185, 186, 187, 188, 189, 190],
      "AcquisitionTime": ["154824.925000", "154826.415000", "154827.905000", "154829.395000", "154830.885000", "154832.375000", "154833.865000", "154835.355000", "154836.845000", "154838.335000", "154839.825000", "154841.315000", "154842.805000", "154844.295000", "154845.785000", "154847.275000", "154848.765000", "154850.255000", "154851.745000", "154853.235000", "154854.725000", "154856.215000", "154857.705000", "154859.195000", "154900.685000", "154902.175000", "154903.665000", "154905.155000", "154906.645000", "154908.135000", "154909.625000", "154911.115000", "154912.605000", "154914.095000", "154915.585000", "154917.075000", "154918.565000", "154920.055000", "154921.545000", "154923.035000", "154924.525000", "154926.015000", "154927.505000", "154928.995000", "154930.485000", "154931.975000", "154933.465000", "154934.955000", "154936.445000", "154937.935000", "154939.425000", "154940.915000", "154942.405000", "154943.895000", "154945.385000", "154946.875000", "154948.365000", "154949.855000", "154951.345000", "154952.835000", "154954.325000", "154955.815000", "154957.305000", "154958.795000", "155000.285000", "155001.775000", "155003.265000", "155004.755000", "155006.245000", "155007.735000", "155009.225000", "155010.715000", "155012.205000", "155013.695000", "155015.185000", "155016.675000", "155018.165000", "155019.655000", "155021.145000", "155022.635000", "155024.125000", "155025.615000", "155027.105000", "155028.595000", "155030.085000", "155031.575000", "155033.065000", "155034.555000", "155036.045000", "155037.535000", "155039.025000", "155040.515000", "155042.005000", "155043.495000", "155044.985000", "155046.475000", "155047.965000", "155049.455000", "155050.945000", "155052.435000", "155053.925000", "155055.415000", "155056.905000", "155058.395000", "155059.885000", "155101.375000", "155102.865000", "155104.355000", "155105.845000", "155107.335000", "155108.825000", "155110.315000", "155111.805000", "155113.295000", "155114.785000", "155116.275000", "155117.765000", "155119.255000", "155120.745000", "155122.235000", "155123.725000", "155125.215000", "155126.705000", "155128.195000", "155129.685000", "155131.175000", "155132.665000", "155134.155000", "155135.645000", "155137.135000", "155138.625000", "155140.115000", "155141.605000", "155143.095000", "155144.585000", "155146.075000", "155147.565000", "155149.055000", "155150.545000", "155152.035000", "155153.525000", "155155.015000", "155156.505000", "155157.995000", "155159.485000", "155200.975000", "155202.465000", "155203.955000", "155205.445000", "155206.935000", "155208.425000", "155209.915000", "155211.405000", "155212.895000", "155214.385000", "155215.875000", "155217.365000", "155218.855000", "155220.345000", "155221.835000", "155223.325000", "155224.815000", "155226.305000", "155227.795000", "155229.285000", "155230.775000", "155232.265000", "155233.755000", "155235.245000", "155236.735000", "155238.225000", "155239.715000", "155241.205000", "155242.695000", "155244.185000", "155245.675000", "155247.165000", "155248.655000", "155250.145000", "155251.635000", "155253.125000", "155254.615000", "155256.105000", "155257.595000", "155259.085000", "155300.575000", "155302.065000", "155303.555000", "155305.045000", "155306.535000"],
      "ContentTime": ["154957.857000", "154957.860000", "154957.862000", "154957.865000", "154957.867000", "154957.870000", "154957.872000", "154957.875000", "154957.877000", "154957.880000", "154957.882000", "154957.885000", "154957.887000", "154957.890000", "154957.892000", "154957.895000", "154957.897000", "154957.900000", "154957.902000", "154957.905000", "154957.907000", "154957.910000", "154957.912000", "154957.915000", "154957.917000", "154957.920000", "154957.922000", "154957.925000", "154957.927000", "154957.930000", "154957.932000", "154957.935000", "154957.937000", "154957.940000", "154957.942000", "154957.945000", "154957.947000", "154957.950000", "155017.745000", "155017.747000", "155017.750000", "155017.752000", "155017.755000", "155017.758000", "155017.760000", "155017.763000", "155017.765000", "155017.773000", "155017.775000", "155017.778000", "155017.780000", "155017.783000", "155017.785000", "155017.788000", "155017.790000", "155017.793000", "155017.796000", "155017.798000", "155037.749000", "155037.752000", "155037.754000", "155037.757000", "155037.759000", "155037.762000", "155037.764000", "155037.767000", "155037.770000", "155037.772000", "155037.775000", "155037.777000", "155037.780000", "155037.782000", "155037.785000", "155037.787000", "155037.790000", "155037.792000", "155037.795000", "155037.797000", "155057.771000", "155057.774000", "155057.777000", "155057.779000", "155057.782000", "155057.784000", "155057.787000", "155057.789000", "155057.792000", "155057.794000", "155057.797000", "155057.799000", "155057.802000", "155057.805000", "155057.807000", "155057.809000", "155057.812000", "155057.814000", "155057.817000", "155057.820000", "155117.730000", "155117.732000", "155117.735000", "155117.737000", "155117.740000", "155117.742000", "155117.745000", "155117.747000", "155117.750000", "155117.752000", "155117.755000", "155117.758000", "155117.760000", "155117.763000", "155117.765000", "155117.768000", "155117.771000", "155157.767000", "155157.770000", "155157.772000", "155157.775000", "155157.777000", "155157.780000", "155157.782000", "155157.785000", "155157.787000", "155157.790000", "155157.792000", "155157.795000", "155157.797000", "155157.800000", "155157.802000", "155157.805000", "155157.807000", "155157.810000", "155157.812000", "155157.815000", "155157.817000", "155157.820000", "155157.822000", "155157.825000", "155157.828000", "155157.830000", "155157.833000", "155237.780000", "155237.783000", "155237.785000", "155237.788000", "155237.790000", "155237.793000", "155237.795000", "155237.798000", "155237.800000", "155237.803000", "155237.806000", "155237.808000", "155237.811000", "155237.813000", "155237.816000", "155237.818000", "155237.821000", "155237.823000", "155237.826000", "155237.829000", "155237.831000", "155237.834000", "155237.836000", "155237.839000", "155237.841000", "155237.844000", "155237.846000", "155309.101000", "155309.105000", "155309.107000", "155309.110000", "155309.112000", "155309.115000", "155309.118000", "155309.121000", "155309.124000", "155309.127000", "155309.130000", "155309.134000", "155309.137000", "155309.140000", "155309.142000", "155309.145000", "155309.148000", "155309.150000", "155309.153000", "155309.156000", "155309.159000"],
      "InstanceCreationTime": ["154957.857000", "154957.860000", "154957.862000", "154957.865000", "154957.867000", "154957.870000", "154957.872000", "154957.875000", "154957.877000", "154957.880000", "154957.882000", "154957.885000", "154957.887000", "154957.890000", "154957.892000", "154957.895000", "154957.897000", "154957.900000", "154957.902000", "154957.905000", "154957.907000", "154957.910000", "154957.912000", "154957.915000", "154957.917000", "154957.920000", "154957.922000", "154957.925000", "154957.927000", "154957.930000", "154957.932000", "154957.935000", "154957.937000", "154957.940000", "154957.942000", "154957.945000", "154957.947000", "154957.950000", "155017.745000", "155017.747000", "155017.750000", "155017.752000", "155017.755000", "155017.758000", "155017.760000", "155017.763000", "155017.765000", "155017.773000", "155017.775000", "155017.778000", "155017.780000", "155017.783000", "155017.785000", "155017.788000", "155017.790000", "155017.793000", "155017.796000", "155017.798000", "155037.749000", "155037.752000", "155037.754000", "155037.757000", "155037.759000", "155037.762000", "155037.764000", "155037.767000", "155037.770000", "155037.772000", "155037.775000", "155037.777000", "155037.780000", "155037.782000", "155037.785000", "155037.787000", "155037.790000", "155037.792000", "155037.795000", "155037.797000", "155057.771000", "155057.774000", "155057.777000", "155057.779000", "155057.782000", "155057.784000", "155057.787000", "155057.789000", "155057.792000", "155057.794000", "155057.797000", "155057.799000", "155057.802000", "155057.805000", "155057.807000", "155057.809000", "155057.812000", "155057.814000", "155057.817000", "155057.820000", "155117.730000", "155117.732000", "155117.735000", "155117.737000", "155117.740000", "155117.742000", "155117.745000", "155117.747000", "155117.750000", "155117.752000", "155117.755000", "155117.758000", "155117.760000", "155117.763000", "155117.765000", "155117.768000", "155117.771000", "155157.767000", "155157.770000", "155157.772000", "155157.775000", "155157.777000", "155157.780000", "155157.782000", "155157.785000", "155157.787000", "155157.790000", "155157.792000", "155157.795000", "155157.797000", "155157.800000", "155157.802000", "155157.805000", "155157.807000", "155157.810000", "155157.812000", "155157.815000", "155157.817000", "155157.820000", "155157.822000", "155157.825000", "155157.828000", "155157.830000", "155157.833000", "155237.780000", "155237.783000", "155237.785000", "155237.788000", "155237.790000", "155237.793000", "155237.795000", "155237.798000", "155237.800000", "155237.803000", "155237.806000", "155237.808000", "155237.811000", "155237.813000", "155237.816000", "155237.818000", "155237.821000", "155237.823000", "155237.826000", "155237.829000", "155237.831000", "155237.834000", "155237.836000", "155237.839000", "155237.841000", "155237.844000", "155237.846000", "155309.101000", "155309.105000", "155309.107000", "155309.110000", "155309.112000", "155309.115000", "155309.118000", "155309.121000", "155309.124000", "155309.127000", "155309.130000", "155309.134000", "155309.137000", "155309.140000", "155309.142000", "155309.145000", "155309.148000", "155309.150000", "155309.153000", "155309.156000", "155309.159000"],
      "InstanceNumber": [1, 2, 3, 4, 5, 6, 7, 8, 9, 10, 11, 12, 13, 14, 15, 16, 17, 18, 19, 20, 21, 22, 23, 24, 25, 26, 27, 28, 29, 30, 31, 32, 33, 34, 35, 36, 37, 38, 39, 40, 41, 42, 43, 44, 45, 46, 47, 48, 49, 50, 51, 52, 53, 54, 55, 56, 57, 58, 59, 60, 61, 62, 63, 64, 65, 66, 67, 68, 69, 70, 71, 72, 73, 74, 75, 76, 77, 78, 79, 80, 81, 82, 83, 84, 85, 86, 87, 88, 89, 90, 91, 92, 93, 94, 95, 96, 97, 98, 99, 100, 101, 102, 103, 104, 105, 106, 107, 108, 109, 110, 111, 112, 113, 114, 115, 116, 117, 118, 119, 120, 121, 122, 123, 124, 125, 126, 127, 128, 129, 130, 131, 132, 133, 134, 135, 136, 137, 138, 139, 140, 141, 142, 143, 144, 145, 146, 147, 148, 149, 150, 151, 152, 153, 154, 155, 156, 157, 158, 159, 160, 161, 162, 163, 164, 165, 166, 167, 168, 169, 170, 171, 172, 173, 174, 175, 176, 177, 178, 179, 180, 181, 182, 183, 184, 185, 186, 187, 188, 189, 190],
      "WindowCenter": [4840.0, 4798.0, 4832.0, 4774.0, 4772.0, 4866.0, 4876.0, 4876.0, 4874.0, 4876.0, 4802.0, 4778.0, 4776.0, 4808.0, 4842.0, 4848.0, 4828.0, 4838.0, 4870.0, 4870.0, 4806.0, 4808.0, 4840.0, 4834.0, 4798.0, 4808.0, 4844.0, 4806.0, 4832.0, 4868.0, 4868.0, 4830.0, 4838.0, 4844.0, 4806.0, 4802.0, 4838.0, 4840.0, 4832.0, 4836.0, 4838.0, 4802.0, 4840.0, 4868.0, 4866.0, 4804.0, 4774.0, 4808.0, 4844.0, 4872.0, 4870.0, 4842.0, 4798.0, 4808.0, 4802.0, 4802.0, 4836.0, 4868.0, 4866.0, 4868.0, 4842.0, 4834.0, 4838.0, 4778.0, 4778.0, 4832.0, 4844.0, 4810.0, 4864.0, 4868.0, 4806.0, 4836.0, 4840.0, 4802.0, 4810.0, 4778.0, 4780.0, 4808.0, 4872.0, 4874.0, 4876.0, 4872.0, 4808.0, 4804.0, 4806.0, 4804.0, 4806.0, 4812.0, 4836.0, 4836.0, 4836.0, 4840.0, 4870.0, 4802.0, 4804.0, 4812.0, 4778.0, 4834.0, 4810.0, 4804.0, 4844.0, 4776.0, 4780.0, 4832.0, 4878.0, 4876.0, 4868.0, 4868.0, 4838.0, 4806.0, 4774.0, 4778.0, 4808.0, 4838.0, 4838.0, 4806.0, 4844.0, 4876.0, 4836.0, 4808.0, 4840.0, 4800.0, 4774.0, 4806.0, 4846.0, 4872.0, 4872.0, 4868.0, 4834.0, 4804.0, 4806.0, 4806.0, 4808.0, 4776.0, 4804.0, 4840.0, 4838.0, 4810.0, 4868.0, 4838.0, 4842.0, 4832.0, 4832.0, 4776.0, 4776.0, 4808.0, 4872.0, 4874.0, 4880.0, 4838.0, 4834.0, 4808.0, 4804.0, 4802.0, 4806.0, 4832.0, 4804.0, 4778.0, 4778.0, 4870.0, 4878.0, 4878.0, 4868.0, 4802.0, 4802.0, 4798.0, 4778.0, 4800.0, 4806.0, 4772.0, 4836.0, 4872.0, 4872.0, 4870.0, 4806.0, 4780.0, 4806.0, 4844.0, 4872.0, 4874.0, 4872.0, 4846.0, 4836.0, 4810.0, 4810.0, 4808.0, 4836.0, 4836.0, 4844.0, 4842.0],
      "WindowWidth": [18644.0, 18598.0, 18640.0, 18564.0, 18564.0, 18684.0, 18680.0, 18676.0, 18678.0, 18684.0, 18594.0, 18562.0, 18562.0, 18602.0, 18646.0, 18652.0, 18638.0, 18642.0, 18686.0, 18686.0, 18604.0, 18606.0, 18650.0, 18644.0, 18592.0, 18604.0, 18646.0, 18598.0, 18638.0, 18684.0, 18684.0, 18640.0, 18646.0, 18646.0, 18600.0, 18594.0, 18638.0, 18650.0, 18638.0, 18644.0, 18650.0, 18598.0, 18646.0, 18682.0, 18682.0, 18596.0, 18564.0, 18604.0, 18654.0, 18684.0, 18684.0, 18652.0, 18592.0, 18602.0, 18598.0, 18592.0, 18646.0, 18686.0, 18684.0, 18682.0, 18646.0, 18640.0, 18638.0, 18564.0, 18562.0, 18638.0, 18656.0, 18606.0, 18682.0, 18686.0, 18604.0, 18642.0, 18642.0, 18594.0, 18600.0, 18560.0, 18564.0, 18606.0, 18688.0, 18690.0, 18690.0, 18686.0, 18604.0, 18598.0, 18602.0, 18594.0, 18594.0, 18604.0, 18636.0, 18642.0, 18640.0, 18652.0, 18684.0, 18600.0, 18598.0, 18612.0, 18560.0, 18636.0, 18602.0, 18596.0, 18648.0, 18564.0, 18572.0, 18640.0, 18688.0, 18684.0, 18686.0, 18690.0, 18650.0, 18600.0, 18558.0, 18558.0, 18604.0, 18642.0, 18646.0, 18604.0, 18654.0, 18686.0, 18644.0, 18606.0, 18650.0, 18594.0, 18556.0, 18602.0, 18650.0, 18692.0, 18688.0, 18682.0, 18638.0, 18600.0, 18606.0, 18606.0, 18606.0, 18562.0, 18596.0, 18648.0, 18642.0, 18608.0, 18688.0, 18644.0, 18650.0, 18638.0, 18638.0, 18560.0, 18570.0, 18604.0, 18690.0, 18686.0, 18694.0, 18642.0, 18640.0, 18602.0, 18598.0, 18594.0, 18598.0, 18634.0, 18600.0, 18564.0, 18566.0, 18688.0, 18688.0, 18684.0, 18684.0, 18594.0, 18592.0, 18588.0, 18562.0, 18596.0, 18600.0, 18556.0, 18650.0, 18688.0, 18686.0, 18686.0, 18596.0, 18568.0, 18598.0, 18652.0, 18682.0, 18690.0, 18686.0, 18648.0, 18636.0, 18602.0, 18598.0, 18594.0, 18628.0, 18634.0, 18646.0, 18642.0]
    },
    "slices": {}
  }
}