{
  "AcquisitionMatrixPE": 104,
  "AcquisitionNumber": 1,
  "AcquisitionTime": "15:56:55.967500",
  "BandwidthPerPixelPhaseEncode": 17.17,
  "BaseResolution": 104,
  "BodyPartExamined": "BRAIN",
  "CoilString": "HC1-7;NC1_2",
  "ConsistencyInfo": "N4_VE11C_LATEST_20160120",
  "ConversionSoftware": "dcm2niix",
  "ConversionSoftwareVersion": "v1.0.20190902",
  "DerivedVendorReportedEchoSpacing": 0.000560011,
  "DeviceSerialNumber": "167006",
  "DwellTime": 2.1e-06,
  "EchoTime": 0.037,
  "EchoTrainLength": 104,
  "EffectiveEchoSpacing": 0.000560011,
  "FlipAngle": 52,
  "ImageComments": "Unaliased_MB4_PE3_LB",
  "ImageOrientationPatientDICOM": [0.997576, -0.0668215, 0.019407, 0.0695824, 0.957221, -0.280868],
  "ImageType": [
    "ORIGINAL",
    "PRIMARY",
    "M",
    "MB",
    "ND",
    "MOSAIC"
],
  "ImagingFrequency": 123.259,
  "InPlanePhaseEncodingDirectionDICOM": "COL",
  "InstitutionAddress": "Chemin_Queen-Mary_4565_Montreal_District_CA_H3W_1W5",
  "InstitutionName": "IUGM",
  "InstitutionalDepartmentName": "Department",
  "MRAcquisitionType": "2D",
  "MagneticFieldStrength": 3,
  "Manufacturer": "Siemens",
  "ManufacturersModelName": "Prisma_fit",
  "Modality": "MR",
  "MultibandAccelerationFactor": 4,
  "PartialFourier": 1,
  "PatientPosition": "HFS",
  "PercentPhaseFOV": 100,
  "PhaseEncodingDirection": "j",
  "PhaseEncodingSteps": 104,
  "PhaseResolution": 1,
  "PixelBandwidth": 2290,
  "ProcedureStepDescription": "memory_things",
  "ProtocolName": "func_task-things_run-5",
  "PulseSequenceDetails": "%CustomerSeq%_cmrr_mbep2d_bold",
  "ReceiveCoilActiveElements": "HC1-7;NC1,2",
  "ReceiveCoilName": "HeadNeck_64",
  "ReconMatrixPE": 104,
  "RepetitionTime": 1.49,
  "SAR": 0.0448602,
  "ScanOptions": "FS",
  "ScanningSequence": "EP",
  "SequenceName": "epfid2d1_104",
  "SequenceVariant": "SK_SS",
  "SeriesDescription": "func_task-things_run-5",
  "SeriesNumber": 28,
  "ShimSetting": [629, -7264, -8782, 647, -23, -215, 2, -16],
  "SliceThickness": 2,
  "SliceTiming": [0, 0.785, 0.0975, 0.8825, 0.195, 0.98, 0.295, 1.0775, 0.3925, 1.175, 0.49, 1.275, 0.5875, 1.3725, 0.685, 0, 0.785, 0.0975, 0.8825, 0.195, 0.98, 0.295, 1.0775, 0.3925, 1.175, 0.49, 1.275, 0.5875, 1.3725, 0.685, 0, 0.785, 0.0975, 0.8825, 0.195, 0.98, 0.295, 1.0775, 0.3925, 1.175, 0.49, 1.275, 0.5875, 1.3725, 0.685, 0, 0.785, 0.0975, 0.8825, 0.195, 0.98, 0.295, 1.0775, 0.3925, 1.175, 0.49, 1.275, 0.5875, 1.3725, 0.685],
  "SoftwareVersions": "syngo_MR_E11",
  "SpacingBetweenSlices": 2,
  "StationName": "MRC35049",
  "TaskName": "things",
  "TotalReadoutTime": 0.0576811,
  "TxRefAmp": 262.018,
  "WipMemBlock": "cc6762ef-58bd-42ee-ab53-babc791e37ed||Sequence: R016 ve11c/master r/e634e98; Dec 19 2017 11:00:25 by eja",
  "dcmmeta_affine": [
    [-1.9951523542404175, 0.1391647309064865, -0.0003823584411293268, 99.87901306152344],
    [0.13364294171333313, 1.9144415855407715, -0.5630747079849243, -74.6865234375],
    [0.03881406784057617, 0.5617355108261108, 1.9191005229949951, -53.60455322265625],
    [0.0, 0.0, 0.0, 1.0]
],
  "dcmmeta_reorient_transform": [
    [0.0, -1.0, 0.0, 103.0],
    [1.0, 0.0, 0.0, 0.0],
    [0.0, 0.0, 1.0, 0.0],
    [0.0, 0.0, 0.0, 1.0]
],
  "dcmmeta_shape": [104, 104, 60, 190],
  "dcmmeta_slice_dim": 2,
  "dcmmeta_version": 0.6,
  "global": {
    "const": {
      "AcquisitionMatrix": [104, 0, 0, 104],
      "AngioFlag": "N",
      "BitsAllocated": 16,
      "BitsStored": 16,
      "BodyPartExamined": "BRAIN",
      "Columns": 832,
      "EchoNumbers": 1,
      "EchoTime": 37.0,
      "EchoTrainLength": 104,
      "FlipAngle": 52.0,
      "HighBit": 15,
      "ImageOrientationPatient": [0.99757619166961, -0.0668214698943, 0.01940703416618, 0.06958236317103, 0.95722077159696, -0.2808677431797],
      "ImagePositionPatient": [-891.1044113179, -770.71164452321, 194.59759627619],
      "ImageType": [
        "ORIGINAL",
        "PRIMARY",
        "M",
        "MB",
        "ND",
        "MOSAIC"
],
      "ImagedNucleus": "1H",
      "ImagingFrequency": 123.258876,
      "InPlanePhaseEncodingDirection": "COL",
      "MRAcquisitionType": "2D",
      "MagneticFieldStrength": 3.0,
      "Manufacturer": "SIEMENS",
      "ManufacturerModelName": "Prisma_fit",
      "Modality": "MR",
      "NumberOfAverages": 1.0,
      "NumberOfPhaseEncodingSteps": 104,
      "PercentPhaseFieldOfView": 100.0,
      "PercentSampling": 100.0,
      "PerformedProcedureStepStartTime": "150137.961000",
      "PhotometricInterpretation": "MONOCHROME2",
      "PixelBandwidth": 2290.0,
      "PixelRepresentation": 0,
      "PixelSpacing": [2.0, 2.0],
      "ProtocolName": "func_task-things_run-5",
      "RepetitionTime": 1490.0,
      "Rows": 832,
      "SAR": 0.04486017529863,
      "SamplesPerPixel": 1,
      "ScanOptions": "FS",
      "ScanningSequence": "EP",
      "SequenceName": "epfid2d1_104",
      "SequenceVariant": [
        "SK",
        "SS"
],
      "SeriesDescription": "func_task-things_run-5",
      "SeriesNumber": 28,
      "SeriesTime": "155827.825000",
      "SliceLocation": -30.428311359306,
      "SliceThickness": 2.0,
      "SmallestImagePixelValue": 0,
      "SoftwareVersions": "syngo MR E11",
      "SpacingBetweenSlices": 1.9999999984936,
      "SpecificCharacterSet": "ISO_IR 100",
      "StudyID": "1",
      "StudyTime": "150137.866000",
      "TransmitCoilName": "Body",
      "VariableFlipAngleFlag": "N",
      "WindowCenterWidthExplanation": "Algo1",
      "dBdt": 0.0},
    "slices": {}
  },
  "time": {
    "samples": {
      "AcquisitionNumber": [1, 2, 3, 4, 5, 6, 7, 8, 9, 10, 11, 12, 13, 14, 15, 16, 17, 18, 19, 20, 21, 22, 23, 24, 25, 26, 27, 28, 29, 30, 31, 32, 33, 34, 35, 36, 37, 38, 39, 40, 41, 42, 43, 44, 45, 46, 47, 48, 49, 50, 51, 52, 53, 54, 55, 56, 57, 58, 59, 60, 61, 62, 63, 64, 65, 66, 67, 68, 69, 70, 71, 72, 73, 74, 75, 76, 77, 78, 79, 80, 81, 82, 83, 84, 85, 86, 87, 88, 89, 90, 91, 92, 93, 94, 95, 96, 97, 98, 99, 100, 101, 102, 103, 104, 105, 106, 107, 108, 109, 110, 111, 112, 113, 114, 115, 116, 117, 118, 119, 120, 121, 122, 123, 124, 125, 126, 127, 128, 129, 130, 131, 132, 133, 134, 135, 136, 137, 138, 139, 140, 141, 142, 143, 144, 145, 146, 147, 148, 149, 150, 151, 152, 153, 154, 155, 156, 157, 158, 159, 160, 161, 162, 163, 164, 165, 166, 167, 168, 169, 170, 171, 172, 173, 174, 175, 176, 177, 178, 179, 180, 181, 182, 183, 184, 185, 186, 187, 188, 189, 190],
      "AcquisitionTime": ["155655.967500", "155657.457500", "155658.947500", "155700.437500", "155701.927500", "155703.417500", "155704.907500", "155706.397500", "155707.887500", "155709.377500", "155710.867500", "155712.357500", "155713.847500", "155715.337500", "155716.827500", "155718.317500", "155719.807500", "155721.297500", "155722.787500", "155724.277500", "155725.767500", "155727.257500", "155728.747500", "155730.237500", "155731.727500", "155733.217500", "155734.707500", "155736.197500", "155737.687500", "155739.177500", "155740.667500", "155742.157500", "155743.647500", "155745.137500", "155746.627500", "155748.117500", "155749.607500", "155751.097500", "155752.587500", "155754.077500", "155755.567500", "155757.057500", "155758.547500", "155800.037500", "155801.527500", "155803.017500", "155804.507500", "155805.997500", "155807.487500", "155808.977500", "155810.467500", "155811.957500", "155813.447500", "155814.937500", "155816.427500", "155817.917500", "155819.407500", "155820.897500", "155822.387500", "155823.877500", "155825.367500", "155826.857500", "155828.347500", "155829.837500", "155831.327500", "155832.817500", "155834.307500", "155835.797500", "155837.287500", "155838.777500", "155840.267500", "155841.757500", "155843.247500", "155844.737500", "155846.227500", "155847.717500", "155849.207500", "155850.697500", "155852.187500", "155853.677500", "155855.167500", "155856.657500", "155858.147500", "155859.637500", "155901.127500", "155902.617500", "155904.107500", "155905.597500", "155907.087500", "155908.577500", "155910.067500", "155911.557500", "155913.047500", "155914.537500", "155916.027500", "155917.517500", "155919.007500", "155920.497500", "155921.987500", "155923.477500", "155924.967500", "155926.457500", "155927.947500", "155929.437500", "155930.927500", "155932.417500", "155933.907500", "155935.397500", "155936.887500", "155938.377500", "155939.867500", "155941.357500", "155942.847500", "155944.337500", "155945.827500", "155947.317500", "155948.807500", "155950.297500", "155951.787500", "155953.277500", "155954.767500", "155956.257500", "155957.747500", "155959.237500", "160000.727500", "160002.217500", "160003.707500", "160005.197500", "160006.687500", "160008.177500", "160009.667500", "160011.157500", "160012.647500", "160014.137500", "160015.627500", "160017.117500", "160018.607500", "160020.097500", "160021.587500", "160023.077500", "160024.567500", "160026.057500", "160027.547500", "160029.037500", "160030.527500", "160032.017500", "160033.507500", "160034.997500", "160036.487500", "160037.977500", "160039.467500", "160040.957500", "160042.447500", "160043.937500", "160045.427500", "160046.917500", "160048.407500", "160049.897500", "160051.387500", "160052.877500", "160054.367500", "160055.857500", "160057.347500", "160058.837500", "160100.327500", "160101.817500", "160103.307500", "160104.797500", "160106.287500", "160107.777500", "160109.267500", "160110.757500", "160112.247500", "160113.737500", "160115.227500", "160116.717500", "160118.207500", "160119.697500", "160121.187500", "160122.677500", "160124.167500", "160125.657500", "160127.147500", "160128.637500", "160130.127500", "160131.617500", "160133.107500", "160134.597500", "160136.087500", "160137.577500"],
      "ContentTime": ["155827.829000", "155827.833000", "155827.836000", "155827.840000", "155827.843000", "155827.846000", "155827.850000", "155827.853000", "155827.857000", "155827.860000", "155827.863000", "155827.866000", "155827.870000", "155827.873000", "155827.876000", "155827.884000", "155827.887000", "155827.891000", "155827.894000", "155827.897000", "155827.900000", "155827.904000", "155827.907000", "155827.911000", "155827.914000", "155827.917000", "155827.921000", "155827.924000", "155827.927000", "155827.931000", "155827.934000", "155827.938000", "155827.941000", "155827.944000", "155827.947000", "155827.951000", "155827.957000", "155847.780000", "155847.784000", "155847.795000", "155847.799000", "155847.802000", "155847.805000", "155847.809000", "155847.812000", "155847.815000", "155847.819000", "155847.822000", "155847.825000", "155847.828000", "155847.832000", "155847.835000", "155847.838000", "155847.842000", "155847.845000", "155847.848000", "155847.852000", "155907.779000", "155907.783000", "155907.786000", "155907.790000", "155907.793000", "155907.796000", "155907.799000", "155907.803000", "155907.806000", "155907.810000", "155907.814000", "155907.817000", "155907.821000", "155907.824000", "155907.827000", "155907.831000", "155907.834000", "155907.837000", "155907.841000", "155907.844000", "155927.779000", "155927.783000", "155927.786000", "155927.789000", "155927.793000", "155927.796000", "155927.799000", "155927.803000", "155927.806000", "155927.809000", "155927.813000", "155927.816000", "155927.819000", "155927.823000", "155927.826000", "155927.829000", "155927.833000", "155927.836000", "155927.840000", "155927.843000", "155927.846000", "160007.780000", "160007.784000", "160007.787000", "160007.791000", "160007.794000", "160007.797000", "160007.801000", "160007.804000", "160007.807000", "160007.811000", "160007.814000", "160007.817000", "160007.821000", "160007.824000", "160007.827000", "160007.831000", "160007.834000", "160007.837000", "160007.841000", "160007.844000", "160007.847000", "160007.851000", "160007.854000", "160007.857000", "160007.861000", "160007.864000", "160007.867000", "160007.871000", "160007.874000", "160007.877000", "160047.780000", "160047.784000", "160047.787000", "160047.791000", "160047.794000", "160047.798000", "160047.801000", "160047.804000", "160047.808000", "160047.811000", "160047.814000", "160047.818000", "160047.821000", "160047.824000", "160047.828000", "160047.831000", "160047.834000", "160047.838000", "160047.841000", "160047.844000", "160047.860000", "160047.863000", "160047.866000", "160047.870000", "160047.873000", "160047.876000", "160107.780000", "160107.784000", "160107.787000", "160107.791000", "160107.794000", "160107.797000", "160107.801000", "160107.804000", "160107.812000", "160107.816000", "160107.819000", "160107.822000", "160107.826000", "160107.829000", "160139.981000", "160139.985000", "160139.988000", "160139.992000", "160139.995000", "160139.998000", "160140.003000", "160140.006000", "160140.010000", "160140.013000", "160140.016000", "160140.020000", "160140.023000", "160140.027000", "160140.030000", "160140.034000", "160140.037000", "160140.040000", "160140.044000", "160140.048000", "160140.051000", "160140.055000"],
      "InstanceCreationTime": ["155827.829000", "155827.833000", "155827.836000", "155827.840000", "155827.843000", "155827.846000", "155827.850000", "155827.853000", "155827.857000", "155827.860000", "155827.863000", "155827.866000", "155827.870000", "155827.873000", "155827.876000", "155827.884000", "155827.887000", "155827.891000", "155827.894000", "155827.897000", "155827.900000", "155827.904000", "155827.907000", "155827.911000", "155827.914000", "155827.917000", "155827.921000", "155827.924000", "155827.927000", "155827.931000", "155827.934000", "155827.938000", "155827.941000", "155827.944000", "155827.947000", "155827.951000", "155827.957000", "155847.780000", "155847.784000", "155847.795000", "155847.799000", "155847.802000", "155847.805000", "155847.809000", "155847.812000", "155847.815000", "155847.819000", "155847.822000", "155847.825000", "155847.828000", "155847.832000", "155847.835000", "155847.838000", "155847.842000", "155847.845000", "155847.848000", "155847.852000", "155907.779000", "155907.783000", "155907.786000", "155907.790000", "155907.793000", "155907.796000", "155907.799000", "155907.803000", "155907.806000", "155907.810000", "155907.814000", "155907.817000", "155907.821000", "155907.824000", "155907.827000", "155907.831000", "155907.834000", "155907.837000", "155907.841000", "155907.844000", "155927.779000", "155927.783000", "155927.786000", "155927.789000", "155927.793000", "155927.796000", "155927.799000", "155927.803000", "155927.806000", "155927.809000", "155927.813000", "155927.816000", "155927.819000", "155927.823000", "155927.826000", "155927.829000", "155927.833000", "155927.836000", "155927.840000", "155927.843000", "155927.846000", "160007.780000", "160007.784000", "160007.787000", "160007.791000", "160007.794000", "160007.797000", "160007.801000", "160007.804000", "160007.807000", "160007.811000", "160007.814000", "160007.817000", "160007.821000", "160007.824000", "160007.827000", "160007.831000", "160007.834000", "160007.837000", "160007.841000", "160007.844000", "160007.847000", "160007.851000", "160007.854000", "160007.857000", "160007.861000", "160007.864000", "160007.867000", "160007.871000", "160007.874000", "160007.877000", "160047.780000", "160047.784000", "160047.787000", "160047.791000", "160047.794000", "160047.798000", "160047.801000", "160047.804000", "160047.808000", "160047.811000", "160047.814000", "160047.818000", "160047.821000", "160047.824000", "160047.828000", "160047.831000", "160047.834000", "160047.838000", "160047.841000", "160047.844000", "160047.860000", "160047.863000", "160047.866000", "160047.870000", "160047.873000", "160047.876000", "160107.780000", "160107.784000", "160107.787000", "160107.791000", "160107.794000", "160107.797000", "160107.801000", "160107.804000", "160107.812000", "160107.816000", "160107.819000", "160107.822000", "160107.826000", "160107.829000", "160139.981000", "160139.985000", "160139.988000", "160139.992000", "160139.995000", "160139.998000", "160140.003000", "160140.006000", "160140.010000", "160140.013000", "160140.016000", "160140.020000", "160140.023000", "160140.027000", "160140.030000", "160140.034000", "160140.037000", "160140.040000", "160140.044000", "160140.048000", "160140.051000", "160140.055000"],
      "InstanceNumber": [1, 2, 3, 4, 5, 6, 7, 8, 9, 10, 11, 12, 13, 14, 15, 16, 17, 18, 19, 20, 21, 22, 23, 24, 25, 26, 27, 28, 29, 30, 31, 32, 33, 34, 35, 36, 37, 38, 39, 40, 41, 42, 43, 44, 45, 46, 47, 48, 49, 50, 51, 52, 53, 54, 55, 56, 57, 58, 59, 60, 61, 62, 63, 64, 65, 66, 67, 68, 69, 70, 71, 72, 73, 74, 75, 76, 77, 78, 79, 80, 81, 82, 83, 84, 85, 86, 87, 88, 89, 90, 91, 92, 93, 94, 95, 96, 97, 98, 99, 100, 101, 102, 103, 104, 105, 106, 107, 108, 109, 110, 111, 112, 113, 114, 115, 116, 117, 118, 119, 120, 121, 122, 123, 124, 125, 126, 127, 128, 129, 130, 131, 132, 133, 134, 135, 136, 137, 138, 139, 140, 141, 142, 143, 144, 145, 146, 147, 148, 149, 150, 151, 152, 153, 154, 155, 156, 157, 158, 159, 160, 161, 162, 163, 164, 165, 166, 167, 168, 169, 170, 171, 172, 173, 174, 175, 176, 177, 178, 179, 180, 181, 182, 183, 184, 185, 186, 187, 188, 189, 190],
      "LargestImagePixelValue": [45496, 44299, 42873, 41671, 42166, 41665, 41770, 42733, 42642, 42323, 42565, 42509, 42225, 41860, 42670, 41546, 42453, 41396, 41718, 41985, 41957, 42671, 42414, 42019, 41522, 41927, 42115, 41877, 41800, 43066, 42521, 42321, 42266, 41683, 41877, 41454, 41718, 42015, 42315, 42306, 41666, 41626, 41954, 41738, 41593, 42121, 42285, 42613, 41898, 41506, 41465, 41688, 41699, 42110, 42196, 41951, 42278, 41902, 41775, 42146, 41906, 41793, 41944, 41430, 41585, 41296, 41535, 41754, 41808, 41906, 41771, 41444, 41582, 41703, 41696, 41539, 42075, 42056, 42146, 41421, 41770, 41821, 41716, 42169, 41589, 41672, 41905, 41650, 41306, 41659, 41956, 41040, 41475, 41481, 42058, 41311, 41899, 42014, 42129, 41217, 41113, 41240, 41730, 41494, 42106, 41930, 42018, 42334, 42104, 41809, 41491, 42152, 41806, 40813, 41412, 42324, 41930, 42140, 41910, 41783, 42485, 42545, 42682, 42373, 42575, 42373, 42616, 42393, 41949, 41915, 42094, 42846, 42202, 42355, 42524, 41921, 42417, 42321, 42157, 42311, 41911, 42172, 42310, 43399, 42302, 42489, 42931, 42275, 42851, 42324, 41964, 42181, 41968, 41339, 42291, 42287, 42526, 42452, 42372, 42206, 42809, 42143, 42393, 43009, 42579, 42810, 42326, 42656, 42262, 42113, 42321, 42950, 42549, 42658, 42440, 41555, 41697, 42316, 41839, 42275, 42812, 42922, 42328, 42435, 42239, 42408, 41832, 41881, 42119, 41161],
      "WindowCenter": [10533.0, 10464.0, 10433.0, 10414.0, 10410.0, 10407.0, 10398.0, 10395.0, 10400.0, 10384.0, 10353.0, 10342.0, 10335.0, 10329.0, 10347.0, 10356.0, 10372.0, 10358.0, 10349.0, 10356.0, 10376.0, 10378.0, 10361.0, 10348.0, 10347.0, 10353.0, 10367.0, 10375.0, 10394.0, 10410.0, 10396.0, 10373.0, 10370.0, 10371.0, 10386.0, 10399.0, 10392.0, 10387.0, 10387.0, 10403.0, 10392.0, 10384.0, 10389.0, 10391.0, 10403.0, 10411.0, 10406.0, 10380.0, 10366.0, 10356.0, 10356.0, 10343.0, 10326.0, 10323.0, 10317.0, 10329.0, 10365.0, 10364.0, 10342.0, 10348.0, 10364.0, 10399.0, 10397.0, 10390.0, 10401.0, 10414.0, 10428.0, 10407.0, 10382.0, 10355.0, 10353.0, 10354.0, 10355.0, 10355.0, 10358.0, 10363.0, 10384.0, 10393.0, 10396.0, 10390.0, 10396.0, 10387.0, 10387.0, 10394.0, 10386.0, 10388.0, 10387.0, 10373.0, 10374.0, 10389.0, 10381.0, 10378.0, 10381.0, 10377.0, 10383.0, 10383.0, 10389.0, 10392.0, 10416.0, 10413.0, 10381.0, 10370.0, 10377.0, 10348.0, 10327.0, 10336.0, 10368.0, 10371.0, 10350.0, 10335.0, 10328.0, 10355.0, 10375.0, 10380.0, 10386.0, 10392.0, 10409.0, 10425.0, 10413.0, 10388.0, 10381.0, 10358.0, 10362.0, 10356.0, 10355.0, 10355.0, 10373.0, 10382.0, 10377.0, 10374.0, 10382.0, 10409.0, 10401.0, 10384.0, 10380.0, 10367.0, 10371.0, 10379.0, 10389.0, 10383.0, 10369.0, 10360.0, 10364.0, 10389.0, 10374.0, 10366.0, 10371.0, 10372.0, 10378.0, 10379.0, 10371.0, 10374.0, 10378.0, 10365.0, 10360.0, 10357.0, 10357.0, 10354.0, 10336.0, 10340.0, 10355.0, 10376.0, 10371.0, 10375.0, 10360.0, 10333.0, 10297.0, 10300.0, 10308.0, 10312.0, 10343.0, 10370.0, 10367.0, 10346.0, 10343.0, 10344.0, 10348.0, 10347.0, 10331.0, 10350.0, 10371.0, 10374.0, 10361.0, 10350.0, 10343.0, 10357.0, 10370.0, 10372.0, 10370.0, 10359.0],
      "WindowWidth": [22850.0, 22658.0, 22567.0, 22509.0, 22492.0, 22484.0, 22459.0, 22447.0, 22454.0, 22422.0, 22348.0, 22323.0, 22308.0, 22294.0, 22330.0, 22357.0, 22389.0, 22362.0, 22343.0, 22358.0, 22405.0, 22410.0, 22369.0, 22341.0, 22338.0, 22350.0, 22377.0, 22396.0, 22440.0, 22480.0, 22449.0, 22397.0, 22387.0, 22391.0, 22424.0, 22460.0, 22442.0, 22426.0, 22427.0, 22468.0, 22446.0, 22427.0, 22436.0, 22443.0, 22467.0, 22487.0, 22480.0, 22418.0, 22386.0, 22360.0, 22357.0, 22331.0, 22293.0, 22280.0, 22270.0, 22302.0, 22383.0, 22387.0, 22337.0, 22345.0, 22383.0, 22465.0, 22462.0, 22446.0, 22465.0, 22500.0, 22527.0, 22482.0, 22422.0, 22360.0, 22356.0, 22362.0, 22364.0, 22361.0, 22365.0, 22382.0, 22426.0, 22445.0, 22455.0, 22443.0, 22453.0, 22432.0, 22432.0, 22446.0, 22432.0, 22439.0, 22434.0, 22405.0, 22407.0, 22434.0, 22418.0, 22413.0, 22418.0, 22411.0, 22425.0, 22425.0, 22437.0, 22446.0, 22500.0, 22495.0, 22419.0, 22394.0, 22408.0, 22343.0, 22291.0, 22316.0, 22388.0, 22396.0, 22349.0, 22314.0, 22299.0, 22355.0, 22404.0, 22418.0, 22429.0, 22442.0, 22482.0, 22516.0, 22490.0, 22436.0, 22414.0, 22364.0, 22370.0, 22357.0, 22355.0, 22355.0, 22398.0, 22418.0, 22409.0, 22403.0, 22420.0, 22480.0, 22466.0, 22425.0, 22416.0, 22387.0, 22392.0, 22415.0, 22437.0, 22425.0, 22393.0, 22371.0, 22380.0, 22433.0, 22402.0, 22386.0, 22395.0, 22400.0, 22411.0, 22415.0, 22397.0, 22400.0, 22411.0, 22383.0, 22366.0, 22359.0, 22357.0, 22350.0, 22314.0, 22321.0, 22359.0, 22409.0, 22398.0, 22400.0, 22368.0, 22303.0, 22223.0, 22227.0, 22244.0, 22258.0, 22331.0, 22392.0, 22389.0, 22340.0, 22329.0, 22333.0, 22340.0, 22336.0, 22298.0, 22341.0, 22392.0, 22402.0, 22374.0, 22346.0, 22330.0, 22359.0, 22391.0, 22399.0, 22391.0, 22370.0]
    },
    "slices": {}
  }
}