{
  "AcquisitionMatrixPE": 104,
  "AcquisitionNumber": 1,
  "AcquisitionTime": "15:39:1.377500",
  "BandwidthPerPixelPhaseEncode": 17.17,
  "BaseResolution": 104,
  "BodyPartExamined": "BRAIN",
  "CoilString": "HC1-7;NC1_2",
  "ConsistencyInfo": "N4_VE11C_LATEST_20160120",
  "ConversionSoftware": "dcm2niix",
  "ConversionSoftwareVersion": "v1.0.20190902",
  "DerivedVendorReportedEchoSpacing": 0.000560011,
  "DeviceSerialNumber": "167006",
  "DwellTime": 2.1e-06,
  "EchoTime": 0.037,
  "EchoTrainLength": 104,
  "EffectiveEchoSpacing": 0.000560011,
  "FlipAngle": 52,
  "ImageComments": "Unaliased_MB4_PE3_LB",
  "ImageOrientationPatientDICOM": [0.997576, -0.0668215, 0.019407, 0.0695824, 0.957221, -0.280868],
  "ImageType": [
    "ORIGINAL",
    "PRIMARY",
    "M",
    "MB",
    "ND",
    "MOSAIC"
],
  "ImagingFrequency": 123.259,
  "InPlanePhaseEncodingDirectionDICOM": "COL",
  "InstitutionAddress": "Chemin_Queen-Mary_4565_Montreal_District_CA_H3W_1W5",
  "InstitutionName": "IUGM",
  "InstitutionalDepartmentName": "Department",
  "MRAcquisitionType": "2D",
  "MagneticFieldStrength": 3,
  "Manufacturer": "Siemens",
  "ManufacturersModelName": "Prisma_fit",
  "Modality": "MR",
  "MultibandAccelerationFactor": 4,
  "PartialFourier": 1,
  "PatientPosition": "HFS",
  "PercentPhaseFOV": 100,
  "PhaseEncodingDirection": "j",
  "PhaseEncodingSteps": 104,
  "PhaseResolution": 1,
  "PixelBandwidth": 2290,
  "ProcedureStepDescription": "memory_things",
  "ProtocolName": "func_task-things_run-3",
  "PulseSequenceDetails": "%CustomerSeq%_cmrr_mbep2d_bold",
  "ReceiveCoilActiveElements": "HC1-7;NC1,2",
  "ReceiveCoilName": "HeadNeck_64",
  "ReconMatrixPE": 104,
  "RepetitionTime": 1.49,
  "SAR": 0.0448602,
  "ScanOptions": "FS",
  "ScanningSequence": "EP",
  "SequenceName": "epfid2d1_104",
  "SequenceVariant": "SK_SS",
  "SeriesDescription": "func_task-things_run-3",
  "SeriesNumber": 16,
  "ShimSetting": [629, -7264, -8782, 647, -23, -215, 2, -16],
  "SliceThickness": 2,
  "SliceTiming": [0, 0.7825, 0.0975, 0.88, 0.195, 0.98, 0.2925, 1.0775, 0.39, 1.175, 0.49, 1.2725, 0.5875, 1.37, 0.685, 0, 0.7825, 0.0975, 0.88, 0.195, 0.98, 0.2925, 1.0775, 0.39, 1.175, 0.49, 1.2725, 0.5875, 1.37, 0.685, 0, 0.7825, 0.0975, 0.88, 0.195, 0.98, 0.2925, 1.0775, 0.39, 1.175, 0.49, 1.2725, 0.5875, 1.37, 0.685, 0, 0.7825, 0.0975, 0.88, 0.195, 0.98, 0.2925, 1.0775, 0.39, 1.175, 0.49, 1.2725, 0.5875, 1.37, 0.685],
  "SoftwareVersions": "syngo_MR_E11",
  "SpacingBetweenSlices": 2,
  "StationName": "MRC35049",
  "TaskName": "things",
  "TotalReadoutTime": 0.0576811,
  "TxRefAmp": 262.018,
  "WipMemBlock": "54d20dd4-00a0-4c97-9c69-519fd2f00c0e||Sequence: R016 ve11c/master r/e634e98; Dec 19 2017 11:00:25 by eja",
  "dcmmeta_affine": [
    [-1.9951523542404175, 0.1391647309064865, -0.0003823584411293268, 99.87901306152344],
    [0.13364294171333313, 1.9144415855407715, -0.5630747079849243, -74.6865234375],
    [0.03881406784057617, 0.5617355108261108, 1.9191005229949951, -53.60455322265625],
    [0.0, 0.0, 0.0, 1.0]
],
  "dcmmeta_reorient_transform": [
    [0.0, -1.0, 0.0, 103.0],
    [1.0, 0.0, 0.0, 0.0],
    [0.0, 0.0, 1.0, 0.0],
    [0.0, 0.0, 0.0, 1.0]
],
  "dcmmeta_shape": [104, 104, 60, 190],
  "dcmmeta_slice_dim": 2,
  "dcmmeta_version": 0.6,
  "global": {
    "const": {
      "AcquisitionMatrix": [104, 0, 0, 104],
      "AngioFlag": "N",
      "BitsAllocated": 16,
      "BitsStored": 16,
      "BodyPartExamined": "BRAIN",
      "Columns": 832,
      "EchoNumbers": 1,
      "EchoTime": 37.0,
      "EchoTrainLength": 104,
      "FlipAngle": 52.0,
      "HighBit": 15,
      "ImageOrientationPatient": [0.99757619166961, -0.0668214698943, 0.01940703416618, 0.06958236317103, 0.95722077159696, -0.2808677431797],
      "ImagePositionPatient": [-891.1044113179, -770.71164452321, 194.59759627619],
      "ImageType": [
        "ORIGINAL",
        "PRIMARY",
        "M",
        "MB",
        "ND",
        "MOSAIC"
],
      "ImagedNucleus": "1H",
      "ImagingFrequency": 123.258875,
      "InPlanePhaseEncodingDirection": "COL",
      "MRAcquisitionType": "2D",
      "MagneticFieldStrength": 3.0,
      "Manufacturer": "SIEMENS",
      "ManufacturerModelName": "Prisma_fit",
      "Modality": "MR",
      "NumberOfAverages": 1.0,
      "NumberOfPhaseEncodingSteps": 104,
      "PercentPhaseFieldOfView": 100.0,
      "PercentSampling": 100.0,
      "PerformedProcedureStepStartTime": "150137.961000",
      "PhotometricInterpretation": "MONOCHROME2",
      "PixelBandwidth": 2290.0,
      "PixelRepresentation": 0,
      "PixelSpacing": [2.0, 2.0],
      "ProtocolName": "func_task-things_run-3",
      "RepetitionTime": 1490.0,
      "Rows": 832,
      "SAR": 0.04486017529863,
      "SamplesPerPixel": 1,
      "ScanOptions": "FS",
      "ScanningSequence": "EP",
      "SequenceName": "epfid2d1_104",
      "SequenceVariant": [
        "SK",
        "SS"
],
      "SeriesDescription": "func_task-things_run-3",
      "SeriesNumber": 16,
      "SeriesTime": "154019.155000",
      "SliceLocation": -30.428311359306,
      "SliceThickness": 2.0,
      "SmallestImagePixelValue": 0,
      "SoftwareVersions": "syngo MR E11",
      "SpacingBetweenSlices": 1.9999999984936,
      "SpecificCharacterSet": "ISO_IR 100",
      "StudyID": "1",
      "StudyTime": "150137.866000",
      "TransmitCoilName": "Body",
      "VariableFlipAngleFlag": "N",
      "WindowCenterWidthExplanation": "Algo1",
      "dBdt": 0.0},
    "slices": {}
  },
  "time": {
    "samples": {
      "AcquisitionNumber": [1, 2, 3, 4, 5, 6, 7, 8, 9, 10, 11, 12, 13, 14, 15, 16, 17, 18, 19, 20, 21, 22, 23, 24, 25, 26, 27, 28, 29, 30, 31, 32, 33, 34, 35, 36, 37, 38, 39, 40, 41, 42, 43, 44, 45, 46, 47, 48, 49, 50, 51, 52, 53, 54, 55, 56, 57, 58, 59, 60, 61, 62, 63, 64, 65, 66, 67, 68, 69, 70, 71, 72, 73, 74, 75, 76, 77, 78, 79, 80, 81, 82, 83, 84, 85, 86, 87, 88, 89, 90, 91, 92, 93, 94, 95, 96, 97, 98, 99, 100, 101, 102, 103, 104, 105, 106, 107, 108, 109, 110, 111, 112, 113, 114, 115, 116, 117, 118, 119, 120, 121, 122, 123, 124, 125, 126, 127, 128, 129, 130, 131, 132, 133, 134, 135, 136, 137, 138, 139, 140, 141, 142, 143, 144, 145, 146, 147, 148, 149, 150, 151, 152, 153, 154, 155, 156, 157, 158, 159, 160, 161, 162, 163, 164, 165, 166, 167, 168, 169, 170, 171, 172, 173, 174, 175, 176, 177, 178, 179, 180, 181, 182, 183, 184, 185, 186, 187, 188, 189, 190],
      "AcquisitionTime": ["153901.377500", "153902.867500", "153904.357500", "153905.847500", "153907.337500", "153908.827500", "153910.317500", "153911.807500", "153913.297500", "153914.787500", "153916.277500", "153917.767500", "153919.257500", "153920.747500", "153922.237500", "153923.727500", "153925.217500", "153926.707500", "153928.197500", "153929.687500", "153931.177500", "153932.667500", "153934.157500", "153935.647500", "153937.137500", "153938.627500", "153940.117500", "153941.607500", "153943.097500", "153944.587500", "153946.077500", "153947.567500", "153949.057500", "153950.547500", "153952.037500", "153953.527500", "153955.017500", "153956.507500", "153957.997500", "153959.487500", "154000.977500", "154002.467500", "154003.957500", "154005.447500", "154006.937500", "154008.427500", "154009.917500", "154011.407500", "154012.897500", "154014.387500", "154015.877500", "154017.367500", "154018.857500", "154020.347500", "154021.837500", "154023.327500", "154024.817500", "154026.307500", "154027.797500", "154029.287500", "154030.777500", "154032.267500", "154033.757500", "154035.247500", "154036.737500", "154038.227500", "154039.717500", "154041.207500", "154042.697500", "154044.187500", "154045.677500", "154047.167500", "154048.657500", "154050.147500", "154051.637500", "154053.127500", "154054.617500", "154056.107500", "154057.597500", "154059.087500", "154100.577500", "154102.067500", "154103.557500", "154105.047500", "154106.537500", "154108.027500", "154109.517500", "154111.007500", "154112.497500", "154113.987500", "154115.477500", "154116.967500", "154118.457500", "154119.947500", "154121.437500", "154122.927500", "154124.417500", "154125.907500", "154127.397500", "154128.887500", "154130.377500", "154131.867500", "154133.357500", "154134.847500", "154136.337500", "154137.827500", "154139.317500", "154140.807500", "154142.297500", "154143.787500", "154145.277500", "154146.767500", "154148.257500", "154149.747500", "154151.237500", "154152.727500", "154154.217500", "154155.707500", "154157.197500", "154158.687500", "154200.177500", "154201.667500", "154203.157500", "154204.647500", "154206.137500", "154207.627500", "154209.117500", "154210.607500", "154212.097500", "154213.587500", "154215.077500", "154216.567500", "154218.057500", "154219.547500", "154221.037500", "154222.527500", "154224.017500", "154225.507500", "154226.997500", "154228.487500", "154229.977500", "154231.467500", "154232.957500", "154234.447500", "154235.937500", "154237.427500", "154238.917500", "154240.407500", "154241.897500", "154243.387500", "154244.877500", "154246.367500", "154247.857500", "154249.347500", "154250.837500", "154252.327500", "154253.817500", "154255.307500", "154256.797500", "154258.287500", "154259.777500", "154301.267500", "154302.757500", "154304.247500", "154305.737500", "154307.227500", "154308.717500", "154310.207500", "154311.697500", "154313.187500", "154314.677500", "154316.167500", "154317.657500", "154319.147500", "154320.637500", "154322.127500", "154323.617500", "154325.107500", "154326.597500", "154328.087500", "154329.577500", "154331.067500", "154332.557500", "154334.047500", "154335.537500", "154337.027500", "154338.517500", "154340.007500", "154341.497500", "154342.987500"],
      "ContentTime": ["154019.162000", "154019.166000", "154019.169000", "154019.173000", "154019.176000", "154019.179000", "154019.183000", "154019.186000", "154019.189000", "154019.193000", "154019.196000", "154019.199000", "154019.202000", "154019.206000", "154019.209000", "154019.213000", "154019.216000", "154019.219000", "154019.223000", "154019.226000", "154019.229000", "154019.233000", "154019.236000", "154039.125000", "154039.129000", "154039.132000", "154039.136000", "154039.139000", "154039.142000", "154039.145000", "154039.149000", "154039.152000", "154039.155000", "154039.159000", "154039.162000", "154039.166000", "154039.169000", "154039.172000", "154039.176000", "154039.179000", "154039.182000", "154039.186000", "154039.189000", "154059.125000", "154059.129000", "154059.132000", "154059.136000", "154059.139000", "154059.142000", "154059.146000", "154059.149000", "154059.152000", "154059.156000", "154059.159000", "154059.163000", "154059.166000", "154059.170000", "154059.173000", "154059.176000", "154059.179000", "154059.183000", "154059.186000", "154059.189000", "154059.193000", "154119.125000", "154119.129000", "154119.133000", "154119.136000", "154119.140000", "154119.143000", "154119.146000", "154119.150000", "154119.153000", "154119.166000", "154119.170000", "154119.174000", "154119.177000", "154119.181000", "154119.184000", "154119.187000", "154119.191000", "154119.194000", "154119.198000", "154119.201000", "154139.125000", "154139.129000", "154139.132000", "154139.136000", "154139.139000", "154139.142000", "154139.146000", "154139.149000", "154139.152000", "154139.156000", "154139.159000", "154139.162000", "154139.166000", "154139.169000", "154139.172000", "154139.176000", "154139.179000", "154139.183000", "154139.186000", "154139.190000", "154219.124000", "154219.128000", "154219.131000", "154219.135000", "154219.138000", "154219.141000", "154219.145000", "154219.148000", "154219.151000", "154219.155000", "154219.158000", "154219.161000", "154219.165000", "154219.168000", "154219.172000", "154219.175000", "154219.178000", "154219.182000", "154219.185000", "154219.188000", "154219.192000", "154219.195000", "154219.198000", "154219.201000", "154219.205000", "154219.208000", "154219.212000", "154219.215000", "154259.125000", "154259.129000", "154259.132000", "154259.136000", "154259.139000", "154259.142000", "154259.146000", "154259.149000", "154259.153000", "154259.156000", "154259.159000", "154259.163000", "154259.166000", "154259.169000", "154259.173000", "154259.176000", "154259.180000", "154259.183000", "154259.186000", "154259.190000", "154259.193000", "154259.196000", "154259.200000", "154259.203000", "154259.207000", "154259.210000", "154259.214000", "154339.125000", "154339.129000", "154339.132000", "154339.136000", "154339.139000", "154339.142000", "154339.146000", "154339.149000", "154339.152000", "154339.156000", "154339.159000", "154339.163000", "154339.166000", "154339.169000", "154339.172000", "154339.193000", "154339.197000", "154339.200000", "154339.203000", "154339.207000", "154339.210000", "154339.213000", "154339.217000", "154339.220000", "154339.223000", "154339.227000", "154339.230000", "154344.955000", "154344.959000", "154344.962000", "154344.965000"],
      "InstanceCreationTime": ["154019.162000", "154019.166000", "154019.169000", "154019.173000", "154019.176000", "154019.179000", "154019.183000", "154019.186000", "154019.189000", "154019.193000", "154019.196000", "154019.199000", "154019.202000", "154019.206000", "154019.209000", "154019.213000", "154019.216000", "154019.219000", "154019.223000", "154019.226000", "154019.229000", "154019.233000", "154019.236000", "154039.125000", "154039.129000", "154039.132000", "154039.136000", "154039.139000", "154039.142000", "154039.145000", "154039.149000", "154039.152000", "154039.155000", "154039.159000", "154039.162000", "154039.166000", "154039.169000", "154039.172000", "154039.176000", "154039.179000", "154039.182000", "154039.186000", "154039.189000", "154059.125000", "154059.129000", "154059.132000", "154059.136000", "154059.139000", "154059.142000", "154059.146000", "154059.149000", "154059.152000", "154059.156000", "154059.159000", "154059.163000", "154059.166000", "154059.170000", "154059.173000", "154059.176000", "154059.179000", "154059.183000", "154059.186000", "154059.189000", "154059.193000", "154119.125000", "154119.129000", "154119.133000", "154119.136000", "154119.140000", "154119.143000", "154119.146000", "154119.150000", "154119.153000", "154119.166000", "154119.170000", "154119.174000", "154119.177000", "154119.181000", "154119.184000", "154119.187000", "154119.191000", "154119.194000", "154119.198000", "154119.201000", "154139.125000", "154139.129000", "154139.132000", "154139.136000", "154139.139000", "154139.142000", "154139.146000", "154139.149000", "154139.152000", "154139.156000", "154139.159000", "154139.162000", "154139.166000", "154139.169000", "154139.172000", "154139.176000", "154139.179000", "154139.183000", "154139.186000", "154139.190000", "154219.124000", "154219.128000", "154219.131000", "154219.135000", "154219.138000", "154219.141000", "154219.145000", "154219.148000", "154219.151000", "154219.155000", "154219.158000", "154219.161000", "154219.165000", "154219.168000", "154219.172000", "154219.175000", "154219.178000", "154219.182000", "154219.185000", "154219.188000", "154219.192000", "154219.195000", "154219.198000", "154219.201000", "154219.205000", "154219.208000", "154219.212000", "154219.215000", "154259.125000", "154259.129000", "154259.132000", "154259.136000", "154259.139000", "154259.142000", "154259.146000", "154259.149000", "154259.153000", "154259.156000", "154259.159000", "154259.163000", "154259.166000", "154259.169000", "154259.173000", "154259.176000", "154259.180000", "154259.183000", "154259.186000", "154259.190000", "154259.193000", "154259.196000", "154259.200000", "154259.203000", "154259.207000", "154259.210000", "154259.214000", "154339.125000", "154339.129000", "154339.132000", "154339.136000", "154339.139000", "154339.142000", "154339.146000", "154339.149000", "154339.152000", "154339.156000", "154339.159000", "154339.163000", "154339.166000", "154339.169000", "154339.172000", "154339.193000", "154339.197000", "154339.200000", "154339.203000", "154339.207000", "154339.210000", "154339.213000", "154339.217000", "154339.220000", "154339.223000", "154339.227000", "154339.230000", "154344.955000", "154344.959000", "154344.962000", "154344.965000"],
      "InstanceNumber": [1, 2, 3, 4, 5, 6, 7, 8, 9, 10, 11, 12, 13, 14, 15, 16, 17, 18, 19, 20, 21, 22, 23, 24, 25, 26, 27, 28, 29, 30, 31, 32, 33, 34, 35, 36, 37, 38, 39, 40, 41, 42, 43, 44, 45, 46, 47, 48, 49, 50, 51, 52, 53, 54, 55, 56, 57, 58, 59, 60, 61, 62, 63, 64, 65, 66, 67, 68, 69, 70, 71, 72, 73, 74, 75, 76, 77, 78, 79, 80, 81, 82, 83, 84, 85, 86, 87, 88, 89, 90, 91, 92, 93, 94, 95, 96, 97, 98, 99, 100, 101, 102, 103, 104, 105, 106, 107, 108, 109, 110, 111, 112, 113, 114, 115, 116, 117, 118, 119, 120, 121, 122, 123, 124, 125, 126, 127, 128, 129, 130, 131, 132, 133, 134, 135, 136, 137, 138, 139, 140, 141, 142, 143, 144, 145, 146, 147, 148, 149, 150, 151, 152, 153, 154, 155, 156, 157, 158, 159, 160, 161, 162, 163, 164, 165, 166, 167, 168, 169, 170, 171, 172, 173, 174, 175, 176, 177, 178, 179, 180, 181, 182, 183, 184, 185, 186, 187, 188, 189, 190],
      "LargestImagePixelValue": [44590, 43540, 42713, 42403, 42033, 41203, 41472, 41529, 41428, 41298, 41751, 41535, 41267, 41483, 42535, 42333, 42182, 42395, 42394, 42248, 42510, 42511, 42348, 42077, 42309, 42000, 42105, 42309, 42296, 42719, 42658, 42987, 42878, 42430, 42471, 42760, 42787, 42438, 42668, 42310, 42237, 42929, 42292, 42571, 42452, 42780, 42641, 42275, 42707, 42531, 42591, 42126, 41819, 42361, 42244, 41619, 42175, 42225, 42490, 41973, 42158, 42725, 42428, 42552, 42595, 42289, 42425, 42166, 41804, 42850, 42414, 42976, 42307, 42192, 42759, 42553, 42571, 42417, 42787, 42870, 42587, 42798, 42758, 42604, 42505, 42995, 42279, 43137, 42301, 42225, 42449, 42219, 42685, 41778, 41547, 41548, 40834, 41837, 42322, 42304, 42039, 41618, 41947, 42328, 42554, 42029, 42356, 42462, 41933, 42258, 42530, 42725, 42289, 42658, 42252, 42446, 42006, 42482, 42270, 42011, 42098, 42475, 41231, 40382, 41716, 42009, 41809, 41472, 41734, 41787, 41290, 41721, 41596, 41866, 41553, 41685, 41933, 42063, 42208, 42494, 41796, 40968, 41940, 41817, 42445, 42131, 42828, 42813, 42238, 41621, 42527, 41590, 42627, 41095, 42046, 42256, 42407, 41933, 41404, 41294, 42335, 41710, 41774, 41713, 42158, 42005, 42579, 42778, 42570, 42656, 43085, 42339, 42204, 43371, 43019, 43673, 43285, 43120, 43142, 41003, 40760, 42012, 41960, 41966, 42140, 42324, 42007, 41293, 41577, 41173],
      "WindowCenter": [10476.0, 10424.0, 10387.0, 10383.0, 10382.0, 10379.0, 10373.0, 10354.0, 10338.0, 10329.0, 10321.0, 10332.0, 10316.0, 10320.0, 10348.0, 10353.0, 10361.0, 10376.0, 10400.0, 10416.0, 10420.0, 10411.0, 10389.0, 10365.0, 10348.0, 10340.0, 10352.0, 10369.0, 10371.0, 10376.0, 10371.0, 10383.0, 10413.0, 10426.0, 10422.0, 10411.0, 10395.0, 10393.0, 10403.0, 10410.0, 10407.0, 10409.0, 10390.0, 10388.0, 10388.0, 10395.0, 10390.0, 10387.0, 10401.0, 10427.0, 10436.0, 10425.0, 10404.0, 10383.0, 10357.0, 10335.0, 10324.0, 10322.0, 10328.0, 10337.0, 10347.0, 10353.0, 10359.0, 10369.0, 10377.0, 10371.0, 10369.0, 10378.0, 10382.0, 10393.0, 10395.0, 10413.0, 10413.0, 10406.0, 10400.0, 10393.0, 10392.0, 10393.0, 10399.0, 10407.0, 10403.0, 10409.0, 10385.0, 10375.0, 10368.0, 10376.0, 10365.0, 10356.0, 10344.0, 10359.0, 10381.0, 10361.0, 10356.0, 10360.0, 10346.0, 10325.0, 10317.0, 10317.0, 10349.0, 10362.0, 10335.0, 10309.0, 10307.0, 10320.0, 10326.0, 10331.0, 10350.0, 10358.0, 10362.0, 10377.0, 10385.0, 10384.0, 10394.0, 10408.0, 10403.0, 10401.0, 10397.0, 10390.0, 10362.0, 10339.0, 10341.0, 10354.0, 10353.0, 10327.0, 10315.0, 10332.0, 10339.0, 10325.0, 10306.0, 10299.0, 10297.0, 10318.0, 10325.0, 10324.0, 10320.0, 10326.0, 10343.0, 10361.0, 10366.0, 10360.0, 10383.0, 10393.0, 10386.0, 10384.0, 10414.0, 10394.0, 10361.0, 10335.0, 10320.0, 10330.0, 10371.0, 10408.0, 10408.0, 10371.0, 10370.0, 10369.0, 10370.0, 10341.0, 10310.0, 10308.0, 10318.0, 10316.0, 10329.0, 10325.0, 10329.0, 10338.0, 10366.0, 10388.0, 10400.0, 10386.0, 10389.0, 10403.0, 10395.0, 10393.0, 10383.0, 10380.0, 10365.0, 10359.0, 10372.0, 10358.0, 10360.0, 10356.0, 10352.0, 10348.0, 10339.0, 10330.0, 10300.0, 10284.0, 10311.0, 10342.0],
      "WindowWidth": [22716.0, 22554.0, 22443.0, 22417.0, 22408.0, 22395.0, 22378.0, 22331.0, 22293.0, 22272.0, 22255.0, 22282.0, 22245.0, 22255.0, 22322.0, 22329.0, 22349.0, 22380.0, 22435.0, 22475.0, 22489.0, 22462.0, 22412.0, 22359.0, 22320.0, 22300.0, 22325.0, 22365.0, 22373.0, 22382.0, 22375.0, 22399.0, 22466.0, 22498.0, 22490.0, 22465.0, 22427.0, 22424.0, 22444.0, 22461.0, 22458.0, 22458.0, 22418.0, 22412.0, 22411.0, 22429.0, 22420.0, 22412.0, 22443.0, 22507.0, 22525.0, 22504.0, 22453.0, 22404.0, 22341.0, 22292.0, 22266.0, 22263.0, 22273.0, 22296.0, 22320.0, 22332.0, 22346.0, 22370.0, 22388.0, 22376.0, 22371.0, 22392.0, 22402.0, 22423.0, 22429.0, 22470.0, 22473.0, 22457.0, 22441.0, 22424.0, 22426.0, 22426.0, 22441.0, 22459.0, 22452.0, 22462.0, 22409.0, 22385.0, 22369.0, 22389.0, 22365.0, 22339.0, 22317.0, 22350.0, 22398.0, 22352.0, 22338.0, 22352.0, 22320.0, 22276.0, 22259.0, 22252.0, 22325.0, 22356.0, 22295.0, 22236.0, 22231.0, 22259.0, 22273.0, 22286.0, 22327.0, 22345.0, 22356.0, 22388.0, 22408.0, 22409.0, 22429.0, 22459.0, 22449.0, 22444.0, 22435.0, 22416.0, 22352.0, 22303.0, 22307.0, 22334.0, 22336.0, 22284.0, 22246.0, 22282.0, 22299.0, 22267.0, 22226.0, 22213.0, 22211.0, 22259.0, 22276.0, 22271.0, 22266.0, 22281.0, 22321.0, 22362.0, 22373.0, 22352.0, 22404.0, 22435.0, 22412.0, 22405.0, 22472.0, 22431.0, 22354.0, 22292.0, 22260.0, 22286.0, 22377.0, 22464.0, 22462.0, 22384.0, 22376.0, 22374.0, 22378.0, 22310.0, 22239.0, 22235.0, 22257.0, 22255.0, 22281.0, 22277.0, 22287.0, 22307.0, 22367.0, 22417.0, 22446.0, 22414.0, 22416.0, 22452.0, 22434.0, 22425.0, 22404.0, 22398.0, 22366.0, 22349.0, 22381.0, 22356.0, 22362.0, 22345.0, 22332.0, 22323.0, 22302.0, 22280.0, 22207.0, 22172.0, 22233.0, 22310.0]
    },
    "slices": {}
  }
}