{
  "AcquisitionMatrixPE": 104,
  "AcquisitionNumber": 1,
  "AcquisitionTime": "15:48:24.925000",
  "BandwidthPerPixelPhaseEncode": 17.17,
  "BaseResolution": 104,
  "BodyPartExamined": "BRAIN",
  "CoilString": "HC1-7;NC1_2",
  "ConsistencyInfo": "N4_VE11C_LATEST_20160120",
  "ConversionSoftware": "dcm2niix",
  "ConversionSoftwareVersion": "v1.0.20190902",
  "DerivedVendorReportedEchoSpacing": 0.000560011,
  "DeviceSerialNumber": "167006",
  "DwellTime": 2.1e-06,
  "EchoTime": 0.037,
  "EchoTrainLength": 104,
  "EffectiveEchoSpacing": 0.000560011,
  "FlipAngle": 52,
  "ImageComments": "Unaliased_MB4_PE3_LB",
  "ImageOrientationPatientDICOM": [0.997576, -0.0668215, 0.019407, 0.0695824, 0.957221, -0.280868],
  "ImageType": [
    "ORIGINAL",
    "PRIMARY",
    "M",
    "MB",
    "ND",
    "MOSAIC"
],
  "ImagingFrequency": 123.259,
  "InPlanePhaseEncodingDirectionDICOM": "COL",
  "InstitutionAddress": "Chemin_Queen-Mary_4565_Montreal_District_CA_H3W_1W5",
  "InstitutionName": "IUGM",
  "InstitutionalDepartmentName": "Department",
  "MRAcquisitionType": "2D",
  "MagneticFieldStrength": 3,
  "Manufacturer": "Siemens",
  "ManufacturersModelName": "Prisma_fit",
  "Modality": "MR",
  "MultibandAccelerationFactor": 4,
  "PartialFourier": 1,
  "PatientPosition": "HFS",
  "PercentPhaseFOV": 100,
  "PhaseEncodingDirection": "j",
  "PhaseEncodingSteps": 104,
  "PhaseResolution": 1,
  "PixelBandwidth": 2290,
  "ProcedureStepDescription": "memory_things",
  "ProtocolName": "func_task-things_run-4",
  "PulseSequenceDetails": "%CustomerSeq%_cmrr_mbep2d_bold",
  "ReceiveCoilActiveElements": "HC1-7;NC1,2",
  "ReceiveCoilName": "HeadNeck_64",
  "ReconMatrixPE": 104,
  "RepetitionTime": 1.49,
  "SAR": 0.0448602,
  "ScanOptions": "FS",
  "ScanningSequence": "EP",
  "SequenceName": "epfid2d1_104",
  "SequenceVariant": "SK_SS",
  "SeriesDescription": "func_task-things_run-4",
  "SeriesNumber": 22,
  "ShimSetting": [629, -7264, -8782, 647, -23, -215, 2, -16],
  "SliceThickness": 2,
  "SliceTiming": [0, 0.785, 0.0975, 0.8825, 0.1975, 0.98, 0.295, 1.0775, 0.3925, 1.1775, 0.49, 1.275, 0.5875, 1.3725, 0.6875, 0, 0.785, 0.0975, 0.8825, 0.1975, 0.98, 0.295, 1.0775, 0.3925, 1.1775, 0.49, 1.275, 0.5875, 1.3725, 0.6875, 0, 0.785, 0.0975, 0.8825, 0.1975, 0.98, 0.295, 1.0775, 0.3925, 1.1775, 0.49, 1.275, 0.5875, 1.3725, 0.6875, 0, 0.785, 0.0975, 0.8825, 0.1975, 0.98, 0.295, 1.0775, 0.3925, 1.1775, 0.49, 1.275, 0.5875, 1.3725, 0.6875],
  "SoftwareVersions": "syngo_MR_E11",
  "SpacingBetweenSlices": 2,
  "StationName": "MRC35049",
  "TaskName": "things",
  "TotalReadoutTime": 0.0576811,
  "TxRefAmp": 262.018,
  "WipMemBlock": "83421c4a-c965-47f1-bde5-87e910435629||Sequence: R016 ve11c/master r/e634e98; Dec 19 2017 11:00:25 by eja",
  "dcmmeta_affine": [
    [-1.9951523542404175, 0.1391647309064865, -0.0003823584411293268, 99.87901306152344],
    [0.13364294171333313, 1.9144415855407715, -0.5630747079849243, -74.6865234375],
    [0.03881406784057617, 0.5617355108261108, 1.9191005229949951, -53.60455322265625],
    [0.0, 0.0, 0.0, 1.0]
],
  "dcmmeta_reorient_transform": [
    [0.0, -1.0, 0.0, 103.0],
    [1.0, 0.0, 0.0, 0.0],
    [0.0, 0.0, 1.0, 0.0],
    [0.0, 0.0, 0.0, 1.0]
],
  "dcmmeta_shape": [104, 104, 60, 190],
  "dcmmeta_slice_dim": 2,
  "dcmmeta_version": 0.6,
  "global": {
    "const": {
      "AcquisitionMatrix": [104, 0, 0, 104],
      "AngioFlag": "N",
      "BitsAllocated": 16,
      "BitsStored": 16,
      "BodyPartExamined": "BRAIN",
      "Columns": 832,
      "EchoNumbers": 1,
      "EchoTime": 37.0,
      "EchoTrainLength": 104,
      "FlipAngle": 52.0,
      "HighBit": 15,
      "ImageOrientationPatient": [0.99757619166961, -0.0668214698943, 0.01940703416618, 0.06958236317103, 0.95722077159696, -0.2808677431797],
      "ImagePositionPatient": [-891.1044113179, -770.71164452321, 194.59759627619],
      "ImageType": [
        "ORIGINAL",
        "PRIMARY",
        "M",
        "MB",
        "ND",
        "MOSAIC"
],
      "ImagedNucleus": "1H",
      "ImagingFrequency": 123.258875,
      "InPlanePhaseEncodingDirection": "COL",
      "MRAcquisitionType": "2D",
      "MagneticFieldStrength": 3.0,
      "Manufacturer": "SIEMENS",
      "ManufacturerModelName": "Prisma_fit",
      "Modality": "MR",
      "NumberOfAverages": 1.0,
      "NumberOfPhaseEncodingSteps": 104,
      "PercentPhaseFieldOfView": 100.0,
      "PercentSampling": 100.0,
      "PerformedProcedureStepStartTime": "150137.961000",
      "PhotometricInterpretation": "MONOCHROME2",
      "PixelBandwidth": 2290.0,
      "PixelRepresentation": 0,
      "PixelSpacing": [2.0, 2.0],
      "ProtocolName": "func_task-things_run-4",
      "RepetitionTime": 1490.0,
      "Rows": 832,
      "SAR": 0.04486017529863,
      "SamplesPerPixel": 1,
      "ScanOptions": "FS",
      "ScanningSequence": "EP",
      "SequenceName": "epfid2d1_104",
      "SequenceVariant": [
        "SK",
        "SS"
],
      "SeriesDescription": "func_task-things_run-4",
      "SeriesNumber": 22,
      "SeriesTime": "154957.660000",
      "SliceLocation": -30.428311359306,
      "SliceThickness": 2.0,
      "SmallestImagePixelValue": 0,
      "SoftwareVersions": "syngo MR E11",
      "SpacingBetweenSlices": 1.9999999984936,
      "SpecificCharacterSet": "ISO_IR 100",
      "StudyID": "1",
      "StudyTime": "150137.866000",
      "TransmitCoilName": "Body",
      "VariableFlipAngleFlag": "N",
      "WindowCenterWidthExplanation": "Algo1",
      "dBdt": 0.0},
    "slices": {}
  },
  "time": {
    "samples": {
      "AcquisitionNumber": [1, 2, 3, 4, 5, 6, 7, 8, 9, 10, 11, 12, 13, 14, 15, 16, 17, 18, 19, 20, 21, 22, 23, 24, 25, 26, 27, 28, 29, 30, 31, 32, 33, 34, 35, 36, 37, 38, 39, 40, 41, 42, 43, 44, 45, 46, 47, 48, 49, 50, 51, 52, 53, 54, 55, 56, 57, 58, 59, 60, 61, 62, 63, 64, 65, 66, 67, 68, 69, 70, 71, 72, 73, 74, 75, 76, 77, 78, 79, 80, 81, 82, 83, 84, 85, 86, 87, 88, 89, 90, 91, 92, 93, 94, 95, 96, 97, 98, 99, 100, 101, 102, 103, 104, 105, 106, 107, 108, 109, 110, 111, 112, 113, 114, 115, 116, 117, 118, 119, 120, 121, 122, 123, 124, 125, 126, 127, 128, 129, 130, 131, 132, 133, 134, 135, 136, 137, 138, 139, 140, 141, 142, 143, 144, 145, 146, 147, 148, 149, 150, 151, 152, 153, 154, 155, 156, 157, 158, 159, 160, 161, 162, 163, 164, 165, 166, 167, 168, 169, 170, 171, 172, 173, 174, 175, 176, 177, 178, 179, 180, 181, 182, 183, 184, 185, 186, 187, 188, 189, 190],
      "AcquisitionTime": ["154824.925000", "154826.415000", "154827.905000", "154829.395000", "154830.885000", "154832.375000", "154833.865000", "154835.355000", "154836.845000", "154838.335000", "154839.825000", "154841.315000", "154842.805000", "154844.295000", "154845.785000", "154847.275000", "154848.765000", "154850.255000", "154851.745000", "154853.235000", "154854.725000", "154856.215000", "154857.705000", "154859.195000", "154900.685000", "154902.175000", "154903.665000", "154905.155000", "154906.645000", "154908.135000", "154909.625000", "154911.115000", "154912.605000", "154914.095000", "154915.585000", "154917.075000", "154918.565000", "154920.055000", "154921.545000", "154923.035000", "154924.525000", "154926.015000", "154927.505000", "154928.995000", "154930.485000", "154931.975000", "154933.465000", "154934.955000", "154936.445000", "154937.935000", "154939.425000", "154940.915000", "154942.405000", "154943.895000", "154945.385000", "154946.875000", "154948.365000", "154949.855000", "154951.345000", "154952.835000", "154954.325000", "154955.815000", "154957.305000", "154958.795000", "155000.285000", "155001.775000", "155003.265000", "155004.755000", "155006.245000", "155007.735000", "155009.225000", "155010.715000", "155012.205000", "155013.695000", "155015.185000", "155016.675000", "155018.165000", "155019.655000", "155021.145000", "155022.635000", "155024.125000", "155025.615000", "155027.105000", "155028.595000", "155030.085000", "155031.575000", "155033.065000", "155034.555000", "155036.045000", "155037.535000", "155039.025000", "155040.515000", "155042.005000", "155043.495000", "155044.985000", "155046.475000", "155047.965000", "155049.455000", "155050.945000", "155052.435000", "155053.925000", "155055.415000", "155056.905000", "155058.395000", "155059.885000", "155101.375000", "155102.865000", "155104.355000", "155105.845000", "155107.335000", "155108.825000", "155110.315000", "155111.805000", "155113.295000", "155114.785000", "155116.275000", "155117.765000", "155119.255000", "155120.745000", "155122.235000", "155123.725000", "155125.215000", "155126.705000", "155128.195000", "155129.685000", "155131.175000", "155132.665000", "155134.155000", "155135.645000", "155137.135000", "155138.625000", "155140.115000", "155141.605000", "155143.095000", "155144.585000", "155146.075000", "155147.565000", "155149.055000", "155150.545000", "155152.035000", "155153.525000", "155155.015000", "155156.505000", "155157.995000", "155159.485000", "155200.975000", "155202.465000", "155203.955000", "155205.445000", "155206.935000", "155208.425000", "155209.915000", "155211.405000", "155212.895000", "155214.385000", "155215.875000", "155217.365000", "155218.855000", "155220.345000", "155221.835000", "155223.325000", "155224.815000", "155226.305000", "155227.795000", "155229.285000", "155230.775000", "155232.265000", "155233.755000", "155235.245000", "155236.735000", "155238.225000", "155239.715000", "155241.205000", "155242.695000", "155244.185000", "155245.675000", "155247.165000", "155248.655000", "155250.145000", "155251.635000", "155253.125000", "155254.615000", "155256.105000", "155257.595000", "155259.085000", "155300.575000", "155302.065000", "155303.555000", "155305.045000", "155306.535000"],
      "ContentTime": ["154957.663000", "154957.667000", "154957.670000", "154957.674000", "154957.677000", "154957.680000", "154957.684000", "154957.687000", "154957.691000", "154957.694000", "154957.697000", "154957.701000", "154957.704000", "154957.707000", "154957.711000", "154957.714000", "154957.726000", "154957.729000", "154957.733000", "154957.736000", "154957.739000", "154957.743000", "154957.746000", "154957.754000", "154957.757000", "154957.760000", "154957.764000", "154957.767000", "154957.771000", "154957.774000", "154957.777000", "154957.781000", "154957.784000", "154957.787000", "154957.791000", "154957.794000", "154957.797000", "154957.801000", "155017.628000", "155017.632000", "155017.635000", "155017.639000", "155017.642000", "155017.645000", "155017.649000", "155017.652000", "155017.655000", "155017.659000", "155017.662000", "155017.666000", "155017.669000", "155017.672000", "155017.676000", "155017.679000", "155017.682000", "155017.686000", "155017.689000", "155017.692000", "155037.628000", "155037.632000", "155037.635000", "155037.638000", "155037.642000", "155037.645000", "155037.648000", "155037.652000", "155037.655000", "155037.658000", "155037.662000", "155037.665000", "155037.668000", "155037.672000", "155037.675000", "155037.678000", "155037.692000", "155037.695000", "155037.699000", "155037.702000", "155057.628000", "155057.632000", "155057.635000", "155057.638000", "155057.642000", "155057.645000", "155057.649000", "155057.652000", "155057.656000", "155057.660000", "155057.663000", "155057.667000", "155057.671000", "155057.675000", "155057.678000", "155057.682000", "155057.685000", "155057.689000", "155057.692000", "155057.695000", "155117.628000", "155117.632000", "155117.635000", "155117.639000", "155117.642000", "155117.645000", "155117.649000", "155117.652000", "155117.656000", "155117.659000", "155117.662000", "155117.666000", "155117.669000", "155117.672000", "155117.676000", "155117.679000", "155117.682000", "155157.629000", "155157.633000", "155157.636000", "155157.639000", "155157.643000", "155157.646000", "155157.650000", "155157.653000", "155157.656000", "155157.660000", "155157.663000", "155157.666000", "155157.670000", "155157.673000", "155157.676000", "155157.680000", "155157.683000", "155157.686000", "155157.690000", "155157.693000", "155157.697000", "155157.700000", "155157.703000", "155157.707000", "155157.710000", "155157.713000", "155157.717000", "155237.628000", "155237.632000", "155237.635000", "155237.638000", "155237.642000", "155237.645000", "155237.649000", "155237.652000", "155237.655000", "155237.659000", "155237.662000", "155237.665000", "155237.669000", "155237.672000", "155237.676000", "155237.679000", "155237.682000", "155237.686000", "155237.689000", "155237.692000", "155237.696000", "155237.699000", "155237.702000", "155237.706000", "155237.709000", "155237.712000", "155237.716000", "155308.499000", "155308.502000", "155308.506000", "155308.509000", "155308.513000", "155308.516000", "155308.519000", "155308.523000", "155308.526000", "155308.530000", "155308.533000", "155308.537000", "155308.540000", "155308.543000", "155308.547000", "155308.551000", "155308.555000", "155308.559000", "155308.563000", "155308.567000", "155308.571000"],
      "InstanceCreationTime": ["154957.663000", "154957.667000", "154957.670000", "154957.674000", "154957.677000", "154957.680000", "154957.684000", "154957.687000", "154957.691000", "154957.694000", "154957.697000", "154957.701000", "154957.704000", "154957.707000", "154957.711000", "154957.714000", "154957.726000", "154957.729000", "154957.733000", "154957.736000", "154957.739000", "154957.743000", "154957.746000", "154957.754000", "154957.757000", "154957.760000", "154957.764000", "154957.767000", "154957.771000", "154957.774000", "154957.777000", "154957.781000", "154957.784000", "154957.787000", "154957.791000", "154957.794000", "154957.797000", "154957.801000", "155017.628000", "155017.632000", "155017.635000", "155017.639000", "155017.642000", "155017.645000", "155017.649000", "155017.652000", "155017.655000", "155017.659000", "155017.662000", "155017.666000", "155017.669000", "155017.672000", "155017.676000", "155017.679000", "155017.682000", "155017.686000", "155017.689000", "155017.692000", "155037.628000", "155037.632000", "155037.635000", "155037.638000", "155037.642000", "155037.645000", "155037.648000", "155037.652000", "155037.655000", "155037.658000", "155037.662000", "155037.665000", "155037.668000", "155037.672000", "155037.675000", "155037.678000", "155037.692000", "155037.695000", "155037.699000", "155037.702000", "155057.628000", "155057.632000", "155057.635000", "155057.638000", "155057.642000", "155057.645000", "155057.649000", "155057.652000", "155057.656000", "155057.660000", "155057.663000", "155057.667000", "155057.671000", "155057.675000", "155057.678000", "155057.682000", "155057.685000", "155057.689000", "155057.692000", "155057.695000", "155117.628000", "155117.632000", "155117.635000", "155117.639000", "155117.642000", "155117.645000", "155117.649000", "155117.652000", "155117.656000", "155117.659000", "155117.662000", "155117.666000", "155117.669000", "155117.672000", "155117.676000", "155117.679000", "155117.682000", "155157.629000", "155157.633000", "155157.636000", "155157.639000", "155157.643000", "155157.646000", "155157.650000", "155157.653000", "155157.656000", "155157.660000", "155157.663000", "155157.666000", "155157.670000", "155157.673000", "155157.676000", "155157.680000", "155157.683000", "155157.686000", "155157.690000", "155157.693000", "155157.697000", "155157.700000", "155157.703000", "155157.707000", "155157.710000", "155157.713000", "155157.717000", "155237.628000", "155237.632000", "155237.635000", "155237.638000", "155237.642000", "155237.645000", "155237.649000", "155237.652000", "155237.655000", "155237.659000", "155237.662000", "155237.665000", "155237.669000", "155237.672000", "155237.676000", "155237.679000", "155237.682000", "155237.686000", "155237.689000", "155237.692000", "155237.696000", "155237.699000", "155237.702000", "155237.706000", "155237.709000", "155237.712000", "155237.716000", "155308.499000", "155308.502000", "155308.506000", "155308.509000", "155308.513000", "155308.516000", "155308.519000", "155308.523000", "155308.526000", "155308.530000", "155308.533000", "155308.537000", "155308.540000", "155308.543000", "155308.547000", "155308.551000", "155308.555000", "155308.559000", "155308.563000", "155308.567000", "155308.571000"],
      "InstanceNumber": [1, 2, 3, 4, 5, 6, 7, 8, 9, 10, 11, 12, 13, 14, 15, 16, 17, 18, 19, 20, 21, 22, 23, 24, 25, 26, 27, 28, 29, 30, 31, 32, 33, 34, 35, 36, 37, 38, 39, 40, 41, 42, 43, 44, 45, 46, 47, 48, 49, 50, 51, 52, 53, 54, 55, 56, 57, 58, 59, 60, 61, 62, 63, 64, 65, 66, 67, 68, 69, 70, 71, 72, 73, 74, 75, 76, 77, 78, 79, 80, 81, 82, 83, 84, 85, 86, 87, 88, 89, 90, 91, 92, 93, 94, 95, 96, 97, 98, 99, 100, 101, 102, 103, 104, 105, 106, 107, 108, 109, 110, 111, 112, 113, 114, 115, 116, 117, 118, 119, 120, 121, 122, 123, 124, 125, 126, 127, 128, 129, 130, 131, 132, 133, 134, 135, 136, 137, 138, 139, 140, 141, 142, 143, 144, 145, 146, 147, 148, 149, 150, 151, 152, 153, 154, 155, 156, 157, 158, 159, 160, 161, 162, 163, 164, 165, 166, 167, 168, 169, 170, 171, 172, 173, 174, 175, 176, 177, 178, 179, 180, 181, 182, 183, 184, 185, 186, 187, 188, 189, 190],
      "LargestImagePixelValue": [46496, 45764, 43961, 44615, 43838, 42610, 43155, 43493, 43664, 43665, 43711, 43985, 43371, 43073, 43111, 43309, 43341, 43891, 43677, 43306, 43907, 43326, 43257, 43670, 43560, 43538, 43349, 43802, 43409, 43363, 43763, 43499, 43503, 43670, 43766, 43817, 43617, 43468, 43612, 43535, 43229, 43745, 43583, 43476, 43318, 43733, 43744, 43202, 43783, 43434, 43335, 43710, 43449, 43324, 43668, 43664, 43480, 43306, 43435, 43327, 43290, 43274, 43256, 43600, 43628, 43709, 43785, 43384, 43526, 43605, 43490, 43672, 43336, 43398, 43387, 43660, 43748, 43183, 43616, 42948, 43209, 43096, 42959, 43275, 43035, 43499, 43286, 43479, 43208, 43157, 43297, 43252, 43121, 43129, 43005, 43261, 43178, 43272, 43182, 43077, 43439, 42738, 43177, 42653, 42797, 43196, 43660, 42989, 43203, 43225, 42591, 42938, 42639, 43111, 43130, 43008, 42981, 42843, 42575, 42901, 42838, 43071, 42887, 43338, 43360, 43133, 42573, 42587, 42826, 42670, 42668, 42635, 42815, 42596, 42788, 42646, 42542, 42916, 42668, 42158, 42560, 42704, 42814, 42814, 43303, 43195, 42756, 42801, 42389, 42639, 42530, 42704, 42291, 42635, 42495, 42606, 42690, 42782, 43186, 43133, 42894, 42349, 42245, 41628, 42166, 42857, 42962, 43291, 42812, 42869, 42529, 42914, 42882, 41604, 41815, 43111, 42715, 42185, 42332, 42384, 42268, 41869, 41761, 41656, 41495, 41376, 41341, 41802, 41284, 41284],
      "WindowCenter": [10469.0, 10441.0, 10411.0, 10412.0, 10403.0, 10389.0, 10398.0, 10406.0, 10384.0, 10366.0, 10341.0, 10339.0, 10348.0, 10348.0, 10342.0, 10343.0, 10341.0, 10362.0, 10365.0, 10359.0, 10364.0, 10373.0, 10376.0, 10379.0, 10373.0, 10366.0, 10374.0, 10375.0, 10378.0, 10382.0, 10388.0, 10381.0, 10381.0, 10374.0, 10371.0, 10371.0, 10381.0, 10388.0, 10382.0, 10380.0, 10375.0, 10391.0, 10396.0, 10397.0, 10391.0, 10387.0, 10382.0, 10383.0, 10387.0, 10373.0, 10364.0, 10361.0, 10348.0, 10342.0, 10351.0, 10345.0, 10354.0, 10361.0, 10361.0, 10359.0, 10359.0, 10362.0, 10355.0, 10347.0, 10353.0, 10369.0, 10376.0, 10369.0, 10377.0, 10398.0, 10409.0, 10402.0, 10387.0, 10378.0, 10371.0, 10383.0, 10387.0, 10381.0, 10365.0, 10350.0, 10348.0, 10345.0, 10332.0, 10323.0, 10302.0, 10311.0, 10315.0, 10329.0, 10338.0, 10346.0, 10355.0, 10361.0, 10371.0, 10374.0, 10381.0, 10403.0, 10413.0, 10406.0, 10398.0, 10390.0, 10387.0, 10381.0, 10390.0, 10401.0, 10385.0, 10360.0, 10341.0, 10326.0, 10324.0, 10311.0, 10291.0, 10302.0, 10313.0, 10325.0, 10320.0, 10326.0, 10344.0, 10352.0, 10341.0, 10351.0, 10363.0, 10368.0, 10375.0, 10386.0, 10371.0, 10351.0, 10329.0, 10327.0, 10333.0, 10336.0, 10323.0, 10315.0, 10320.0, 10334.0, 10359.0, 10378.0, 10379.0, 10377.0, 10373.0, 10364.0, 10356.0, 10354.0, 10350.0, 10374.0, 10411.0, 10400.0, 10379.0, 10355.0, 10337.0, 10330.0, 10319.0, 10311.0, 10304.0, 10296.0, 10304.0, 10325.0, 10336.0, 10351.0, 10386.0, 10372.0, 10353.0, 10354.0, 10367.0, 10378.0, 10386.0, 10369.0, 10353.0, 10351.0, 10353.0, 10365.0, 10359.0, 10365.0, 10348.0, 10329.0, 10337.0, 10370.0, 10345.0, 10318.0, 10307.0, 10311.0, 10319.0, 10308.0, 10293.0, 10279.0, 10285.0, 10302.0, 10318.0, 10334.0, 10330.0, 10337.0],
      "WindowWidth": [22687.0, 22582.0, 22497.0, 22485.0, 22456.0, 22425.0, 22436.0, 22454.0, 22404.0, 22361.0, 22300.0, 22294.0, 22320.0, 22322.0, 22308.0, 22313.0, 22305.0, 22352.0, 22361.0, 22349.0, 22356.0, 22377.0, 22390.0, 22392.0, 22379.0, 22366.0, 22383.0, 22386.0, 22389.0, 22402.0, 22414.0, 22399.0, 22401.0, 22384.0, 22372.0, 22373.0, 22399.0, 22416.0, 22401.0, 22400.0, 22392.0, 22421.0, 22435.0, 22439.0, 22424.0, 22415.0, 22404.0, 22410.0, 22415.0, 22385.0, 22362.0, 22354.0, 22329.0, 22315.0, 22333.0, 22318.0, 22342.0, 22357.0, 22355.0, 22350.0, 22351.0, 22358.0, 22341.0, 22325.0, 22338.0, 22377.0, 22393.0, 22376.0, 22394.0, 22439.0, 22463.0, 22450.0, 22417.0, 22394.0, 22379.0, 22406.0, 22414.0, 22405.0, 22369.0, 22332.0, 22326.0, 22320.0, 22293.0, 22269.0, 22222.0, 22239.0, 22253.0, 22284.0, 22309.0, 22325.0, 22345.0, 22358.0, 22380.0, 22389.0, 22404.0, 22453.0, 22477.0, 22463.0, 22443.0, 22424.0, 22418.0, 22404.0, 22427.0, 22454.0, 22417.0, 22357.0, 22312.0, 22278.0, 22272.0, 22242.0, 22202.0, 22224.0, 22253.0, 22277.0, 22268.0, 22278.0, 22320.0, 22337.0, 22313.0, 22333.0, 22366.0, 22374.0, 22392.0, 22420.0, 22381.0, 22333.0, 22284.0, 22281.0, 22292.0, 22301.0, 22272.0, 22252.0, 22264.0, 22298.0, 22355.0, 22400.0, 22401.0, 22396.0, 22389.0, 22365.0, 22348.0, 22343.0, 22329.0, 22388.0, 22471.0, 22449.0, 22401.0, 22348.0, 22304.0, 22287.0, 22264.0, 22245.0, 22228.0, 22210.0, 22232.0, 22277.0, 22306.0, 22341.0, 22416.0, 22386.0, 22342.0, 22345.0, 22371.0, 22399.0, 22418.0, 22379.0, 22341.0, 22335.0, 22345.0, 22369.0, 22359.0, 22368.0, 22334.0, 22288.0, 22306.0, 22378.0, 22327.0, 22266.0, 22239.0, 22246.0, 22263.0, 22241.0, 22207.0, 22175.0, 22191.0, 22232.0, 22268.0, 22306.0, 22298.0, 22311.0]
    },
    "slices": {}
  }
}