{
  "AcquisitionMatrixPE": 104,
  "AcquisitionNumber": 1,
  "AcquisitionTime": "16:03:10.580000",
  "BandwidthPerPixelPhaseEncode": 17.17,
  "BaseResolution": 104,
  "BodyPartExamined": "BRAIN",
  "CoilString": "HC1-7;NC1_2",
  "ConsistencyInfo": "N4_VE11C_LATEST_20160120",
  "ConversionSoftware": "dcm2niix",
  "ConversionSoftwareVersion": "v1.0.20190902",
  "DerivedVendorReportedEchoSpacing": 0.000560011,
  "DeviceSerialNumber": "167006",
  "DwellTime": 2.1e-06,
  "EchoTime": 0.037,
  "EchoTrainLength": 104,
  "EffectiveEchoSpacing": 0.000560011,
  "FlipAngle": 52,
  "ImageComments": "Unaliased_MB4_PE3_LB",
  "ImageOrientationPatientDICOM": [0.997576, -0.0668215, 0.019407, 0.0695824, 0.957221, -0.280868],
  "ImageType": [
    "ORIGINAL",
    "PRIMARY",
    "M",
    "MB",
    "ND",
    "MOSAIC"
],
  "ImagingFrequency": 123.259,
  "InPlanePhaseEncodingDirectionDICOM": "COL",
  "InstitutionAddress": "Chemin_Queen-Mary_4565_Montreal_District_CA_H3W_1W5",
  "InstitutionName": "IUGM",
  "InstitutionalDepartmentName": "Department",
  "MRAcquisitionType": "2D",
  "MagneticFieldStrength": 3,
  "Manufacturer": "Siemens",
  "ManufacturersModelName": "Prisma_fit",
  "Modality": "MR",
  "MultibandAccelerationFactor": 4,
  "PartialFourier": 1,
  "PatientPosition": "HFS",
  "PercentPhaseFOV": 100,
  "PhaseEncodingDirection": "j",
  "PhaseEncodingSteps": 104,
  "PhaseResolution": 1,
  "PixelBandwidth": 2290,
  "ProcedureStepDescription": "memory_things",
  "ProtocolName": "func_task-things_run-6",
  "PulseSequenceDetails": "%CustomerSeq%_cmrr_mbep2d_bold",
  "ReceiveCoilActiveElements": "HC1-7;NC1,2",
  "ReceiveCoilName": "HeadNeck_64",
  "ReconMatrixPE": 104,
  "RepetitionTime": 1.49,
  "SAR": 0.0448602,
  "ScanOptions": "FS",
  "ScanningSequence": "EP",
  "SequenceName": "epfid2d1_104",
  "SequenceVariant": "SK_SS",
  "SeriesDescription": "func_task-things_run-6",
  "SeriesNumber": 31,
  "ShimSetting": [629, -7264, -8782, 647, -23, -215, 2, -16],
  "SliceThickness": 2,
  "SliceTiming": [0, 0.785, 0.0975, 0.8825, 0.195, 0.98, 0.295, 1.0775, 0.3925, 1.175, 0.49, 1.275, 0.5875, 1.3725, 0.685, 0, 0.785, 0.0975, 0.8825, 0.195, 0.98, 0.295, 1.0775, 0.3925, 1.175, 0.49, 1.275, 0.5875, 1.3725, 0.685, 0, 0.785, 0.0975, 0.8825, 0.195, 0.98, 0.295, 1.0775, 0.3925, 1.175, 0.49, 1.275, 0.5875, 1.3725, 0.685, 0, 0.785, 0.0975, 0.8825, 0.195, 0.98, 0.295, 1.0775, 0.3925, 1.175, 0.49, 1.275, 0.5875, 1.3725, 0.685],
  "SoftwareVersions": "syngo_MR_E11",
  "SpacingBetweenSlices": 2,
  "StationName": "MRC35049",
  "TaskName": "things",
  "TotalReadoutTime": 0.0576811,
  "TxRefAmp": 262.018,
  "WipMemBlock": "65ed4537-6cea-4404-8bf8-be06f1e4984c||Sequence: R016 ve11c/master r/e634e98; Dec 19 2017 11:00:25 by eja",
  "dcmmeta_affine": [
    [-1.9951523542404175, 0.1391647309064865, -0.0003823584411293268, 99.87901306152344],
    [0.13364294171333313, 1.9144415855407715, -0.5630747079849243, -74.6865234375],
    [0.03881406784057617, 0.5617355108261108, 1.9191005229949951, -53.60455322265625],
    [0.0, 0.0, 0.0, 1.0]
],
  "dcmmeta_reorient_transform": [
    [0.0, -1.0, 0.0, 103.0],
    [1.0, 0.0, 0.0, 0.0],
    [0.0, 0.0, 1.0, 0.0],
    [0.0, 0.0, 0.0, 1.0]
],
  "dcmmeta_shape": [104, 104, 60, 190],
  "dcmmeta_slice_dim": 2,
  "dcmmeta_version": 0.6,
  "global": {
    "const": {
      "AcquisitionMatrix": [104, 0, 0, 104],
      "AngioFlag": "N",
      "BitsAllocated": 16,
      "BitsStored": 16,
      "BodyPartExamined": "BRAIN",
      "Columns": 832,
      "EchoNumbers": 1,
      "EchoTime": 37.0,
      "EchoTrainLength": 104,
      "FlipAngle": 52.0,
      "HighBit": 15,
      "ImageOrientationPatient": [0.99757619166961, -0.0668214698943, 0.01940703416618, 0.06958236317103, 0.95722077159696, -0.2808677431797],
      "ImagePositionPatient": [-891.1044113179, -770.71164452321, 194.59759627619],
      "ImageType": [
        "ORIGINAL",
        "PRIMARY",
        "M",
        "MB",
        "ND",
        "MOSAIC"
],
      "ImagedNucleus": "1H",
      "ImagingFrequency": 123.258884,
      "InPlanePhaseEncodingDirection": "COL",
      "MRAcquisitionType": "2D",
      "MagneticFieldStrength": 3.0,
      "Manufacturer": "SIEMENS",
      "ManufacturerModelName": "Prisma_fit",
      "Modality": "MR",
      "NumberOfAverages": 1.0,
      "NumberOfPhaseEncodingSteps": 104,
      "PercentPhaseFieldOfView": 100.0,
      "PercentSampling": 100.0,
      "PerformedProcedureStepStartTime": "150137.961000",
      "PhotometricInterpretation": "MONOCHROME2",
      "PixelBandwidth": 2290.0,
      "PixelRepresentation": 0,
      "PixelSpacing": [2.0, 2.0],
      "ProtocolName": "func_task-things_run-6",
      "RepetitionTime": 1490.0,
      "Rows": 832,
      "SAR": 0.04486017529863,
      "SamplesPerPixel": 1,
      "ScanOptions": "FS",
      "ScanningSequence": "EP",
      "SequenceName": "epfid2d1_104",
      "SequenceVariant": [
        "SK",
        "SS"
],
      "SeriesDescription": "func_task-things_run-6",
      "SeriesNumber": 31,
      "SeriesTime": "160437.661000",
      "SliceLocation": -30.428311359306,
      "SliceThickness": 2.0,
      "SmallestImagePixelValue": 0,
      "SoftwareVersions": "syngo MR E11",
      "SpacingBetweenSlices": 1.9999999984936,
      "SpecificCharacterSet": "ISO_IR 100",
      "StudyID": "1",
      "StudyTime": "150137.866000",
      "TransmitCoilName": "Body",
      "VariableFlipAngleFlag": "N",
      "WindowCenterWidthExplanation": "Algo1",
      "dBdt": 0.0},
    "slices": {}
  },
  "time": {
    "samples": {
      "AcquisitionNumber": [1, 2, 3, 4, 5, 6, 7, 8, 9, 10, 11, 12, 13, 14, 15, 16, 17, 18, 19, 20, 21, 22, 23, 24, 25, 26, 27, 28, 29, 30, 31, 32, 33, 34, 35, 36, 37, 38, 39, 40, 41, 42, 43, 44, 45, 46, 47, 48, 49, 50, 51, 52, 53, 54, 55, 56, 57, 58, 59, 60, 61, 62, 63, 64, 65, 66, 67, 68, 69, 70, 71, 72, 73, 74, 75, 76, 77, 78, 79, 80, 81, 82, 83, 84, 85, 86, 87, 88, 89, 90, 91, 92, 93, 94, 95, 96, 97, 98, 99, 100, 101, 102, 103, 104, 105, 106, 107, 108, 109, 110, 111, 112, 113, 114, 115, 116, 117, 118, 119, 120, 121, 122, 123, 124, 125, 126, 127, 128, 129, 130, 131, 132, 133, 134, 135, 136, 137, 138, 139, 140, 141, 142, 143, 144, 145, 146, 147, 148, 149, 150, 151, 152, 153, 154, 155, 156, 157, 158, 159, 160, 161, 162, 163, 164, 165, 166, 167, 168, 169, 170, 171, 172, 173, 174, 175, 176, 177, 178, 179, 180, 181, 182, 183, 184, 185, 186, 187, 188, 189, 190],
      "AcquisitionTime": ["160310.580000", "160312.070000", "160313.560000", "160315.050000", "160316.540000", "160318.030000", "160319.520000", "160321.010000", "160322.500000", "160323.990000", "160325.480000", "160326.970000", "160328.460000", "160329.950000", "160331.440000", "160332.930000", "160334.420000", "160335.910000", "160337.400000", "160338.890000", "160340.380000", "160341.870000", "160343.360000", "160344.850000", "160346.340000", "160347.830000", "160349.320000", "160350.810000", "160352.300000", "160353.790000", "160355.280000", "160356.770000", "160358.260000", "160359.750000", "160401.240000", "160402.730000", "160404.220000", "160405.710000", "160407.200000", "160408.690000", "160410.180000", "160411.670000", "160413.160000", "160414.650000", "160416.140000", "160417.630000", "160419.120000", "160420.610000", "160422.100000", "160423.590000", "160425.080000", "160426.570000", "160428.060000", "160429.550000", "160431.040000", "160432.530000", "160434.020000", "160435.510000", "160437.000000", "160438.490000", "160439.980000", "160441.470000", "160442.960000", "160444.450000", "160445.940000", "160447.430000", "160448.920000", "160450.410000", "160451.900000", "160453.390000", "160454.880000", "160456.370000", "160457.860000", "160459.350000", "160500.840000", "160502.330000", "160503.820000", "160505.310000", "160506.800000", "160508.290000", "160509.780000", "160511.270000", "160512.760000", "160514.250000", "160515.740000", "160517.230000", "160518.720000", "160520.210000", "160521.700000", "160523.190000", "160524.680000", "160526.170000", "160527.660000", "160529.150000", "160530.640000", "160532.130000", "160533.620000", "160535.110000", "160536.600000", "160538.090000", "160539.580000", "160541.070000", "160542.560000", "160544.050000", "160545.540000", "160547.030000", "160548.520000", "160550.010000", "160551.500000", "160552.990000", "160554.480000", "160555.970000", "160557.460000", "160558.950000", "160600.440000", "160601.930000", "160603.420000", "160604.910000", "160606.400000", "160607.890000", "160609.380000", "160610.870000", "160612.360000", "160613.850000", "160615.340000", "160616.830000", "160618.320000", "160619.810000", "160621.300000", "160622.790000", "160624.280000", "160625.770000", "160627.260000", "160628.750000", "160630.240000", "160631.730000", "160633.220000", "160634.710000", "160636.200000", "160637.690000", "160639.180000", "160640.670000", "160642.160000", "160643.650000", "160645.140000", "160646.630000", "160648.120000", "160649.610000", "160651.100000", "160652.590000", "160654.080000", "160655.570000", "160657.060000", "160658.550000", "160700.040000", "160701.530000", "160703.020000", "160704.510000", "160706.000000", "160707.490000", "160708.980000", "160710.470000", "160711.960000", "160713.450000", "160714.940000", "160716.430000", "160717.920000", "160719.410000", "160720.900000", "160722.390000", "160723.880000", "160725.370000", "160726.860000", "160728.350000", "160729.840000", "160731.330000", "160732.820000", "160734.310000", "160735.800000", "160737.290000", "160738.780000", "160740.270000", "160741.760000", "160743.250000", "160744.740000", "160746.230000", "160747.720000", "160749.210000", "160750.700000", "160752.190000"],
      "ContentTime": ["160437.664000", "160437.668000", "160437.671000", "160437.675000", "160437.678000", "160437.681000", "160437.685000", "160437.688000", "160437.691000", "160437.695000", "160437.698000", "160437.702000", "160437.705000", "160437.708000", "160437.712000", "160437.715000", "160437.718000", "160437.722000", "160437.725000", "160437.728000", "160437.732000", "160437.735000", "160437.738000", "160437.742000", "160437.745000", "160437.748000", "160437.761000", "160437.764000", "160437.768000", "160437.771000", "160437.775000", "160437.778000", "160437.781000", "160437.785000", "160457.628000", "160457.632000", "160457.635000", "160457.639000", "160457.642000", "160457.645000", "160457.649000", "160457.652000", "160457.655000", "160457.659000", "160457.662000", "160457.665000", "160457.669000", "160457.694000", "160457.697000", "160457.700000", "160457.704000", "160457.707000", "160457.710000", "160457.714000", "160517.628000", "160517.632000", "160517.635000", "160517.639000", "160517.642000", "160517.645000", "160517.649000", "160517.652000", "160517.656000", "160517.659000", "160517.662000", "160517.666000", "160517.669000", "160517.673000", "160517.676000", "160517.679000", "160517.683000", "160517.686000", "160517.689000", "160517.693000", "160517.696000", "160537.628000", "160537.632000", "160537.635000", "160537.638000", "160537.642000", "160537.645000", "160537.649000", "160537.652000", "160537.655000", "160537.659000", "160537.662000", "160537.665000", "160537.669000", "160537.672000", "160537.675000", "160537.679000", "160537.682000", "160537.685000", "160537.689000", "160537.692000", "160617.628000", "160617.632000", "160617.635000", "160617.639000", "160617.642000", "160617.645000", "160617.649000", "160617.652000", "160617.655000", "160617.659000", "160617.662000", "160617.666000", "160617.669000", "160617.672000", "160617.676000", "160617.679000", "160617.682000", "160617.685000", "160617.689000", "160617.692000", "160617.696000", "160617.699000", "160617.702000", "160617.706000", "160617.709000", "160617.712000", "160617.716000", "160617.719000", "160617.722000", "160617.726000", "160657.628000", "160657.632000", "160657.635000", "160657.638000", "160657.642000", "160657.645000", "160657.649000", "160657.652000", "160657.655000", "160657.659000", "160657.662000", "160657.666000", "160657.669000", "160657.672000", "160657.676000", "160657.679000", "160657.682000", "160657.686000", "160657.689000", "160657.692000", "160657.696000", "160657.699000", "160657.702000", "160657.718000", "160657.721000", "160657.725000", "160657.728000", "160737.628000", "160737.632000", "160737.635000", "160737.639000", "160737.642000", "160737.645000", "160737.649000", "160737.652000", "160737.656000", "160737.659000", "160737.663000", "160737.666000", "160737.669000", "160737.673000", "160737.676000", "160737.679000", "160737.683000", "160737.686000", "160737.689000", "160737.693000", "160737.696000", "160737.699000", "160737.703000", "160737.706000", "160737.710000", "160737.713000", "160754.192000", "160754.196000", "160754.199000", "160754.203000", "160754.206000", "160754.210000", "160754.213000", "160754.216000", "160754.220000", "160754.223000", "160754.227000", "160754.230000"],
      "InstanceCreationTime": ["160437.664000", "160437.668000", "160437.671000", "160437.675000", "160437.678000", "160437.681000", "160437.685000", "160437.688000", "160437.691000", "160437.695000", "160437.698000", "160437.702000", "160437.705000", "160437.708000", "160437.712000", "160437.715000", "160437.718000", "160437.722000", "160437.725000", "160437.728000", "160437.732000", "160437.735000", "160437.738000", "160437.742000", "160437.745000", "160437.748000", "160437.761000", "160437.764000", "160437.768000", "160437.771000", "160437.775000", "160437.778000", "160437.781000", "160437.785000", "160457.628000", "160457.632000", "160457.635000", "160457.639000", "160457.642000", "160457.645000", "160457.649000", "160457.652000", "160457.655000", "160457.659000", "160457.662000", "160457.665000", "160457.669000", "160457.694000", "160457.697000", "160457.700000", "160457.704000", "160457.707000", "160457.710000", "160457.714000", "160517.628000", "160517.632000", "160517.635000", "160517.639000", "160517.642000", "160517.645000", "160517.649000", "160517.652000", "160517.656000", "160517.659000", "160517.662000", "160517.666000", "160517.669000", "160517.673000", "160517.676000", "160517.679000", "160517.683000", "160517.686000", "160517.689000", "160517.693000", "160517.696000", "160537.628000", "160537.632000", "160537.635000", "160537.638000", "160537.642000", "160537.645000", "160537.649000", "160537.652000", "160537.655000", "160537.659000", "160537.662000", "160537.665000", "160537.669000", "160537.672000", "160537.675000", "160537.679000", "160537.682000", "160537.685000", "160537.689000", "160537.692000", "160617.628000", "160617.632000", "160617.635000", "160617.639000", "160617.642000", "160617.645000", "160617.649000", "160617.652000", "160617.655000", "160617.659000", "160617.662000", "160617.666000", "160617.669000", "160617.672000", "160617.676000", "160617.679000", "160617.682000", "160617.685000", "160617.689000", "160617.692000", "160617.696000", "160617.699000", "160617.702000", "160617.706000", "160617.709000", "160617.712000", "160617.716000", "160617.719000", "160617.722000", "160617.726000", "160657.628000", "160657.632000", "160657.635000", "160657.638000", "160657.642000", "160657.645000", "160657.649000", "160657.652000", "160657.655000", "160657.659000", "160657.662000", "160657.666000", "160657.669000", "160657.672000", "160657.676000", "160657.679000", "160657.682000", "160657.686000", "160657.689000", "160657.692000", "160657.696000", "160657.699000", "160657.702000", "160657.718000", "160657.721000", "160657.725000", "160657.728000", "160737.628000", "160737.632000", "160737.635000", "160737.639000", "160737.642000", "160737.645000", "160737.649000", "160737.652000", "160737.656000", "160737.659000", "160737.663000", "160737.666000", "160737.669000", "160737.673000", "160737.676000", "160737.679000", "160737.683000", "160737.686000", "160737.689000", "160737.693000", "160737.696000", "160737.699000", "160737.703000", "160737.706000", "160737.710000", "160737.713000", "160754.192000", "160754.196000", "160754.199000", "160754.203000", "160754.206000", "160754.210000", "160754.213000", "160754.216000", "160754.220000", "160754.223000", "160754.227000", "160754.230000"],
      "InstanceNumber": [1, 2, 3, 4, 5, 6, 7, 8, 9, 10, 11, 12, 13, 14, 15, 16, 17, 18, 19, 20, 21, 22, 23, 24, 25, 26, 27, 28, 29, 30, 31, 32, 33, 34, 35, 36, 37, 38, 39, 40, 41, 42, 43, 44, 45, 46, 47, 48, 49, 50, 51, 52, 53, 54, 55, 56, 57, 58, 59, 60, 61, 62, 63, 64, 65, 66, 67, 68, 69, 70, 71, 72, 73, 74, 75, 76, 77, 78, 79, 80, 81, 82, 83, 84, 85, 86, 87, 88, 89, 90, 91, 92, 93, 94, 95, 96, 97, 98, 99, 100, 101, 102, 103, 104, 105, 106, 107, 108, 109, 110, 111, 112, 113, 114, 115, 116, 117, 118, 119, 120, 121, 122, 123, 124, 125, 126, 127, 128, 129, 130, 131, 132, 133, 134, 135, 136, 137, 138, 139, 140, 141, 142, 143, 144, 145, 146, 147, 148, 149, 150, 151, 152, 153, 154, 155, 156, 157, 158, 159, 160, 161, 162, 163, 164, 165, 166, 167, 168, 169, 170, 171, 172, 173, 174, 175, 176, 177, 178, 179, 180, 181, 182, 183, 184, 185, 186, 187, 188, 189, 190],
      "LargestImagePixelValue": [45498, 44505, 43863, 42979, 42934, 42665, 42678, 43351, 43264, 42486, 42654, 42409, 42256, 42513, 42992, 42710, 43011, 42829, 42889, 41992, 41826, 42661, 42990, 43195, 42302, 41834, 41457, 42102, 42590, 42606, 42155, 42341, 42787, 42542, 42474, 42650, 42757, 42257, 42457, 42485, 42175, 42832, 42670, 42295, 42799, 42377, 42537, 41646, 42111, 42246, 42862, 42148, 42517, 42798, 42540, 42328, 42090, 42918, 42273, 42769, 42520, 42479, 42708, 43135, 41474, 41440, 41921, 42216, 42672, 42583, 43005, 42824, 42659, 41652, 41887, 42458, 42609, 42844, 43002, 42848, 42717, 41676, 41617, 42358, 43030, 42759, 41527, 41790, 42419, 42265, 42721, 42660, 41561, 41998, 42175, 41799, 42123, 42925, 41502, 42796, 43404, 43382, 43998, 41698, 41166, 41647, 41678, 41842, 41911, 41877, 41609, 41781, 41672, 41574, 42121, 42232, 41367, 42762, 42582, 41711, 41629, 42237, 42393, 42347, 42236, 42348, 41820, 41213, 41357, 41797, 42103, 42071, 42066, 42284, 42352, 42111, 42334, 41218, 41900, 41785, 41790, 42282, 41989, 42780, 42939, 43148, 43249, 41892, 42539, 42342, 41289, 41782, 42222, 42700, 43910, 42608, 42941, 42810, 43444, 41892, 41918, 41329, 41985, 42673, 42386, 41915, 42245, 42199, 42820, 42418, 40980, 41574, 41946, 41783, 42784, 42725, 43060, 42345, 42520, 42796, 41464, 42726, 42630, 42368, 43248, 43337, 43178, 42997, 43937, 43749],
      "WindowCenter": [10447.0, 10399.0, 10384.0, 10367.0, 10363.0, 10367.0, 10373.0, 10396.0, 10417.0, 10416.0, 10392.0, 10387.0, 10380.0, 10381.0, 10381.0, 10377.0, 10393.0, 10408.0, 10401.0, 10359.0, 10336.0, 10333.0, 10356.0, 10409.0, 10394.0, 10390.0, 10382.0, 10378.0, 10332.0, 10288.0, 10273.0, 10286.0, 10302.0, 10321.0, 10350.0, 10382.0, 10406.0, 10387.0, 10362.0, 10347.0, 10346.0, 10369.0, 10383.0, 10371.0, 10355.0, 10340.0, 10341.0, 10345.0, 10361.0, 10358.0, 10362.0, 10383.0, 10393.0, 10408.0, 10387.0, 10366.0, 10349.0, 10351.0, 10337.0, 10349.0, 10375.0, 10396.0, 10407.0, 10401.0, 10364.0, 10343.0, 10355.0, 10362.0, 10368.0, 10361.0, 10359.0, 10367.0, 10376.0, 10352.0, 10349.0, 10345.0, 10349.0, 10355.0, 10351.0, 10344.0, 10351.0, 10363.0, 10365.0, 10362.0, 10364.0, 10371.0, 10381.0, 10373.0, 10352.0, 10330.0, 10326.0, 10337.0, 10346.0, 10369.0, 10377.0, 10351.0, 10339.0, 10338.0, 10327.0, 10346.0, 10361.0, 10385.0, 10416.0, 10369.0, 10329.0, 10301.0, 10294.0, 10312.0, 10305.0, 10267.0, 10241.0, 10267.0, 10288.0, 10307.0, 10321.0, 10330.0, 10343.0, 10376.0, 10393.0, 10385.0, 10369.0, 10348.0, 10328.0, 10321.0, 10329.0, 10347.0, 10363.0, 10355.0, 10339.0, 10332.0, 10335.0, 10338.0, 10354.0, 10360.0, 10353.0, 10345.0, 10345.0, 10348.0, 10345.0, 10344.0, 10343.0, 10353.0, 10355.0, 10367.0, 10365.0, 10366.0, 10352.0, 10322.0, 10319.0, 10325.0, 10325.0, 10327.0, 10310.0, 10298.0, 10324.0, 10341.0, 10337.0, 10328.0, 10349.0, 10347.0, 10379.0, 10378.0, 10369.0, 10357.0, 10313.0, 10263.0, 10252.0, 10292.0, 10350.0, 10365.0, 10339.0, 10322.0, 10318.0, 10325.0, 10353.0, 10383.0, 10410.0, 10384.0, 10353.0, 10339.0, 10331.0, 10357.0, 10351.0, 10359.0, 10364.0, 10357.0, 10359.0, 10346.0, 10344.0, 10336.0],
      "WindowWidth": [22668.0, 22521.0, 22463.0, 22409.0, 22393.0, 22399.0, 22412.0, 22457.0, 22506.0, 22509.0, 22456.0, 22441.0, 22423.0, 22424.0, 22419.0, 22407.0, 22441.0, 22480.0, 22468.0, 22375.0, 22325.0, 22318.0, 22368.0, 22492.0, 22464.0, 22454.0, 22426.0, 22409.0, 22304.0, 22199.0, 22171.0, 22198.0, 22237.0, 22282.0, 22349.0, 22424.0, 22481.0, 22440.0, 22380.0, 22340.0, 22335.0, 22387.0, 22425.0, 22401.0, 22361.0, 22330.0, 22329.0, 22346.0, 22381.0, 22375.0, 22379.0, 22430.0, 22452.0, 22485.0, 22439.0, 22392.0, 22354.0, 22354.0, 22323.0, 22348.0, 22412.0, 22460.0, 22490.0, 22471.0, 22391.0, 22343.0, 22366.0, 22381.0, 22392.0, 22378.0, 22374.0, 22392.0, 22414.0, 22367.0, 22358.0, 22346.0, 22354.0, 22365.0, 22355.0, 22341.0, 22356.0, 22385.0, 22392.0, 22383.0, 22385.0, 22401.0, 22431.0, 22413.0, 22357.0, 22308.0, 22295.0, 22324.0, 22350.0, 22399.0, 22416.0, 22360.0, 22332.0, 22326.0, 22306.0, 22345.0, 22374.0, 22431.0, 22505.0, 22406.0, 22310.0, 22241.0, 22223.0, 22265.0, 22251.0, 22164.0, 22103.0, 22162.0, 22214.0, 22259.0, 22289.0, 22314.0, 22346.0, 22412.0, 22451.0, 22441.0, 22404.0, 22351.0, 22299.0, 22285.0, 22304.0, 22349.0, 22385.0, 22376.0, 22336.0, 22316.0, 22319.0, 22330.0, 22366.0, 22377.0, 22362.0, 22344.0, 22340.0, 22354.0, 22345.0, 22342.0, 22341.0, 22360.0, 22365.0, 22393.0, 22385.0, 22388.0, 22347.0, 22293.0, 22283.0, 22300.0, 22306.0, 22303.0, 22266.0, 22232.0, 22287.0, 22334.0, 22326.0, 22303.0, 22347.0, 22352.0, 22431.0, 22438.0, 22400.0, 22366.0, 22268.0, 22152.0, 22128.0, 22218.0, 22350.0, 22390.0, 22339.0, 22298.0, 22284.0, 22301.0, 22361.0, 22428.0, 22491.0, 22435.0, 22363.0, 22329.0, 22314.0, 22370.0, 22359.0, 22377.0, 22387.0, 22372.0, 22377.0, 22350.0, 22340.0, 22322.0]
    },
    "slices": {}
  }
}