{
  "AcquisitionMatrixPE": 104,
  "AcquisitionNumber": 1,
  "AcquisitionTime": "15:26:35.990000",
  "BandwidthPerPixelPhaseEncode": 17.17,
  "BaseResolution": 104,
  "BodyPartExamined": "BRAIN",
  "CoilString": "HC1-7;NC1_2",
  "ConsistencyInfo": "N4_VE11C_LATEST_20160120",
  "ConversionSoftware": "dcm2niix",
  "ConversionSoftwareVersion": "v1.0.20190902",
  "DerivedVendorReportedEchoSpacing": 0.000560011,
  "DeviceSerialNumber": "167006",
  "DwellTime": 2.1e-06,
  "EchoTime": 0.037,
  "EchoTrainLength": 104,
  "EffectiveEchoSpacing": 0.000560011,
  "FlipAngle": 52,
  "ImageComments": "Unaliased_MB4_PE3_LB",
  "ImageOrientationPatientDICOM": [0.997576, -0.0668215, 0.019407, 0.0695824, 0.957221, -0.280868],
  "ImageType": [
    "ORIGINAL",
    "PRIMARY",
    "P",
    "MB",
    "ND",
    "MOSAIC"
],
  "ImagingFrequency": 123.259,
  "InPlanePhaseEncodingDirectionDICOM": "COL",
  "InstitutionAddress": "Chemin_Queen-Mary_4565_Montreal_District_CA_H3W_1W5",
  "InstitutionName": "IUGM",
  "InstitutionalDepartmentName": "Department",
  "MRAcquisitionType": "2D",
  "MagneticFieldStrength": 3,
  "Manufacturer": "Siemens",
  "ManufacturersModelName": "Prisma_fit",
  "Modality": "MR",
  "MultibandAccelerationFactor": 4,
  "PartialFourier": 1,
  "PatientPosition": "HFS",
  "PercentPhaseFOV": 100,
  "PhaseEncodingDirection": "j",
  "PhaseEncodingSteps": 104,
  "PhaseResolution": 1,
  "PixelBandwidth": 2290,
  "ProcedureStepDescription": "memory_things",
  "ProtocolName": "func_task-things_run-1",
  "PulseSequenceDetails": "%CustomerSeq%_cmrr_mbep2d_bold",
  "ReceiveCoilActiveElements": "HC1-7;NC1,2",
  "ReceiveCoilName": "HeadNeck_64",
  "ReconMatrixPE": 104,
  "RepetitionTime": 1.49,
  "SAR": 0.0448602,
  "ScanOptions": "FS",
  "ScanningSequence": "EP",
  "SequenceName": "epfid2d1_104",
  "SequenceVariant": "SK_SS",
  "SeriesDescription": "func_task-things_run-1",
  "SeriesNumber": 11,
  "ShimSetting": [629, -7264, -8782, 647, -23, -215, 2, -16],
  "SliceThickness": 2,
  "SliceTiming": [0, 0.7825, 0.0975, 0.88, 0.195, 0.98, 0.2925, 1.0775, 0.39, 1.175, 0.49, 1.2725, 0.5875, 1.37, 0.685, 0, 0.7825, 0.0975, 0.88, 0.195, 0.98, 0.2925, 1.0775, 0.39, 1.175, 0.49, 1.2725, 0.5875, 1.37, 0.685, 0, 0.7825, 0.0975, 0.88, 0.195, 0.98, 0.2925, 1.0775, 0.39, 1.175, 0.49, 1.2725, 0.5875, 1.37, 0.685, 0, 0.7825, 0.0975, 0.88, 0.195, 0.98, 0.2925, 1.0775, 0.39, 1.175, 0.49, 1.2725, 0.5875, 1.37, 0.685],
  "SoftwareVersions": "syngo_MR_E11",
  "SpacingBetweenSlices": 2,
  "StationName": "MRC35049",
  "TaskName": "things",
  "TotalReadoutTime": 0.0576811,
  "TxRefAmp": 262.018,
  "WipMemBlock": "fcd64f60-2c88-49c9-ae5f-3fc09636a82e||Sequence: R016 ve11c/master r/e634e98; Dec 19 2017 11:00:25 by eja",
  "dcmmeta_affine": [
    [-1.9951523542404175, 0.1391647309064865, -0.0003823584411293268, 99.87901306152344],
    [0.13364294171333313, 1.9144415855407715, -0.5630747079849243, -74.6865234375],
    [0.03881406784057617, 0.5617355108261108, 1.9191005229949951, -53.60455322265625],
    [0.0, 0.0, 0.0, 1.0]
],
  "dcmmeta_reorient_transform": [
    [0.0, -1.0, 0.0, 103.0],
    [1.0, 0.0, 0.0, 0.0],
    [0.0, 0.0, 1.0, 0.0],
    [0.0, 0.0, 0.0, 1.0]
],
  "dcmmeta_shape": [104, 104, 60, 190],
  "dcmmeta_slice_dim": 2,
  "dcmmeta_version": 0.6,
  "global": {
    "const": {
      "AcquisitionMatrix": [104, 0, 0, 104],
      "AngioFlag": "N",
      "BitsAllocated": 16,
      "BitsStored": 16,
      "BodyPartExamined": "BRAIN",
      "Columns": 832,
      "EchoNumbers": 1,
      "EchoTime": 37.0,
      "EchoTrainLength": 104,
      "FlipAngle": 52.0,
      "HighBit": 15,
      "ImageOrientationPatient": [0.99757619166961, -0.0668214698943, 0.01940703416618, 0.06958236317103, 0.95722077159696, -0.2808677431797],
      "ImagePositionPatient": [-891.1044113179, -770.71164452321, 194.59759627619],
      "ImageType": [
        "ORIGINAL",
        "PRIMARY",
        "P",
        "MB",
        "ND",
        "MOSAIC"
],
      "ImagedNucleus": "1H",
      "ImagingFrequency": 123.258865,
      "InPlanePhaseEncodingDirection": "COL",
      "LargestImagePixelValue": 4095,
      "MRAcquisitionType": "2D",
      "MagneticFieldStrength": 3.0,
      "Manufacturer": "SIEMENS",
      "ManufacturerModelName": "Prisma_fit",
      "Modality": "MR",
      "NumberOfAverages": 1.0,
      "NumberOfPhaseEncodingSteps": 104,
      "PercentPhaseFieldOfView": 100.0,
      "PercentSampling": 100.0,
      "PerformedProcedureStepStartTime": "150137.961000",
      "PhotometricInterpretation": "MONOCHROME2",
      "PixelBandwidth": 2290.0,
      "PixelRepresentation": 0,
      "PixelSpacing": [2.0, 2.0],
      "ProtocolName": "func_task-things_run-1",
      "RepetitionTime": 1490.0,
      "RescaleIntercept": -4096.0,
      "RescaleSlope": 2.0,
      "RescaleType": "US",
      "Rows": 832,
      "SAR": 0.04486017529863,
      "SamplesPerPixel": 1,
      "ScanOptions": "FS",
      "ScanningSequence": "EP",
      "SequenceName": "epfid2d1_104",
      "SequenceVariant": [
        "SK",
        "SS"
],
      "SeriesDescription": "func_task-things_run-1",
      "SeriesNumber": 11,
      "SeriesTime": "152808.040000",
      "SliceLocation": -30.428311359306,
      "SliceThickness": 2.0,
      "SmallestImagePixelValue": 0,
      "SoftwareVersions": "syngo MR E11",
      "SpacingBetweenSlices": 1.9999999984936,
      "SpecificCharacterSet": "ISO_IR 100",
      "StudyID": "1",
      "StudyTime": "150137.866000",
      "TransmitCoilName": "Body",
      "VariableFlipAngleFlag": "N",
      "WindowCenterWidthExplanation": "Algo1",
      "dBdt": 0.0},
    "slices": {}
  },
  "time": {
    "samples": {
      "AcquisitionNumber": [1, 2, 3, 4, 5, 6, 7, 8, 9, 10, 11, 12, 13, 14, 15, 16, 17, 18, 19, 20, 21, 22, 23, 24, 25, 26, 27, 28, 29, 30, 31, 32, 33, 34, 35, 36, 37, 38, 39, 40, 41, 42, 43, 44, 45, 46, 47, 48, 49, 50, 51, 52, 53, 54, 55, 56, 57, 58, 59, 60, 61, 62, 63, 64, 65, 66, 67, 68, 69, 70, 71, 72, 73, 74, 75, 76, 77, 78, 79, 80, 81, 82, 83, 84, 85, 86, 87, 88, 89, 90, 91, 92, 93, 94, 95, 96, 97, 98, 99, 100, 101, 102, 103, 104, 105, 106, 107, 108, 109, 110, 111, 112, 113, 114, 115, 116, 117, 118, 119, 120, 121, 122, 123, 124, 125, 126, 127, 128, 129, 130, 131, 132, 133, 134, 135, 136, 137, 138, 139, 140, 141, 142, 143, 144, 145, 146, 147, 148, 149, 150, 151, 152, 153, 154, 155, 156, 157, 158, 159, 160, 161, 162, 163, 164, 165, 166, 167, 168, 169, 170, 171, 172, 173, 174, 175, 176, 177, 178, 179, 180, 181, 182, 183, 184, 185, 186, 187, 188, 189, 190],
      "AcquisitionTime": ["152635.990000", "152637.480000", "152638.970000", "152640.460000", "152641.950000", "152643.440000", "152644.930000", "152646.420000", "152647.910000", "152649.400000", "152650.890000", "152652.380000", "152653.870000", "152655.360000", "152656.850000", "152658.340000", "152659.830000", "152701.320000", "152702.810000", "152704.300000", "152705.790000", "152707.280000", "152708.770000", "152710.260000", "152711.750000", "152713.240000", "152714.730000", "152716.220000", "152717.710000", "152719.200000", "152720.690000", "152722.180000", "152723.670000", "152725.160000", "152726.650000", "152728.140000", "152729.630000", "152731.120000", "152732.610000", "152734.100000", "152735.590000", "152737.080000", "152738.570000", "152740.060000", "152741.550000", "152743.040000", "152744.530000", "152746.020000", "152747.510000", "152749.000000", "152750.490000", "152751.980000", "152753.470000", "152754.960000", "152756.450000", "152757.940000", "152759.430000", "152800.920000", "152802.410000", "152803.900000", "152805.390000", "152806.880000", "152808.370000", "152809.860000", "152811.350000", "152812.840000", "152814.330000", "152815.820000", "152817.310000", "152818.800000", "152820.290000", "152821.780000", "152823.270000", "152824.760000", "152826.250000", "152827.740000", "152829.230000", "152830.720000", "152832.210000", "152833.700000", "152835.190000", "152836.680000", "152838.170000", "152839.660000", "152841.150000", "152842.640000", "152844.130000", "152845.620000", "152847.110000", "152848.600000", "152850.090000", "152851.580000", "152853.070000", "152854.560000", "152856.050000", "152857.540000", "152859.030000", "152900.520000", "152902.010000", "152903.500000", "152904.990000", "152906.480000", "152907.970000", "152909.460000", "152910.950000", "152912.440000", "152913.930000", "152915.420000", "152916.910000", "152918.400000", "152919.890000", "152921.380000", "152922.870000", "152924.360000", "152925.850000", "152927.340000", "152928.830000", "152930.320000", "152931.810000", "152933.300000", "152934.790000", "152936.280000", "152937.770000", "152939.260000", "152940.750000", "152942.240000", "152943.730000", "152945.220000", "152946.710000", "152948.200000", "152949.690000", "152951.180000", "152952.670000", "152954.160000", "152955.650000", "152957.140000", "152958.630000", "153000.120000", "153001.610000", "153003.100000", "153004.590000", "153006.080000", "153007.570000", "153009.060000", "153010.550000", "153012.040000", "153013.530000", "153015.020000", "153016.510000", "153018.000000", "153019.490000", "153020.980000", "153022.470000", "153023.960000", "153025.450000", "153026.940000", "153028.430000", "153029.920000", "153031.410000", "153032.900000", "153034.390000", "153035.880000", "153037.370000", "153038.860000", "153040.350000", "153041.840000", "153043.330000", "153044.820000", "153046.310000", "153047.800000", "153049.290000", "153050.780000", "153052.270000", "153053.760000", "153055.250000", "153056.740000", "153058.230000", "153059.720000", "153101.210000", "153102.700000", "153104.190000", "153105.680000", "153107.170000", "153108.660000", "153110.150000", "153111.640000", "153113.130000", "153114.620000", "153116.110000", "153117.600000"],
      "ContentTime": ["152808.042000", "152808.045000", "152808.047000", "152808.050000", "152808.052000", "152808.055000", "152808.057000", "152808.060000", "152808.062000", "152808.065000", "152808.067000", "152808.070000", "152808.072000", "152808.075000", "152808.077000", "152808.080000", "152808.082000", "152808.085000", "152808.087000", "152808.090000", "152808.092000", "152808.095000", "152808.097000", "152808.100000", "152808.102000", "152808.105000", "152808.107000", "152808.110000", "152808.112000", "152808.115000", "152808.117000", "152808.120000", "152808.122000", "152808.125000", "152808.130000", "152808.132000", "152808.135000", "152808.137000", "152808.140000", "152808.142000", "152827.941000", "152827.944000", "152827.947000", "152827.949000", "152827.952000", "152827.954000", "152827.956000", "152827.959000", "152827.961000", "152827.964000", "152827.966000", "152827.969000", "152827.971000", "152827.974000", "152827.976000", "152827.979000", "152827.981000", "152827.984000", "152827.987000", "152827.989000", "152847.906000", "152847.909000", "152847.911000", "152847.914000", "152847.916000", "152847.919000", "152847.921000", "152847.924000", "152847.926000", "152847.929000", "152847.931000", "152847.934000", "152847.936000", "152847.939000", "152847.941000", "152847.944000", "152847.947000", "152847.949000", "152847.952000", "152847.954000", "152907.900000", "152907.902000", "152907.905000", "152907.907000", "152907.910000", "152907.913000", "152907.915000", "152907.917000", "152907.920000", "152907.922000", "152907.925000", "152907.927000", "152907.930000", "152907.932000", "152907.935000", "152907.937000", "152907.940000", "152907.943000", "152907.945000", "152907.948000", "152907.950000", "152948.182000", "152948.185000", "152948.187000", "152948.190000", "152948.192000", "152948.195000", "152948.197000", "152948.200000", "152948.202000", "152948.205000", "152948.207000", "152948.210000", "152948.212000", "152948.215000", "152948.217000", "152948.220000", "152948.222000", "152948.225000", "152948.227000", "152948.230000", "152948.232000", "152948.235000", "152948.237000", "152948.240000", "152948.243000", "152948.245000", "152948.249000", "153027.910000", "153027.912000", "153027.915000", "153027.917000", "153027.920000", "153027.922000", "153027.925000", "153027.927000", "153027.930000", "153027.932000", "153027.935000", "153027.937000", "153027.940000", "153027.943000", "153027.945000", "153027.948000", "153027.950000", "153027.953000", "153027.955000", "153027.958000", "153027.960000", "153027.963000", "153027.965000", "153027.968000", "153027.970000", "153027.973000", "153027.975000", "153107.924000", "153107.927000", "153107.930000", "153107.932000", "153107.935000", "153107.937000", "153107.940000", "153107.942000", "153107.945000", "153107.947000", "153107.950000", "153107.952000", "153107.955000", "153107.957000", "153107.960000", "153107.962000", "153107.965000", "153107.967000", "153107.970000", "153107.972000", "153107.975000", "153107.978000", "153107.980000", "153107.983000", "153107.985000", "153107.988000", "153107.990000", "153119.411000", "153119.414000", "153119.416000", "153119.419000", "153119.421000", "153119.424000", "153119.426000", "153119.429000"],
      "InstanceCreationTime": ["152808.042000", "152808.045000", "152808.047000", "152808.050000", "152808.052000", "152808.055000", "152808.057000", "152808.060000", "152808.062000", "152808.065000", "152808.067000", "152808.070000", "152808.072000", "152808.075000", "152808.077000", "152808.080000", "152808.082000", "152808.085000", "152808.087000", "152808.090000", "152808.092000", "152808.095000", "152808.097000", "152808.100000", "152808.102000", "152808.105000", "152808.107000", "152808.110000", "152808.112000", "152808.115000", "152808.117000", "152808.120000", "152808.122000", "152808.125000", "152808.130000", "152808.132000", "152808.135000", "152808.137000", "152808.140000", "152808.142000", "152827.941000", "152827.944000", "152827.947000", "152827.949000", "152827.952000", "152827.954000", "152827.956000", "152827.959000", "152827.961000", "152827.964000", "152827.966000", "152827.969000", "152827.971000", "152827.974000", "152827.976000", "152827.979000", "152827.981000", "152827.984000", "152827.987000", "152827.989000", "152847.906000", "152847.909000", "152847.911000", "152847.914000", "152847.916000", "152847.919000", "152847.921000", "152847.924000", "152847.926000", "152847.929000", "152847.931000", "152847.934000", "152847.936000", "152847.939000", "152847.941000", "152847.944000", "152847.947000", "152847.949000", "152847.952000", "152847.954000", "152907.900000", "152907.902000", "152907.905000", "152907.907000", "152907.910000", "152907.913000", "152907.915000", "152907.917000", "152907.920000", "152907.922000", "152907.925000", "152907.927000", "152907.930000", "152907.932000", "152907.935000", "152907.937000", "152907.940000", "152907.943000", "152907.945000", "152907.948000", "152907.950000", "152948.182000", "152948.185000", "152948.187000", "152948.190000", "152948.192000", "152948.195000", "152948.197000", "152948.200000", "152948.202000", "152948.205000", "152948.207000", "152948.210000", "152948.212000", "152948.215000", "152948.217000", "152948.220000", "152948.222000", "152948.225000", "152948.227000", "152948.230000", "152948.232000", "152948.235000", "152948.237000", "152948.240000", "152948.243000", "152948.245000", "152948.249000", "153027.910000", "153027.912000", "153027.915000", "153027.917000", "153027.920000", "153027.922000", "153027.925000", "153027.927000", "153027.930000", "153027.932000", "153027.935000", "153027.937000", "153027.940000", "153027.943000", "153027.945000", "153027.948000", "153027.950000", "153027.953000", "153027.955000", "153027.958000", "153027.960000", "153027.963000", "153027.965000", "153027.968000", "153027.970000", "153027.973000", "153027.975000", "153107.924000", "153107.927000", "153107.930000", "153107.932000", "153107.935000", "153107.937000", "153107.940000", "153107.942000", "153107.945000", "153107.947000", "153107.950000", "153107.952000", "153107.955000", "153107.957000", "153107.960000", "153107.962000", "153107.965000", "153107.967000", "153107.970000", "153107.972000", "153107.975000", "153107.978000", "153107.980000", "153107.983000", "153107.985000", "153107.988000", "153107.990000", "153119.411000", "153119.414000", "153119.416000", "153119.419000", "153119.421000", "153119.424000", "153119.426000", "153119.429000"],
      "InstanceNumber": [1, 2, 3, 4, 5, 6, 7, 8, 9, 10, 11, 12, 13, 14, 15, 16, 17, 18, 19, 20, 21, 22, 23, 24, 25, 26, 27, 28, 29, 30, 31, 32, 33, 34, 35, 36, 37, 38, 39, 40, 41, 42, 43, 44, 45, 46, 47, 48, 49, 50, 51, 52, 53, 54, 55, 56, 57, 58, 59, 60, 61, 62, 63, 64, 65, 66, 67, 68, 69, 70, 71, 72, 73, 74, 75, 76, 77, 78, 79, 80, 81, 82, 83, 84, 85, 86, 87, 88, 89, 90, 91, 92, 93, 94, 95, 96, 97, 98, 99, 100, 101, 102, 103, 104, 105, 106, 107, 108, 109, 110, 111, 112, 113, 114, 115, 116, 117, 118, 119, 120, 121, 122, 123, 124, 125, 126, 127, 128, 129, 130, 131, 132, 133, 134, 135, 136, 137, 138, 139, 140, 141, 142, 143, 144, 145, 146, 147, 148, 149, 150, 151, 152, 153, 154, 155, 156, 157, 158, 159, 160, 161, 162, 163, 164, 165, 166, 167, 168, 169, 170, 171, 172, 173, 174, 175, 176, 177, 178, 179, 180, 181, 182, 183, 184, 185, 186, 187, 188, 189, 190],
      "WindowCenter": [4840.0, 4868.0, 4870.0, 4846.0, 4840.0, 4834.0, 4840.0, 4834.0, 4836.0, 4866.0, 4844.0, 4810.0, 4844.0, 4804.0, 4838.0, 4836.0, 4840.0, 4840.0, 4834.0, 4840.0, 4802.0, 4834.0, 4804.0, 4836.0, 4832.0, 4800.0, 4842.0, 4844.0, 4840.0, 4840.0, 4836.0, 4836.0, 4834.0, 4804.0, 4836.0, 4832.0, 4838.0, 4840.0, 4834.0, 4842.0, 4808.0, 4806.0, 4834.0, 4810.0, 4834.0, 4808.0, 4840.0, 4804.0, 4812.0, 4810.0, 4812.0, 4868.0, 4812.0, 4840.0, 4832.0, 4800.0, 4836.0, 4832.0, 4836.0, 4836.0, 4810.0, 4840.0, 4810.0, 4836.0, 4806.0, 4834.0, 4836.0, 4814.0, 4840.0, 4834.0, 4806.0, 4800.0, 4838.0, 4834.0, 4842.0, 4810.0, 4812.0, 4840.0, 4810.0, 4840.0, 4808.0, 4834.0, 4840.0, 4808.0, 4800.0, 4840.0, 4842.0, 4844.0, 4848.0, 4834.0, 4840.0, 4804.0, 4808.0, 4804.0, 4834.0, 4806.0, 4776.0, 4836.0, 4848.0, 4848.0, 4872.0, 4840.0, 4840.0, 4804.0, 4806.0, 4802.0, 4808.0, 4838.0, 4840.0, 4842.0, 4844.0, 4808.0, 4840.0, 4842.0, 4838.0, 4836.0, 4804.0, 4812.0, 4814.0, 4808.0, 4834.0, 4802.0, 4844.0, 4836.0, 4832.0, 4838.0, 4838.0, 4808.0, 4812.0, 4808.0, 4810.0, 4808.0, 4812.0, 4844.0, 4808.0, 4842.0, 4830.0, 4804.0, 4832.0, 4806.0, 4836.0, 4802.0, 4806.0, 4782.0, 4776.0, 4844.0, 4870.0, 4872.0, 4846.0, 4838.0, 4802.0, 4802.0, 4806.0, 4780.0, 4810.0, 4836.0, 4836.0, 4844.0, 4804.0, 4774.0, 4814.0, 4836.0, 4808.0, 4832.0, 4840.0, 4834.0, 4806.0, 4806.0, 4836.0, 4806.0, 4830.0, 4810.0, 4832.0, 4806.0, 4806.0, 4778.0, 4776.0, 4772.0, 4774.0, 4840.0, 4870.0, 4872.0, 4810.0, 4802.0, 4802.0, 4800.0, 4804.0, 4800.0, 4776.0, 4832.0],
      "WindowWidth": [18650.0, 18676.0, 18680.0, 18648.0, 18646.0, 18638.0, 18640.0, 18640.0, 18644.0, 18680.0, 18648.0, 18602.0, 18648.0, 18600.0, 18644.0, 18646.0, 18648.0, 18646.0, 18644.0, 18646.0, 18598.0, 18638.0, 18600.0, 18640.0, 18636.0, 18598.0, 18646.0, 18646.0, 18648.0, 18646.0, 18638.0, 18640.0, 18642.0, 18598.0, 18638.0, 18640.0, 18642.0, 18644.0, 18638.0, 18646.0, 18608.0, 18604.0, 18638.0, 18606.0, 18642.0, 18604.0, 18646.0, 18598.0, 18606.0, 18608.0, 18608.0, 18682.0, 18602.0, 18642.0, 18634.0, 18596.0, 18642.0, 18636.0, 18640.0, 18648.0, 18606.0, 18642.0, 18608.0, 18636.0, 18596.0, 18636.0, 18640.0, 18610.0, 18646.0, 18636.0, 18602.0, 18596.0, 18644.0, 18638.0, 18648.0, 18608.0, 18608.0, 18646.0, 18608.0, 18640.0, 18600.0, 18642.0, 18642.0, 18600.0, 18592.0, 18644.0, 18640.0, 18650.0, 18652.0, 18636.0, 18638.0, 18598.0, 18602.0, 18594.0, 18634.0, 18598.0, 18566.0, 18644.0, 18652.0, 18650.0, 18678.0, 18636.0, 18642.0, 18594.0, 18600.0, 18596.0, 18596.0, 18640.0, 18644.0, 18646.0, 18644.0, 18600.0, 18644.0, 18642.0, 18640.0, 18638.0, 18596.0, 18606.0, 18604.0, 18600.0, 18638.0, 18600.0, 18646.0, 18638.0, 18636.0, 18642.0, 18638.0, 18600.0, 18604.0, 18606.0, 18602.0, 18598.0, 18600.0, 18640.0, 18604.0, 18640.0, 18632.0, 18600.0, 18630.0, 18596.0, 18626.0, 18592.0, 18604.0, 18576.0, 18566.0, 18648.0, 18680.0, 18680.0, 18650.0, 18644.0, 18596.0, 18596.0, 18596.0, 18566.0, 18602.0, 18638.0, 18644.0, 18650.0, 18604.0, 18560.0, 18604.0, 18638.0, 18600.0, 18632.0, 18640.0, 18636.0, 18600.0, 18598.0, 18640.0, 18602.0, 18632.0, 18606.0, 18632.0, 18600.0, 18596.0, 18572.0, 18568.0, 18562.0, 18564.0, 18644.0, 18682.0, 18686.0, 18604.0, 18598.0, 18596.0, 18598.0, 18600.0, 18604.0, 18566.0, 18640.0]
    },
    "slices": {}
  }
}