{
  "AcquisitionMatrixPE": 104,
  "AcquisitionNumber": 1,
  "AcquisitionTime": "15:56:55.967500",
  "BandwidthPerPixelPhaseEncode": 17.17,
  "BaseResolution": 104,
  "BodyPartExamined": "BRAIN",
  "CoilString": "HC1-7;NC1_2",
  "ConsistencyInfo": "N4_VE11C_LATEST_20160120",
  "ConversionSoftware": "dcm2niix",
  "ConversionSoftwareVersion": "v1.0.20190902",
  "DerivedVendorReportedEchoSpacing": 0.000560011,
  "DeviceSerialNumber": "167006",
  "DwellTime": 2.1e-06,
  "EchoTime": 0.037,
  "EchoTrainLength": 104,
  "EffectiveEchoSpacing": 0.000560011,
  "FlipAngle": 52,
  "ImageComments": "Unaliased_MB4_PE3_LB",
  "ImageOrientationPatientDICOM": [0.997576, -0.0668215, 0.019407, 0.0695824, 0.957221, -0.280868],
  "ImageType": [
    "ORIGINAL",
    "PRIMARY",
    "P",
    "MB",
    "ND",
    "MOSAIC"
],
  "ImagingFrequency": 123.259,
  "InPlanePhaseEncodingDirectionDICOM": "COL",
  "InstitutionAddress": "Chemin_Queen-Mary_4565_Montreal_District_CA_H3W_1W5",
  "InstitutionName": "IUGM",
  "InstitutionalDepartmentName": "Department",
  "MRAcquisitionType": "2D",
  "MagneticFieldStrength": 3,
  "Manufacturer": "Siemens",
  "ManufacturersModelName": "Prisma_fit",
  "Modality": "MR",
  "MultibandAccelerationFactor": 4,
  "PartialFourier": 1,
  "PatientPosition": "HFS",
  "PercentPhaseFOV": 100,
  "PhaseEncodingDirection": "j",
  "PhaseEncodingSteps": 104,
  "PhaseResolution": 1,
  "PixelBandwidth": 2290,
  "ProcedureStepDescription": "memory_things",
  "ProtocolName": "func_task-things_run-5",
  "PulseSequenceDetails": "%CustomerSeq%_cmrr_mbep2d_bold",
  "ReceiveCoilActiveElements": "HC1-7;NC1,2",
  "ReceiveCoilName": "HeadNeck_64",
  "ReconMatrixPE": 104,
  "RepetitionTime": 1.49,
  "SAR": 0.0448602,
  "ScanOptions": "FS",
  "ScanningSequence": "EP",
  "SequenceName": "epfid2d1_104",
  "SequenceVariant": "SK_SS",
  "SeriesDescription": "func_task-things_run-5",
  "SeriesNumber": 29,
  "ShimSetting": [629, -7264, -8782, 647, -23, -215, 2, -16],
  "SliceThickness": 2,
  "SliceTiming": [0, 0.785, 0.0975, 0.8825, 0.195, 0.98, 0.295, 1.0775, 0.3925, 1.175, 0.49, 1.275, 0.5875, 1.3725, 0.685, 0, 0.785, 0.0975, 0.8825, 0.195, 0.98, 0.295, 1.0775, 0.3925, 1.175, 0.49, 1.275, 0.5875, 1.3725, 0.685, 0, 0.785, 0.0975, 0.8825, 0.195, 0.98, 0.295, 1.0775, 0.3925, 1.175, 0.49, 1.275, 0.5875, 1.3725, 0.685, 0, 0.785, 0.0975, 0.8825, 0.195, 0.98, 0.295, 1.0775, 0.3925, 1.175, 0.49, 1.275, 0.5875, 1.3725, 0.685],
  "SoftwareVersions": "syngo_MR_E11",
  "SpacingBetweenSlices": 2,
  "StationName": "MRC35049",
  "TaskName": "things",
  "TotalReadoutTime": 0.0576811,
  "TxRefAmp": 262.018,
  "WipMemBlock": "cc6762ef-58bd-42ee-ab53-babc791e37ed||Sequence: R016 ve11c/master r/e634e98; Dec 19 2017 11:00:25 by eja",
  "dcmmeta_affine": [
    [-1.9951523542404175, 0.1391647309064865, -0.0003823584411293268, 99.87901306152344],
    [0.13364294171333313, 1.9144415855407715, -0.5630747079849243, -74.6865234375],
    [0.03881406784057617, 0.5617355108261108, 1.9191005229949951, -53.60455322265625],
    [0.0, 0.0, 0.0, 1.0]
],
  "dcmmeta_reorient_transform": [
    [0.0, -1.0, 0.0, 103.0],
    [1.0, 0.0, 0.0, 0.0],
    [0.0, 0.0, 1.0, 0.0],
    [0.0, 0.0, 0.0, 1.0]
],
  "dcmmeta_shape": [104, 104, 60, 190],
  "dcmmeta_slice_dim": 2,
  "dcmmeta_version": 0.6,
  "global": {
    "const": {
      "AcquisitionMatrix": [104, 0, 0, 104],
      "AngioFlag": "N",
      "BitsAllocated": 16,
      "BitsStored": 16,
      "BodyPartExamined": "BRAIN",
      "Columns": 832,
      "EchoNumbers": 1,
      "EchoTime": 37.0,
      "EchoTrainLength": 104,
      "FlipAngle": 52.0,
      "HighBit": 15,
      "ImageOrientationPatient": [0.99757619166961, -0.0668214698943, 0.01940703416618, 0.06958236317103, 0.95722077159696, -0.2808677431797],
      "ImagePositionPatient": [-891.1044113179, -770.71164452321, 194.59759627619],
      "ImageType": [
        "ORIGINAL",
        "PRIMARY",
        "P",
        "MB",
        "ND",
        "MOSAIC"
],
      "ImagedNucleus": "1H",
      "ImagingFrequency": 123.258876,
      "InPlanePhaseEncodingDirection": "COL",
      "LargestImagePixelValue": 4095,
      "MRAcquisitionType": "2D",
      "MagneticFieldStrength": 3.0,
      "Manufacturer": "SIEMENS",
      "ManufacturerModelName": "Prisma_fit",
      "Modality": "MR",
      "NumberOfAverages": 1.0,
      "NumberOfPhaseEncodingSteps": 104,
      "PercentPhaseFieldOfView": 100.0,
      "PercentSampling": 100.0,
      "PerformedProcedureStepStartTime": "150137.961000",
      "PhotometricInterpretation": "MONOCHROME2",
      "PixelBandwidth": 2290.0,
      "PixelRepresentation": 0,
      "PixelSpacing": [2.0, 2.0],
      "ProtocolName": "func_task-things_run-5",
      "RepetitionTime": 1490.0,
      "RescaleIntercept": -4096.0,
      "RescaleSlope": 2.0,
      "RescaleType": "US",
      "Rows": 832,
      "SAR": 0.04486017529863,
      "SamplesPerPixel": 1,
      "ScanOptions": "FS",
      "ScanningSequence": "EP",
      "SequenceName": "epfid2d1_104",
      "SequenceVariant": [
        "SK",
        "SS"
],
      "SeriesDescription": "func_task-things_run-5",
      "SeriesNumber": 29,
      "SeriesTime": "155828.008000",
      "SliceLocation": -30.428311359306,
      "SliceThickness": 2.0,
      "SmallestImagePixelValue": 0,
      "SoftwareVersions": "syngo MR E11",
      "SpacingBetweenSlices": 1.9999999984936,
      "SpecificCharacterSet": "ISO_IR 100",
      "StudyID": "1",
      "StudyTime": "150137.866000",
      "TransmitCoilName": "Body",
      "VariableFlipAngleFlag": "N",
      "WindowCenterWidthExplanation": "Algo1",
      "dBdt": 0.0},
    "slices": {}
  },
  "time": {
    "samples": {
      "AcquisitionNumber": [1, 2, 3, 4, 5, 6, 7, 8, 9, 10, 11, 12, 13, 14, 15, 16, 17, 18, 19, 20, 21, 22, 23, 24, 25, 26, 27, 28, 29, 30, 31, 32, 33, 34, 35, 36, 37, 38, 39, 40, 41, 42, 43, 44, 45, 46, 47, 48, 49, 50, 51, 52, 53, 54, 55, 56, 57, 58, 59, 60, 61, 62, 63, 64, 65, 66, 67, 68, 69, 70, 71, 72, 73, 74, 75, 76, 77, 78, 79, 80, 81, 82, 83, 84, 85, 86, 87, 88, 89, 90, 91, 92, 93, 94, 95, 96, 97, 98, 99, 100, 101, 102, 103, 104, 105, 106, 107, 108, 109, 110, 111, 112, 113, 114, 115, 116, 117, 118, 119, 120, 121, 122, 123, 124, 125, 126, 127, 128, 129, 130, 131, 132, 133, 134, 135, 136, 137, 138, 139, 140, 141, 142, 143, 144, 145, 146, 147, 148, 149, 150, 151, 152, 153, 154, 155, 156, 157, 158, 159, 160, 161, 162, 163, 164, 165, 166, 167, 168, 169, 170, 171, 172, 173, 174, 175, 176, 177, 178, 179, 180, 181, 182, 183, 184, 185, 186, 187, 188, 189, 190],
      "AcquisitionTime": ["155655.967500", "155657.457500", "155658.947500", "155700.437500", "155701.927500", "155703.417500", "155704.907500", "155706.397500", "155707.887500", "155709.377500", "155710.867500", "155712.357500", "155713.847500", "155715.337500", "155716.827500", "155718.317500", "155719.807500", "155721.297500", "155722.787500", "155724.277500", "155725.767500", "155727.257500", "155728.747500", "155730.237500", "155731.727500", "155733.217500", "155734.707500", "155736.197500", "155737.687500", "155739.177500", "155740.667500", "155742.157500", "155743.647500", "155745.137500", "155746.627500", "155748.117500", "155749.607500", "155751.097500", "155752.587500", "155754.077500", "155755.567500", "155757.057500", "155758.547500", "155800.037500", "155801.527500", "155803.017500", "155804.507500", "155805.997500", "155807.487500", "155808.977500", "155810.467500", "155811.957500", "155813.447500", "155814.937500", "155816.427500", "155817.917500", "155819.407500", "155820.897500", "155822.387500", "155823.877500", "155825.367500", "155826.857500", "155828.347500", "155829.837500", "155831.327500", "155832.817500", "155834.307500", "155835.797500", "155837.287500", "155838.777500", "155840.267500", "155841.757500", "155843.247500", "155844.737500", "155846.227500", "155847.717500", "155849.207500", "155850.697500", "155852.187500", "155853.677500", "155855.167500", "155856.657500", "155858.147500", "155859.637500", "155901.127500", "155902.617500", "155904.107500", "155905.597500", "155907.087500", "155908.577500", "155910.067500", "155911.557500", "155913.047500", "155914.537500", "155916.027500", "155917.517500", "155919.007500", "155920.497500", "155921.987500", "155923.477500", "155924.967500", "155926.457500", "155927.947500", "155929.437500", "155930.927500", "155932.417500", "155933.907500", "155935.397500", "155936.887500", "155938.377500", "155939.867500", "155941.357500", "155942.847500", "155944.337500", "155945.827500", "155947.317500", "155948.807500", "155950.297500", "155951.787500", "155953.277500", "155954.767500", "155956.257500", "155957.747500", "155959.237500", "160000.727500", "160002.217500", "160003.707500", "160005.197500", "160006.687500", "160008.177500", "160009.667500", "160011.157500", "160012.647500", "160014.137500", "160015.627500", "160017.117500", "160018.607500", "160020.097500", "160021.587500", "160023.077500", "160024.567500", "160026.057500", "160027.547500", "160029.037500", "160030.527500", "160032.017500", "160033.507500", "160034.997500", "160036.487500", "160037.977500", "160039.467500", "160040.957500", "160042.447500", "160043.937500", "160045.427500", "160046.917500", "160048.407500", "160049.897500", "160051.387500", "160052.877500", "160054.367500", "160055.857500", "160057.347500", "160058.837500", "160100.327500", "160101.817500", "160103.307500", "160104.797500", "160106.287500", "160107.777500", "160109.267500", "160110.757500", "160112.247500", "160113.737500", "160115.227500", "160116.717500", "160118.207500", "160119.697500", "160121.187500", "160122.677500", "160124.167500", "160125.657500", "160127.147500", "160128.637500", "160130.127500", "160131.617500", "160133.107500", "160134.597500", "160136.087500", "160137.577500"],
      "ContentTime": ["155828.010000", "155828.013000", "155828.015000", "155828.018000", "155828.020000", "155828.023000", "155828.025000", "155828.028000", "155828.030000", "155828.033000", "155828.036000", "155828.038000", "155828.041000", "155828.043000", "155828.046000", "155828.048000", "155828.051000", "155828.053000", "155828.056000", "155828.058000", "155828.061000", "155828.063000", "155828.066000", "155828.068000", "155828.071000", "155828.073000", "155828.076000", "155828.078000", "155828.081000", "155828.083000", "155828.086000", "155828.088000", "155828.091000", "155828.093000", "155828.096000", "155828.098000", "155828.101000", "155847.893000", "155847.895000", "155847.898000", "155847.900000", "155847.903000", "155847.905000", "155847.912000", "155847.914000", "155847.917000", "155847.920000", "155847.922000", "155847.925000", "155847.927000", "155847.930000", "155847.932000", "155847.935000", "155847.937000", "155847.940000", "155847.942000", "155847.945000", "155907.891000", "155907.894000", "155907.897000", "155907.900000", "155907.904000", "155907.906000", "155907.909000", "155907.912000", "155907.914000", "155907.917000", "155907.919000", "155907.922000", "155907.924000", "155907.927000", "155907.930000", "155907.932000", "155907.935000", "155907.937000", "155907.940000", "155907.942000", "155927.902000", "155927.905000", "155927.907000", "155927.910000", "155927.912000", "155927.915000", "155927.917000", "155927.920000", "155927.922000", "155927.925000", "155927.927000", "155927.930000", "155927.932000", "155927.935000", "155927.937000", "155927.940000", "155927.942000", "155927.945000", "155927.947000", "155927.950000", "160007.973000", "160007.976000", "160007.979000", "160007.981000", "160007.984000", "160007.986000", "160007.989000", "160007.991000", "160007.994000", "160007.996000", "160008.000000", "160008.003000", "160008.005000", "160008.008000", "160008.010000", "160008.013000", "160008.015000", "160008.018000", "160008.020000", "160008.023000", "160008.025000", "160008.028000", "160008.030000", "160008.033000", "160008.035000", "160008.038000", "160008.040000", "160008.043000", "160008.045000", "160008.048000", "160008.050000", "160047.929000", "160047.932000", "160047.934000", "160047.937000", "160047.940000", "160047.943000", "160047.945000", "160047.948000", "160047.950000", "160047.953000", "160047.955000", "160047.958000", "160047.960000", "160047.963000", "160047.965000", "160047.968000", "160047.971000", "160047.973000", "160047.976000", "160047.978000", "160047.981000", "160047.983000", "160047.986000", "160047.988000", "160047.991000", "160047.993000", "160107.876000", "160107.879000", "160107.881000", "160107.884000", "160107.886000", "160107.889000", "160107.891000", "160107.894000", "160107.896000", "160107.899000", "160107.901000", "160107.904000", "160107.906000", "160107.909000", "160140.104000", "160140.107000", "160140.110000", "160140.112000", "160140.115000", "160140.117000", "160140.120000", "160140.123000", "160140.125000", "160140.128000", "160140.131000", "160140.133000", "160140.136000", "160140.138000", "160140.141000", "160140.143000", "160140.146000", "160140.149000", "160140.151000", "160140.154000", "160140.156000", "160140.159000"],
      "InstanceCreationTime": ["155828.010000", "155828.013000", "155828.015000", "155828.018000", "155828.020000", "155828.023000", "155828.025000", "155828.028000", "155828.030000", "155828.033000", "155828.036000", "155828.038000", "155828.041000", "155828.043000", "155828.046000", "155828.048000", "155828.051000", "155828.053000", "155828.056000", "155828.058000", "155828.061000", "155828.063000", "155828.066000", "155828.068000", "155828.071000", "155828.073000", "155828.076000", "155828.078000", "155828.081000", "155828.083000", "155828.086000", "155828.088000", "155828.091000", "155828.093000", "155828.096000", "155828.098000", "155828.101000", "155847.893000", "155847.895000", "155847.898000", "155847.900000", "155847.903000", "155847.905000", "155847.912000", "155847.914000", "155847.917000", "155847.920000", "155847.922000", "155847.925000", "155847.927000", "155847.930000", "155847.932000", "155847.935000", "155847.937000", "155847.940000", "155847.942000", "155847.945000", "155907.891000", "155907.894000", "155907.897000", "155907.900000", "155907.904000", "155907.906000", "155907.909000", "155907.912000", "155907.914000", "155907.917000", "155907.919000", "155907.922000", "155907.924000", "155907.927000", "155907.930000", "155907.932000", "155907.935000", "155907.937000", "155907.940000", "155907.942000", "155927.902000", "155927.905000", "155927.907000", "155927.910000", "155927.912000", "155927.915000", "155927.917000", "155927.920000", "155927.922000", "155927.925000", "155927.927000", "155927.930000", "155927.932000", "155927.935000", "155927.937000", "155927.940000", "155927.942000", "155927.945000", "155927.947000", "155927.950000", "160007.973000", "160007.976000", "160007.979000", "160007.981000", "160007.984000", "160007.986000", "160007.989000", "160007.991000", "160007.994000", "160007.996000", "160008.000000", "160008.003000", "160008.005000", "160008.008000", "160008.010000", "160008.013000", "160008.015000", "160008.018000", "160008.020000", "160008.023000", "160008.025000", "160008.028000", "160008.030000", "160008.033000", "160008.035000", "160008.038000", "160008.040000", "160008.043000", "160008.045000", "160008.048000", "160008.050000", "160047.929000", "160047.932000", "160047.934000", "160047.937000", "160047.940000", "160047.943000", "160047.945000", "160047.948000", "160047.950000", "160047.953000", "160047.955000", "160047.958000", "160047.960000", "160047.963000", "160047.965000", "160047.968000", "160047.971000", "160047.973000", "160047.976000", "160047.978000", "160047.981000", "160047.983000", "160047.986000", "160047.988000", "160047.991000", "160047.993000", "160107.876000", "160107.879000", "160107.881000", "160107.884000", "160107.886000", "160107.889000", "160107.891000", "160107.894000", "160107.896000", "160107.899000", "160107.901000", "160107.904000", "160107.906000", "160107.909000", "160140.104000", "160140.107000", "160140.110000", "160140.112000", "160140.115000", "160140.117000", "160140.120000", "160140.123000", "160140.125000", "160140.128000", "160140.131000", "160140.133000", "160140.136000", "160140.138000", "160140.141000", "160140.143000", "160140.146000", "160140.149000", "160140.151000", "160140.154000", "160140.156000", "160140.159000"],
      "InstanceNumber": [1, 2, 3, 4, 5, 6, 7, 8, 9, 10, 11, 12, 13, 14, 15, 16, 17, 18, 19, 20, 21, 22, 23, 24, 25, 26, 27, 28, 29, 30, 31, 32, 33, 34, 35, 36, 37, 38, 39, 40, 41, 42, 43, 44, 45, 46, 47, 48, 49, 50, 51, 52, 53, 54, 55, 56, 57, 58, 59, 60, 61, 62, 63, 64, 65, 66, 67, 68, 69, 70, 71, 72, 73, 74, 75, 76, 77, 78, 79, 80, 81, 82, 83, 84, 85, 86, 87, 88, 89, 90, 91, 92, 93, 94, 95, 96, 97, 98, 99, 100, 101, 102, 103, 104, 105, 106, 107, 108, 109, 110, 111, 112, 113, 114, 115, 116, 117, 118, 119, 120, 121, 122, 123, 124, 125, 126, 127, 128, 129, 130, 131, 132, 133, 134, 135, 136, 137, 138, 139, 140, 141, 142, 143, 144, 145, 146, 147, 148, 149, 150, 151, 152, 153, 154, 155, 156, 157, 158, 159, 160, 161, 162, 163, 164, 165, 166, 167, 168, 169, 170, 171, 172, 173, 174, 175, 176, 177, 178, 179, 180, 181, 182, 183, 184, 185, 186, 187, 188, 189, 190],
      "WindowCenter": [4776.0, 4808.0, 4810.0, 4778.0, 4800.0, 4800.0, 4806.0, 4802.0, 4774.0, 4780.0, 4802.0, 4806.0, 4806.0, 4778.0, 4774.0, 4802.0, 4778.0, 4776.0, 4778.0, 4808.0, 4810.0, 4776.0, 4806.0, 4836.0, 4836.0, 4808.0, 4800.0, 4808.0, 4820.0, 4782.0, 4800.0, 4806.0, 4810.0, 4778.0, 4802.0, 4800.0, 4778.0, 4810.0, 4784.0, 4774.0, 4802.0, 4800.0, 4778.0, 4802.0, 4780.0, 4822.0, 4814.0, 4778.0, 4848.0, 4872.0, 4848.0, 4838.0, 4802.0, 4804.0, 4808.0, 4812.0, 4806.0, 4800.0, 4808.0, 4806.0, 4776.0, 4800.0, 4836.0, 4812.0, 4776.0, 4774.0, 4800.0, 4798.0, 4800.0, 4800.0, 4802.0, 4802.0, 4798.0, 4800.0, 4778.0, 4804.0, 4804.0, 4778.0, 4802.0, 4804.0, 4776.0, 4778.0, 4798.0, 4778.0, 4804.0, 4804.0, 4802.0, 4776.0, 4798.0, 4780.0, 4778.0, 4776.0, 4776.0, 4776.0, 4776.0, 4774.0, 4812.0, 4810.0, 4802.0, 4804.0, 4800.0, 4776.0, 4802.0, 4802.0, 4776.0, 4804.0, 4778.0, 4808.0, 4780.0, 4778.0, 4780.0, 4802.0, 4806.0, 4780.0, 4786.0, 4808.0, 4804.0, 4800.0, 4778.0, 4800.0, 4776.0, 4778.0, 4802.0, 4800.0, 4778.0, 4804.0, 4804.0, 4778.0, 4774.0, 4800.0, 4780.0, 4778.0, 4778.0, 4780.0, 4776.0, 4776.0, 4806.0, 4802.0, 4800.0, 4806.0, 4778.0, 4778.0, 4810.0, 4800.0, 4802.0, 4802.0, 4802.0, 4802.0, 4776.0, 4804.0, 4778.0, 4780.0, 4776.0, 4776.0, 4780.0, 4782.0, 4780.0, 4778.0, 4778.0, 4810.0, 4820.0, 4802.0, 4810.0, 4836.0, 4836.0, 4836.0, 4806.0, 4780.0, 4804.0, 4812.0, 4826.0, 4818.0, 4776.0, 4834.0, 4842.0, 4840.0, 4804.0, 4780.0, 4810.0, 4820.0, 4818.0, 4806.0, 4800.0, 4778.0, 4808.0, 4806.0, 4778.0, 4778.0, 4802.0, 4814.0],
      "WindowWidth": [18562.0, 18604.0, 18602.0, 18562.0, 18592.0, 18594.0, 18608.0, 18598.0, 18564.0, 18564.0, 18592.0, 18600.0, 18596.0, 18556.0, 18554.0, 18596.0, 18560.0, 18562.0, 18556.0, 18604.0, 18608.0, 18566.0, 18600.0, 18640.0, 18638.0, 18600.0, 18590.0, 18602.0, 18620.0, 18570.0, 18592.0, 18596.0, 18602.0, 18560.0, 18592.0, 18590.0, 18560.0, 18606.0, 18568.0, 18560.0, 18590.0, 18588.0, 18562.0, 18592.0, 18568.0, 18616.0, 18612.0, 18562.0, 18654.0, 18686.0, 18652.0, 18638.0, 18584.0, 18586.0, 18602.0, 18608.0, 18600.0, 18588.0, 18594.0, 18592.0, 18564.0, 18596.0, 18640.0, 18604.0, 18570.0, 18560.0, 18592.0, 18590.0, 18590.0, 18594.0, 18596.0, 18594.0, 18594.0, 18590.0, 18564.0, 18594.0, 18596.0, 18566.0, 18594.0, 18594.0, 18562.0, 18562.0, 18588.0, 18566.0, 18594.0, 18590.0, 18590.0, 18558.0, 18588.0, 18564.0, 18564.0, 18560.0, 18554.0, 18562.0, 18560.0, 18554.0, 18612.0, 18614.0, 18598.0, 18596.0, 18588.0, 18562.0, 18594.0, 18592.0, 18560.0, 18602.0, 18562.0, 18606.0, 18566.0, 18558.0, 18556.0, 18590.0, 18596.0, 18560.0, 18566.0, 18608.0, 18602.0, 18594.0, 18570.0, 18594.0, 18554.0, 18562.0, 18592.0, 18594.0, 18564.0, 18604.0, 18604.0, 18560.0, 18556.0, 18590.0, 18566.0, 18566.0, 18566.0, 18564.0, 18564.0, 18560.0, 18606.0, 18596.0, 18594.0, 18594.0, 18560.0, 18564.0, 18606.0, 18596.0, 18596.0, 18598.0, 18594.0, 18594.0, 18562.0, 18590.0, 18564.0, 18566.0, 18558.0, 18556.0, 18570.0, 18568.0, 18564.0, 18560.0, 18556.0, 18608.0, 18616.0, 18596.0, 18602.0, 18644.0, 18642.0, 18640.0, 18594.0, 18562.0, 18600.0, 18612.0, 18612.0, 18620.0, 18556.0, 18632.0, 18646.0, 18648.0, 18598.0, 18560.0, 18606.0, 18616.0, 18618.0, 18602.0, 18590.0, 18558.0, 18600.0, 18598.0, 18564.0, 18558.0, 18590.0, 18614.0]
    },
    "slices": {}
  }
}