{
  "AcquisitionMatrixPE": 104,
  "AcquisitionNumber": 1,
  "AcquisitionTime": "15:32:46.220000",
  "BandwidthPerPixelPhaseEncode": 17.17,
  "BaseResolution": 104,
  "BodyPartExamined": "BRAIN",
  "CoilString": "HC1-7;NC1_2",
  "ConsistencyInfo": "N4_VE11C_LATEST_20160120",
  "ConversionSoftware": "dcm2niix",
  "ConversionSoftwareVersion": "v1.0.20190902",
  "DerivedVendorReportedEchoSpacing": 0.000560011,
  "DeviceSerialNumber": "167006",
  "DwellTime": 2.1e-06,
  "EchoTime": 0.037,
  "EchoTrainLength": 104,
  "EffectiveEchoSpacing": 0.000560011,
  "FlipAngle": 52,
  "ImageComments": "Unaliased_MB4_PE3_LB",
  "ImageOrientationPatientDICOM": [0.997576, -0.0668215, 0.019407, 0.0695824, 0.957221, -0.280868],
  "ImageType": [
    "ORIGINAL",
    "PRIMARY",
    "M",
    "MB",
    "ND",
    "MOSAIC"
],
  "ImagingFrequency": 123.259,
  "InPlanePhaseEncodingDirectionDICOM": "COL",
  "InstitutionAddress": "Chemin_Queen-Mary_4565_Montreal_District_CA_H3W_1W5",
  "InstitutionName": "IUGM",
  "InstitutionalDepartmentName": "Department",
  "MRAcquisitionType": "2D",
  "MagneticFieldStrength": 3,
  "Manufacturer": "Siemens",
  "ManufacturersModelName": "Prisma_fit",
  "Modality": "MR",
  "MultibandAccelerationFactor": 4,
  "PartialFourier": 1,
  "PatientPosition": "HFS",
  "PercentPhaseFOV": 100,
  "PhaseEncodingDirection": "j",
  "PhaseEncodingSteps": 104,
  "PhaseResolution": 1,
  "PixelBandwidth": 2290,
  "ProcedureStepDescription": "memory_things",
  "ProtocolName": "func_task-things_run-2",
  "PulseSequenceDetails": "%CustomerSeq%_cmrr_mbep2d_bold",
  "ReceiveCoilActiveElements": "HC1-7;NC1,2",
  "ReceiveCoilName": "HeadNeck_64",
  "ReconMatrixPE": 104,
  "RepetitionTime": 1.49,
  "SAR": 0.0448602,
  "ScanOptions": "FS",
  "ScanningSequence": "EP",
  "SequenceName": "epfid2d1_104",
  "SequenceVariant": "SK_SS",
  "SeriesDescription": "func_task-things_run-2",
  "SeriesNumber": 13,
  "ShimSetting": [629, -7264, -8782, 647, -23, -215, 2, -16],
  "SliceThickness": 2,
  "SliceTiming": [0, 0.785, 0.0975, 0.8825, 0.195, 0.98, 0.295, 1.0775, 0.3925, 1.175, 0.49, 1.275, 0.5875, 1.3725, 0.685, 0, 0.785, 0.0975, 0.8825, 0.195, 0.98, 0.295, 1.0775, 0.3925, 1.175, 0.49, 1.275, 0.5875, 1.3725, 0.685, 0, 0.785, 0.0975, 0.8825, 0.195, 0.98, 0.295, 1.0775, 0.3925, 1.175, 0.49, 1.275, 0.5875, 1.3725, 0.685, 0, 0.785, 0.0975, 0.8825, 0.195, 0.98, 0.295, 1.0775, 0.3925, 1.175, 0.49, 1.275, 0.5875, 1.3725, 0.685],
  "SoftwareVersions": "syngo_MR_E11",
  "SpacingBetweenSlices": 2,
  "StationName": "MRC35049",
  "TaskName": "things",
  "TotalReadoutTime": 0.0576811,
  "TxRefAmp": 262.018,
  "WipMemBlock": "d388f396-0ffd-43c3-8933-e592d6fa9c38||Sequence: R016 ve11c/master r/e634e98; Dec 19 2017 11:00:25 by eja",
  "dcmmeta_affine": [
    [-1.9951523542404175, 0.1391647309064865, -0.0003823584411293268, 99.87901306152344],
    [0.13364294171333313, 1.9144415855407715, -0.5630747079849243, -74.6865234375],
    [0.03881406784057617, 0.5617355108261108, 1.9191005229949951, -53.60455322265625],
    [0.0, 0.0, 0.0, 1.0]
],
  "dcmmeta_reorient_transform": [
    [0.0, -1.0, 0.0, 103.0],
    [1.0, 0.0, 0.0, 0.0],
    [0.0, 0.0, 1.0, 0.0],
    [0.0, 0.0, 0.0, 1.0]
],
  "dcmmeta_shape": [104, 104, 60, 190],
  "dcmmeta_slice_dim": 2,
  "dcmmeta_version": 0.6,
  "global": {
    "const": {
      "AcquisitionMatrix": [104, 0, 0, 104],
      "AngioFlag": "N",
      "BitsAllocated": 16,
      "BitsStored": 16,
      "BodyPartExamined": "BRAIN",
      "Columns": 832,
      "EchoNumbers": 1,
      "EchoTime": 37.0,
      "EchoTrainLength": 104,
      "FlipAngle": 52.0,
      "HighBit": 15,
      "ImageOrientationPatient": [0.99757619166961, -0.0668214698943, 0.01940703416618, 0.06958236317103, 0.95722077159696, -0.2808677431797],
      "ImagePositionPatient": [-891.1044113179, -770.71164452321, 194.59759627619],
      "ImageType": [
        "ORIGINAL",
        "PRIMARY",
        "M",
        "MB",
        "ND",
        "MOSAIC"
],
      "ImagedNucleus": "1H",
      "ImagingFrequency": 123.258871,
      "InPlanePhaseEncodingDirection": "COL",
      "MRAcquisitionType": "2D",
      "MagneticFieldStrength": 3.0,
      "Manufacturer": "SIEMENS",
      "ManufacturerModelName": "Prisma_fit",
      "Modality": "MR",
      "NumberOfAverages": 1.0,
      "NumberOfPhaseEncodingSteps": 104,
      "PercentPhaseFieldOfView": 100.0,
      "PercentSampling": 100.0,
      "PerformedProcedureStepStartTime": "150137.961000",
      "PhotometricInterpretation": "MONOCHROME2",
      "PixelBandwidth": 2290.0,
      "PixelRepresentation": 0,
      "PixelSpacing": [2.0, 2.0],
      "ProtocolName": "func_task-things_run-2",
      "RepetitionTime": 1490.0,
      "Rows": 832,
      "SAR": 0.04486017529863,
      "SamplesPerPixel": 1,
      "ScanOptions": "FS",
      "ScanningSequence": "EP",
      "SequenceName": "epfid2d1_104",
      "SequenceVariant": [
        "SK",
        "SS"
],
      "SeriesDescription": "func_task-things_run-2",
      "SeriesNumber": 13,
      "SeriesTime": "153417.653000",
      "SliceLocation": -30.428311359306,
      "SliceThickness": 2.0,
      "SmallestImagePixelValue": 0,
      "SoftwareVersions": "syngo MR E11",
      "SpacingBetweenSlices": 1.9999999984936,
      "SpecificCharacterSet": "ISO_IR 100",
      "StudyID": "1",
      "StudyTime": "150137.866000",
      "TransmitCoilName": "Body",
      "VariableFlipAngleFlag": "N",
      "WindowCenterWidthExplanation": "Algo1",
      "dBdt": 0.0},
    "slices": {}
  },
  "time": {
    "samples": {
      "AcquisitionNumber": [1, 2, 3, 4, 5, 6, 7, 8, 9, 10, 11, 12, 13, 14, 15, 16, 17, 18, 19, 20, 21, 22, 23, 24, 25, 26, 27, 28, 29, 30, 31, 32, 33, 34, 35, 36, 37, 38, 39, 40, 41, 42, 43, 44, 45, 46, 47, 48, 49, 50, 51, 52, 53, 54, 55, 56, 57, 58, 59, 60, 61, 62, 63, 64, 65, 66, 67, 68, 69, 70, 71, 72, 73, 74, 75, 76, 77, 78, 79, 80, 81, 82, 83, 84, 85, 86, 87, 88, 89, 90, 91, 92, 93, 94, 95, 96, 97, 98, 99, 100, 101, 102, 103, 104, 105, 106, 107, 108, 109, 110, 111, 112, 113, 114, 115, 116, 117, 118, 119, 120, 121, 122, 123, 124, 125, 126, 127, 128, 129, 130, 131, 132, 133, 134, 135, 136, 137, 138, 139, 140, 141, 142, 143, 144, 145, 146, 147, 148, 149, 150, 151, 152, 153, 154, 155, 156, 157, 158, 159, 160, 161, 162, 163, 164, 165, 166, 167, 168, 169, 170, 171, 172, 173, 174, 175, 176, 177, 178, 179, 180, 181, 182, 183, 184, 185, 186, 187, 188, 189, 190],
      "AcquisitionTime": ["153246.220000", "153247.710000", "153249.200000", "153250.690000", "153252.180000", "153253.670000", "153255.160000", "153256.650000", "153258.140000", "153259.630000", "153301.120000", "153302.610000", "153304.100000", "153305.590000", "153307.080000", "153308.570000", "153310.060000", "153311.550000", "153313.040000", "153314.530000", "153316.020000", "153317.510000", "153319.000000", "153320.490000", "153321.980000", "153323.470000", "153324.960000", "153326.450000", "153327.940000", "153329.430000", "153330.920000", "153332.410000", "153333.900000", "153335.390000", "153336.880000", "153338.370000", "153339.860000", "153341.350000", "153342.840000", "153344.330000", "153345.820000", "153347.310000", "153348.800000", "153350.290000", "153351.780000", "153353.270000", "153354.760000", "153356.250000", "153357.740000", "153359.230000", "153400.720000", "153402.210000", "153403.700000", "153405.190000", "153406.680000", "153408.170000", "153409.660000", "153411.150000", "153412.640000", "153414.130000", "153415.620000", "153417.110000", "153418.600000", "153420.090000", "153421.580000", "153423.070000", "153424.560000", "153426.050000", "153427.540000", "153429.030000", "153430.520000", "153432.010000", "153433.500000", "153434.990000", "153436.480000", "153437.970000", "153439.460000", "153440.950000", "153442.440000", "153443.930000", "153445.420000", "153446.910000", "153448.400000", "153449.890000", "153451.380000", "153452.870000", "153454.360000", "153455.850000", "153457.340000", "153458.830000", "153500.320000", "153501.810000", "153503.300000", "153504.790000", "153506.280000", "153507.770000", "153509.260000", "153510.750000", "153512.240000", "153513.730000", "153515.220000", "153516.710000", "153518.200000", "153519.690000", "153521.180000", "153522.670000", "153524.160000", "153525.650000", "153527.140000", "153528.630000", "153530.120000", "153531.610000", "153533.100000", "153534.590000", "153536.080000", "153537.570000", "153539.060000", "153540.550000", "153542.040000", "153543.530000", "153545.020000", "153546.510000", "153548.000000", "153549.490000", "153550.980000", "153552.470000", "153553.960000", "153555.450000", "153556.940000", "153558.430000", "153559.920000", "153601.410000", "153602.900000", "153604.390000", "153605.880000", "153607.370000", "153608.860000", "153610.350000", "153611.840000", "153613.330000", "153614.820000", "153616.310000", "153617.800000", "153619.290000", "153620.780000", "153622.270000", "153623.760000", "153625.250000", "153626.740000", "153628.230000", "153629.720000", "153631.210000", "153632.700000", "153634.190000", "153635.680000", "153637.170000", "153638.660000", "153640.150000", "153641.640000", "153643.130000", "153644.620000", "153646.110000", "153647.600000", "153649.090000", "153650.580000", "153652.070000", "153653.560000", "153655.050000", "153656.540000", "153658.030000", "153659.520000", "153701.010000", "153702.500000", "153703.990000", "153705.480000", "153706.970000", "153708.460000", "153709.950000", "153711.440000", "153712.930000", "153714.420000", "153715.910000", "153717.400000", "153718.890000", "153720.380000", "153721.870000", "153723.360000", "153724.850000", "153726.340000", "153727.830000"],
      "ContentTime": ["153417.656000", "153417.660000", "153417.663000", "153417.666000", "153417.670000", "153417.673000", "153417.676000", "153417.680000", "153417.683000", "153417.686000", "153417.698000", "153417.702000", "153417.705000", "153417.708000", "153417.712000", "153417.715000", "153417.718000", "153417.722000", "153417.725000", "153417.728000", "153417.732000", "153417.735000", "153417.738000", "153417.742000", "153417.745000", "153417.748000", "153417.752000", "153417.755000", "153417.758000", "153417.762000", "153417.765000", "153417.769000", "153417.772000", "153417.775000", "153417.779000", "153417.782000", "153417.786000", "153437.628000", "153437.632000", "153437.635000", "153437.639000", "153437.642000", "153437.645000", "153437.648000", "153437.652000", "153437.655000", "153437.658000", "153437.662000", "153437.665000", "153437.668000", "153437.671000", "153437.675000", "153437.678000", "153437.681000", "153437.685000", "153437.688000", "153437.691000", "153457.628000", "153457.632000", "153457.650000", "153457.653000", "153457.657000", "153457.660000", "153457.663000", "153457.667000", "153457.670000", "153457.673000", "153457.677000", "153457.680000", "153457.683000", "153457.687000", "153457.690000", "153457.693000", "153457.696000", "153457.700000", "153457.703000", "153457.707000", "153517.628000", "153517.632000", "153517.635000", "153517.638000", "153517.642000", "153517.645000", "153517.648000", "153517.652000", "153517.655000", "153517.658000", "153517.662000", "153517.665000", "153517.668000", "153517.672000", "153517.675000", "153517.678000", "153517.682000", "153517.685000", "153517.688000", "153517.692000", "153517.695000", "153557.629000", "153557.633000", "153557.636000", "153557.639000", "153557.643000", "153557.646000", "153557.649000", "153557.653000", "153557.656000", "153557.659000", "153557.663000", "153557.666000", "153557.669000", "153557.673000", "153557.676000", "153557.679000", "153557.683000", "153557.686000", "153557.689000", "153557.693000", "153557.696000", "153557.699000", "153557.703000", "153557.706000", "153557.709000", "153557.713000", "153557.716000", "153557.719000", "153557.723000", "153557.726000", "153637.628000", "153637.632000", "153637.635000", "153637.639000", "153637.642000", "153637.646000", "153637.650000", "153637.653000", "153637.656000", "153637.660000", "153637.663000", "153637.666000", "153637.670000", "153637.673000", "153637.677000", "153637.680000", "153637.683000", "153637.687000", "153637.690000", "153637.693000", "153637.697000", "153637.700000", "153637.704000", "153637.707000", "153637.710000", "153637.714000", "153717.628000", "153717.632000", "153717.635000", "153717.638000", "153717.642000", "153717.645000", "153717.649000", "153717.652000", "153717.655000", "153717.659000", "153717.662000", "153717.665000", "153717.669000", "153717.681000", "153717.685000", "153717.688000", "153717.692000", "153717.695000", "153717.698000", "153717.701000", "153717.705000", "153717.708000", "153717.712000", "153717.715000", "153717.718000", "153717.722000", "153717.725000", "153729.997000", "153730.001000", "153730.005000", "153730.008000", "153730.011000", "153730.015000", "153730.018000", "153730.021000", "153730.025000"],
      "InstanceCreationTime": ["153417.656000", "153417.660000", "153417.663000", "153417.666000", "153417.670000", "153417.673000", "153417.676000", "153417.680000", "153417.683000", "153417.686000", "153417.698000", "153417.702000", "153417.705000", "153417.708000", "153417.712000", "153417.715000", "153417.718000", "153417.722000", "153417.725000", "153417.728000", "153417.732000", "153417.735000", "153417.738000", "153417.742000", "153417.745000", "153417.748000", "153417.752000", "153417.755000", "153417.758000", "153417.762000", "153417.765000", "153417.769000", "153417.772000", "153417.775000", "153417.779000", "153417.782000", "153417.786000", "153437.628000", "153437.632000", "153437.635000", "153437.639000", "153437.642000", "153437.645000", "153437.648000", "153437.652000", "153437.655000", "153437.658000", "153437.662000", "153437.665000", "153437.668000", "153437.671000", "153437.675000", "153437.678000", "153437.681000", "153437.685000", "153437.688000", "153437.691000", "153457.628000", "153457.632000", "153457.650000", "153457.653000", "153457.657000", "153457.660000", "153457.663000", "153457.667000", "153457.670000", "153457.673000", "153457.677000", "153457.680000", "153457.683000", "153457.687000", "153457.690000", "153457.693000", "153457.696000", "153457.700000", "153457.703000", "153457.707000", "153517.628000", "153517.632000", "153517.635000", "153517.638000", "153517.642000", "153517.645000", "153517.648000", "153517.652000", "153517.655000", "153517.658000", "153517.662000", "153517.665000", "153517.668000", "153517.672000", "153517.675000", "153517.678000", "153517.682000", "153517.685000", "153517.688000", "153517.692000", "153517.695000", "153557.629000", "153557.633000", "153557.636000", "153557.639000", "153557.643000", "153557.646000", "153557.649000", "153557.653000", "153557.656000", "153557.659000", "153557.663000", "153557.666000", "153557.669000", "153557.673000", "153557.676000", "153557.679000", "153557.683000", "153557.686000", "153557.689000", "153557.693000", "153557.696000", "153557.699000", "153557.703000", "153557.706000", "153557.709000", "153557.713000", "153557.716000", "153557.719000", "153557.723000", "153557.726000", "153637.628000", "153637.632000", "153637.635000", "153637.639000", "153637.642000", "153637.646000", "153637.650000", "153637.653000", "153637.656000", "153637.660000", "153637.663000", "153637.666000", "153637.670000", "153637.673000", "153637.677000", "153637.680000", "153637.683000", "153637.687000", "153637.690000", "153637.693000", "153637.697000", "153637.700000", "153637.704000", "153637.707000", "153637.710000", "153637.714000", "153717.628000", "153717.632000", "153717.635000", "153717.638000", "153717.642000", "153717.645000", "153717.649000", "153717.652000", "153717.655000", "153717.659000", "153717.662000", "153717.665000", "153717.669000", "153717.681000", "153717.685000", "153717.688000", "153717.692000", "153717.695000", "153717.698000", "153717.701000", "153717.705000", "153717.708000", "153717.712000", "153717.715000", "153717.718000", "153717.722000", "153717.725000", "153729.997000", "153730.001000", "153730.005000", "153730.008000", "153730.011000", "153730.015000", "153730.018000", "153730.021000", "153730.025000"],
      "InstanceNumber": [1, 2, 3, 4, 5, 6, 7, 8, 9, 10, 11, 12, 13, 14, 15, 16, 17, 18, 19, 20, 21, 22, 23, 24, 25, 26, 27, 28, 29, 30, 31, 32, 33, 34, 35, 36, 37, 38, 39, 40, 41, 42, 43, 44, 45, 46, 47, 48, 49, 50, 51, 52, 53, 54, 55, 56, 57, 58, 59, 60, 61, 62, 63, 64, 65, 66, 67, 68, 69, 70, 71, 72, 73, 74, 75, 76, 77, 78, 79, 80, 81, 82, 83, 84, 85, 86, 87, 88, 89, 90, 91, 92, 93, 94, 95, 96, 97, 98, 99, 100, 101, 102, 103, 104, 105, 106, 107, 108, 109, 110, 111, 112, 113, 114, 115, 116, 117, 118, 119, 120, 121, 122, 123, 124, 125, 126, 127, 128, 129, 130, 131, 132, 133, 134, 135, 136, 137, 138, 139, 140, 141, 142, 143, 144, 145, 146, 147, 148, 149, 150, 151, 152, 153, 154, 155, 156, 157, 158, 159, 160, 161, 162, 163, 164, 165, 166, 167, 168, 169, 170, 171, 172, 173, 174, 175, 176, 177, 178, 179, 180, 181, 182, 183, 184, 185, 186, 187, 188, 189, 190],
      "LargestImagePixelValue": [43073, 42087, 41306, 40623, 40342, 40081, 40056, 39999, 39827, 40038, 39685, 40146, 40303, 40037, 40344, 40111, 39962, 39756, 39963, 39771, 39872, 39990, 40298, 39814, 40776, 39409, 39743, 39894, 39991, 40522, 40977, 39969, 40252, 40345, 40175, 40045, 40162, 39587, 39693, 39699, 40297, 41081, 40060, 40319, 40020, 39812, 40010, 39657, 39953, 40340, 39998, 40109, 39844, 40186, 39859, 40221, 40009, 40015, 40108, 40314, 39489, 39854, 39835, 40095, 39977, 40071, 39889, 40023, 39699, 39672, 39950, 39900, 40344, 39936, 39871, 39784, 39782, 40206, 39921, 39898, 40203, 40054, 40167, 39501, 39522, 39817, 39695, 39965, 39981, 39758, 39800, 39927, 39761, 40068, 39907, 39660, 40117, 39860, 40056, 39917, 39703, 39706, 40251, 40385, 40261, 40422, 40527, 40459, 40415, 40199, 40379, 40556, 40354, 40590, 40243, 40303, 39774, 40461, 40084, 40326, 40402, 40474, 40308, 40620, 40485, 40763, 40747, 40502, 40566, 40786, 40508, 40329, 40398, 40487, 40777, 40305, 41467, 40794, 41426, 41154, 41437, 41057, 41198, 41122, 41174, 41261, 41210, 41133, 41198, 41283, 40735, 41647, 40987, 41458, 41098, 40866, 41172, 41032, 41740, 41550, 41452, 41480, 41646, 41514, 41178, 41179, 41109, 41411, 41275, 41610, 41742, 41584, 41761, 41518, 41370, 41818, 41552, 41445, 41110, 41124, 40735, 41266, 41652, 41290, 41003, 41130, 40799, 41688, 41296, 41466],
      "WindowCenter": [10403.0, 10350.0, 10321.0, 10317.0, 10333.0, 10359.0, 10367.0, 10367.0, 10362.0, 10374.0, 10371.0, 10383.0, 10389.0, 10382.0, 10398.0, 10414.0, 10418.0, 10383.0, 10369.0, 10368.0, 10365.0, 10355.0, 10359.0, 10373.0, 10394.0, 10388.0, 10370.0, 10357.0, 10362.0, 10389.0, 10377.0, 10335.0, 10313.0, 10295.0, 10283.0, 10291.0, 10321.0, 10353.0, 10348.0, 10331.0, 10346.0, 10381.0, 10397.0, 10387.0, 10361.0, 10342.0, 10349.0, 10356.0, 10349.0, 10354.0, 10352.0, 10352.0, 10341.0, 10332.0, 10333.0, 10338.0, 10340.0, 10341.0, 10332.0, 10345.0, 10343.0, 10349.0, 10364.0, 10404.0, 10399.0, 10378.0, 10355.0, 10334.0, 10318.0, 10318.0, 10330.0, 10339.0, 10339.0, 10330.0, 10326.0, 10336.0, 10353.0, 10350.0, 10334.0, 10326.0, 10321.0, 10324.0, 10358.0, 10379.0, 10362.0, 10343.0, 10342.0, 10356.0, 10351.0, 10338.0, 10321.0, 10311.0, 10311.0, 10317.0, 10338.0, 10351.0, 10352.0, 10341.0, 10332.0, 10339.0, 10349.0, 10366.0, 10376.0, 10373.0, 10368.0, 10366.0, 10367.0, 10360.0, 10351.0, 10342.0, 10347.0, 10348.0, 10359.0, 10365.0, 10346.0, 10321.0, 10304.0, 10313.0, 10324.0, 10340.0, 10353.0, 10337.0, 10319.0, 10321.0, 10316.0, 10311.0, 10308.0, 10314.0, 10309.0, 10314.0, 10337.0, 10358.0, 10359.0, 10349.0, 10361.0, 10369.0, 10399.0, 10395.0, 10398.0, 10374.0, 10340.0, 10314.0, 10298.0, 10295.0, 10302.0, 10306.0, 10328.0, 10332.0, 10354.0, 10377.0, 10376.0, 10405.0, 10407.0, 10409.0, 10392.0, 10384.0, 10379.0, 10373.0, 10370.0, 10380.0, 10360.0, 10341.0, 10328.0, 10337.0, 10339.0, 10330.0, 10322.0, 10327.0, 10351.0, 10374.0, 10377.0, 10370.0, 10360.0, 10362.0, 10341.0, 10344.0, 10358.0, 10380.0, 10376.0, 10348.0, 10342.0, 10369.0, 10378.0, 10350.0, 10321.0, 10318.0, 10317.0, 10316.0, 10320.0, 10329.0],
      "WindowWidth": [22547.0, 22386.0, 22298.0, 22277.0, 22304.0, 22358.0, 22377.0, 22372.0, 22362.0, 22385.0, 22382.0, 22409.0, 22417.0, 22406.0, 22440.0, 22478.0, 22489.0, 22409.0, 22375.0, 22371.0, 22365.0, 22345.0, 22353.0, 22383.0, 22432.0, 22426.0, 22381.0, 22347.0, 22353.0, 22417.0, 22395.0, 22299.0, 22240.0, 22204.0, 22173.0, 22194.0, 22257.0, 22333.0, 22323.0, 22285.0, 22316.0, 22394.0, 22440.0, 22414.0, 22353.0, 22309.0, 22323.0, 22339.0, 22325.0, 22332.0, 22330.0, 22331.0, 22307.0, 22287.0, 22290.0, 22301.0, 22306.0, 22306.0, 22289.0, 22314.0, 22315.0, 22329.0, 22361.0, 22457.0, 22444.0, 22395.0, 22342.0, 22292.0, 22256.0, 22254.0, 22280.0, 22303.0, 22303.0, 22283.0, 22275.0, 22298.0, 22336.0, 22328.0, 22291.0, 22272.0, 22261.0, 22270.0, 22346.0, 22398.0, 22358.0, 22312.0, 22309.0, 22339.0, 22332.0, 22302.0, 22263.0, 22240.0, 22238.0, 22254.0, 22300.0, 22331.0, 22333.0, 22304.0, 22286.0, 22300.0, 22327.0, 22363.0, 22386.0, 22377.0, 22364.0, 22362.0, 22362.0, 22347.0, 22325.0, 22307.0, 22316.0, 22319.0, 22347.0, 22358.0, 22318.0, 22262.0, 22221.0, 22238.0, 22266.0, 22300.0, 22332.0, 22296.0, 22254.0, 22257.0, 22251.0, 22238.0, 22230.0, 22240.0, 22231.0, 22243.0, 22292.0, 22345.0, 22346.0, 22321.0, 22347.0, 22370.0, 22433.0, 22433.0, 22438.0, 22383.0, 22300.0, 22240.0, 22205.0, 22196.0, 22209.0, 22221.0, 22270.0, 22285.0, 22334.0, 22387.0, 22390.0, 22450.0, 22460.0, 22457.0, 22423.0, 22401.0, 22389.0, 22379.0, 22368.0, 22392.0, 22349.0, 22304.0, 22275.0, 22293.0, 22300.0, 22277.0, 22264.0, 22272.0, 22325.0, 22378.0, 22387.0, 22371.0, 22345.0, 22350.0, 22306.0, 22312.0, 22343.0, 22395.0, 22386.0, 22318.0, 22310.0, 22372.0, 22388.0, 22324.0, 22260.0, 22251.0, 22249.0, 22249.0, 22256.0, 22276.0]
    },
    "slices": {}
  }
}