{
  "AcquisitionMatrixPE": 104,
  "AcquisitionNumber": 1,
  "AcquisitionTime": "11:28:38.722500",
  "BandwidthPerPixelPhaseEncode": 17.17,
  "BaseResolution": 104,
  "BodyPartExamined": "BRAIN",
  "CoilString": "HC1-7;NC1_2",
  "ConsistencyInfo": "N4_VE11C_LATEST_20160120",
  "ConversionSoftware": "dcm2niix",
  "ConversionSoftwareVersion": "v1.0.20190902",
  "DerivedVendorReportedEchoSpacing": 0.000560011,
  "DeviceSerialNumber": "167006",
  "DwellTime": 2.1e-06,
  "EchoTime": 0.037,
  "EchoTrainLength": 104,
  "EffectiveEchoSpacing": 0.000560011,
  "FlipAngle": 52,
  "ImageComments": "Unaliased_MB4_PE3_LB",
  "ImageOrientationPatientDICOM": [0.99996, 0.00557458, -0.00696002, -0.00837746, 0.854716, -0.519028],
  "ImageType": [
    "ORIGINAL",
    "PRIMARY",
    "M",
    "MB",
    "ND",
    "MOSAIC"
],
  "ImagingFrequency": 123.259,
  "InPlanePhaseEncodingDirectionDICOM": "COL",
  "InstitutionAddress": "Chemin_Queen-Mary_4565_Montreal_District_CA_H3W_1W5",
  "InstitutionName": "IUGM",
  "InstitutionalDepartmentName": "Department",
  "MRAcquisitionType": "2D",
  "MagneticFieldStrength": 3,
  "Manufacturer": "Siemens",
  "ManufacturersModelName": "Prisma_fit",
  "Modality": "MR",
  "MultibandAccelerationFactor": 4,
  "PartialFourier": 1,
  "PatientPosition": "HFS",
  "PercentPhaseFOV": 100,
  "PhaseEncodingDirection": "j",
  "PhaseEncodingSteps": 104,
  "PhaseResolution": 1,
  "PixelBandwidth": 2290,
  "ProcedureStepDescription": "memory_things",
  "ProtocolName": "func_task-things_run-6",
  "PulseSequenceDetails": "%CustomerSeq%_cmrr_mbep2d_bold",
  "ReceiveCoilActiveElements": "HC1-7;NC1,2",
  "ReceiveCoilName": "HeadNeck_64",
  "ReconMatrixPE": 104,
  "RepetitionTime": 1.49,
  "SAR": 0.0406783,
  "ScanOptions": "FS",
  "ScanningSequence": "EP",
  "SequenceName": "epfid2d1_104",
  "SequenceVariant": "SK_SS",
  "SeriesDescription": "func_task-things_run-6",
  "SeriesNumber": 28,
  "ShimSetting": [620, -7181, -8872, 305, 29, -119, -69, -31],
  "SliceThickness": 2,
  "SliceTiming": [0, 0.785, 0.0975, 0.8825, 0.1975, 0.98, 0.295, 1.0775, 0.3925, 1.1775, 0.49, 1.275, 0.5875, 1.3725, 0.6875, 0, 0.785, 0.0975, 0.8825, 0.1975, 0.98, 0.295, 1.0775, 0.3925, 1.1775, 0.49, 1.275, 0.5875, 1.3725, 0.6875, 0, 0.785, 0.0975, 0.8825, 0.1975, 0.98, 0.295, 1.0775, 0.3925, 1.1775, 0.49, 1.275, 0.5875, 1.3725, 0.6875, 0, 0.785, 0.0975, 0.8825, 0.1975, 0.98, 0.295, 1.0775, 0.3925, 1.1775, 0.49, 1.275, 0.5875, 1.3725, 0.6875],
  "SoftwareVersions": "syngo_MR_E11",
  "SpacingBetweenSlices": 2,
  "StationName": "MRC35049",
  "TaskName": "things",
  "TotalReadoutTime": 0.0576811,
  "TxRefAmp": 250.499,
  "WipMemBlock": "f3c7ff2c-0ff8-40fb-a727-441e3afb90aa||Sequence: R016 ve11c/master r/e634e98; Dec 19 2017 11:00:25 by eja",
  "dcmmeta_affine": [
    [-1.9999204874038696, -0.016754915937781334, -0.006110960617661476, 108.19764709472656],
    [-0.011149153113365173, 1.709432601928711, -1.0381309986114502, -50.060203552246094],
    [-0.013920036144554615, 1.038055658340454, 1.7094579935073853, -93.79600524902344],
    [0.0, 0.0, 0.0, 1.0]
],
  "dcmmeta_reorient_transform": [
    [0.0, -1.0, 0.0, 103.0],
    [1.0, 0.0, 0.0, 0.0],
    [0.0, 0.0, 1.0, 0.0],
    [0.0, 0.0, 0.0, 1.0]
],
  "dcmmeta_shape": [104, 104, 60, 190],
  "dcmmeta_slice_dim": 2,
  "dcmmeta_version": 0.6,
  "global": {
    "const": {
      "AcquisitionMatrix": [104, 0, 0, 104],
      "AngioFlag": "N",
      "BitsAllocated": 16,
      "BitsStored": 16,
      "BodyPartExamined": "BRAIN",
      "Columns": 832,
      "EchoNumbers": 1,
      "EchoTime": 37.0,
      "EchoTrainLength": 104,
      "FlipAngle": 52.0,
      "HighBit": 15,
      "ImageOrientationPatient": [0.99996024032976, 0.00557457668687, -0.0069600182766, -0.0083774578167, 0.85471627498217, -0.519027848464],
      "ImagePositionPatient": [-828.3441572221, -752.30308813698, 396.04289511836],
      "ImageType": [
        "ORIGINAL",
        "PRIMARY",
        "M",
        "MB",
        "ND",
        "MOSAIC"
],
      "ImagedNucleus": "1H",
      "ImagingFrequency": 123.258944,
      "InPlanePhaseEncodingDirection": "COL",
      "MRAcquisitionType": "2D",
      "MagneticFieldStrength": 3.0,
      "Manufacturer": "SIEMENS",
      "ManufacturerModelName": "Prisma_fit",
      "Modality": "MR",
      "NumberOfAverages": 1.0,
      "NumberOfPhaseEncodingSteps": 104,
      "PercentPhaseFieldOfView": 100.0,
      "PercentSampling": 100.0,
      "PerformedProcedureStepStartTime": "102044.005000",
      "PhotometricInterpretation": "MONOCHROME2",
      "PixelBandwidth": 2290.0,
      "PixelRepresentation": 0,
      "PixelSpacing": [2.0, 2.0],
      "ProtocolName": "func_task-things_run-6",
      "RepetitionTime": 1490.0,
      "Rows": 832,
      "SAR": 0.04067829998399,
      "SamplesPerPixel": 1,
      "ScanOptions": "FS",
      "ScanningSequence": "EP",
      "SequenceName": "epfid2d1_104",
      "SequenceVariant": [
        "SK",
        "SS"
],
      "SeriesDescription": "func_task-things_run-6",
      "SeriesNumber": 28,
      "SeriesTime": "112954.692000",
      "SliceLocation": -54.516237705362,
      "SliceThickness": 2.0,
      "SmallestImagePixelValue": 0,
      "SoftwareVersions": "syngo MR E11",
      "SpacingBetweenSlices": 1.9999999931931,
      "SpecificCharacterSet": "ISO_IR 100",
      "StudyID": "1",
      "StudyTime": "102043.934000",
      "TransmitCoilName": "Body",
      "VariableFlipAngleFlag": "N",
      "WindowCenterWidthExplanation": "Algo1",
      "dBdt": 0.0},
    "slices": {}
  },
  "time": {
    "samples": {
      "AcquisitionNumber": [1, 2, 3, 4, 5, 6, 7, 8, 9, 10, 11, 12, 13, 14, 15, 16, 17, 18, 19, 20, 21, 22, 23, 24, 25, 26, 27, 28, 29, 30, 31, 32, 33, 34, 35, 36, 37, 38, 39, 40, 41, 42, 43, 44, 45, 46, 47, 48, 49, 50, 51, 52, 53, 54, 55, 56, 57, 58, 59, 60, 61, 62, 63, 64, 65, 66, 67, 68, 69, 70, 71, 72, 73, 74, 75, 76, 77, 78, 79, 80, 81, 82, 83, 84, 85, 86, 87, 88, 89, 90, 91, 92, 93, 94, 95, 96, 97, 98, 99, 100, 101, 102, 103, 104, 105, 106, 107, 108, 109, 110, 111, 112, 113, 114, 115, 116, 117, 118, 119, 120, 121, 122, 123, 124, 125, 126, 127, 128, 129, 130, 131, 132, 133, 134, 135, 136, 137, 138, 139, 140, 141, 142, 143, 144, 145, 146, 147, 148, 149, 150, 151, 152, 153, 154, 155, 156, 157, 158, 159, 160, 161, 162, 163, 164, 165, 166, 167, 168, 169, 170, 171, 172, 173, 174, 175, 176, 177, 178, 179, 180, 181, 182, 183, 184, 185, 186, 187, 188, 189, 190],
      "AcquisitionTime": ["112838.722500", "112840.212500", "112841.702500", "112843.192500", "112844.682500", "112846.172500", "112847.662500", "112849.152500", "112850.642500", "112852.132500", "112853.622500", "112855.112500", "112856.602500", "112858.092500", "112859.582500", "112901.072500", "112902.562500", "112904.052500", "112905.542500", "112907.032500", "112908.522500", "112910.012500", "112911.502500", "112912.992500", "112914.482500", "112915.972500", "112917.462500", "112918.952500", "112920.442500", "112921.932500", "112923.422500", "112924.912500", "112926.402500", "112927.892500", "112929.382500", "112930.872500", "112932.362500", "112933.852500", "112935.342500", "112936.832500", "112938.322500", "112939.812500", "112941.302500", "112942.792500", "112944.282500", "112945.772500", "112947.262500", "112948.752500", "112950.242500", "112951.732500", "112953.222500", "112954.712500", "112956.202500", "112957.692500", "112959.182500", "113000.672500", "113002.162500", "113003.652500", "113005.142500", "113006.632500", "113008.122500", "113009.612500", "113011.102500", "113012.592500", "113014.082500", "113015.572500", "113017.062500", "113018.552500", "113020.042500", "113021.532500", "113023.022500", "113024.512500", "113026.002500", "113027.492500", "113028.982500", "113030.472500", "113031.962500", "113033.452500", "113034.942500", "113036.432500", "113037.922500", "113039.412500", "113040.902500", "113042.392500", "113043.882500", "113045.372500", "113046.862500", "113048.352500", "113049.842500", "113051.332500", "113052.822500", "113054.312500", "113055.802500", "113057.292500", "113058.782500", "113100.272500", "113101.762500", "113103.252500", "113104.742500", "113106.232500", "113107.722500", "113109.212500", "113110.702500", "113112.192500", "113113.682500", "113115.172500", "113116.662500", "113118.152500", "113119.642500", "113121.132500", "113122.622500", "113124.112500", "113125.602500", "113127.092500", "113128.582500", "113130.072500", "113131.562500", "113133.052500", "113134.542500", "113136.032500", "113137.522500", "113139.012500", "113140.502500", "113141.992500", "113143.482500", "113144.972500", "113146.462500", "113147.952500", "113149.442500", "113150.932500", "113152.422500", "113153.912500", "113155.402500", "113156.892500", "113158.382500", "113159.872500", "113201.362500", "113202.852500", "113204.342500", "113205.832500", "113207.322500", "113208.812500", "113210.302500", "113211.792500", "113213.282500", "113214.772500", "113216.262500", "113217.752500", "113219.242500", "113220.732500", "113222.222500", "113223.712500", "113225.202500", "113226.692500", "113228.182500", "113229.672500", "113231.162500", "113232.652500", "113234.142500", "113235.632500", "113237.122500", "113238.612500", "113240.102500", "113241.592500", "113243.082500", "113244.572500", "113246.062500", "113247.552500", "113249.042500", "113250.532500", "113252.022500", "113253.512500", "113255.002500", "113256.492500", "113257.982500", "113259.472500", "113300.962500", "113302.452500", "113303.942500", "113305.432500", "113306.922500", "113308.412500", "113309.902500", "113311.392500", "113312.882500", "113314.372500", "113315.862500", "113317.352500", "113318.842500", "113320.332500"],
      "ContentTime": ["112954.696000", "112954.700000", "112954.704000", "112954.707000", "112954.710000", "112954.714000", "112954.717000", "112954.721000", "112954.724000", "112954.727000", "112954.731000", "112954.734000", "112954.738000", "112954.741000", "112954.745000", "112954.748000", "112954.761000", "112954.765000", "112954.768000", "112954.771000", "112954.775000", "112954.778000", "113014.659000", "113014.663000", "113014.666000", "113014.683000", "113014.686000", "113014.690000", "113014.693000", "113014.696000", "113014.700000", "113014.703000", "113014.706000", "113014.710000", "113014.713000", "113014.717000", "113014.720000", "113014.724000", "113014.728000", "113014.731000", "113014.734000", "113014.738000", "113034.660000", "113034.664000", "113034.667000", "113034.671000", "113034.674000", "113034.677000", "113034.681000", "113034.684000", "113034.688000", "113034.691000", "113034.694000", "113034.698000", "113034.701000", "113034.704000", "113034.708000", "113034.711000", "113034.715000", "113034.718000", "113034.721000", "113034.725000", "113054.660000", "113054.664000", "113054.667000", "113054.671000", "113054.674000", "113054.678000", "113054.681000", "113054.684000", "113054.688000", "113054.691000", "113054.695000", "113054.698000", "113054.701000", "113054.705000", "113054.708000", "113054.712000", "113054.715000", "113054.718000", "113054.722000", "113054.725000", "113114.659000", "113114.663000", "113114.666000", "113114.670000", "113114.673000", "113114.676000", "113114.680000", "113114.683000", "113114.687000", "113114.690000", "113114.694000", "113114.697000", "113114.700000", "113114.704000", "113114.707000", "113114.710000", "113114.714000", "113114.717000", "113114.721000", "113114.724000", "113154.659000", "113154.663000", "113154.666000", "113154.670000", "113154.673000", "113154.677000", "113154.680000", "113154.684000", "113154.687000", "113154.691000", "113154.694000", "113154.697000", "113154.701000", "113154.704000", "113154.716000", "113154.719000", "113154.722000", "113154.726000", "113154.729000", "113154.733000", "113154.736000", "113154.740000", "113154.743000", "113154.761000", "113154.765000", "113154.768000", "113154.772000", "113154.775000", "113154.779000", "113234.660000", "113234.664000", "113234.668000", "113234.671000", "113234.675000", "113234.678000", "113234.682000", "113234.685000", "113234.689000", "113234.692000", "113234.696000", "113234.699000", "113234.703000", "113234.706000", "113234.709000", "113234.713000", "113234.716000", "113234.720000", "113234.723000", "113234.727000", "113234.730000", "113234.734000", "113234.737000", "113234.741000", "113234.744000", "113234.748000", "113314.660000", "113314.664000", "113314.668000", "113314.671000", "113314.674000", "113314.678000", "113314.681000", "113314.685000", "113314.688000", "113314.692000", "113314.695000", "113314.699000", "113314.702000", "113314.706000", "113314.709000", "113314.713000", "113314.716000", "113314.719000", "113314.723000", "113314.726000", "113314.730000", "113314.733000", "113314.737000", "113314.740000", "113314.744000", "113314.747000", "113314.750000", "113322.484000", "113322.488000", "113322.491000", "113322.495000", "113322.498000", "113322.502000"],
      "InstanceCreationTime": ["112954.696000", "112954.700000", "112954.704000", "112954.707000", "112954.710000", "112954.714000", "112954.717000", "112954.721000", "112954.724000", "112954.727000", "112954.731000", "112954.734000", "112954.738000", "112954.741000", "112954.745000", "112954.748000", "112954.761000", "112954.765000", "112954.768000", "112954.771000", "112954.775000", "112954.778000", "113014.659000", "113014.663000", "113014.666000", "113014.683000", "113014.686000", "113014.690000", "113014.693000", "113014.696000", "113014.700000", "113014.703000", "113014.706000", "113014.710000", "113014.713000", "113014.717000", "113014.720000", "113014.724000", "113014.728000", "113014.731000", "113014.734000", "113014.738000", "113034.660000", "113034.664000", "113034.667000", "113034.671000", "113034.674000", "113034.677000", "113034.681000", "113034.684000", "113034.688000", "113034.691000", "113034.694000", "113034.698000", "113034.701000", "113034.704000", "113034.708000", "113034.711000", "113034.715000", "113034.718000", "113034.721000", "113034.725000", "113054.660000", "113054.664000", "113054.667000", "113054.671000", "113054.674000", "113054.678000", "113054.681000", "113054.684000", "113054.688000", "113054.691000", "113054.695000", "113054.698000", "113054.701000", "113054.705000", "113054.708000", "113054.712000", "113054.715000", "113054.718000", "113054.722000", "113054.725000", "113114.659000", "113114.663000", "113114.666000", "113114.670000", "113114.673000", "113114.676000", "113114.680000", "113114.683000", "113114.687000", "113114.690000", "113114.694000", "113114.697000", "113114.700000", "113114.704000", "113114.707000", "113114.710000", "113114.714000", "113114.717000", "113114.721000", "113114.724000", "113154.659000", "113154.663000", "113154.666000", "113154.670000", "113154.673000", "113154.677000", "113154.680000", "113154.684000", "113154.687000", "113154.691000", "113154.694000", "113154.697000", "113154.701000", "113154.704000", "113154.716000", "113154.719000", "113154.722000", "113154.726000", "113154.729000", "113154.733000", "113154.736000", "113154.740000", "113154.743000", "113154.761000", "113154.765000", "113154.768000", "113154.772000", "113154.775000", "113154.779000", "113234.660000", "113234.664000", "113234.668000", "113234.671000", "113234.675000", "113234.678000", "113234.682000", "113234.685000", "113234.689000", "113234.692000", "113234.696000", "113234.699000", "113234.703000", "113234.706000", "113234.709000", "113234.713000", "113234.716000", "113234.720000", "113234.723000", "113234.727000", "113234.730000", "113234.734000", "113234.737000", "113234.741000", "113234.744000", "113234.748000", "113314.660000", "113314.664000", "113314.668000", "113314.671000", "113314.674000", "113314.678000", "113314.681000", "113314.685000", "113314.688000", "113314.692000", "113314.695000", "113314.699000", "113314.702000", "113314.706000", "113314.709000", "113314.713000", "113314.716000", "113314.719000", "113314.723000", "113314.726000", "113314.730000", "113314.733000", "113314.737000", "113314.740000", "113314.744000", "113314.747000", "113314.750000", "113322.484000", "113322.488000", "113322.491000", "113322.495000", "113322.498000", "113322.502000"],
      "InstanceNumber": [1, 2, 3, 4, 5, 6, 7, 8, 9, 10, 11, 12, 13, 14, 15, 16, 17, 18, 19, 20, 21, 22, 23, 24, 25, 26, 27, 28, 29, 30, 31, 32, 33, 34, 35, 36, 37, 38, 39, 40, 41, 42, 43, 44, 45, 46, 47, 48, 49, 50, 51, 52, 53, 54, 55, 56, 57, 58, 59, 60, 61, 62, 63, 64, 65, 66, 67, 68, 69, 70, 71, 72, 73, 74, 75, 76, 77, 78, 79, 80, 81, 82, 83, 84, 85, 86, 87, 88, 89, 90, 91, 92, 93, 94, 95, 96, 97, 98, 99, 100, 101, 102, 103, 104, 105, 106, 107, 108, 109, 110, 111, 112, 113, 114, 115, 116, 117, 118, 119, 120, 121, 122, 123, 124, 125, 126, 127, 128, 129, 130, 131, 132, 133, 134, 135, 136, 137, 138, 139, 140, 141, 142, 143, 144, 145, 146, 147, 148, 149, 150, 151, 152, 153, 154, 155, 156, 157, 158, 159, 160, 161, 162, 163, 164, 165, 166, 167, 168, 169, 170, 171, 172, 173, 174, 175, 176, 177, 178, 179, 180, 181, 182, 183, 184, 185, 186, 187, 188, 189, 190],
      "LargestImagePixelValue": [46032, 44415, 43981, 44418, 45231, 44100, 44475, 44284, 44016, 44101, 43365, 44103, 43794, 44874, 45217, 43801, 43009, 43755, 44185, 44149, 44161, 44470, 44580, 44477, 44338, 43582, 43480, 44235, 44648, 43118, 44645, 43990, 43926, 44149, 43958, 45330, 45557, 43899, 43930, 43627, 44488, 44203, 43955, 43742, 44335, 44790, 44045, 44860, 44746, 44165, 43549, 43805, 44233, 44319, 43362, 43888, 43950, 44301, 44200, 43942, 44165, 44368, 44063, 43814, 43949, 43187, 43748, 44197, 43742, 43445, 43852, 43474, 43971, 44042, 43963, 44471, 44305, 44784, 43563, 44023, 44874, 44537, 44282, 43851, 44524, 45011, 44549, 45179, 44119, 44020, 44733, 44226, 43922, 43712, 44424, 44665, 44433, 44347, 44309, 44903, 45466, 44369, 44371, 45137, 44610, 44332, 43629, 44374, 44710, 44349, 44918, 43578, 44650, 45068, 44205, 44750, 44752, 44927, 44863, 44793, 44344, 44660, 44784, 45152, 44837, 45447, 44084, 45179, 45006, 43670, 44101, 43849, 44009, 44392, 44263, 44503, 44900, 43413, 43073, 43956, 43925, 44160, 44152, 44333, 44415, 43873, 44632, 43463, 44491, 44091, 42142, 44095, 43593, 44224, 44680, 45448, 44503, 44520, 42646, 43158, 43909, 44025, 45359, 44253, 43723, 41880, 44131, 44275, 44317, 44239, 44090, 45290, 45141, 44257, 43716, 43722, 44118, 43183, 43811, 44331, 43697, 44440, 44143, 44449, 44511, 44141, 44566, 44638, 43696, 44305],
      "WindowCenter": [10970.0, 10931.0, 10892.0, 10860.0, 10848.0, 10851.0, 10885.0, 10891.0, 10876.0, 10857.0, 10837.0, 10841.0, 10843.0, 10855.0, 10870.0, 10868.0, 10845.0, 10820.0, 10827.0, 10856.0, 10878.0, 10888.0, 10855.0, 10851.0, 10849.0, 10825.0, 10825.0, 10845.0, 10854.0, 10853.0, 10852.0, 10824.0, 10828.0, 10862.0, 10877.0, 10892.0, 10885.0, 10854.0, 10840.0, 10834.0, 10837.0, 10837.0, 10831.0, 10820.0, 10825.0, 10830.0, 10820.0, 10834.0, 10840.0, 10838.0, 10835.0, 10833.0, 10830.0, 10840.0, 10836.0, 10820.0, 10799.0, 10812.0, 10825.0, 10830.0, 10831.0, 10822.0, 10818.0, 10806.0, 10803.0, 10796.0, 10817.0, 10840.0, 10831.0, 10824.0, 10821.0, 10812.0, 10811.0, 10829.0, 10847.0, 10845.0, 10834.0, 10828.0, 10811.0, 10813.0, 10819.0, 10830.0, 10820.0, 10812.0, 10804.0, 10799.0, 10801.0, 10833.0, 10842.0, 10840.0, 10850.0, 10837.0, 10840.0, 10841.0, 10815.0, 10791.0, 10790.0, 10815.0, 10823.0, 10838.0, 10828.0, 10814.0, 10804.0, 10801.0, 10796.0, 10811.0, 10790.0, 10802.0, 10826.0, 10832.0, 10850.0, 10817.0, 10801.0, 10795.0, 10810.0, 10817.0, 10834.0, 10846.0, 10830.0, 10821.0, 10811.0, 10802.0, 10809.0, 10817.0, 10826.0, 10827.0, 10809.0, 10815.0, 10824.0, 10811.0, 10813.0, 10799.0, 10803.0, 10802.0, 10812.0, 10820.0, 10823.0, 10812.0, 10794.0, 10786.0, 10793.0, 10803.0, 10813.0, 10813.0, 10804.0, 10783.0, 10787.0, 10794.0, 10815.0, 10824.0, 10812.0, 10798.0, 10787.0, 10806.0, 10815.0, 10825.0, 10815.0, 10815.0, 10790.0, 10784.0, 10761.0, 10785.0, 10826.0, 10831.0, 10847.0, 10818.0, 10805.0, 10783.0, 10786.0, 10809.0, 10820.0, 10824.0, 10802.0, 10792.0, 10797.0, 10808.0, 10815.0, 10806.0, 10800.0, 10804.0, 10814.0, 10820.0, 10823.0, 10830.0, 10823.0, 10824.0, 10822.0, 10823.0, 10826.0, 10825.0],
      "WindowWidth": [23615.0, 23496.0, 23387.0, 23298.0, 23258.0, 23265.0, 23336.0, 23350.0, 23317.0, 23274.0, 23229.0, 23234.0, 23241.0, 23263.0, 23297.0, 23300.0, 23253.0, 23194.0, 23205.0, 23271.0, 23320.0, 23343.0, 23266.0, 23253.0, 23250.0, 23202.0, 23199.0, 23241.0, 23262.0, 23265.0, 23255.0, 23202.0, 23205.0, 23281.0, 23319.0, 23346.0, 23329.0, 23265.0, 23231.0, 23217.0, 23223.0, 23222.0, 23212.0, 23188.0, 23198.0, 23204.0, 23189.0, 23216.0, 23228.0, 23228.0, 23222.0, 23219.0, 23212.0, 23236.0, 23233.0, 23192.0, 23142.0, 23169.0, 23198.0, 23213.0, 23214.0, 23191.0, 23180.0, 23155.0, 23150.0, 23138.0, 23181.0, 23232.0, 23210.0, 23197.0, 23188.0, 23172.0, 23166.0, 23205.0, 23248.0, 23243.0, 23216.0, 23200.0, 23165.0, 23171.0, 23177.0, 23205.0, 23186.0, 23167.0, 23148.0, 23137.0, 23139.0, 23212.0, 23236.0, 23231.0, 23249.0, 23224.0, 23231.0, 23241.0, 23179.0, 23119.0, 23115.0, 23171.0, 23194.0, 23223.0, 23194.0, 23163.0, 23142.0, 23135.0, 23128.0, 23162.0, 23122.0, 23143.0, 23194.0, 23213.0, 23252.0, 23185.0, 23142.0, 23125.0, 23160.0, 23176.0, 23212.0, 23240.0, 23206.0, 23183.0, 23161.0, 23142.0, 23154.0, 23168.0, 23189.0, 23191.0, 23161.0, 23170.0, 23187.0, 23171.0, 23168.0, 23139.0, 23143.0, 23141.0, 23164.0, 23182.0, 23192.0, 23168.0, 23131.0, 23108.0, 23121.0, 23142.0, 23167.0, 23166.0, 23147.0, 23102.0, 23104.0, 23131.0, 23175.0, 23195.0, 23178.0, 23140.0, 23110.0, 23154.0, 23171.0, 23189.0, 23168.0, 23169.0, 23120.0, 23102.0, 23056.0, 23101.0, 23189.0, 23208.0, 23246.0, 23192.0, 23151.0, 23097.0, 23107.0, 23156.0, 23183.0, 23186.0, 23139.0, 23118.0, 23131.0, 23156.0, 23170.0, 23156.0, 23141.0, 23145.0, 23169.0, 23183.0, 23189.0, 23201.0, 23185.0, 23190.0, 23185.0, 23186.0, 23202.0, 23196.0]
    },
    "slices": {}
  }
}