{
  "AcquisitionMatrixPE": 104,
  "AcquisitionNumber": 1,
  "AcquisitionTime": "11:10:22.612500",
  "BandwidthPerPixelPhaseEncode": 17.17,
  "BaseResolution": 104,
  "BodyPartExamined": "BRAIN",
  "CoilString": "HC1-7;NC1_2",
  "ConsistencyInfo": "N4_VE11C_LATEST_20160120",
  "ConversionSoftware": "dcm2niix",
  "ConversionSoftwareVersion": "v1.0.20190902",
  "DerivedVendorReportedEchoSpacing": 0.000560011,
  "DeviceSerialNumber": "167006",
  "DwellTime": 2.1e-06,
  "EchoTime": 0.037,
  "EchoTrainLength": 104,
  "EffectiveEchoSpacing": 0.000560011,
  "FlipAngle": 52,
  "ImageComments": "Unaliased_MB4_PE3_LB",
  "ImageOrientationPatientDICOM": [0.99996, 0.00557458, -0.00696002, -0.00837746, 0.854716, -0.519028],
  "ImageType": [
    "ORIGINAL",
    "PRIMARY",
    "P",
    "MB",
    "ND",
    "MOSAIC"
],
  "ImagingFrequency": 123.259,
  "InPlanePhaseEncodingDirectionDICOM": "COL",
  "InstitutionAddress": "Chemin_Queen-Mary_4565_Montreal_District_CA_H3W_1W5",
  "InstitutionName": "IUGM",
  "InstitutionalDepartmentName": "Department",
  "MRAcquisitionType": "2D",
  "MagneticFieldStrength": 3,
  "Manufacturer": "Siemens",
  "ManufacturersModelName": "Prisma_fit",
  "Modality": "MR",
  "MultibandAccelerationFactor": 4,
  "PartialFourier": 1,
  "PatientPosition": "HFS",
  "PercentPhaseFOV": 100,
  "PhaseEncodingDirection": "j",
  "PhaseEncodingSteps": 104,
  "PhaseResolution": 1,
  "PixelBandwidth": 2290,
  "ProcedureStepDescription": "memory_things",
  "ProtocolName": "func_task-things_run-3",
  "PulseSequenceDetails": "%CustomerSeq%_cmrr_mbep2d_bold",
  "ReceiveCoilActiveElements": "HC1-7;NC1,2",
  "ReceiveCoilName": "HeadNeck_64",
  "ReconMatrixPE": 104,
  "RepetitionTime": 1.49,
  "SAR": 0.0406783,
  "ScanOptions": "FS",
  "ScanningSequence": "EP",
  "SequenceName": "epfid2d1_104",
  "SequenceVariant": "SK_SS",
  "SeriesDescription": "func_task-things_run-3",
  "SeriesNumber": 20,
  "ShimSetting": [620, -7181, -8872, 305, 29, -119, -69, -31],
  "SliceThickness": 2,
  "SliceTiming": [0, 0.7825, 0.0975, 0.8825, 0.195, 0.98, 0.2925, 1.0775, 0.3925, 1.175, 0.49, 1.2725, 0.5875, 1.3725, 0.685, 0, 0.7825, 0.0975, 0.8825, 0.195, 0.98, 0.2925, 1.0775, 0.3925, 1.175, 0.49, 1.2725, 0.5875, 1.3725, 0.685, 0, 0.7825, 0.0975, 0.8825, 0.195, 0.98, 0.2925, 1.0775, 0.3925, 1.175, 0.49, 1.2725, 0.5875, 1.3725, 0.685, 0, 0.7825, 0.0975, 0.8825, 0.195, 0.98, 0.2925, 1.0775, 0.3925, 1.175, 0.49, 1.2725, 0.5875, 1.3725, 0.685],
  "SoftwareVersions": "syngo_MR_E11",
  "SpacingBetweenSlices": 2,
  "StationName": "MRC35049",
  "TaskName": "things",
  "TotalReadoutTime": 0.0576811,
  "TxRefAmp": 250.499,
  "WipMemBlock": "d122ee97-a803-4a57-8313-263b4afddb06||Sequence: R016 ve11c/master r/e634e98; Dec 19 2017 11:00:25 by eja",
  "dcmmeta_affine": [
    [-1.9999204874038696, -0.016754915937781334, -0.006110960617661476, 108.19764709472656],
    [-0.011149153113365173, 1.709432601928711, -1.0381309986114502, -50.060203552246094],
    [-0.013920036144554615, 1.038055658340454, 1.7094579935073853, -93.79600524902344],
    [0.0, 0.0, 0.0, 1.0]
],
  "dcmmeta_reorient_transform": [
    [0.0, -1.0, 0.0, 103.0],
    [1.0, 0.0, 0.0, 0.0],
    [0.0, 0.0, 1.0, 0.0],
    [0.0, 0.0, 0.0, 1.0]
],
  "dcmmeta_shape": [104, 104, 60, 190],
  "dcmmeta_slice_dim": 2,
  "dcmmeta_version": 0.6,
  "global": {
    "const": {
      "AcquisitionMatrix": [104, 0, 0, 104],
      "AngioFlag": "N",
      "BitsAllocated": 16,
      "BitsStored": 16,
      "BodyPartExamined": "BRAIN",
      "Columns": 832,
      "EchoNumbers": 1,
      "EchoTime": 37.0,
      "EchoTrainLength": 104,
      "FlipAngle": 52.0,
      "HighBit": 15,
      "ImageOrientationPatient": [0.99996024032976, 0.00557457668687, -0.0069600182766, -0.0083774578167, 0.85471627498217, -0.519027848464],
      "ImagePositionPatient": [-828.3441572221, -752.30308813698, 396.04289511836],
      "ImageType": [
        "ORIGINAL",
        "PRIMARY",
        "P",
        "MB",
        "ND",
        "MOSAIC"
],
      "ImagedNucleus": "1H",
      "ImagingFrequency": 123.258933,
      "InPlanePhaseEncodingDirection": "COL",
      "LargestImagePixelValue": 4095,
      "MRAcquisitionType": "2D",
      "MagneticFieldStrength": 3.0,
      "Manufacturer": "SIEMENS",
      "ManufacturerModelName": "Prisma_fit",
      "Modality": "MR",
      "NumberOfAverages": 1.0,
      "NumberOfPhaseEncodingSteps": 104,
      "PercentPhaseFieldOfView": 100.0,
      "PercentSampling": 100.0,
      "PerformedProcedureStepStartTime": "102044.005000",
      "PhotometricInterpretation": "MONOCHROME2",
      "PixelBandwidth": 2290.0,
      "PixelRepresentation": 0,
      "PixelSpacing": [2.0, 2.0],
      "ProtocolName": "func_task-things_run-3",
      "RepetitionTime": 1490.0,
      "RescaleIntercept": -4096.0,
      "RescaleSlope": 2.0,
      "RescaleType": "US",
      "Rows": 832,
      "SAR": 0.04067829998399,
      "SamplesPerPixel": 1,
      "ScanOptions": "FS",
      "ScanningSequence": "EP",
      "SequenceName": "epfid2d1_104",
      "SequenceVariant": [
        "SK",
        "SS"
],
      "SeriesDescription": "func_task-things_run-3",
      "SeriesNumber": 20,
      "SeriesTime": "111134.802000",
      "SliceLocation": -54.516237705362,
      "SliceThickness": 2.0,
      "SmallestImagePixelValue": 0,
      "SoftwareVersions": "syngo MR E11",
      "SpacingBetweenSlices": 1.9999999931931,
      "SpecificCharacterSet": "ISO_IR 100",
      "StudyID": "1",
      "StudyTime": "102043.934000",
      "TransmitCoilName": "Body",
      "VariableFlipAngleFlag": "N",
      "WindowCenterWidthExplanation": "Algo1",
      "dBdt": 0.0},
    "slices": {}
  },
  "time": {
    "samples": {
      "AcquisitionNumber": [1, 2, 3, 4, 5, 6, 7, 8, 9, 10, 11, 12, 13, 14, 15, 16, 17, 18, 19, 20, 21, 22, 23, 24, 25, 26, 27, 28, 29, 30, 31, 32, 33, 34, 35, 36, 37, 38, 39, 40, 41, 42, 43, 44, 45, 46, 47, 48, 49, 50, 51, 52, 53, 54, 55, 56, 57, 58, 59, 60, 61, 62, 63, 64, 65, 66, 67, 68, 69, 70, 71, 72, 73, 74, 75, 76, 77, 78, 79, 80, 81, 82, 83, 84, 85, 86, 87, 88, 89, 90, 91, 92, 93, 94, 95, 96, 97, 98, 99, 100, 101, 102, 103, 104, 105, 106, 107, 108, 109, 110, 111, 112, 113, 114, 115, 116, 117, 118, 119, 120, 121, 122, 123, 124, 125, 126, 127, 128, 129, 130, 131, 132, 133, 134, 135, 136, 137, 138, 139, 140, 141, 142, 143, 144, 145, 146, 147, 148, 149, 150, 151, 152, 153, 154, 155, 156, 157, 158, 159, 160, 161, 162, 163, 164, 165, 166, 167, 168, 169, 170, 171, 172, 173, 174, 175, 176, 177, 178, 179, 180, 181, 182, 183, 184, 185, 186, 187, 188, 189, 190],
      "AcquisitionTime": ["111022.612500", "111024.102500", "111025.592500", "111027.082500", "111028.572500", "111030.062500", "111031.552500", "111033.042500", "111034.532500", "111036.022500", "111037.512500", "111039.002500", "111040.492500", "111041.982500", "111043.472500", "111044.962500", "111046.452500", "111047.942500", "111049.432500", "111050.922500", "111052.412500", "111053.902500", "111055.392500", "111056.882500", "111058.372500", "111059.862500", "111101.352500", "111102.842500", "111104.332500", "111105.822500", "111107.312500", "111108.802500", "111110.292500", "111111.782500", "111113.272500", "111114.762500", "111116.252500", "111117.742500", "111119.232500", "111120.722500", "111122.212500", "111123.702500", "111125.192500", "111126.682500", "111128.172500", "111129.662500", "111131.152500", "111132.642500", "111134.132500", "111135.622500", "111137.112500", "111138.602500", "111140.092500", "111141.582500", "111143.072500", "111144.562500", "111146.052500", "111147.542500", "111149.032500", "111150.522500", "111152.012500", "111153.502500", "111154.992500", "111156.482500", "111157.972500", "111159.462500", "111200.952500", "111202.442500", "111203.932500", "111205.422500", "111206.912500", "111208.402500", "111209.892500", "111211.382500", "111212.872500", "111214.362500", "111215.852500", "111217.342500", "111218.832500", "111220.322500", "111221.812500", "111223.302500", "111224.792500", "111226.282500", "111227.772500", "111229.262500", "111230.752500", "111232.242500", "111233.732500", "111235.222500", "111236.712500", "111238.202500", "111239.692500", "111241.182500", "111242.672500", "111244.162500", "111245.652500", "111247.142500", "111248.632500", "111250.122500", "111251.612500", "111253.102500", "111254.592500", "111256.082500", "111257.572500", "111259.062500", "111300.552500", "111302.042500", "111303.532500", "111305.022500", "111306.512500", "111308.002500", "111309.492500", "111310.982500", "111312.472500", "111313.962500", "111315.452500", "111316.942500", "111318.432500", "111319.922500", "111321.412500", "111322.902500", "111324.392500", "111325.882500", "111327.372500", "111328.862500", "111330.352500", "111331.842500", "111333.332500", "111334.822500", "111336.312500", "111337.802500", "111339.292500", "111340.782500", "111342.272500", "111343.762500", "111345.252500", "111346.742500", "111348.232500", "111349.722500", "111351.212500", "111352.702500", "111354.192500", "111355.682500", "111357.172500", "111358.662500", "111400.152500", "111401.642500", "111403.132500", "111404.622500", "111406.112500", "111407.602500", "111409.092500", "111410.582500", "111412.072500", "111413.562500", "111415.052500", "111416.542500", "111418.032500", "111419.522500", "111421.012500", "111422.502500", "111423.992500", "111425.482500", "111426.972500", "111428.462500", "111429.952500", "111431.442500", "111432.932500", "111434.422500", "111435.912500", "111437.402500", "111438.892500", "111440.382500", "111441.872500", "111443.362500", "111444.852500", "111446.342500", "111447.832500", "111449.322500", "111450.812500", "111452.302500", "111453.792500", "111455.282500", "111456.772500", "111458.262500", "111459.752500", "111501.242500", "111502.732500", "111504.222500"],
      "ContentTime": ["111134.804000", "111134.807000", "111134.810000", "111134.812000", "111134.815000", "111134.817000", "111134.820000", "111134.823000", "111134.825000", "111134.828000", "111134.830000", "111134.833000", "111134.835000", "111134.838000", "111134.840000", "111134.843000", "111134.845000", "111134.848000", "111154.792000", "111154.794000", "111154.797000", "111154.800000", "111154.802000", "111154.805000", "111154.807000", "111154.810000", "111154.812000", "111154.815000", "111154.817000", "111154.820000", "111154.822000", "111154.825000", "111154.827000", "111154.830000", "111154.833000", "111154.835000", "111154.838000", "111154.840000", "111214.762000", "111214.765000", "111214.767000", "111214.770000", "111214.772000", "111214.775000", "111214.778000", "111214.780000", "111214.783000", "111214.785000", "111214.788000", "111214.790000", "111214.793000", "111214.795000", "111214.798000", "111214.800000", "111214.803000", "111214.805000", "111214.808000", "111214.810000", "111214.813000", "111235.183000", "111235.186000", "111235.188000", "111235.191000", "111235.194000", "111235.196000", "111235.199000", "111235.201000", "111235.204000", "111235.206000", "111235.209000", "111235.211000", "111235.214000", "111235.216000", "111235.219000", "111235.221000", "111235.224000", "111235.227000", "111235.229000", "111235.232000", "111254.783000", "111254.786000", "111254.788000", "111254.791000", "111254.793000", "111254.796000", "111254.798000", "111254.801000", "111254.804000", "111254.806000", "111254.809000", "111254.811000", "111254.814000", "111254.816000", "111254.819000", "111254.821000", "111254.824000", "111254.826000", "111254.829000", "111254.831000", "111334.812000", "111334.815000", "111334.818000", "111334.820000", "111334.823000", "111334.825000", "111334.828000", "111334.831000", "111334.833000", "111334.836000", "111334.838000", "111334.841000", "111334.851000", "111334.854000", "111334.856000", "111334.859000", "111334.861000", "111334.864000", "111334.867000", "111334.869000", "111334.872000", "111334.874000", "111334.877000", "111334.879000", "111334.882000", "111334.885000", "111334.887000", "111334.890000", "111334.892000", "111414.826000", "111414.829000", "111414.832000", "111414.834000", "111414.837000", "111414.840000", "111414.842000", "111414.845000", "111414.847000", "111414.850000", "111414.852000", "111414.855000", "111414.857000", "111414.860000", "111414.862000", "111414.865000", "111414.868000", "111414.870000", "111414.873000", "111414.875000", "111414.878000", "111414.880000", "111414.883000", "111414.885000", "111414.888000", "111414.890000", "111454.800000", "111454.803000", "111454.805000", "111454.808000", "111454.810000", "111454.813000", "111454.815000", "111454.818000", "111454.820000", "111454.823000", "111454.825000", "111454.828000", "111454.830000", "111454.833000", "111454.835000", "111454.838000", "111454.841000", "111454.843000", "111454.846000", "111454.848000", "111454.851000", "111454.853000", "111454.856000", "111454.859000", "111454.861000", "111454.864000", "111454.866000", "111506.927000", "111506.930000", "111506.939000", "111506.941000", "111506.944000", "111506.946000", "111506.949000", "111506.952000", "111506.954000"],
      "InstanceCreationTime": ["111134.804000", "111134.807000", "111134.810000", "111134.812000", "111134.815000", "111134.817000", "111134.820000", "111134.823000", "111134.825000", "111134.828000", "111134.830000", "111134.833000", "111134.835000", "111134.838000", "111134.840000", "111134.843000", "111134.845000", "111134.848000", "111154.792000", "111154.794000", "111154.797000", "111154.800000", "111154.802000", "111154.805000", "111154.807000", "111154.810000", "111154.812000", "111154.815000", "111154.817000", "111154.820000", "111154.822000", "111154.825000", "111154.827000", "111154.830000", "111154.833000", "111154.835000", "111154.838000", "111154.840000", "111214.762000", "111214.765000", "111214.767000", "111214.770000", "111214.772000", "111214.775000", "111214.778000", "111214.780000", "111214.783000", "111214.785000", "111214.788000", "111214.790000", "111214.793000", "111214.795000", "111214.798000", "111214.800000", "111214.803000", "111214.805000", "111214.808000", "111214.810000", "111214.813000", "111235.183000", "111235.186000", "111235.188000", "111235.191000", "111235.194000", "111235.196000", "111235.199000", "111235.201000", "111235.204000", "111235.206000", "111235.209000", "111235.211000", "111235.214000", "111235.216000", "111235.219000", "111235.221000", "111235.224000", "111235.227000", "111235.229000", "111235.232000", "111254.783000", "111254.786000", "111254.788000", "111254.791000", "111254.793000", "111254.796000", "111254.798000", "111254.801000", "111254.804000", "111254.806000", "111254.809000", "111254.811000", "111254.814000", "111254.816000", "111254.819000", "111254.821000", "111254.824000", "111254.826000", "111254.829000", "111254.831000", "111334.812000", "111334.815000", "111334.818000", "111334.820000", "111334.823000", "111334.825000", "111334.828000", "111334.831000", "111334.833000", "111334.836000", "111334.838000", "111334.841000", "111334.851000", "111334.854000", "111334.856000", "111334.859000", "111334.861000", "111334.864000", "111334.867000", "111334.869000", "111334.872000", "111334.874000", "111334.877000", "111334.879000", "111334.882000", "111334.885000", "111334.887000", "111334.890000", "111334.892000", "111414.826000", "111414.829000", "111414.832000", "111414.834000", "111414.837000", "111414.840000", "111414.842000", "111414.845000", "111414.847000", "111414.850000", "111414.852000", "111414.855000", "111414.857000", "111414.860000", "111414.862000", "111414.865000", "111414.868000", "111414.870000", "111414.873000", "111414.875000", "111414.878000", "111414.880000", "111414.883000", "111414.885000", "111414.888000", "111414.890000", "111454.800000", "111454.803000", "111454.805000", "111454.808000", "111454.810000", "111454.813000", "111454.815000", "111454.818000", "111454.820000", "111454.823000", "111454.825000", "111454.828000", "111454.830000", "111454.833000", "111454.835000", "111454.838000", "111454.841000", "111454.843000", "111454.846000", "111454.848000", "111454.851000", "111454.853000", "111454.856000", "111454.859000", "111454.861000", "111454.864000", "111454.866000", "111506.927000", "111506.930000", "111506.939000", "111506.941000", "111506.944000", "111506.946000", "111506.949000", "111506.952000", "111506.954000"],
      "InstanceNumber": [1, 2, 3, 4, 5, 6, 7, 8, 9, 10, 11, 12, 13, 14, 15, 16, 17, 18, 19, 20, 21, 22, 23, 24, 25, 26, 27, 28, 29, 30, 31, 32, 33, 34, 35, 36, 37, 38, 39, 40, 41, 42, 43, 44, 45, 46, 47, 48, 49, 50, 51, 52, 53, 54, 55, 56, 57, 58, 59, 60, 61, 62, 63, 64, 65, 66, 67, 68, 69, 70, 71, 72, 73, 74, 75, 76, 77, 78, 79, 80, 81, 82, 83, 84, 85, 86, 87, 88, 89, 90, 91, 92, 93, 94, 95, 96, 97, 98, 99, 100, 101, 102, 103, 104, 105, 106, 107, 108, 109, 110, 111, 112, 113, 114, 115, 116, 117, 118, 119, 120, 121, 122, 123, 124, 125, 126, 127, 128, 129, 130, 131, 132, 133, 134, 135, 136, 137, 138, 139, 140, 141, 142, 143, 144, 145, 146, 147, 148, 149, 150, 151, 152, 153, 154, 155, 156, 157, 158, 159, 160, 161, 162, 163, 164, 165, 166, 167, 168, 169, 170, 171, 172, 173, 174, 175, 176, 177, 178, 179, 180, 181, 182, 183, 184, 185, 186, 187, 188, 189, 190],
      "WindowCenter": [4774.0, 4802.0, 4770.0, 4772.0, 4770.0, 4770.0, 4768.0, 4770.0, 4772.0, 4772.0, 4798.0, 4774.0, 4774.0, 4770.0, 4770.0, 4770.0, 4800.0, 4798.0, 4800.0, 4796.0, 4798.0, 4772.0, 4774.0, 4776.0, 4772.0, 4770.0, 4768.0, 4770.0, 4770.0, 4772.0, 4768.0, 4774.0, 4796.0, 4796.0, 4804.0, 4774.0, 4774.0, 4770.0, 4770.0, 4770.0, 4800.0, 4796.0, 4800.0, 4802.0, 4796.0, 4796.0, 4774.0, 4774.0, 4768.0, 4772.0, 4772.0, 4774.0, 4772.0, 4772.0, 4772.0, 4794.0, 4800.0, 4772.0, 4774.0, 4800.0, 4794.0, 4774.0, 4772.0, 4772.0, 4796.0, 4770.0, 4794.0, 4804.0, 4798.0, 4802.0, 4804.0, 4770.0, 4772.0, 4764.0, 4766.0, 4768.0, 4774.0, 4774.0, 4774.0, 4774.0, 4798.0, 4798.0, 4800.0, 4796.0, 4796.0, 4796.0, 4772.0, 4772.0, 4772.0, 4770.0, 4770.0, 4774.0, 4770.0, 4772.0, 4768.0, 4772.0, 4772.0, 4772.0, 4796.0, 4774.0, 4800.0, 4772.0, 4798.0, 4778.0, 4764.0, 4770.0, 4768.0, 4768.0, 4774.0, 4772.0, 4798.0, 4772.0, 4798.0, 4774.0, 4796.0, 4774.0, 4772.0, 4768.0, 4770.0, 4772.0, 4796.0, 4798.0, 4806.0, 4798.0, 4802.0, 4798.0, 4766.0, 4768.0, 4768.0, 4764.0, 4768.0, 4770.0, 4794.0, 4772.0, 4800.0, 4798.0, 4800.0, 4796.0, 4774.0, 4776.0, 4772.0, 4768.0, 4770.0, 4770.0, 4774.0, 4770.0, 4798.0, 4776.0, 4802.0, 4798.0, 4770.0, 4800.0, 4774.0, 4772.0, 4776.0, 4770.0, 4762.0, 4762.0, 4766.0, 4770.0, 4798.0, 4810.0, 4806.0, 4808.0, 4798.0, 4774.0, 4778.0, 4764.0, 4762.0, 4766.0, 4766.0, 4770.0, 4770.0, 4796.0, 4804.0, 4874.0, 4844.0, 4772.0, 4766.0, 4754.0, 4756.0, 4762.0, 4762.0, 4798.0, 4876.0, 4900.0, 4842.0, 4770.0, 4754.0, 4750.0],
      "WindowWidth": [18516.0, 18534.0, 18510.0, 18510.0, 18522.0, 18518.0, 18526.0, 18512.0, 18514.0, 18522.0, 18538.0, 18524.0, 18510.0, 18522.0, 18522.0, 18522.0, 18540.0, 18546.0, 18542.0, 18552.0, 18542.0, 18520.0, 18512.0, 18506.0, 18524.0, 18508.0, 18522.0, 18514.0, 18522.0, 18522.0, 18518.0, 18516.0, 18542.0, 18546.0, 18538.0, 18520.0, 18516.0, 18520.0, 18530.0, 18524.0, 18534.0, 18544.0, 18542.0, 18538.0, 18540.0, 18544.0, 18524.0, 18516.0, 18524.0, 18510.0, 18522.0, 18518.0, 18512.0, 18520.0, 18512.0, 18554.0, 18542.0, 18524.0, 18518.0, 18548.0, 18548.0, 18508.0, 18524.0, 18514.0, 18554.0, 18520.0, 18554.0, 18532.0, 18540.0, 18536.0, 18530.0, 18524.0, 18522.0, 18528.0, 18518.0, 18530.0, 18518.0, 18512.0, 18512.0, 18512.0, 18548.0, 18538.0, 18540.0, 18548.0, 18542.0, 18540.0, 18514.0, 18514.0, 18516.0, 18504.0, 18520.0, 18506.0, 18512.0, 18524.0, 18512.0, 18526.0, 18516.0, 18520.0, 18540.0, 18514.0, 18538.0, 18518.0, 18534.0, 18504.0, 18512.0, 18524.0, 18514.0, 18526.0, 18518.0, 18522.0, 18538.0, 18512.0, 18536.0, 18512.0, 18546.0, 18516.0, 18516.0, 18520.0, 18526.0, 18522.0, 18540.0, 18546.0, 18536.0, 18544.0, 18532.0, 18540.0, 18520.0, 18516.0, 18538.0, 18516.0, 18516.0, 18528.0, 18540.0, 18514.0, 18542.0, 18538.0, 18534.0, 18538.0, 18520.0, 18512.0, 18530.0, 18520.0, 18510.0, 18522.0, 18512.0, 18520.0, 18536.0, 18516.0, 18538.0, 18540.0, 18520.0, 18532.0, 18518.0, 18518.0, 18500.0, 18516.0, 18528.0, 18526.0, 18520.0, 18514.0, 18548.0, 18534.0, 18540.0, 18542.0, 18536.0, 18522.0, 18514.0, 18532.0, 18524.0, 18520.0, 18528.0, 18524.0, 18520.0, 18550.0, 18542.0, 18602.0, 18568.0, 18518.0, 18528.0, 18534.0, 18540.0, 18526.0, 18526.0, 18540.0, 18600.0, 18624.0, 18560.0, 18514.0, 18536.0, 18550.0]
    },
    "slices": {}
  }
}