{
  "AcquisitionMatrixPE": 104,
  "AcquisitionNumber": 1,
  "AcquisitionTime": "11:04:17.875000",
  "BandwidthPerPixelPhaseEncode": 17.17,
  "BaseResolution": 104,
  "BodyPartExamined": "BRAIN",
  "CoilString": "HC1-7;NC1_2",
  "ConsistencyInfo": "N4_VE11C_LATEST_20160120",
  "ConversionSoftware": "dcm2niix",
  "ConversionSoftwareVersion": "v1.0.20190902",
  "DerivedVendorReportedEchoSpacing": 0.000560011,
  "DeviceSerialNumber": "167006",
  "DwellTime": 2.1e-06,
  "EchoTime": 0.037,
  "EchoTrainLength": 104,
  "EffectiveEchoSpacing": 0.000560011,
  "FlipAngle": 52,
  "ImageComments": "Unaliased_MB4_PE3_LB",
  "ImageOrientationPatientDICOM": [0.99996, 0.00557458, -0.00696002, -0.00837746, 0.854716, -0.519028],
  "ImageType": [
    "ORIGINAL",
    "PRIMARY",
    "P",
    "MB",
    "ND",
    "MOSAIC"
],
  "ImagingFrequency": 123.259,
  "InPlanePhaseEncodingDirectionDICOM": "COL",
  "InstitutionAddress": "Chemin_Queen-Mary_4565_Montreal_District_CA_H3W_1W5",
  "InstitutionName": "IUGM",
  "InstitutionalDepartmentName": "Department",
  "MRAcquisitionType": "2D",
  "MagneticFieldStrength": 3,
  "Manufacturer": "Siemens",
  "ManufacturersModelName": "Prisma_fit",
  "Modality": "MR",
  "MultibandAccelerationFactor": 4,
  "PartialFourier": 1,
  "PatientPosition": "HFS",
  "PercentPhaseFOV": 100,
  "PhaseEncodingDirection": "j",
  "PhaseEncodingSteps": 104,
  "PhaseResolution": 1,
  "PixelBandwidth": 2290,
  "ProcedureStepDescription": "memory_things",
  "ProtocolName": "func_task-things_run-2",
  "PulseSequenceDetails": "%CustomerSeq%_cmrr_mbep2d_bold",
  "ReceiveCoilActiveElements": "HC1-7;NC1,2",
  "ReceiveCoilName": "HeadNeck_64",
  "ReconMatrixPE": 104,
  "RepetitionTime": 1.49,
  "SAR": 0.0406783,
  "ScanOptions": "FS",
  "ScanningSequence": "EP",
  "SequenceName": "epfid2d1_104",
  "SequenceVariant": "SK_SS",
  "SeriesDescription": "func_task-things_run-2",
  "SeriesNumber": 17,
  "ShimSetting": [620, -7181, -8872, 305, 29, -119, -69, -31],
  "SliceThickness": 2,
  "SliceTiming": [0, 0.7825, 0.0975, 0.8825, 0.195, 0.98, 0.2925, 1.0775, 0.3925, 1.175, 0.49, 1.2725, 0.5875, 1.3725, 0.685, 0, 0.7825, 0.0975, 0.8825, 0.195, 0.98, 0.2925, 1.0775, 0.3925, 1.175, 0.49, 1.2725, 0.5875, 1.3725, 0.685, 0, 0.7825, 0.0975, 0.8825, 0.195, 0.98, 0.2925, 1.0775, 0.3925, 1.175, 0.49, 1.2725, 0.5875, 1.3725, 0.685, 0, 0.7825, 0.0975, 0.8825, 0.195, 0.98, 0.2925, 1.0775, 0.3925, 1.175, 0.49, 1.2725, 0.5875, 1.3725, 0.685],
  "SoftwareVersions": "syngo_MR_E11",
  "SpacingBetweenSlices": 2,
  "StationName": "MRC35049",
  "TaskName": "things",
  "TotalReadoutTime": 0.0576811,
  "TxRefAmp": 250.499,
  "WipMemBlock": "59411daa-3c15-4bc8-b0e5-4e60c62d1877||Sequence: R016 ve11c/master r/e634e98; Dec 19 2017 11:00:25 by eja",
  "dcmmeta_affine": [
    [-1.9999204874038696, -0.016754915937781334, -0.006110960617661476, 108.19764709472656],
    [-0.011149153113365173, 1.709432601928711, -1.0381309986114502, -50.060203552246094],
    [-0.013920036144554615, 1.038055658340454, 1.7094579935073853, -93.79600524902344],
    [0.0, 0.0, 0.0, 1.0]
],
  "dcmmeta_reorient_transform": [
    [0.0, -1.0, 0.0, 103.0],
    [1.0, 0.0, 0.0, 0.0],
    [0.0, 0.0, 1.0, 0.0],
    [0.0, 0.0, 0.0, 1.0]
],
  "dcmmeta_shape": [104, 104, 60, 190],
  "dcmmeta_slice_dim": 2,
  "dcmmeta_version": 0.6,
  "global": {
    "const": {
      "AcquisitionMatrix": [104, 0, 0, 104],
      "AngioFlag": "N",
      "BitsAllocated": 16,
      "BitsStored": 16,
      "BodyPartExamined": "BRAIN",
      "Columns": 832,
      "EchoNumbers": 1,
      "EchoTime": 37.0,
      "EchoTrainLength": 104,
      "FlipAngle": 52.0,
      "HighBit": 15,
      "ImageOrientationPatient": [0.99996024032976, 0.00557457668687, -0.0069600182766, -0.0083774578167, 0.85471627498217, -0.519027848464],
      "ImagePositionPatient": [-828.3441572221, -752.30308813698, 396.04289511836],
      "ImageType": [
        "ORIGINAL",
        "PRIMARY",
        "P",
        "MB",
        "ND",
        "MOSAIC"
],
      "ImagedNucleus": "1H",
      "ImagingFrequency": 123.258925,
      "InPlanePhaseEncodingDirection": "COL",
      "LargestImagePixelValue": 4095,
      "MRAcquisitionType": "2D",
      "MagneticFieldStrength": 3.0,
      "Manufacturer": "SIEMENS",
      "ManufacturerModelName": "Prisma_fit",
      "Modality": "MR",
      "NumberOfAverages": 1.0,
      "NumberOfPhaseEncodingSteps": 104,
      "PercentPhaseFieldOfView": 100.0,
      "PercentSampling": 100.0,
      "PerformedProcedureStepStartTime": "102044.005000",
      "PhotometricInterpretation": "MONOCHROME2",
      "PixelBandwidth": 2290.0,
      "PixelRepresentation": 0,
      "PixelSpacing": [2.0, 2.0],
      "ProtocolName": "func_task-things_run-2",
      "RepetitionTime": 1490.0,
      "RescaleIntercept": -4096.0,
      "RescaleSlope": 2.0,
      "RescaleType": "US",
      "Rows": 832,
      "SAR": 0.04067829998399,
      "SamplesPerPixel": 1,
      "ScanOptions": "FS",
      "ScanningSequence": "EP",
      "SequenceName": "epfid2d1_104",
      "SequenceVariant": [
        "SK",
        "SS"
],
      "SeriesDescription": "func_task-things_run-2",
      "SeriesNumber": 17,
      "SeriesTime": "110535.387000",
      "SliceLocation": -54.516237705362,
      "SliceThickness": 2.0,
      "SmallestImagePixelValue": 0,
      "SoftwareVersions": "syngo MR E11",
      "SpacingBetweenSlices": 1.9999999931931,
      "SpecificCharacterSet": "ISO_IR 100",
      "StudyID": "1",
      "StudyTime": "102043.934000",
      "TransmitCoilName": "Body",
      "VariableFlipAngleFlag": "N",
      "WindowCenterWidthExplanation": "Algo1",
      "dBdt": 0.0},
    "slices": {}
  },
  "time": {
    "samples": {
      "AcquisitionNumber": [1, 2, 3, 4, 5, 6, 7, 8, 9, 10, 11, 12, 13, 14, 15, 16, 17, 18, 19, 20, 21, 22, 23, 24, 25, 26, 27, 28, 29, 30, 31, 32, 33, 34, 35, 36, 37, 38, 39, 40, 41, 42, 43, 44, 45, 46, 47, 48, 49, 50, 51, 52, 53, 54, 55, 56, 57, 58, 59, 60, 61, 62, 63, 64, 65, 66, 67, 68, 69, 70, 71, 72, 73, 74, 75, 76, 77, 78, 79, 80, 81, 82, 83, 84, 85, 86, 87, 88, 89, 90, 91, 92, 93, 94, 95, 96, 97, 98, 99, 100, 101, 102, 103, 104, 105, 106, 107, 108, 109, 110, 111, 112, 113, 114, 115, 116, 117, 118, 119, 120, 121, 122, 123, 124, 125, 126, 127, 128, 129, 130, 131, 132, 133, 134, 135, 136, 137, 138, 139, 140, 141, 142, 143, 144, 145, 146, 147, 148, 149, 150, 151, 152, 153, 154, 155, 156, 157, 158, 159, 160, 161, 162, 163, 164, 165, 166, 167, 168, 169, 170, 171, 172, 173, 174, 175, 176, 177, 178, 179, 180, 181, 182, 183, 184, 185, 186, 187, 188, 189, 190],
      "AcquisitionTime": ["110417.875000", "110419.365000", "110420.855000", "110422.345000", "110423.835000", "110425.325000", "110426.815000", "110428.305000", "110429.795000", "110431.285000", "110432.775000", "110434.265000", "110435.755000", "110437.245000", "110438.735000", "110440.225000", "110441.715000", "110443.205000", "110444.695000", "110446.185000", "110447.675000", "110449.165000", "110450.655000", "110452.145000", "110453.635000", "110455.125000", "110456.615000", "110458.105000", "110459.595000", "110501.085000", "110502.575000", "110504.065000", "110505.555000", "110507.045000", "110508.535000", "110510.025000", "110511.515000", "110513.005000", "110514.495000", "110515.985000", "110517.475000", "110518.965000", "110520.455000", "110521.945000", "110523.435000", "110524.925000", "110526.415000", "110527.905000", "110529.395000", "110530.885000", "110532.375000", "110533.865000", "110535.355000", "110536.845000", "110538.335000", "110539.825000", "110541.315000", "110542.805000", "110544.295000", "110545.785000", "110547.275000", "110548.765000", "110550.255000", "110551.745000", "110553.235000", "110554.725000", "110556.215000", "110557.705000", "110559.195000", "110600.685000", "110602.175000", "110603.665000", "110605.155000", "110606.645000", "110608.135000", "110609.625000", "110611.115000", "110612.605000", "110614.095000", "110615.585000", "110617.075000", "110618.565000", "110620.055000", "110621.545000", "110623.035000", "110624.525000", "110626.015000", "110627.505000", "110628.995000", "110630.485000", "110631.975000", "110633.465000", "110634.955000", "110636.445000", "110637.935000", "110639.425000", "110640.915000", "110642.405000", "110643.895000", "110645.385000", "110646.875000", "110648.365000", "110649.855000", "110651.345000", "110652.835000", "110654.325000", "110655.815000", "110657.305000", "110658.795000", "110700.285000", "110701.775000", "110703.265000", "110704.755000", "110706.245000", "110707.735000", "110709.225000", "110710.715000", "110712.205000", "110713.695000", "110715.185000", "110716.675000", "110718.165000", "110719.655000", "110721.145000", "110722.635000", "110724.125000", "110725.615000", "110727.105000", "110728.595000", "110730.085000", "110731.575000", "110733.065000", "110734.555000", "110736.045000", "110737.535000", "110739.025000", "110740.515000", "110742.005000", "110743.495000", "110744.985000", "110746.475000", "110747.965000", "110749.455000", "110750.945000", "110752.435000", "110753.925000", "110755.415000", "110756.905000", "110758.395000", "110759.885000", "110801.375000", "110802.865000", "110804.355000", "110805.845000", "110807.335000", "110808.825000", "110810.315000", "110811.805000", "110813.295000", "110814.785000", "110816.275000", "110817.765000", "110819.255000", "110820.745000", "110822.235000", "110823.725000", "110825.215000", "110826.705000", "110828.195000", "110829.685000", "110831.175000", "110832.665000", "110834.155000", "110835.645000", "110837.135000", "110838.625000", "110840.115000", "110841.605000", "110843.095000", "110844.585000", "110846.075000", "110847.565000", "110849.055000", "110850.545000", "110852.035000", "110853.525000", "110855.015000", "110856.505000", "110857.995000", "110859.485000"],
      "ContentTime": ["110535.389000", "110535.392000", "110535.395000", "110535.397000", "110535.400000", "110535.402000", "110535.405000", "110535.407000", "110535.410000", "110535.412000", "110535.415000", "110535.417000", "110535.420000", "110535.423000", "110535.425000", "110535.428000", "110535.430000", "110535.433000", "110535.435000", "110535.438000", "110535.440000", "110535.443000", "110555.352000", "110555.355000", "110555.357000", "110555.360000", "110555.362000", "110555.365000", "110555.367000", "110555.370000", "110555.372000", "110555.375000", "110555.377000", "110555.380000", "110555.382000", "110555.385000", "110555.387000", "110555.390000", "110555.392000", "110555.395000", "110555.398000", "110555.400000", "110615.334000", "110615.337000", "110615.339000", "110615.342000", "110615.344000", "110615.347000", "110615.349000", "110615.352000", "110615.354000", "110615.357000", "110615.359000", "110615.362000", "110615.364000", "110615.367000", "110615.369000", "110615.372000", "110615.374000", "110615.377000", "110615.379000", "110615.382000", "110635.367000", "110635.370000", "110635.373000", "110635.375000", "110635.378000", "110635.381000", "110635.383000", "110635.386000", "110635.389000", "110635.391000", "110635.404000", "110635.406000", "110635.409000", "110635.411000", "110635.414000", "110635.416000", "110635.419000", "110635.422000", "110635.424000", "110635.427000", "110655.344000", "110655.346000", "110655.349000", "110655.351000", "110655.354000", "110655.357000", "110655.359000", "110655.362000", "110655.364000", "110655.367000", "110655.369000", "110655.372000", "110655.374000", "110655.377000", "110655.379000", "110655.382000", "110655.385000", "110655.388000", "110655.390000", "110655.393000", "110655.395000", "110735.387000", "110735.390000", "110735.392000", "110735.395000", "110735.397000", "110735.406000", "110735.409000", "110735.411000", "110735.414000", "110735.416000", "110735.419000", "110735.421000", "110735.424000", "110735.426000", "110735.429000", "110735.431000", "110735.434000", "110735.436000", "110735.439000", "110735.441000", "110735.444000", "110735.447000", "110735.449000", "110735.452000", "110735.454000", "110735.457000", "110735.459000", "110735.462000", "110735.465000", "110815.371000", "110815.374000", "110815.377000", "110815.379000", "110815.382000", "110815.384000", "110815.387000", "110815.389000", "110815.392000", "110815.395000", "110815.397000", "110815.400000", "110815.402000", "110815.405000", "110815.407000", "110815.410000", "110815.412000", "110815.415000", "110815.417000", "110815.420000", "110815.422000", "110815.425000", "110815.427000", "110815.430000", "110815.433000", "110815.435000", "110815.438000", "110855.373000", "110855.376000", "110855.378000", "110855.381000", "110855.384000", "110855.386000", "110855.389000", "110855.391000", "110855.394000", "110855.396000", "110855.399000", "110855.402000", "110855.404000", "110855.407000", "110855.409000", "110855.412000", "110855.414000", "110855.417000", "110855.419000", "110855.422000", "110855.424000", "110855.427000", "110855.429000", "110855.432000", "110855.434000", "110855.437000", "110855.440000", "110901.212000", "110901.215000", "110901.217000", "110901.220000"],
      "InstanceCreationTime": ["110535.389000", "110535.392000", "110535.395000", "110535.397000", "110535.400000", "110535.402000", "110535.405000", "110535.407000", "110535.410000", "110535.412000", "110535.415000", "110535.417000", "110535.420000", "110535.423000", "110535.425000", "110535.428000", "110535.430000", "110535.433000", "110535.435000", "110535.438000", "110535.440000", "110535.443000", "110555.352000", "110555.355000", "110555.357000", "110555.360000", "110555.362000", "110555.365000", "110555.367000", "110555.370000", "110555.372000", "110555.375000", "110555.377000", "110555.380000", "110555.382000", "110555.385000", "110555.387000", "110555.390000", "110555.392000", "110555.395000", "110555.398000", "110555.400000", "110615.334000", "110615.337000", "110615.339000", "110615.342000", "110615.344000", "110615.347000", "110615.349000", "110615.352000", "110615.354000", "110615.357000", "110615.359000", "110615.362000", "110615.364000", "110615.367000", "110615.369000", "110615.372000", "110615.374000", "110615.377000", "110615.379000", "110615.382000", "110635.367000", "110635.370000", "110635.373000", "110635.375000", "110635.378000", "110635.381000", "110635.383000", "110635.386000", "110635.389000", "110635.391000", "110635.404000", "110635.406000", "110635.409000", "110635.411000", "110635.414000", "110635.416000", "110635.419000", "110635.422000", "110635.424000", "110635.427000", "110655.344000", "110655.346000", "110655.349000", "110655.351000", "110655.354000", "110655.357000", "110655.359000", "110655.362000", "110655.364000", "110655.367000", "110655.369000", "110655.372000", "110655.374000", "110655.377000", "110655.379000", "110655.382000", "110655.385000", "110655.388000", "110655.390000", "110655.393000", "110655.395000", "110735.387000", "110735.390000", "110735.392000", "110735.395000", "110735.397000", "110735.406000", "110735.409000", "110735.411000", "110735.414000", "110735.416000", "110735.419000", "110735.421000", "110735.424000", "110735.426000", "110735.429000", "110735.431000", "110735.434000", "110735.436000", "110735.439000", "110735.441000", "110735.444000", "110735.447000", "110735.449000", "110735.452000", "110735.454000", "110735.457000", "110735.459000", "110735.462000", "110735.465000", "110815.371000", "110815.374000", "110815.377000", "110815.379000", "110815.382000", "110815.384000", "110815.387000", "110815.389000", "110815.392000", "110815.395000", "110815.397000", "110815.400000", "110815.402000", "110815.405000", "110815.407000", "110815.410000", "110815.412000", "110815.415000", "110815.417000", "110815.420000", "110815.422000", "110815.425000", "110815.427000", "110815.430000", "110815.433000", "110815.435000", "110815.438000", "110855.373000", "110855.376000", "110855.378000", "110855.381000", "110855.384000", "110855.386000", "110855.389000", "110855.391000", "110855.394000", "110855.396000", "110855.399000", "110855.402000", "110855.404000", "110855.407000", "110855.409000", "110855.412000", "110855.414000", "110855.417000", "110855.419000", "110855.422000", "110855.424000", "110855.427000", "110855.429000", "110855.432000", "110855.434000", "110855.437000", "110855.440000", "110901.212000", "110901.215000", "110901.217000", "110901.220000"],
      "InstanceNumber": [1, 2, 3, 4, 5, 6, 7, 8, 9, 10, 11, 12, 13, 14, 15, 16, 17, 18, 19, 20, 21, 22, 23, 24, 25, 26, 27, 28, 29, 30, 31, 32, 33, 34, 35, 36, 37, 38, 39, 40, 41, 42, 43, 44, 45, 46, 47, 48, 49, 50, 51, 52, 53, 54, 55, 56, 57, 58, 59, 60, 61, 62, 63, 64, 65, 66, 67, 68, 69, 70, 71, 72, 73, 74, 75, 76, 77, 78, 79, 80, 81, 82, 83, 84, 85, 86, 87, 88, 89, 90, 91, 92, 93, 94, 95, 96, 97, 98, 99, 100, 101, 102, 103, 104, 105, 106, 107, 108, 109, 110, 111, 112, 113, 114, 115, 116, 117, 118, 119, 120, 121, 122, 123, 124, 125, 126, 127, 128, 129, 130, 131, 132, 133, 134, 135, 136, 137, 138, 139, 140, 141, 142, 143, 144, 145, 146, 147, 148, 149, 150, 151, 152, 153, 154, 155, 156, 157, 158, 159, 160, 161, 162, 163, 164, 165, 166, 167, 168, 169, 170, 171, 172, 173, 174, 175, 176, 177, 178, 179, 180, 181, 182, 183, 184, 185, 186, 187, 188, 189, 190],
      "WindowCenter": [4860.0, 4864.0, 4860.0, 4862.0, 4858.0, 4862.0, 4858.0, 4862.0, 4860.0, 4862.0, 4858.0, 4862.0, 4860.0, 4860.0, 4864.0, 4860.0, 4856.0, 4862.0, 4836.0, 4858.0, 4858.0, 4858.0, 4864.0, 4860.0, 4862.0, 4858.0, 4836.0, 4832.0, 4864.0, 4860.0, 4862.0, 4860.0, 4862.0, 4862.0, 4858.0, 4860.0, 4832.0, 4862.0, 4858.0, 4860.0, 4858.0, 4860.0, 4860.0, 4864.0, 4858.0, 4856.0, 4862.0, 4856.0, 4854.0, 4862.0, 4860.0, 4860.0, 4864.0, 4862.0, 4860.0, 4862.0, 4856.0, 4860.0, 4832.0, 4860.0, 4860.0, 4864.0, 4862.0, 4858.0, 4858.0, 4858.0, 4862.0, 4864.0, 4858.0, 4864.0, 4860.0, 4834.0, 4860.0, 4834.0, 4862.0, 4860.0, 4860.0, 4862.0, 4860.0, 4858.0, 4832.0, 4856.0, 4858.0, 4860.0, 4860.0, 4884.0, 4912.0, 4866.0, 4826.0, 4826.0, 4794.0, 4792.0, 4826.0, 4834.0, 4862.0, 4880.0, 4900.0, 4904.0, 4888.0, 4830.0, 4792.0, 4772.0, 4772.0, 4792.0, 4838.0, 4862.0, 4860.0, 4880.0, 4860.0, 4884.0, 4862.0, 4832.0, 4832.0, 4798.0, 4832.0, 4836.0, 4858.0, 4868.0, 4888.0, 4864.0, 4868.0, 4862.0, 4864.0, 4838.0, 4862.0, 4840.0, 4858.0, 4834.0, 4834.0, 4864.0, 4862.0, 4886.0, 4862.0, 4890.0, 4864.0, 4834.0, 4864.0, 4834.0, 4828.0, 4840.0, 4836.0, 4862.0, 4868.0, 4862.0, 4866.0, 4862.0, 4864.0, 4834.0, 4806.0, 4834.0, 4866.0, 4866.0, 4864.0, 4864.0, 4868.0, 4864.0, 4834.0, 4866.0, 4834.0, 4834.0, 4864.0, 4836.0, 4864.0, 4858.0, 4864.0, 4860.0, 4868.0, 4868.0, 4860.0, 4836.0, 4832.0, 4866.0, 4864.0, 4868.0, 4866.0, 4890.0, 4864.0, 4866.0, 4868.0, 4834.0, 4838.0, 4834.0, 4838.0, 4860.0, 4890.0, 4864.0, 4864.0, 4860.0, 4888.0, 4862.0],
      "WindowWidth": [18618.0, 18620.0, 18614.0, 18616.0, 18612.0, 18612.0, 18614.0, 18612.0, 18618.0, 18618.0, 18618.0, 18612.0, 18616.0, 18612.0, 18620.0, 18612.0, 18614.0, 18618.0, 18590.0, 18610.0, 18618.0, 18612.0, 18610.0, 18620.0, 18614.0, 18622.0, 18586.0, 18586.0, 18614.0, 18620.0, 18618.0, 18616.0, 18618.0, 18622.0, 18614.0, 18612.0, 18584.0, 18614.0, 18616.0, 18618.0, 18616.0, 18618.0, 18622.0, 18622.0, 18614.0, 18622.0, 18618.0, 18610.0, 18616.0, 18616.0, 18612.0, 18620.0, 18610.0, 18620.0, 18614.0, 18612.0, 18616.0, 18616.0, 18586.0, 18618.0, 18618.0, 18620.0, 18616.0, 18618.0, 18614.0, 18622.0, 18616.0, 18614.0, 18616.0, 18616.0, 18614.0, 18588.0, 18618.0, 18584.0, 18618.0, 18614.0, 18616.0, 18618.0, 18614.0, 18616.0, 18586.0, 18612.0, 18620.0, 18620.0, 18612.0, 18642.0, 18678.0, 18614.0, 18580.0, 18572.0, 18552.0, 18548.0, 18578.0, 18584.0, 18616.0, 18652.0, 18694.0, 18710.0, 18646.0, 18580.0, 18548.0, 18526.0, 18526.0, 18546.0, 18584.0, 18616.0, 18618.0, 18648.0, 18614.0, 18648.0, 18616.0, 18578.0, 18576.0, 18542.0, 18574.0, 18578.0, 18612.0, 18614.0, 18642.0, 18616.0, 18614.0, 18614.0, 18614.0, 18576.0, 18608.0, 18574.0, 18616.0, 18576.0, 18580.0, 18612.0, 18614.0, 18638.0, 18610.0, 18642.0, 18610.0, 18586.0, 18606.0, 18572.0, 18576.0, 18580.0, 18584.0, 18612.0, 18612.0, 18612.0, 18610.0, 18610.0, 18606.0, 18578.0, 18538.0, 18580.0, 18608.0, 18612.0, 18614.0, 18614.0, 18618.0, 18608.0, 18576.0, 18610.0, 18578.0, 18572.0, 18604.0, 18582.0, 18606.0, 18610.0, 18616.0, 18610.0, 18616.0, 18606.0, 18606.0, 18580.0, 18574.0, 18610.0, 18612.0, 18614.0, 18612.0, 18646.0, 18610.0, 18604.0, 18610.0, 18572.0, 18574.0, 18580.0, 18576.0, 18608.0, 18640.0, 18612.0, 18614.0, 18608.0, 18640.0, 18614.0]
    },
    "slices": {}
  }
}