{
  "AcquisitionMatrixPE": 104,
  "AcquisitionNumber": 1,
  "AcquisitionTime": "11:16:27.695000",
  "BandwidthPerPixelPhaseEncode": 17.17,
  "BaseResolution": 104,
  "BodyPartExamined": "BRAIN",
  "CoilString": "HC1-7;NC1_2",
  "ConsistencyInfo": "N4_VE11C_LATEST_20160120",
  "ConversionSoftware": "dcm2niix",
  "ConversionSoftwareVersion": "v1.0.20190902",
  "DerivedVendorReportedEchoSpacing": 0.000560011,
  "DeviceSerialNumber": "167006",
  "DwellTime": 2.1e-06,
  "EchoTime": 0.037,
  "EchoTrainLength": 104,
  "EffectiveEchoSpacing": 0.000560011,
  "FlipAngle": 52,
  "ImageComments": "Unaliased_MB4_PE3_LB",
  "ImageOrientationPatientDICOM": [0.99996, 0.00557458, -0.00696002, -0.00837746, 0.854716, -0.519028],
  "ImageType": [
    "ORIGINAL",
    "PRIMARY",
    "M",
    "MB",
    "ND",
    "MOSAIC"
],
  "ImagingFrequency": 123.259,
  "InPlanePhaseEncodingDirectionDICOM": "COL",
  "InstitutionAddress": "Chemin_Queen-Mary_4565_Montreal_District_CA_H3W_1W5",
  "InstitutionName": "IUGM",
  "InstitutionalDepartmentName": "Department",
  "MRAcquisitionType": "2D",
  "MagneticFieldStrength": 3,
  "Manufacturer": "Siemens",
  "ManufacturersModelName": "Prisma_fit",
  "Modality": "MR",
  "MultibandAccelerationFactor": 4,
  "PartialFourier": 1,
  "PatientPosition": "HFS",
  "PercentPhaseFOV": 100,
  "PhaseEncodingDirection": "j",
  "PhaseEncodingSteps": 104,
  "PhaseResolution": 1,
  "PixelBandwidth": 2290,
  "ProcedureStepDescription": "memory_things",
  "ProtocolName": "func_task-things_run-4",
  "PulseSequenceDetails": "%CustomerSeq%_cmrr_mbep2d_bold",
  "ReceiveCoilActiveElements": "HC1-7;NC1,2",
  "ReceiveCoilName": "HeadNeck_64",
  "ReconMatrixPE": 104,
  "RepetitionTime": 1.49,
  "SAR": 0.0406783,
  "ScanOptions": "FS",
  "ScanningSequence": "EP",
  "SequenceName": "epfid2d1_104",
  "SequenceVariant": "SK_SS",
  "SeriesDescription": "func_task-things_run-4",
  "SeriesNumber": 22,
  "ShimSetting": [620, -7181, -8872, 305, 29, -119, -69, -31],
  "SliceThickness": 2,
  "SliceTiming": [0, 0.7825, 0.0975, 0.88, 0.195, 0.98, 0.2925, 1.0775, 0.39, 1.175, 0.49, 1.2725, 0.5875, 1.37, 0.685, 0, 0.7825, 0.0975, 0.88, 0.195, 0.98, 0.2925, 1.0775, 0.39, 1.175, 0.49, 1.2725, 0.5875, 1.37, 0.685, 0, 0.7825, 0.0975, 0.88, 0.195, 0.98, 0.2925, 1.0775, 0.39, 1.175, 0.49, 1.2725, 0.5875, 1.37, 0.685, 0, 0.7825, 0.0975, 0.88, 0.195, 0.98, 0.2925, 1.0775, 0.39, 1.175, 0.49, 1.2725, 0.5875, 1.37, 0.685],
  "SoftwareVersions": "syngo_MR_E11",
  "SpacingBetweenSlices": 2,
  "StationName": "MRC35049",
  "TaskName": "things",
  "TotalReadoutTime": 0.0576811,
  "TxRefAmp": 250.499,
  "WipMemBlock": "1aa5e894-0a8a-4373-9753-7ba57fc62e01||Sequence: R016 ve11c/master r/e634e98; Dec 19 2017 11:00:25 by eja",
  "dcmmeta_affine": [
    [-1.9999204874038696, -0.016754915937781334, -0.006110960617661476, 108.19764709472656],
    [-0.011149153113365173, 1.709432601928711, -1.0381309986114502, -50.060203552246094],
    [-0.013920036144554615, 1.038055658340454, 1.7094579935073853, -93.79600524902344],
    [0.0, 0.0, 0.0, 1.0]
],
  "dcmmeta_reorient_transform": [
    [0.0, -1.0, 0.0, 103.0],
    [1.0, 0.0, 0.0, 0.0],
    [0.0, 0.0, 1.0, 0.0],
    [0.0, 0.0, 0.0, 1.0]
],
  "dcmmeta_shape": [104, 104, 60, 190],
  "dcmmeta_slice_dim": 2,
  "dcmmeta_version": 0.6,
  "global": {
    "const": {
      "AcquisitionMatrix": [104, 0, 0, 104],
      "AngioFlag": "N",
      "BitsAllocated": 16,
      "BitsStored": 16,
      "BodyPartExamined": "BRAIN",
      "Columns": 832,
      "EchoNumbers": 1,
      "EchoTime": 37.0,
      "EchoTrainLength": 104,
      "FlipAngle": 52.0,
      "HighBit": 15,
      "ImageOrientationPatient": [0.99996024032976, 0.00557457668687, -0.0069600182766, -0.0083774578167, 0.85471627498217, -0.519027848464],
      "ImagePositionPatient": [-828.3441572221, -752.30308813698, 396.04289511836],
      "ImageType": [
        "ORIGINAL",
        "PRIMARY",
        "M",
        "MB",
        "ND",
        "MOSAIC"
],
      "ImagedNucleus": "1H",
      "ImagingFrequency": 123.258933,
      "InPlanePhaseEncodingDirection": "COL",
      "MRAcquisitionType": "2D",
      "MagneticFieldStrength": 3.0,
      "Manufacturer": "SIEMENS",
      "ManufacturerModelName": "Prisma_fit",
      "Modality": "MR",
      "NumberOfAverages": 1.0,
      "NumberOfPhaseEncodingSteps": 104,
      "PercentPhaseFieldOfView": 100.0,
      "PercentSampling": 100.0,
      "PerformedProcedureStepStartTime": "102044.005000",
      "PhotometricInterpretation": "MONOCHROME2",
      "PixelBandwidth": 2290.0,
      "PixelRepresentation": 0,
      "PixelSpacing": [2.0, 2.0],
      "ProtocolName": "func_task-things_run-4",
      "RepetitionTime": 1490.0,
      "Rows": 832,
      "SAR": 0.04067829998399,
      "SamplesPerPixel": 1,
      "ScanOptions": "FS",
      "ScanningSequence": "EP",
      "SequenceName": "epfid2d1_104",
      "SequenceVariant": [
        "SK",
        "SS"
],
      "SeriesDescription": "func_task-things_run-4",
      "SeriesNumber": 22,
      "SeriesTime": "111755.227000",
      "SliceLocation": -54.516237705362,
      "SliceThickness": 2.0,
      "SmallestImagePixelValue": 0,
      "SoftwareVersions": "syngo MR E11",
      "SpacingBetweenSlices": 1.9999999931931,
      "SpecificCharacterSet": "ISO_IR 100",
      "StudyID": "1",
      "StudyTime": "102043.934000",
      "TransmitCoilName": "Body",
      "VariableFlipAngleFlag": "N",
      "WindowCenterWidthExplanation": "Algo1",
      "dBdt": 0.0},
    "slices": {}
  },
  "time": {
    "samples": {
      "AcquisitionNumber": [1, 2, 3, 4, 5, 6, 7, 8, 9, 10, 11, 12, 13, 14, 15, 16, 17, 18, 19, 20, 21, 22, 23, 24, 25, 26, 27, 28, 29, 30, 31, 32, 33, 34, 35, 36, 37, 38, 39, 40, 41, 42, 43, 44, 45, 46, 47, 48, 49, 50, 51, 52, 53, 54, 55, 56, 57, 58, 59, 60, 61, 62, 63, 64, 65, 66, 67, 68, 69, 70, 71, 72, 73, 74, 75, 76, 77, 78, 79, 80, 81, 82, 83, 84, 85, 86, 87, 88, 89, 90, 91, 92, 93, 94, 95, 96, 97, 98, 99, 100, 101, 102, 103, 104, 105, 106, 107, 108, 109, 110, 111, 112, 113, 114, 115, 116, 117, 118, 119, 120, 121, 122, 123, 124, 125, 126, 127, 128, 129, 130, 131, 132, 133, 134, 135, 136, 137, 138, 139, 140, 141, 142, 143, 144, 145, 146, 147, 148, 149, 150, 151, 152, 153, 154, 155, 156, 157, 158, 159, 160, 161, 162, 163, 164, 165, 166, 167, 168, 169, 170, 171, 172, 173, 174, 175, 176, 177, 178, 179, 180, 181, 182, 183, 184, 185, 186, 187, 188, 189, 190],
      "AcquisitionTime": ["111627.695000", "111629.185000", "111630.675000", "111632.165000", "111633.655000", "111635.145000", "111636.635000", "111638.125000", "111639.615000", "111641.105000", "111642.595000", "111644.085000", "111645.575000", "111647.065000", "111648.555000", "111650.045000", "111651.535000", "111653.025000", "111654.515000", "111656.005000", "111657.495000", "111658.985000", "111700.475000", "111701.965000", "111703.455000", "111704.945000", "111706.435000", "111707.925000", "111709.415000", "111710.905000", "111712.395000", "111713.885000", "111715.375000", "111716.865000", "111718.355000", "111719.845000", "111721.335000", "111722.825000", "111724.315000", "111725.805000", "111727.295000", "111728.785000", "111730.275000", "111731.765000", "111733.255000", "111734.745000", "111736.235000", "111737.725000", "111739.215000", "111740.705000", "111742.195000", "111743.685000", "111745.175000", "111746.665000", "111748.155000", "111749.645000", "111751.135000", "111752.625000", "111754.115000", "111755.605000", "111757.095000", "111758.585000", "111800.075000", "111801.565000", "111803.055000", "111804.545000", "111806.035000", "111807.525000", "111809.015000", "111810.505000", "111811.995000", "111813.485000", "111814.975000", "111816.465000", "111817.955000", "111819.445000", "111820.935000", "111822.425000", "111823.915000", "111825.405000", "111826.895000", "111828.385000", "111829.875000", "111831.365000", "111832.855000", "111834.345000", "111835.835000", "111837.325000", "111838.815000", "111840.305000", "111841.795000", "111843.285000", "111844.775000", "111846.265000", "111847.755000", "111849.245000", "111850.735000", "111852.225000", "111853.715000", "111855.205000", "111856.695000", "111858.185000", "111859.675000", "111901.165000", "111902.655000", "111904.145000", "111905.635000", "111907.125000", "111908.615000", "111910.105000", "111911.595000", "111913.085000", "111914.575000", "111916.065000", "111917.555000", "111919.045000", "111920.535000", "111922.025000", "111923.515000", "111925.005000", "111926.495000", "111927.985000", "111929.475000", "111930.965000", "111932.455000", "111933.945000", "111935.435000", "111936.925000", "111938.415000", "111939.905000", "111941.395000", "111942.885000", "111944.375000", "111945.865000", "111947.355000", "111948.845000", "111950.335000", "111951.825000", "111953.315000", "111954.805000", "111956.295000", "111957.785000", "111959.275000", "112000.765000", "112002.255000", "112003.745000", "112005.235000", "112006.725000", "112008.215000", "112009.705000", "112011.195000", "112012.685000", "112014.175000", "112015.665000", "112017.155000", "112018.645000", "112020.135000", "112021.625000", "112023.115000", "112024.605000", "112026.095000", "112027.585000", "112029.075000", "112030.565000", "112032.055000", "112033.545000", "112035.035000", "112036.525000", "112038.015000", "112039.505000", "112040.995000", "112042.485000", "112043.975000", "112045.465000", "112046.955000", "112048.445000", "112049.935000", "112051.425000", "112052.915000", "112054.405000", "112055.895000", "112057.385000", "112058.875000", "112100.365000", "112101.855000", "112103.345000", "112104.835000", "112106.325000", "112107.815000", "112109.305000"],
      "ContentTime": ["111755.230000", "111755.234000", "111755.237000", "111755.249000", "111755.252000", "111755.256000", "111755.259000", "111755.263000", "111755.266000", "111755.270000", "111755.273000", "111755.276000", "111755.280000", "111755.283000", "111755.287000", "111755.290000", "111755.293000", "111755.297000", "111755.300000", "111755.304000", "111755.307000", "111755.311000", "111755.314000", "111755.317000", "111755.321000", "111755.324000", "111755.328000", "111755.331000", "111755.335000", "111755.338000", "111755.341000", "111755.345000", "111815.191000", "111815.195000", "111815.199000", "111815.202000", "111815.206000", "111815.209000", "111815.212000", "111815.216000", "111815.219000", "111815.222000", "111815.226000", "111815.229000", "111815.233000", "111815.236000", "111815.240000", "111815.243000", "111815.247000", "111815.250000", "111815.253000", "111815.257000", "111815.260000", "111835.191000", "111835.195000", "111835.198000", "111835.202000", "111835.205000", "111835.209000", "111835.212000", "111835.215000", "111835.219000", "111835.222000", "111835.226000", "111835.229000", "111835.233000", "111835.236000", "111835.239000", "111835.243000", "111835.246000", "111835.250000", "111835.253000", "111835.257000", "111855.192000", "111855.196000", "111855.199000", "111855.203000", "111855.206000", "111855.210000", "111855.213000", "111855.217000", "111855.220000", "111855.223000", "111855.227000", "111855.230000", "111855.234000", "111855.237000", "111855.278000", "111855.281000", "111855.285000", "111855.288000", "111855.291000", "111855.295000", "111935.192000", "111935.196000", "111935.200000", "111935.203000", "111935.207000", "111935.210000", "111935.214000", "111935.217000", "111935.221000", "111935.224000", "111935.227000", "111935.231000", "111935.234000", "111935.238000", "111935.242000", "111935.245000", "111935.249000", "111935.252000", "111935.256000", "111935.259000", "111935.263000", "111935.266000", "111935.270000", "111935.273000", "111935.276000", "111935.280000", "111935.283000", "111935.287000", "111935.290000", "111935.293000", "111935.297000", "111935.300000", "111955.192000", "111955.195000", "111955.199000", "111955.202000", "111955.206000", "111955.209000", "111955.213000", "111955.216000", "111955.219000", "111955.223000", "111955.226000", "111955.230000", "111955.233000", "112035.191000", "112035.195000", "112035.199000", "112035.202000", "112035.206000", "112035.209000", "112035.213000", "112035.216000", "112035.219000", "112035.223000", "112035.226000", "112035.230000", "112035.233000", "112035.237000", "112035.240000", "112035.244000", "112035.247000", "112035.251000", "112035.254000", "112035.258000", "112035.261000", "112035.265000", "112035.268000", "112035.272000", "112035.275000", "112035.279000", "112035.286000", "112111.660000", "112111.664000", "112111.668000", "112111.672000", "112111.675000", "112111.679000", "112111.682000", "112111.686000", "112111.689000", "112111.693000", "112111.696000", "112111.700000", "112111.703000", "112111.707000", "112111.710000", "112111.713000", "112111.717000", "112111.720000", "112111.724000", "112111.727000", "112111.731000", "112111.735000", "112111.738000", "112111.742000", "112111.745000"],
      "InstanceCreationTime": ["111755.230000", "111755.234000", "111755.237000", "111755.249000", "111755.252000", "111755.256000", "111755.259000", "111755.263000", "111755.266000", "111755.270000", "111755.273000", "111755.276000", "111755.280000", "111755.283000", "111755.287000", "111755.290000", "111755.293000", "111755.297000", "111755.300000", "111755.304000", "111755.307000", "111755.311000", "111755.314000", "111755.317000", "111755.321000", "111755.324000", "111755.328000", "111755.331000", "111755.335000", "111755.338000", "111755.341000", "111755.345000", "111815.191000", "111815.195000", "111815.199000", "111815.202000", "111815.206000", "111815.209000", "111815.212000", "111815.216000", "111815.219000", "111815.222000", "111815.226000", "111815.229000", "111815.233000", "111815.236000", "111815.240000", "111815.243000", "111815.247000", "111815.250000", "111815.253000", "111815.257000", "111815.260000", "111835.191000", "111835.195000", "111835.198000", "111835.202000", "111835.205000", "111835.209000", "111835.212000", "111835.215000", "111835.219000", "111835.222000", "111835.226000", "111835.229000", "111835.233000", "111835.236000", "111835.239000", "111835.243000", "111835.246000", "111835.250000", "111835.253000", "111835.257000", "111855.192000", "111855.196000", "111855.199000", "111855.203000", "111855.206000", "111855.210000", "111855.213000", "111855.217000", "111855.220000", "111855.223000", "111855.227000", "111855.230000", "111855.234000", "111855.237000", "111855.278000", "111855.281000", "111855.285000", "111855.288000", "111855.291000", "111855.295000", "111935.192000", "111935.196000", "111935.200000", "111935.203000", "111935.207000", "111935.210000", "111935.214000", "111935.217000", "111935.221000", "111935.224000", "111935.227000", "111935.231000", "111935.234000", "111935.238000", "111935.242000", "111935.245000", "111935.249000", "111935.252000", "111935.256000", "111935.259000", "111935.263000", "111935.266000", "111935.270000", "111935.273000", "111935.276000", "111935.280000", "111935.283000", "111935.287000", "111935.290000", "111935.293000", "111935.297000", "111935.300000", "111955.192000", "111955.195000", "111955.199000", "111955.202000", "111955.206000", "111955.209000", "111955.213000", "111955.216000", "111955.219000", "111955.223000", "111955.226000", "111955.230000", "111955.233000", "112035.191000", "112035.195000", "112035.199000", "112035.202000", "112035.206000", "112035.209000", "112035.213000", "112035.216000", "112035.219000", "112035.223000", "112035.226000", "112035.230000", "112035.233000", "112035.237000", "112035.240000", "112035.244000", "112035.247000", "112035.251000", "112035.254000", "112035.258000", "112035.261000", "112035.265000", "112035.268000", "112035.272000", "112035.275000", "112035.279000", "112035.286000", "112111.660000", "112111.664000", "112111.668000", "112111.672000", "112111.675000", "112111.679000", "112111.682000", "112111.686000", "112111.689000", "112111.693000", "112111.696000", "112111.700000", "112111.703000", "112111.707000", "112111.710000", "112111.713000", "112111.717000", "112111.720000", "112111.724000", "112111.727000", "112111.731000", "112111.735000", "112111.738000", "112111.742000", "112111.745000"],
      "InstanceNumber": [1, 2, 3, 4, 5, 6, 7, 8, 9, 10, 11, 12, 13, 14, 15, 16, 17, 18, 19, 20, 21, 22, 23, 24, 25, 26, 27, 28, 29, 30, 31, 32, 33, 34, 35, 36, 37, 38, 39, 40, 41, 42, 43, 44, 45, 46, 47, 48, 49, 50, 51, 52, 53, 54, 55, 56, 57, 58, 59, 60, 61, 62, 63, 64, 65, 66, 67, 68, 69, 70, 71, 72, 73, 74, 75, 76, 77, 78, 79, 80, 81, 82, 83, 84, 85, 86, 87, 88, 89, 90, 91, 92, 93, 94, 95, 96, 97, 98, 99, 100, 101, 102, 103, 104, 105, 106, 107, 108, 109, 110, 111, 112, 113, 114, 115, 116, 117, 118, 119, 120, 121, 122, 123, 124, 125, 126, 127, 128, 129, 130, 131, 132, 133, 134, 135, 136, 137, 138, 139, 140, 141, 142, 143, 144, 145, 146, 147, 148, 149, 150, 151, 152, 153, 154, 155, 156, 157, 158, 159, 160, 161, 162, 163, 164, 165, 166, 167, 168, 169, 170, 171, 172, 173, 174, 175, 176, 177, 178, 179, 180, 181, 182, 183, 184, 185, 186, 187, 188, 189, 190],
      "LargestImagePixelValue": [47236, 46026, 45820, 44889, 44430, 45464, 45487, 45331, 45387, 45149, 44922, 45505, 44953, 45150, 45169, 45107, 44652, 45473, 45049, 44903, 45242, 45365, 45055, 44869, 44265, 45163, 44326, 45405, 45081, 45276, 45381, 44502, 44509, 44817, 45143, 45064, 45551, 44633, 45185, 45227, 44878, 45034, 44619, 44441, 45020, 44903, 44850, 45091, 44621, 44498, 44738, 44700, 45198, 44610, 44482, 44775, 44896, 44940, 44943, 45253, 45120, 44511, 45124, 44878, 45350, 45119, 44679, 44627, 44670, 44468, 44503, 44288, 44594, 45022, 45182, 44439, 44833, 44411, 44835, 44832, 44750, 44774, 44470, 44398, 44489, 44829, 44261, 44492, 44791, 44732, 44614, 44605, 44492, 44428, 44560, 44259, 44090, 44220, 44393, 44444, 44331, 44448, 44075, 44374, 44267, 44296, 44261, 44136, 44035, 44207, 44077, 44193, 44528, 44583, 43823, 43937, 44049, 44012, 44288, 44226, 44149, 44540, 43965, 44457, 43500, 44422, 43642, 43492, 43996, 44370, 44492, 43885, 43656, 43823, 43756, 43586, 43539, 43904, 43570, 43768, 43372, 43271, 44187, 43849, 44080, 45157, 45166, 43911, 44022, 43618, 45017, 44550, 44530, 43519, 43632, 43555, 43796, 44134, 44326, 43714, 43895, 43262, 44596, 44668, 44726, 43719, 43470, 43817, 44442, 43266, 43536, 44328, 43193, 43917, 43690, 43475, 43964, 43921, 43483, 43873, 43708, 43702, 43412, 43771, 43618, 43373, 43434, 43325, 42992, 43421],
      "WindowCenter": [11006.0, 10949.0, 10931.0, 10929.0, 10899.0, 10877.0, 10874.0, 10887.0, 10913.0, 10912.0, 10902.0, 10897.0, 10878.0, 10881.0, 10879.0, 10889.0, 10874.0, 10887.0, 10906.0, 10889.0, 10888.0, 10901.0, 10906.0, 10903.0, 10885.0, 10887.0, 10877.0, 10892.0, 10890.0, 10884.0, 10901.0, 10894.0, 10886.0, 10868.0, 10859.0, 10857.0, 10858.0, 10863.0, 10875.0, 10878.0, 10871.0, 10883.0, 10873.0, 10850.0, 10841.0, 10834.0, 10856.0, 10868.0, 10871.0, 10852.0, 10850.0, 10858.0, 10873.0, 10873.0, 10866.0, 10843.0, 10822.0, 10839.0, 10865.0, 10878.0, 10891.0, 10860.0, 10862.0, 10862.0, 10867.0, 10870.0, 10872.0, 10860.0, 10861.0, 10872.0, 10888.0, 10895.0, 10886.0, 10870.0, 10868.0, 10874.0, 10880.0, 10882.0, 10893.0, 10883.0, 10882.0, 10886.0, 10868.0, 10857.0, 10858.0, 10872.0, 10868.0, 10851.0, 10843.0, 10847.0, 10853.0, 10863.0, 10872.0, 10866.0, 10866.0, 10851.0, 10848.0, 10852.0, 10852.0, 10862.0, 10865.0, 10867.0, 10859.0, 10840.0, 10838.0, 10845.0, 10844.0, 10855.0, 10866.0, 10867.0, 10861.0, 10851.0, 10854.0, 10858.0, 10844.0, 10831.0, 10831.0, 10837.0, 10838.0, 10840.0, 10841.0, 10838.0, 10834.0, 10840.0, 10833.0, 10863.0, 10847.0, 10825.0, 10820.0, 10840.0, 10855.0, 10861.0, 10849.0, 10842.0, 10834.0, 10842.0, 10852.0, 10858.0, 10852.0, 10848.0, 10845.0, 10847.0, 10853.0, 10849.0, 10857.0, 10848.0, 10827.0, 10830.0, 10861.0, 10882.0, 10889.0, 10848.0, 10834.0, 10832.0, 10844.0, 10851.0, 10844.0, 10821.0, 10823.0, 10827.0, 10838.0, 10841.0, 10855.0, 10827.0, 10822.0, 10838.0, 10850.0, 10862.0, 10868.0, 10849.0, 10846.0, 10848.0, 10829.0, 10842.0, 10844.0, 10837.0, 10842.0, 10851.0, 10855.0, 10853.0, 10853.0, 10834.0, 10825.0, 10831.0, 10826.0, 10843.0, 10837.0, 10830.0, 10825.0, 10820.0],
      "WindowWidth": [23709.0, 23541.0, 23475.0, 23462.0, 23390.0, 23330.0, 23319.0, 23346.0, 23403.0, 23405.0, 23379.0, 23363.0, 23325.0, 23329.0, 23326.0, 23350.0, 23320.0, 23344.0, 23388.0, 23353.0, 23347.0, 23372.0, 23386.0, 23383.0, 23347.0, 23346.0, 23325.0, 23355.0, 23352.0, 23338.0, 23373.0, 23363.0, 23344.0, 23301.0, 23276.0, 23271.0, 23277.0, 23296.0, 23316.0, 23324.0, 23310.0, 23334.0, 23314.0, 23268.0, 23239.0, 23225.0, 23273.0, 23297.0, 23312.0, 23268.0, 23258.0, 23276.0, 23309.0, 23314.0, 23301.0, 23249.0, 23194.0, 23234.0, 23295.0, 23324.0, 23357.0, 23286.0, 23286.0, 23284.0, 23295.0, 23305.0, 23314.0, 23287.0, 23289.0, 23314.0, 23350.0, 23366.0, 23344.0, 23306.0, 23296.0, 23313.0, 23325.0, 23331.0, 23354.0, 23333.0, 23327.0, 23339.0, 23305.0, 23273.0, 23275.0, 23304.0, 23296.0, 23258.0, 23234.0, 23243.0, 23260.0, 23285.0, 23304.0, 23291.0, 23292.0, 23259.0, 23249.0, 23261.0, 23258.0, 23281.0, 23288.0, 23295.0, 23276.0, 23238.0, 23232.0, 23250.0, 23247.0, 23271.0, 23295.0, 23295.0, 23281.0, 23258.0, 23260.0, 23271.0, 23243.0, 23212.0, 23214.0, 23225.0, 23227.0, 23233.0, 23233.0, 23226.0, 23218.0, 23230.0, 23215.0, 23281.0, 23253.0, 23207.0, 23191.0, 23231.0, 23269.0, 23284.0, 23262.0, 23238.0, 23222.0, 23240.0, 23264.0, 23276.0, 23267.0, 23257.0, 23250.0, 23256.0, 23269.0, 23254.0, 23274.0, 23251.0, 23201.0, 23216.0, 23281.0, 23334.0, 23348.0, 23254.0, 23215.0, 23217.0, 23243.0, 23259.0, 23245.0, 23193.0, 23189.0, 23201.0, 23228.0, 23240.0, 23270.0, 23208.0, 23190.0, 23231.0, 23257.0, 23285.0, 23297.0, 23257.0, 23249.0, 23251.0, 23211.0, 23238.0, 23249.0, 23231.0, 23238.0, 23260.0, 23271.0, 23262.0, 23262.0, 23222.0, 23202.0, 23215.0, 23201.0, 23241.0, 23230.0, 23214.0, 23208.0, 23193.0]
    },
    "slices": {}
  }
}