{
  "AcquisitionMatrixPE": 104,
  "AcquisitionNumber": 1,
  "AcquisitionTime": "11:02:55.195000",
  "BandwidthPerPixelPhaseEncode": 17.17,
  "BaseResolution": 104,
  "BodyPartExamined": "BRAIN",
  "CoilString": "HC1-7;NC1_2",
  "ConsistencyInfo": "N4_VE11C_LATEST_20160120",
  "ConversionSoftware": "dcm2niix",
  "ConversionSoftwareVersion": "v1.0.20190902",
  "DerivedVendorReportedEchoSpacing": 0.000560011,
  "DeviceSerialNumber": "167006",
  "DwellTime": 2.1e-06,
  "EchoTime": 0.037,
  "EchoTrainLength": 104,
  "EffectiveEchoSpacing": 0.000560011,
  "FlipAngle": 52,
  "ImageComments": "Unaliased_MB4_PE3_LB",
  "ImageOrientationPatientDICOM": [0.999603, 0.0241964, 0.0144483, -0.0139579, 0.870451, -0.492058],
  "ImageType": [
    "ORIGINAL",
    "PRIMARY",
    "P",
    "MB",
    "ND",
    "MOSAIC"
],
  "ImagingFrequency": 123.259,
  "InPlanePhaseEncodingDirectionDICOM": "COL",
  "InstitutionAddress": "Chemin_Queen-Mary_4565_Montreal_District_CA_H3W_1W5",
  "InstitutionName": "IUGM",
  "InstitutionalDepartmentName": "Department",
  "MRAcquisitionType": "2D",
  "MagneticFieldStrength": 3,
  "Manufacturer": "Siemens",
  "ManufacturersModelName": "Prisma_fit",
  "Modality": "MR",
  "MultibandAccelerationFactor": 4,
  "PartialFourier": 1,
  "PatientPosition": "HFS",
  "PercentPhaseFOV": 100,
  "PhaseEncodingDirection": "j",
  "PhaseEncodingSteps": 104,
  "PhaseResolution": 1,
  "PixelBandwidth": 2290,
  "ProcedureStepDescription": "memory_things",
  "ProtocolName": "func_task-things_run-1",
  "PulseSequenceDetails": "%CustomerSeq%_cmrr_mbep2d_bold",
  "ReceiveCoilActiveElements": "HC1-7;NC1,2",
  "ReceiveCoilName": "HeadNeck_64",
  "ReconMatrixPE": 104,
  "RepetitionTime": 1.49,
  "SAR": 0.0669132,
  "ScanOptions": "FS",
  "ScanningSequence": "EP",
  "SequenceName": "epfid2d1_104",
  "SequenceVariant": "SK_SS",
  "SeriesDescription": "func_task-things_run-1",
  "SeriesNumber": 11,
  "ShimSetting": [618, -7182, -8854, 310, -8, -107, -6, -52],
  "SliceThickness": 2,
  "SliceTiming": [0, 0.785, 0.0975, 0.8825, 0.195, 0.98, 0.295, 1.0775, 0.3925, 1.175, 0.49, 1.275, 0.5875, 1.3725, 0.685, 0, 0.785, 0.0975, 0.8825, 0.195, 0.98, 0.295, 1.0775, 0.3925, 1.175, 0.49, 1.275, 0.5875, 1.3725, 0.685, 0, 0.785, 0.0975, 0.8825, 0.195, 0.98, 0.295, 1.0775, 0.3925, 1.175, 0.49, 1.275, 0.5875, 1.3725, 0.685, 0, 0.785, 0.0975, 0.8825, 0.195, 0.98, 0.295, 1.0775, 0.3925, 1.175, 0.49, 1.275, 0.5875, 1.3725, 0.685],
  "SoftwareVersions": "syngo_MR_E11",
  "SpacingBetweenSlices": 2,
  "StationName": "MRC35049",
  "TaskName": "things",
  "TotalReadoutTime": 0.0576811,
  "TxRefAmp": 337.054,
  "WipMemBlock": "41b60bec-ab9d-4039-8c78-942d1d58fee5||Sequence: R016 ve11c/master r/e634e98; Dec 19 2017 11:00:25 by eja",
  "dcmmeta_affine": [
    [-1.9992055892944336, -0.027915868908166885, 0.048965174704790115, 107.4001235961914],
    [-0.04839286208152771, 1.740901231765747, -0.9833214282989502, -50.167640686035156],
    [0.0288966316729784, 0.9841156601905823, 1.7408852577209473, -89.67569732666016],
    [0.0, 0.0, 0.0, 1.0]
],
  "dcmmeta_reorient_transform": [
    [0.0, -1.0, 0.0, 103.0],
    [1.0, 0.0, 0.0, 0.0],
    [0.0, 0.0, 1.0, 0.0],
    [0.0, 0.0, 0.0, 1.0]
],
  "dcmmeta_shape": [104, 104, 60, 190],
  "dcmmeta_slice_dim": 2,
  "dcmmeta_version": 0.6,
  "global": {
    "const": {
      "AcquisitionMatrix": [104, 0, 0, 104],
      "AngioFlag": "N",
      "BitsAllocated": 16,
      "BitsStored": 16,
      "BodyPartExamined": "BRAIN",
      "Columns": 832,
      "EchoNumbers": 1,
      "EchoTime": 37.0,
      "EchoTrainLength": 104,
      "FlipAngle": 52.0,
      "HighBit": 15,
      "ImageOrientationPatient": [0.99960281059407, 0.02419643013385, 0.01444831551451, -0.0139579346639, 0.87045061364973, -0.4920578271471],
      "ImagePositionPatient": [-822.07425842688, -780.4482348066, 359.38793649326],
      "ImageType": [
        "ORIGINAL",
        "PRIMARY",
        "P",
        "MB",
        "ND",
        "MOSAIC"
],
      "ImagedNucleus": "1H",
      "ImagingFrequency": 123.258956,
      "InPlanePhaseEncodingDirection": "COL",
      "LargestImagePixelValue": 4095,
      "MRAcquisitionType": "2D",
      "MagneticFieldStrength": 3.0,
      "Manufacturer": "SIEMENS",
      "ManufacturerModelName": "Prisma_fit",
      "Modality": "MR",
      "NumberOfAverages": 1.0,
      "NumberOfPhaseEncodingSteps": 104,
      "PercentPhaseFieldOfView": 100.0,
      "PercentSampling": 100.0,
      "PerformedProcedureStepStartTime": "103720.072000",
      "PhotometricInterpretation": "MONOCHROME2",
      "PixelBandwidth": 2290.0,
      "PixelRepresentation": 0,
      "PixelSpacing": [2.0, 2.0],
      "ProtocolName": "func_task-things_run-1",
      "RepetitionTime": 1490.0,
      "RescaleIntercept": -4096.0,
      "RescaleSlope": 2.0,
      "RescaleType": "US",
      "Rows": 832,
      "SAR": 0.06691318795065,
      "SamplesPerPixel": 1,
      "ScanOptions": "FS",
      "ScanningSequence": "EP",
      "SequenceName": "epfid2d1_104",
      "SequenceVariant": [
        "SK",
        "SS"
],
      "SeriesDescription": "func_task-things_run-1",
      "SeriesNumber": 11,
      "SeriesTime": "110351.439000",
      "SliceLocation": -50.762660240096,
      "SliceThickness": 2.0,
      "SmallestImagePixelValue": 0,
      "SoftwareVersions": "syngo MR E11",
      "SpacingBetweenSlices": 1.9999999785079,
      "SpecificCharacterSet": "ISO_IR 100",
      "StudyID": "1",
      "StudyTime": "103719.995000",
      "TransmitCoilName": "Body",
      "VariableFlipAngleFlag": "N",
      "WindowCenterWidthExplanation": "Algo1",
      "dBdt": 0.0},
    "slices": {}
  },
  "time": {
    "samples": {
      "AcquisitionNumber": [1, 2, 3, 4, 5, 6, 7, 8, 9, 10, 11, 12, 13, 14, 15, 16, 17, 18, 19, 20, 21, 22, 23, 24, 25, 26, 27, 28, 29, 30, 31, 32, 33, 34, 35, 36, 37, 38, 39, 40, 41, 42, 43, 44, 45, 46, 47, 48, 49, 50, 51, 52, 53, 54, 55, 56, 57, 58, 59, 60, 61, 62, 63, 64, 65, 66, 67, 68, 69, 70, 71, 72, 73, 74, 75, 76, 77, 78, 79, 80, 81, 82, 83, 84, 85, 86, 87, 88, 89, 90, 91, 92, 93, 94, 95, 96, 97, 98, 99, 100, 101, 102, 103, 104, 105, 106, 107, 108, 109, 110, 111, 112, 113, 114, 115, 116, 117, 118, 119, 120, 121, 122, 123, 124, 125, 126, 127, 128, 129, 130, 131, 132, 133, 134, 135, 136, 137, 138, 139, 140, 141, 142, 143, 144, 145, 146, 147, 148, 149, 150, 151, 152, 153, 154, 155, 156, 157, 158, 159, 160, 161, 162, 163, 164, 165, 166, 167, 168, 169, 170, 171, 172, 173, 174, 175, 176, 177, 178, 179, 180, 181, 182, 183, 184, 185, 186, 187, 188, 189, 190],
      "AcquisitionTime": ["110255.195000", "110256.685000", "110258.175000", "110259.665000", "110301.155000", "110302.645000", "110304.135000", "110305.625000", "110307.115000", "110308.605000", "110310.095000", "110311.585000", "110313.075000", "110314.565000", "110316.055000", "110317.545000", "110319.035000", "110320.525000", "110322.015000", "110323.505000", "110324.995000", "110326.485000", "110327.975000", "110329.465000", "110330.955000", "110332.445000", "110333.935000", "110335.425000", "110336.915000", "110338.405000", "110339.895000", "110341.385000", "110342.875000", "110344.365000", "110345.855000", "110347.345000", "110348.835000", "110350.325000", "110351.815000", "110353.305000", "110354.795000", "110356.285000", "110357.775000", "110359.265000", "110400.755000", "110402.245000", "110403.735000", "110405.225000", "110406.715000", "110408.205000", "110409.695000", "110411.185000", "110412.675000", "110414.165000", "110415.655000", "110417.145000", "110418.635000", "110420.125000", "110421.615000", "110423.105000", "110424.595000", "110426.085000", "110427.575000", "110429.065000", "110430.555000", "110432.045000", "110433.535000", "110435.025000", "110436.515000", "110438.005000", "110439.495000", "110440.985000", "110442.475000", "110443.965000", "110445.455000", "110446.945000", "110448.435000", "110449.925000", "110451.415000", "110452.905000", "110454.395000", "110455.885000", "110457.375000", "110458.865000", "110500.355000", "110501.845000", "110503.335000", "110504.825000", "110506.315000", "110507.805000", "110509.295000", "110510.785000", "110512.275000", "110513.765000", "110515.255000", "110516.745000", "110518.235000", "110519.725000", "110521.215000", "110522.705000", "110524.195000", "110525.685000", "110527.175000", "110528.665000", "110530.155000", "110531.645000", "110533.135000", "110534.625000", "110536.115000", "110537.605000", "110539.095000", "110540.585000", "110542.075000", "110543.565000", "110545.055000", "110546.545000", "110548.035000", "110549.525000", "110551.015000", "110552.505000", "110553.995000", "110555.485000", "110556.975000", "110558.465000", "110559.955000", "110601.445000", "110602.935000", "110604.425000", "110605.915000", "110607.405000", "110608.895000", "110610.385000", "110611.875000", "110613.365000", "110614.855000", "110616.345000", "110617.835000", "110619.325000", "110620.815000", "110622.305000", "110623.795000", "110625.285000", "110626.775000", "110628.265000", "110629.755000", "110631.245000", "110632.735000", "110634.225000", "110635.715000", "110637.205000", "110638.695000", "110640.185000", "110641.675000", "110643.165000", "110644.655000", "110646.145000", "110647.635000", "110649.125000", "110650.615000", "110652.105000", "110653.595000", "110655.085000", "110656.575000", "110658.065000", "110659.555000", "110701.045000", "110702.535000", "110704.025000", "110705.515000", "110707.005000", "110708.495000", "110709.985000", "110711.475000", "110712.965000", "110714.455000", "110715.945000", "110717.435000", "110718.925000", "110720.415000", "110721.905000", "110723.395000", "110724.885000", "110726.375000", "110727.865000", "110729.355000", "110730.845000", "110732.335000", "110733.825000", "110735.315000", "110736.805000"],
      "ContentTime": ["110351.441000", "110351.444000", "110411.507000", "110411.510000", "110411.512000", "110411.515000", "110411.517000", "110411.520000", "110411.522000", "110411.525000", "110411.527000", "110411.530000", "110411.532000", "110411.535000", "110411.537000", "110411.540000", "110411.542000", "110411.544000", "110411.547000", "110411.549000", "110411.552000", "110411.554000", "110431.489000", "110431.492000", "110431.494000", "110431.497000", "110431.499000", "110431.502000", "110431.504000", "110431.506000", "110431.509000", "110431.511000", "110431.514000", "110431.516000", "110431.519000", "110431.521000", "110431.524000", "110431.526000", "110431.529000", "110431.531000", "110431.534000", "110431.536000", "110451.500000", "110451.502000", "110451.505000", "110451.507000", "110451.510000", "110451.512000", "110451.515000", "110451.517000", "110451.520000", "110451.522000", "110451.525000", "110451.527000", "110451.530000", "110451.532000", "110451.535000", "110451.537000", "110451.539000", "110451.542000", "110451.544000", "110451.547000", "110511.504000", "110511.507000", "110511.509000", "110511.512000", "110511.514000", "110511.517000", "110511.519000", "110511.522000", "110511.524000", "110511.527000", "110511.529000", "110511.532000", "110511.534000", "110511.537000", "110511.539000", "110511.542000", "110511.544000", "110511.547000", "110511.549000", "110511.552000", "110531.514000", "110531.517000", "110531.520000", "110531.522000", "110531.525000", "110531.527000", "110531.530000", "110531.532000", "110531.535000", "110531.537000", "110531.540000", "110531.542000", "110531.544000", "110531.547000", "110531.549000", "110531.552000", "110531.554000", "110531.557000", "110531.567000", "110531.569000", "110611.535000", "110611.538000", "110611.541000", "110611.543000", "110611.546000", "110611.548000", "110611.551000", "110611.553000", "110611.556000", "110611.558000", "110611.561000", "110611.563000", "110611.566000", "110611.578000", "110611.581000", "110611.583000", "110611.586000", "110611.588000", "110611.591000", "110611.593000", "110611.596000", "110611.598000", "110611.601000", "110611.603000", "110611.606000", "110611.608000", "110611.611000", "110611.613000", "110611.616000", "110651.520000", "110651.522000", "110651.525000", "110651.527000", "110651.530000", "110651.532000", "110651.535000", "110651.537000", "110651.540000", "110651.542000", "110651.545000", "110651.547000", "110651.550000", "110651.552000", "110651.555000", "110651.557000", "110651.560000", "110651.562000", "110651.565000", "110651.567000", "110651.570000", "110651.573000", "110651.575000", "110651.578000", "110651.580000", "110651.583000", "110651.585000", "110731.510000", "110731.512000", "110731.515000", "110731.517000", "110731.520000", "110731.522000", "110731.525000", "110731.527000", "110731.530000", "110731.532000", "110731.535000", "110731.537000", "110731.540000", "110731.542000", "110731.545000", "110731.547000", "110731.549000", "110731.552000", "110731.554000", "110731.557000", "110731.559000", "110731.562000", "110731.564000", "110731.567000", "110731.569000", "110731.572000", "110731.575000", "110738.977000", "110738.980000", "110738.982000", "110738.985000", "110738.988000"],
      "InstanceCreationTime": ["110351.441000", "110351.444000", "110411.507000", "110411.510000", "110411.512000", "110411.515000", "110411.517000", "110411.520000", "110411.522000", "110411.525000", "110411.527000", "110411.530000", "110411.532000", "110411.535000", "110411.537000", "110411.540000", "110411.542000", "110411.544000", "110411.547000", "110411.549000", "110411.552000", "110411.554000", "110431.489000", "110431.492000", "110431.494000", "110431.497000", "110431.499000", "110431.502000", "110431.504000", "110431.506000", "110431.509000", "110431.511000", "110431.514000", "110431.516000", "110431.519000", "110431.521000", "110431.524000", "110431.526000", "110431.529000", "110431.531000", "110431.534000", "110431.536000", "110451.500000", "110451.502000", "110451.505000", "110451.507000", "110451.510000", "110451.512000", "110451.515000", "110451.517000", "110451.520000", "110451.522000", "110451.525000", "110451.527000", "110451.530000", "110451.532000", "110451.535000", "110451.537000", "110451.539000", "110451.542000", "110451.544000", "110451.547000", "110511.504000", "110511.507000", "110511.509000", "110511.512000", "110511.514000", "110511.517000", "110511.519000", "110511.522000", "110511.524000", "110511.527000", "110511.529000", "110511.532000", "110511.534000", "110511.537000", "110511.539000", "110511.542000", "110511.544000", "110511.547000", "110511.549000", "110511.552000", "110531.514000", "110531.517000", "110531.520000", "110531.522000", "110531.525000", "110531.527000", "110531.530000", "110531.532000", "110531.535000", "110531.537000", "110531.540000", "110531.542000", "110531.544000", "110531.547000", "110531.549000", "110531.552000", "110531.554000", "110531.557000", "110531.567000", "110531.569000", "110611.535000", "110611.538000", "110611.541000", "110611.543000", "110611.546000", "110611.548000", "110611.551000", "110611.553000", "110611.556000", "110611.558000", "110611.561000", "110611.563000", "110611.566000", "110611.578000", "110611.581000", "110611.583000", "110611.586000", "110611.588000", "110611.591000", "110611.593000", "110611.596000", "110611.598000", "110611.601000", "110611.603000", "110611.606000", "110611.608000", "110611.611000", "110611.613000", "110611.616000", "110651.520000", "110651.522000", "110651.525000", "110651.527000", "110651.530000", "110651.532000", "110651.535000", "110651.537000", "110651.540000", "110651.542000", "110651.545000", "110651.547000", "110651.550000", "110651.552000", "110651.555000", "110651.557000", "110651.560000", "110651.562000", "110651.565000", "110651.567000", "110651.570000", "110651.573000", "110651.575000", "110651.578000", "110651.580000", "110651.583000", "110651.585000", "110731.510000", "110731.512000", "110731.515000", "110731.517000", "110731.520000", "110731.522000", "110731.525000", "110731.527000", "110731.530000", "110731.532000", "110731.535000", "110731.537000", "110731.540000", "110731.542000", "110731.545000", "110731.547000", "110731.549000", "110731.552000", "110731.554000", "110731.557000", "110731.559000", "110731.562000", "110731.564000", "110731.567000", "110731.569000", "110731.572000", "110731.575000", "110738.977000", "110738.980000", "110738.982000", "110738.985000", "110738.988000"],
      "InstanceNumber": [1, 2, 3, 4, 5, 6, 7, 8, 9, 10, 11, 12, 13, 14, 15, 16, 17, 18, 19, 20, 21, 22, 23, 24, 25, 26, 27, 28, 29, 30, 31, 32, 33, 34, 35, 36, 37, 38, 39, 40, 41, 42, 43, 44, 45, 46, 47, 48, 49, 50, 51, 52, 53, 54, 55, 56, 57, 58, 59, 60, 61, 62, 63, 64, 65, 66, 67, 68, 69, 70, 71, 72, 73, 74, 75, 76, 77, 78, 79, 80, 81, 82, 83, 84, 85, 86, 87, 88, 89, 90, 91, 92, 93, 94, 95, 96, 97, 98, 99, 100, 101, 102, 103, 104, 105, 106, 107, 108, 109, 110, 111, 112, 113, 114, 115, 116, 117, 118, 119, 120, 121, 122, 123, 124, 125, 126, 127, 128, 129, 130, 131, 132, 133, 134, 135, 136, 137, 138, 139, 140, 141, 142, 143, 144, 145, 146, 147, 148, 149, 150, 151, 152, 153, 154, 155, 156, 157, 158, 159, 160, 161, 162, 163, 164, 165, 166, 167, 168, 169, 170, 171, 172, 173, 174, 175, 176, 177, 178, 179, 180, 181, 182, 183, 184, 185, 186, 187, 188, 189, 190],
      "WindowCenter": [4910.0, 4908.0, 4910.0, 4908.0, 4904.0, 4900.0, 4904.0, 4906.0, 4906.0, 4908.0, 4904.0, 4906.0, 4908.0, 4904.0, 4910.0, 4908.0, 4904.0, 4904.0, 4908.0, 4900.0, 4900.0, 4910.0, 4904.0, 4906.0, 4884.0, 4908.0, 4908.0, 4910.0, 4906.0, 4910.0, 4910.0, 4910.0, 4912.0, 4908.0, 4908.0, 4906.0, 4910.0, 4908.0, 4910.0, 4908.0, 4908.0, 4910.0, 4912.0, 4910.0, 4910.0, 4908.0, 4908.0, 4910.0, 4908.0, 4908.0, 4910.0, 4908.0, 4910.0, 4908.0, 4908.0, 4910.0, 4910.0, 4906.0, 4912.0, 4912.0, 4908.0, 4910.0, 4910.0, 4910.0, 4908.0, 4908.0, 4908.0, 4908.0, 4910.0, 4910.0, 4910.0, 4906.0, 4908.0, 4908.0, 4910.0, 4908.0, 4912.0, 4908.0, 4908.0, 4906.0, 4914.0, 4910.0, 4886.0, 4906.0, 4912.0, 4908.0, 4910.0, 4912.0, 4908.0, 4910.0, 4912.0, 4910.0, 4908.0, 4906.0, 4910.0, 4910.0, 4908.0, 4908.0, 4910.0, 4914.0, 4908.0, 4910.0, 4908.0, 4934.0, 4912.0, 4912.0, 4908.0, 4908.0, 4910.0, 4910.0, 4910.0, 4912.0, 4910.0, 4908.0, 4912.0, 4908.0, 4912.0, 4910.0, 4932.0, 4910.0, 4906.0, 4912.0, 4888.0, 4888.0, 4908.0, 4908.0, 4914.0, 4910.0, 4910.0, 4912.0, 4908.0, 4906.0, 4888.0, 4914.0, 4908.0, 4910.0, 4912.0, 4908.0, 4910.0, 4908.0, 4912.0, 4912.0, 4912.0, 4910.0, 4910.0, 4910.0, 4912.0, 4910.0, 4910.0, 4912.0, 4910.0, 4914.0, 4910.0, 4910.0, 4908.0, 4912.0, 4908.0, 4910.0, 4908.0, 4910.0, 4906.0, 4908.0, 4912.0, 4912.0, 4910.0, 4910.0, 4910.0, 4910.0, 4912.0, 4910.0, 4910.0, 4888.0, 4910.0, 4912.0, 4912.0, 4912.0, 4914.0, 4912.0, 4910.0, 4912.0, 4888.0, 4912.0, 4912.0, 4908.0, 4868.0, 4902.0, 4912.0, 4862.0, 4886.0, 4864.0],
      "WindowWidth": [18702.0, 18694.0, 18702.0, 18690.0, 18712.0, 18716.0, 18718.0, 18712.0, 18704.0, 18696.0, 18690.0, 18692.0, 18700.0, 18708.0, 18700.0, 18690.0, 18712.0, 18722.0, 18704.0, 18716.0, 18722.0, 18690.0, 18696.0, 18692.0, 18648.0, 18706.0, 18696.0, 18696.0, 18724.0, 18704.0, 18702.0, 18706.0, 18688.0, 18704.0, 18692.0, 18702.0, 18688.0, 18694.0, 18694.0, 18690.0, 18716.0, 18700.0, 18718.0, 18694.0, 18706.0, 18688.0, 18704.0, 18696.0, 18696.0, 18706.0, 18692.0, 18708.0, 18688.0, 18708.0, 18690.0, 18708.0, 18688.0, 18692.0, 18698.0, 18692.0, 18704.0, 18692.0, 18710.0, 18690.0, 18706.0, 18704.0, 18690.0, 18700.0, 18694.0, 18692.0, 18698.0, 18690.0, 18700.0, 18700.0, 18696.0, 18704.0, 18704.0, 18704.0, 18688.0, 18704.0, 18692.0, 18702.0, 18656.0, 18700.0, 18690.0, 18702.0, 18700.0, 18692.0, 18698.0, 18694.0, 18702.0, 18692.0, 18706.0, 18684.0, 18716.0, 18696.0, 18702.0, 18698.0, 18696.0, 18694.0, 18686.0, 18698.0, 18690.0, 18736.0, 18692.0, 18708.0, 18690.0, 18704.0, 18684.0, 18702.0, 18696.0, 18696.0, 18700.0, 18694.0, 18698.0, 18690.0, 18706.0, 18690.0, 18748.0, 18704.0, 18692.0, 18688.0, 18650.0, 18648.0, 18708.0, 18706.0, 18698.0, 18708.0, 18692.0, 18702.0, 18684.0, 18696.0, 18658.0, 18706.0, 18686.0, 18706.0, 18692.0, 18696.0, 18684.0, 18698.0, 18700.0, 18702.0, 18698.0, 18686.0, 18690.0, 18688.0, 18702.0, 18686.0, 18710.0, 18692.0, 18698.0, 18702.0, 18698.0, 18688.0, 18700.0, 18698.0, 18692.0, 18700.0, 18686.0, 18704.0, 18686.0, 18698.0, 18688.0, 18706.0, 18686.0, 18708.0, 18696.0, 18688.0, 18696.0, 18690.0, 18688.0, 18648.0, 18702.0, 18696.0, 18708.0, 18702.0, 18690.0, 18694.0, 18682.0, 18700.0, 18656.0, 18700.0, 18692.0, 18704.0, 18692.0, 18724.0, 18700.0, 18602.0, 18654.0, 18604.0]
    },
    "slices": {}
  }
}