{
  "AcquisitionMatrixPE": 104,
  "AcquisitionNumber": 1,
  "AcquisitionTime": "11:15:21.845000",
  "BandwidthPerPixelPhaseEncode": 17.17,
  "BaseResolution": 104,
  "BodyPartExamined": "BRAIN",
  "CoilString": "HC1-7;NC1_2",
  "ConsistencyInfo": "N4_VE11C_LATEST_20160120",
  "ConversionSoftware": "dcm2niix",
  "ConversionSoftwareVersion": "v1.0.20190902",
  "DerivedVendorReportedEchoSpacing": 0.000560011,
  "DeviceSerialNumber": "167006",
  "DwellTime": 2.1e-06,
  "EchoTime": 0.037,
  "EchoTrainLength": 104,
  "EffectiveEchoSpacing": 0.000560011,
  "FlipAngle": 52,
  "ImageComments": "Unaliased_MB4_PE3_LB",
  "ImageOrientationPatientDICOM": [0.999603, 0.0241964, 0.0144483, -0.0139579, 0.870451, -0.492058],
  "ImageType": [
    "ORIGINAL",
    "PRIMARY",
    "M",
    "MB",
    "ND",
    "MOSAIC"
],
  "ImagingFrequency": 123.259,
  "InPlanePhaseEncodingDirectionDICOM": "COL",
  "InstitutionAddress": "Chemin_Queen-Mary_4565_Montreal_District_CA_H3W_1W5",
  "InstitutionName": "IUGM",
  "InstitutionalDepartmentName": "Department",
  "MRAcquisitionType": "2D",
  "MagneticFieldStrength": 3,
  "Manufacturer": "Siemens",
  "ManufacturersModelName": "Prisma_fit",
  "Modality": "MR",
  "MultibandAccelerationFactor": 4,
  "PartialFourier": 1,
  "PatientPosition": "HFS",
  "PercentPhaseFOV": 100,
  "PhaseEncodingDirection": "j",
  "PhaseEncodingSteps": 104,
  "PhaseResolution": 1,
  "PixelBandwidth": 2290,
  "ProcedureStepDescription": "memory_things",
  "ProtocolName": "func_task-things_run-3",
  "PulseSequenceDetails": "%CustomerSeq%_cmrr_mbep2d_bold",
  "ReceiveCoilActiveElements": "HC1-7;NC1,2",
  "ReceiveCoilName": "HeadNeck_64",
  "ReconMatrixPE": 104,
  "RepetitionTime": 1.49,
  "SAR": 0.0669132,
  "ScanOptions": "FS",
  "ScanningSequence": "EP",
  "SequenceName": "epfid2d1_104",
  "SequenceVariant": "SK_SS",
  "SeriesDescription": "func_task-things_run-3",
  "SeriesNumber": 16,
  "ShimSetting": [618, -7182, -8854, 310, -8, -107, -6, -52],
  "SliceThickness": 2,
  "SliceTiming": [0, 0.7825, 0.0975, 0.88, 0.195, 0.98, 0.2925, 1.0775, 0.39, 1.175, 0.49, 1.2725, 0.5875, 1.37, 0.685, 0, 0.7825, 0.0975, 0.88, 0.195, 0.98, 0.2925, 1.0775, 0.39, 1.175, 0.49, 1.2725, 0.5875, 1.37, 0.685, 0, 0.7825, 0.0975, 0.88, 0.195, 0.98, 0.2925, 1.0775, 0.39, 1.175, 0.49, 1.2725, 0.5875, 1.37, 0.685, 0, 0.7825, 0.0975, 0.88, 0.195, 0.98, 0.2925, 1.0775, 0.39, 1.175, 0.49, 1.2725, 0.5875, 1.37, 0.685],
  "SoftwareVersions": "syngo_MR_E11",
  "SpacingBetweenSlices": 2,
  "StationName": "MRC35049",
  "TaskName": "things",
  "TotalReadoutTime": 0.0576811,
  "TxRefAmp": 337.054,
  "WipMemBlock": "654ca04a-7efd-4674-b5a1-b2dbe99553bb||Sequence: R016 ve11c/master r/e634e98; Dec 19 2017 11:00:25 by eja",
  "dcmmeta_affine": [
    [-1.9992055892944336, -0.027915868908166885, 0.048965174704790115, 107.4001235961914],
    [-0.04839286208152771, 1.740901231765747, -0.9833214282989502, -50.167640686035156],
    [0.0288966316729784, 0.9841156601905823, 1.7408852577209473, -89.67569732666016],
    [0.0, 0.0, 0.0, 1.0]
],
  "dcmmeta_reorient_transform": [
    [0.0, -1.0, 0.0, 103.0],
    [1.0, 0.0, 0.0, 0.0],
    [0.0, 0.0, 1.0, 0.0],
    [0.0, 0.0, 0.0, 1.0]
],
  "dcmmeta_shape": [104, 104, 60, 190],
  "dcmmeta_slice_dim": 2,
  "dcmmeta_version": 0.6,
  "global": {
    "const": {
      "AcquisitionMatrix": [104, 0, 0, 104],
      "AngioFlag": "N",
      "BitsAllocated": 16,
      "BitsStored": 16,
      "BodyPartExamined": "BRAIN",
      "Columns": 832,
      "EchoNumbers": 1,
      "EchoTime": 37.0,
      "EchoTrainLength": 104,
      "FlipAngle": 52.0,
      "HighBit": 15,
      "ImageOrientationPatient": [0.99960281059407, 0.02419643013385, 0.01444831551451, -0.0139579346639, 0.87045061364973, -0.4920578271471],
      "ImagePositionPatient": [-822.07425842688, -780.4482348066, 359.38793649326],
      "ImageType": [
        "ORIGINAL",
        "PRIMARY",
        "M",
        "MB",
        "ND",
        "MOSAIC"
],
      "ImagedNucleus": "1H",
      "ImagingFrequency": 123.258965,
      "InPlanePhaseEncodingDirection": "COL",
      "MRAcquisitionType": "2D",
      "MagneticFieldStrength": 3.0,
      "Manufacturer": "SIEMENS",
      "ManufacturerModelName": "Prisma_fit",
      "Modality": "MR",
      "NumberOfAverages": 1.0,
      "NumberOfPhaseEncodingSteps": 104,
      "PercentPhaseFieldOfView": 100.0,
      "PercentSampling": 100.0,
      "PerformedProcedureStepStartTime": "103720.072000",
      "PhotometricInterpretation": "MONOCHROME2",
      "PixelBandwidth": 2290.0,
      "PixelRepresentation": 0,
      "PixelSpacing": [2.0, 2.0],
      "ProtocolName": "func_task-things_run-3",
      "RepetitionTime": 1490.0,
      "Rows": 832,
      "SAR": 0.06691318795065,
      "SamplesPerPixel": 1,
      "ScanOptions": "FS",
      "ScanningSequence": "EP",
      "SequenceName": "epfid2d1_104",
      "SequenceVariant": [
        "SK",
        "SS"
],
      "SeriesDescription": "func_task-things_run-3",
      "SeriesNumber": 16,
      "SeriesTime": "111647.065000",
      "SliceLocation": -50.762660240096,
      "SliceThickness": 2.0,
      "SmallestImagePixelValue": 0,
      "SoftwareVersions": "syngo MR E11",
      "SpacingBetweenSlices": 1.9999999785079,
      "SpecificCharacterSet": "ISO_IR 100",
      "StudyID": "1",
      "StudyTime": "103719.995000",
      "TransmitCoilName": "Body",
      "VariableFlipAngleFlag": "N",
      "WindowCenterWidthExplanation": "Algo1",
      "dBdt": 0.0},
    "slices": {}
  },
  "time": {
    "samples": {
      "AcquisitionNumber": [1, 2, 3, 4, 5, 6, 7, 8, 9, 10, 11, 12, 13, 14, 15, 16, 17, 18, 19, 20, 21, 22, 23, 24, 25, 26, 27, 28, 29, 30, 31, 32, 33, 34, 35, 36, 37, 38, 39, 40, 41, 42, 43, 44, 45, 46, 47, 48, 49, 50, 51, 52, 53, 54, 55, 56, 57, 58, 59, 60, 61, 62, 63, 64, 65, 66, 67, 68, 69, 70, 71, 72, 73, 74, 75, 76, 77, 78, 79, 80, 81, 82, 83, 84, 85, 86, 87, 88, 89, 90, 91, 92, 93, 94, 95, 96, 97, 98, 99, 100, 101, 102, 103, 104, 105, 106, 107, 108, 109, 110, 111, 112, 113, 114, 115, 116, 117, 118, 119, 120, 121, 122, 123, 124, 125, 126, 127, 128, 129, 130, 131, 132, 133, 134, 135, 136, 137, 138, 139, 140, 141, 142, 143, 144, 145, 146, 147, 148, 149, 150, 151, 152, 153, 154, 155, 156, 157, 158, 159, 160, 161, 162, 163, 164, 165, 166, 167, 168, 169, 170, 171, 172, 173, 174, 175, 176, 177, 178, 179, 180, 181, 182, 183, 184, 185, 186, 187, 188, 189, 190],
      "AcquisitionTime": ["111521.845000", "111523.335000", "111524.825000", "111526.315000", "111527.805000", "111529.295000", "111530.785000", "111532.275000", "111533.765000", "111535.255000", "111536.745000", "111538.235000", "111539.725000", "111541.215000", "111542.705000", "111544.195000", "111545.685000", "111547.175000", "111548.665000", "111550.155000", "111551.645000", "111553.135000", "111554.625000", "111556.115000", "111557.605000", "111559.095000", "111600.585000", "111602.075000", "111603.565000", "111605.055000", "111606.545000", "111608.035000", "111609.525000", "111611.015000", "111612.505000", "111613.995000", "111615.485000", "111616.975000", "111618.465000", "111619.955000", "111621.445000", "111622.935000", "111624.425000", "111625.915000", "111627.405000", "111628.895000", "111630.385000", "111631.875000", "111633.365000", "111634.855000", "111636.345000", "111637.835000", "111639.325000", "111640.815000", "111642.305000", "111643.795000", "111645.285000", "111646.775000", "111648.265000", "111649.755000", "111651.245000", "111652.735000", "111654.225000", "111655.715000", "111657.205000", "111658.695000", "111700.185000", "111701.675000", "111703.165000", "111704.655000", "111706.145000", "111707.635000", "111709.125000", "111710.615000", "111712.105000", "111713.595000", "111715.085000", "111716.575000", "111718.065000", "111719.555000", "111721.045000", "111722.535000", "111724.025000", "111725.515000", "111727.005000", "111728.495000", "111729.985000", "111731.475000", "111732.965000", "111734.455000", "111735.945000", "111737.435000", "111738.925000", "111740.415000", "111741.905000", "111743.395000", "111744.885000", "111746.375000", "111747.865000", "111749.355000", "111750.845000", "111752.335000", "111753.825000", "111755.315000", "111756.805000", "111758.295000", "111759.785000", "111801.275000", "111802.765000", "111804.255000", "111805.745000", "111807.235000", "111808.725000", "111810.215000", "111811.705000", "111813.195000", "111814.685000", "111816.175000", "111817.665000", "111819.155000", "111820.645000", "111822.135000", "111823.625000", "111825.115000", "111826.605000", "111828.095000", "111829.585000", "111831.075000", "111832.565000", "111834.055000", "111835.545000", "111837.035000", "111838.525000", "111840.015000", "111841.505000", "111842.995000", "111844.485000", "111845.975000", "111847.465000", "111848.955000", "111850.445000", "111851.935000", "111853.425000", "111854.915000", "111856.405000", "111857.895000", "111859.385000", "111900.875000", "111902.365000", "111903.855000", "111905.345000", "111906.835000", "111908.325000", "111909.815000", "111911.305000", "111912.795000", "111914.285000", "111915.775000", "111917.265000", "111918.755000", "111920.245000", "111921.735000", "111923.225000", "111924.715000", "111926.205000", "111927.695000", "111929.185000", "111930.675000", "111932.165000", "111933.655000", "111935.145000", "111936.635000", "111938.125000", "111939.615000", "111941.105000", "111942.595000", "111944.085000", "111945.575000", "111947.065000", "111948.555000", "111950.045000", "111951.535000", "111953.025000", "111954.515000", "111956.005000", "111957.495000", "111958.985000", "112000.475000", "112001.965000", "112003.455000"],
      "ContentTime": ["111647.068000", "111647.072000", "111647.075000", "111647.079000", "111647.082000", "111647.085000", "111647.089000", "111647.092000", "111647.095000", "111647.099000", "111647.102000", "111647.105000", "111647.108000", "111647.112000", "111647.115000", "111647.118000", "111647.122000", "111647.125000", "111647.128000", "111647.131000", "111647.135000", "111647.138000", "111647.141000", "111647.145000", "111647.148000", "111647.151000", "111647.155000", "111707.033000", "111707.037000", "111707.114000", "111707.117000", "111707.120000", "111707.131000", "111707.134000", "111707.137000", "111707.140000", "111707.144000", "111707.147000", "111707.150000", "111707.154000", "111707.167000", "111707.170000", "111707.173000", "111707.177000", "111707.180000", "111707.183000", "111707.186000", "111727.034000", "111727.038000", "111727.041000", "111727.044000", "111727.048000", "111727.051000", "111727.054000", "111727.057000", "111727.061000", "111727.064000", "111727.067000", "111727.070000", "111727.074000", "111727.077000", "111727.080000", "111727.084000", "111727.087000", "111727.090000", "111727.093000", "111727.097000", "111747.033000", "111747.037000", "111747.040000", "111747.043000", "111747.047000", "111747.050000", "111747.053000", "111747.057000", "111747.060000", "111747.063000", "111747.066000", "111747.070000", "111747.073000", "111747.076000", "111747.080000", "111747.083000", "111747.086000", "111747.089000", "111747.093000", "111747.096000", "111807.033000", "111807.037000", "111807.040000", "111807.043000", "111807.047000", "111807.050000", "111807.053000", "111807.057000", "111807.060000", "111807.063000", "111807.067000", "111807.070000", "111807.073000", "111807.077000", "111807.080000", "111807.083000", "111807.087000", "111807.090000", "111807.093000", "111807.096000", "111847.033000", "111847.046000", "111847.050000", "111847.053000", "111847.056000", "111847.060000", "111847.063000", "111847.066000", "111847.070000", "111847.073000", "111847.076000", "111847.080000", "111847.083000", "111847.086000", "111847.090000", "111847.093000", "111847.096000", "111847.100000", "111847.103000", "111847.106000", "111847.110000", "111847.113000", "111847.116000", "111847.119000", "111847.123000", "111847.141000", "111847.144000", "111847.147000", "111847.166000", "111847.169000", "111927.033000", "111927.037000", "111927.040000", "111927.044000", "111927.047000", "111927.050000", "111927.054000", "111927.057000", "111927.060000", "111927.064000", "111927.067000", "111927.070000", "111927.073000", "111927.077000", "111927.080000", "111927.083000", "111927.087000", "111927.090000", "111927.094000", "111927.097000", "111927.100000", "111927.104000", "111927.107000", "111927.110000", "111927.114000", "111927.117000", "112005.950000", "112005.954000", "112005.957000", "112005.960000", "112005.964000", "112005.967000", "112005.970000", "112005.973000", "112005.977000", "112005.980000", "112005.984000", "112005.987000", "112005.990000", "112005.994000", "112005.997000", "112006.001000", "112006.005000", "112006.008000", "112006.011000", "112006.014000", "112006.018000", "112006.021000", "112006.025000", "112006.028000", "112006.031000", "112006.035000", "112006.038000"],
      "InstanceCreationTime": ["111647.068000", "111647.072000", "111647.075000", "111647.079000", "111647.082000", "111647.085000", "111647.089000", "111647.092000", "111647.095000", "111647.099000", "111647.102000", "111647.105000", "111647.108000", "111647.112000", "111647.115000", "111647.118000", "111647.122000", "111647.125000", "111647.128000", "111647.131000", "111647.135000", "111647.138000", "111647.141000", "111647.145000", "111647.148000", "111647.151000", "111647.155000", "111707.033000", "111707.037000", "111707.114000", "111707.117000", "111707.120000", "111707.131000", "111707.134000", "111707.137000", "111707.140000", "111707.144000", "111707.147000", "111707.150000", "111707.154000", "111707.167000", "111707.170000", "111707.173000", "111707.177000", "111707.180000", "111707.183000", "111707.186000", "111727.034000", "111727.038000", "111727.041000", "111727.044000", "111727.048000", "111727.051000", "111727.054000", "111727.057000", "111727.061000", "111727.064000", "111727.067000", "111727.070000", "111727.074000", "111727.077000", "111727.080000", "111727.084000", "111727.087000", "111727.090000", "111727.093000", "111727.097000", "111747.033000", "111747.037000", "111747.040000", "111747.043000", "111747.047000", "111747.050000", "111747.053000", "111747.057000", "111747.060000", "111747.063000", "111747.066000", "111747.070000", "111747.073000", "111747.076000", "111747.080000", "111747.083000", "111747.086000", "111747.089000", "111747.093000", "111747.096000", "111807.033000", "111807.037000", "111807.040000", "111807.043000", "111807.047000", "111807.050000", "111807.053000", "111807.057000", "111807.060000", "111807.063000", "111807.067000", "111807.070000", "111807.073000", "111807.077000", "111807.080000", "111807.083000", "111807.087000", "111807.090000", "111807.093000", "111807.096000", "111847.033000", "111847.046000", "111847.050000", "111847.053000", "111847.056000", "111847.060000", "111847.063000", "111847.066000", "111847.070000", "111847.073000", "111847.076000", "111847.080000", "111847.083000", "111847.086000", "111847.090000", "111847.093000", "111847.096000", "111847.100000", "111847.103000", "111847.106000", "111847.110000", "111847.113000", "111847.116000", "111847.119000", "111847.123000", "111847.141000", "111847.144000", "111847.147000", "111847.166000", "111847.169000", "111927.033000", "111927.037000", "111927.040000", "111927.044000", "111927.047000", "111927.050000", "111927.054000", "111927.057000", "111927.060000", "111927.064000", "111927.067000", "111927.070000", "111927.073000", "111927.077000", "111927.080000", "111927.083000", "111927.087000", "111927.090000", "111927.094000", "111927.097000", "111927.100000", "111927.104000", "111927.107000", "111927.110000", "111927.114000", "111927.117000", "112005.950000", "112005.954000", "112005.957000", "112005.960000", "112005.964000", "112005.967000", "112005.970000", "112005.973000", "112005.977000", "112005.980000", "112005.984000", "112005.987000", "112005.990000", "112005.994000", "112005.997000", "112006.001000", "112006.005000", "112006.008000", "112006.011000", "112006.014000", "112006.018000", "112006.021000", "112006.025000", "112006.028000", "112006.031000", "112006.035000", "112006.038000"],
      "InstanceNumber": [1, 2, 3, 4, 5, 6, 7, 8, 9, 10, 11, 12, 13, 14, 15, 16, 17, 18, 19, 20, 21, 22, 23, 24, 25, 26, 27, 28, 29, 30, 31, 32, 33, 34, 35, 36, 37, 38, 39, 40, 41, 42, 43, 44, 45, 46, 47, 48, 49, 50, 51, 52, 53, 54, 55, 56, 57, 58, 59, 60, 61, 62, 63, 64, 65, 66, 67, 68, 69, 70, 71, 72, 73, 74, 75, 76, 77, 78, 79, 80, 81, 82, 83, 84, 85, 86, 87, 88, 89, 90, 91, 92, 93, 94, 95, 96, 97, 98, 99, 100, 101, 102, 103, 104, 105, 106, 107, 108, 109, 110, 111, 112, 113, 114, 115, 116, 117, 118, 119, 120, 121, 122, 123, 124, 125, 126, 127, 128, 129, 130, 131, 132, 133, 134, 135, 136, 137, 138, 139, 140, 141, 142, 143, 144, 145, 146, 147, 148, 149, 150, 151, 152, 153, 154, 155, 156, 157, 158, 159, 160, 161, 162, 163, 164, 165, 166, 167, 168, 169, 170, 171, 172, 173, 174, 175, 176, 177, 178, 179, 180, 181, 182, 183, 184, 185, 186, 187, 188, 189, 190],
      "LargestImagePixelValue": [46131, 45117, 44792, 44826, 44220, 45894, 45630, 43944, 44209, 43983, 43783, 43959, 43787, 43621, 43757, 44994, 43732, 44752, 44847, 43617, 44877, 43829, 44549, 43786, 44352, 43908, 44645, 45270, 44742, 44283, 44058, 44039, 44612, 44087, 43969, 43908, 44518, 44502, 43988, 43883, 44134, 44351, 44101, 44026, 43874, 44046, 43889, 43732, 43933, 43898, 43949, 43626, 43523, 43931, 43955, 43835, 44139, 44106, 43759, 44058, 43961, 43969, 44627, 43495, 43781, 44387, 43728, 44370, 43667, 43880, 43639, 44644, 43546, 44625, 43752, 43586, 44032, 44222, 44115, 44262, 43949, 43943, 44226, 43884, 44698, 43689, 44012, 44566, 43891, 44505, 44489, 44673, 44621, 43676, 44294, 43607, 43756, 44004, 43802, 44453, 43627, 44274, 44086, 44061, 43748, 43993, 43880, 44194, 44303, 43634, 43756, 43869, 43646, 43980, 43755, 44151, 43651, 43787, 44304, 43728, 44105, 43699, 43814, 43940, 43752, 44150, 43625, 43493, 43739, 43763, 44286, 43576, 44105, 43689, 44080, 43564, 44157, 43555, 44124, 44182, 43863, 43562, 43498, 44296, 43524, 43860, 43457, 44123, 44091, 43646, 44364, 43925, 43921, 43470, 43946, 43615, 43398, 43653, 43173, 43611, 43321, 43216, 44282, 44035, 44245, 44103, 43802, 43767, 44074, 43744, 43977, 43712, 43591, 43747, 44178, 43966, 44101, 43653, 43915, 43932, 44073, 43958, 43883, 44044, 43976, 43765, 43508, 43903, 43362, 43919],
      "WindowCenter": [11078.0, 11040.0, 11052.0, 11063.0, 11055.0, 11088.0, 11069.0, 11021.0, 11011.0, 11011.0, 11022.0, 11042.0, 11054.0, 11057.0, 11074.0, 11092.0, 11059.0, 11054.0, 11039.0, 11030.0, 11055.0, 11055.0, 11056.0, 11050.0, 11059.0, 11094.0, 11119.0, 11110.0, 11084.0, 11025.0, 11038.0, 11054.0, 11041.0, 11015.0, 10991.0, 10987.0, 11026.0, 11065.0, 11056.0, 11047.0, 11032.0, 11031.0, 11023.0, 11030.0, 11025.0, 11024.0, 11022.0, 11015.0, 11007.0, 11014.0, 11041.0, 11019.0, 10991.0, 10996.0, 10979.0, 10979.0, 11001.0, 11020.0, 11019.0, 11026.0, 11023.0, 11006.0, 11022.0, 11030.0, 11018.0, 11012.0, 10994.0, 10999.0, 11000.0, 11014.0, 11033.0, 11078.0, 11050.0, 11055.0, 11034.0, 11018.0, 10986.0, 10967.0, 10974.0, 11017.0, 11055.0, 11054.0, 11016.0, 10979.0, 10971.0, 10982.0, 10991.0, 10997.0, 10994.0, 10997.0, 10990.0, 10993.0, 10990.0, 10988.0, 11001.0, 10992.0, 10999.0, 11008.0, 11003.0, 11000.0, 11005.0, 11003.0, 11028.0, 11032.0, 10994.0, 10963.0, 10952.0, 10963.0, 10990.0, 11006.0, 11013.0, 11024.0, 11025.0, 11018.0, 11013.0, 11004.0, 10992.0, 10988.0, 10994.0, 10994.0, 10993.0, 10988.0, 10986.0, 10978.0, 10977.0, 10981.0, 10989.0, 10991.0, 10994.0, 11006.0, 11022.0, 10990.0, 10975.0, 10961.0, 10975.0, 10977.0, 11007.0, 11013.0, 11018.0, 11013.0, 10999.0, 10984.0, 10974.0, 10978.0, 10975.0, 10979.0, 10981.0, 10974.0, 10974.0, 10962.0, 10974.0, 10968.0, 10980.0, 10975.0, 10989.0, 10990.0, 10993.0, 10999.0, 11020.0, 11027.0, 11013.0, 10971.0, 10941.0, 10934.0, 10973.0, 11039.0, 11030.0, 10993.0, 10963.0, 10952.0, 10967.0, 10984.0, 10998.0, 11009.0, 11006.0, 10992.0, 11003.0, 11002.0, 10984.0, 10980.0, 10976.0, 10971.0, 10978.0, 10976.0, 10969.0, 10980.0, 10977.0, 10972.0, 10958.0, 10962.0],
      "WindowWidth": [23901.0, 23775.0, 23782.0, 23801.0, 23777.0, 23844.0, 23798.0, 23696.0, 23665.0, 23663.0, 23690.0, 23735.0, 23765.0, 23775.0, 23810.0, 23849.0, 23777.0, 23760.0, 23728.0, 23710.0, 23763.0, 23769.0, 23767.0, 23753.0, 23773.0, 23852.0, 23910.0, 23892.0, 23831.0, 23697.0, 23720.0, 23761.0, 23731.0, 23670.0, 23621.0, 23608.0, 23694.0, 23785.0, 23769.0, 23751.0, 23712.0, 23709.0, 23691.0, 23708.0, 23697.0, 23695.0, 23689.0, 23674.0, 23654.0, 23668.0, 23732.0, 23686.0, 23617.0, 23628.0, 23594.0, 23592.0, 23638.0, 23684.0, 23682.0, 23697.0, 23692.0, 23655.0, 23683.0, 23708.0, 23680.0, 23665.0, 23623.0, 23632.0, 23640.0, 23673.0, 23714.0, 23812.0, 23758.0, 23760.0, 23716.0, 23678.0, 23606.0, 23560.0, 23576.0, 23673.0, 23760.0, 23762.0, 23674.0, 23589.0, 23566.0, 23594.0, 23615.0, 23624.0, 23620.0, 23624.0, 23606.0, 23613.0, 23608.0, 23610.0, 23637.0, 23622.0, 23637.0, 23658.0, 23643.0, 23632.0, 23650.0, 23645.0, 23701.0, 23713.0, 23627.0, 23555.0, 23529.0, 23553.0, 23614.0, 23655.0, 23669.0, 23694.0, 23696.0, 23679.0, 23667.0, 23646.0, 23621.0, 23608.0, 23621.0, 23620.0, 23620.0, 23609.0, 23603.0, 23585.0, 23583.0, 23591.0, 23611.0, 23618.0, 23619.0, 23649.0, 23685.0, 23614.0, 23578.0, 23547.0, 23577.0, 23581.0, 23647.0, 23666.0, 23674.0, 23663.0, 23633.0, 23602.0, 23576.0, 23582.0, 23578.0, 23585.0, 23591.0, 23571.0, 23571.0, 23548.0, 23573.0, 23560.0, 23588.0, 23581.0, 23610.0, 23614.0, 23627.0, 23636.0, 23683.0, 23700.0, 23669.0, 23574.0, 23500.0, 23479.0, 23568.0, 23720.0, 23705.0, 23619.0, 23549.0, 23526.0, 23559.0, 23600.0, 23633.0, 23660.0, 23649.0, 23619.0, 23639.0, 23642.0, 23599.0, 23588.0, 23580.0, 23569.0, 23586.0, 23576.0, 23560.0, 23587.0, 23582.0, 23570.0, 23540.0, 23545.0]
    },
    "slices": {}
  }
}