{
  "AcquisitionMatrixPE": 104,
  "AcquisitionNumber": 1,
  "AcquisitionTime": "11:15:21.845000",
  "BandwidthPerPixelPhaseEncode": 17.17,
  "BaseResolution": 104,
  "BodyPartExamined": "BRAIN",
  "CoilString": "HC1-7;NC1_2",
  "ConsistencyInfo": "N4_VE11C_LATEST_20160120",
  "ConversionSoftware": "dcm2niix",
  "ConversionSoftwareVersion": "v1.0.20190902",
  "DerivedVendorReportedEchoSpacing": 0.000560011,
  "DeviceSerialNumber": "167006",
  "DwellTime": 2.1e-06,
  "EchoTime": 0.037,
  "EchoTrainLength": 104,
  "EffectiveEchoSpacing": 0.000560011,
  "FlipAngle": 52,
  "ImageComments": "Unaliased_MB4_PE3_LB",
  "ImageOrientationPatientDICOM": [0.999603, 0.0241964, 0.0144483, -0.0139579, 0.870451, -0.492058],
  "ImageType": [
    "ORIGINAL",
    "PRIMARY",
    "P",
    "MB",
    "ND",
    "MOSAIC"
],
  "ImagingFrequency": 123.259,
  "InPlanePhaseEncodingDirectionDICOM": "COL",
  "InstitutionAddress": "Chemin_Queen-Mary_4565_Montreal_District_CA_H3W_1W5",
  "InstitutionName": "IUGM",
  "InstitutionalDepartmentName": "Department",
  "MRAcquisitionType": "2D",
  "MagneticFieldStrength": 3,
  "Manufacturer": "Siemens",
  "ManufacturersModelName": "Prisma_fit",
  "Modality": "MR",
  "MultibandAccelerationFactor": 4,
  "PartialFourier": 1,
  "PatientPosition": "HFS",
  "PercentPhaseFOV": 100,
  "PhaseEncodingDirection": "j",
  "PhaseEncodingSteps": 104,
  "PhaseResolution": 1,
  "PixelBandwidth": 2290,
  "ProcedureStepDescription": "memory_things",
  "ProtocolName": "func_task-things_run-3",
  "PulseSequenceDetails": "%CustomerSeq%_cmrr_mbep2d_bold",
  "ReceiveCoilActiveElements": "HC1-7;NC1,2",
  "ReceiveCoilName": "HeadNeck_64",
  "ReconMatrixPE": 104,
  "RepetitionTime": 1.49,
  "SAR": 0.0669132,
  "ScanOptions": "FS",
  "ScanningSequence": "EP",
  "SequenceName": "epfid2d1_104",
  "SequenceVariant": "SK_SS",
  "SeriesDescription": "func_task-things_run-3",
  "SeriesNumber": 17,
  "ShimSetting": [618, -7182, -8854, 310, -8, -107, -6, -52],
  "SliceThickness": 2,
  "SliceTiming": [0, 0.7825, 0.0975, 0.88, 0.195, 0.98, 0.2925, 1.0775, 0.39, 1.175, 0.49, 1.2725, 0.5875, 1.37, 0.685, 0, 0.7825, 0.0975, 0.88, 0.195, 0.98, 0.2925, 1.0775, 0.39, 1.175, 0.49, 1.2725, 0.5875, 1.37, 0.685, 0, 0.7825, 0.0975, 0.88, 0.195, 0.98, 0.2925, 1.0775, 0.39, 1.175, 0.49, 1.2725, 0.5875, 1.37, 0.685, 0, 0.7825, 0.0975, 0.88, 0.195, 0.98, 0.2925, 1.0775, 0.39, 1.175, 0.49, 1.2725, 0.5875, 1.37, 0.685],
  "SoftwareVersions": "syngo_MR_E11",
  "SpacingBetweenSlices": 2,
  "StationName": "MRC35049",
  "TaskName": "things",
  "TotalReadoutTime": 0.0576811,
  "TxRefAmp": 337.054,
  "WipMemBlock": "654ca04a-7efd-4674-b5a1-b2dbe99553bb||Sequence: R016 ve11c/master r/e634e98; Dec 19 2017 11:00:25 by eja",
  "dcmmeta_affine": [
    [-1.9992055892944336, -0.027915868908166885, 0.048965174704790115, 107.4001235961914],
    [-0.04839286208152771, 1.740901231765747, -0.9833214282989502, -50.167640686035156],
    [0.0288966316729784, 0.9841156601905823, 1.7408852577209473, -89.67569732666016],
    [0.0, 0.0, 0.0, 1.0]
],
  "dcmmeta_reorient_transform": [
    [0.0, -1.0, 0.0, 103.0],
    [1.0, 0.0, 0.0, 0.0],
    [0.0, 0.0, 1.0, 0.0],
    [0.0, 0.0, 0.0, 1.0]
],
  "dcmmeta_shape": [104, 104, 60, 190],
  "dcmmeta_slice_dim": 2,
  "dcmmeta_version": 0.6,
  "global": {
    "const": {
      "AcquisitionMatrix": [104, 0, 0, 104],
      "AngioFlag": "N",
      "BitsAllocated": 16,
      "BitsStored": 16,
      "BodyPartExamined": "BRAIN",
      "Columns": 832,
      "EchoNumbers": 1,
      "EchoTime": 37.0,
      "EchoTrainLength": 104,
      "FlipAngle": 52.0,
      "HighBit": 15,
      "ImageOrientationPatient": [0.99960281059407, 0.02419643013385, 0.01444831551451, -0.0139579346639, 0.87045061364973, -0.4920578271471],
      "ImagePositionPatient": [-822.07425842688, -780.4482348066, 359.38793649326],
      "ImageType": [
        "ORIGINAL",
        "PRIMARY",
        "P",
        "MB",
        "ND",
        "MOSAIC"
],
      "ImagedNucleus": "1H",
      "ImagingFrequency": 123.258965,
      "InPlanePhaseEncodingDirection": "COL",
      "LargestImagePixelValue": 4095,
      "MRAcquisitionType": "2D",
      "MagneticFieldStrength": 3.0,
      "Manufacturer": "SIEMENS",
      "ManufacturerModelName": "Prisma_fit",
      "Modality": "MR",
      "NumberOfAverages": 1.0,
      "NumberOfPhaseEncodingSteps": 104,
      "PercentPhaseFieldOfView": 100.0,
      "PercentSampling": 100.0,
      "PerformedProcedureStepStartTime": "103720.072000",
      "PhotometricInterpretation": "MONOCHROME2",
      "PixelBandwidth": 2290.0,
      "PixelRepresentation": 0,
      "PixelSpacing": [2.0, 2.0],
      "ProtocolName": "func_task-things_run-3",
      "RepetitionTime": 1490.0,
      "RescaleIntercept": -4096.0,
      "RescaleSlope": 2.0,
      "RescaleType": "US",
      "Rows": 832,
      "SAR": 0.06691318795065,
      "SamplesPerPixel": 1,
      "ScanOptions": "FS",
      "ScanningSequence": "EP",
      "SequenceName": "epfid2d1_104",
      "SequenceVariant": [
        "SK",
        "SS"
],
      "SeriesDescription": "func_task-things_run-3",
      "SeriesNumber": 17,
      "SeriesTime": "111647.200000",
      "SliceLocation": -50.762660240096,
      "SliceThickness": 2.0,
      "SmallestImagePixelValue": 0,
      "SoftwareVersions": "syngo MR E11",
      "SpacingBetweenSlices": 1.9999999785079,
      "SpecificCharacterSet": "ISO_IR 100",
      "StudyID": "1",
      "StudyTime": "103719.995000",
      "TransmitCoilName": "Body",
      "VariableFlipAngleFlag": "N",
      "WindowCenterWidthExplanation": "Algo1",
      "dBdt": 0.0},
    "slices": {}
  },
  "time": {
    "samples": {
      "AcquisitionNumber": [1, 2, 3, 4, 5, 6, 7, 8, 9, 10, 11, 12, 13, 14, 15, 16, 17, 18, 19, 20, 21, 22, 23, 24, 25, 26, 27, 28, 29, 30, 31, 32, 33, 34, 35, 36, 37, 38, 39, 40, 41, 42, 43, 44, 45, 46, 47, 48, 49, 50, 51, 52, 53, 54, 55, 56, 57, 58, 59, 60, 61, 62, 63, 64, 65, 66, 67, 68, 69, 70, 71, 72, 73, 74, 75, 76, 77, 78, 79, 80, 81, 82, 83, 84, 85, 86, 87, 88, 89, 90, 91, 92, 93, 94, 95, 96, 97, 98, 99, 100, 101, 102, 103, 104, 105, 106, 107, 108, 109, 110, 111, 112, 113, 114, 115, 116, 117, 118, 119, 120, 121, 122, 123, 124, 125, 126, 127, 128, 129, 130, 131, 132, 133, 134, 135, 136, 137, 138, 139, 140, 141, 142, 143, 144, 145, 146, 147, 148, 149, 150, 151, 152, 153, 154, 155, 156, 157, 158, 159, 160, 161, 162, 163, 164, 165, 166, 167, 168, 169, 170, 171, 172, 173, 174, 175, 176, 177, 178, 179, 180, 181, 182, 183, 184, 185, 186, 187, 188, 189, 190],
      "AcquisitionTime": ["111521.845000", "111523.335000", "111524.825000", "111526.315000", "111527.805000", "111529.295000", "111530.785000", "111532.275000", "111533.765000", "111535.255000", "111536.745000", "111538.235000", "111539.725000", "111541.215000", "111542.705000", "111544.195000", "111545.685000", "111547.175000", "111548.665000", "111550.155000", "111551.645000", "111553.135000", "111554.625000", "111556.115000", "111557.605000", "111559.095000", "111600.585000", "111602.075000", "111603.565000", "111605.055000", "111606.545000", "111608.035000", "111609.525000", "111611.015000", "111612.505000", "111613.995000", "111615.485000", "111616.975000", "111618.465000", "111619.955000", "111621.445000", "111622.935000", "111624.425000", "111625.915000", "111627.405000", "111628.895000", "111630.385000", "111631.875000", "111633.365000", "111634.855000", "111636.345000", "111637.835000", "111639.325000", "111640.815000", "111642.305000", "111643.795000", "111645.285000", "111646.775000", "111648.265000", "111649.755000", "111651.245000", "111652.735000", "111654.225000", "111655.715000", "111657.205000", "111658.695000", "111700.185000", "111701.675000", "111703.165000", "111704.655000", "111706.145000", "111707.635000", "111709.125000", "111710.615000", "111712.105000", "111713.595000", "111715.085000", "111716.575000", "111718.065000", "111719.555000", "111721.045000", "111722.535000", "111724.025000", "111725.515000", "111727.005000", "111728.495000", "111729.985000", "111731.475000", "111732.965000", "111734.455000", "111735.945000", "111737.435000", "111738.925000", "111740.415000", "111741.905000", "111743.395000", "111744.885000", "111746.375000", "111747.865000", "111749.355000", "111750.845000", "111752.335000", "111753.825000", "111755.315000", "111756.805000", "111758.295000", "111759.785000", "111801.275000", "111802.765000", "111804.255000", "111805.745000", "111807.235000", "111808.725000", "111810.215000", "111811.705000", "111813.195000", "111814.685000", "111816.175000", "111817.665000", "111819.155000", "111820.645000", "111822.135000", "111823.625000", "111825.115000", "111826.605000", "111828.095000", "111829.585000", "111831.075000", "111832.565000", "111834.055000", "111835.545000", "111837.035000", "111838.525000", "111840.015000", "111841.505000", "111842.995000", "111844.485000", "111845.975000", "111847.465000", "111848.955000", "111850.445000", "111851.935000", "111853.425000", "111854.915000", "111856.405000", "111857.895000", "111859.385000", "111900.875000", "111902.365000", "111903.855000", "111905.345000", "111906.835000", "111908.325000", "111909.815000", "111911.305000", "111912.795000", "111914.285000", "111915.775000", "111917.265000", "111918.755000", "111920.245000", "111921.735000", "111923.225000", "111924.715000", "111926.205000", "111927.695000", "111929.185000", "111930.675000", "111932.165000", "111933.655000", "111935.145000", "111936.635000", "111938.125000", "111939.615000", "111941.105000", "111942.595000", "111944.085000", "111945.575000", "111947.065000", "111948.555000", "111950.045000", "111951.535000", "111953.025000", "111954.515000", "111956.005000", "111957.495000", "111958.985000", "112000.475000", "112001.965000", "112003.455000"],
      "ContentTime": ["111647.202000", "111647.212000", "111647.215000", "111647.217000", "111647.220000", "111647.222000", "111647.225000", "111647.227000", "111647.230000", "111647.232000", "111647.235000", "111647.237000", "111647.240000", "111647.242000", "111647.245000", "111647.247000", "111647.250000", "111647.252000", "111647.255000", "111647.257000", "111647.260000", "111647.262000", "111647.265000", "111647.267000", "111647.270000", "111647.272000", "111707.228000", "111707.230000", "111707.233000", "111707.235000", "111707.238000", "111707.240000", "111707.243000", "111707.245000", "111707.248000", "111707.250000", "111707.253000", "111707.255000", "111707.258000", "111707.260000", "111707.262000", "111707.265000", "111707.267000", "111707.270000", "111707.273000", "111707.275000", "111707.277000", "111727.141000", "111727.144000", "111727.146000", "111727.149000", "111727.152000", "111727.154000", "111727.156000", "111727.159000", "111727.161000", "111727.164000", "111727.166000", "111727.175000", "111727.178000", "111727.180000", "111727.182000", "111727.185000", "111727.187000", "111727.190000", "111727.192000", "111727.195000", "111747.152000", "111747.154000", "111747.157000", "111747.159000", "111747.162000", "111747.164000", "111747.167000", "111747.169000", "111747.179000", "111747.181000", "111747.184000", "111747.186000", "111747.190000", "111747.192000", "111747.195000", "111747.197000", "111747.200000", "111747.202000", "111747.205000", "111747.207000", "111807.145000", "111807.152000", "111807.154000", "111807.157000", "111807.160000", "111807.162000", "111807.164000", "111807.167000", "111807.170000", "111807.172000", "111807.175000", "111807.177000", "111807.180000", "111807.182000", "111807.185000", "111807.187000", "111807.190000", "111807.192000", "111807.195000", "111807.197000", "111847.217000", "111847.220000", "111847.222000", "111847.225000", "111847.227000", "111847.230000", "111847.240000", "111847.242000", "111847.245000", "111847.247000", "111847.250000", "111847.252000", "111847.255000", "111847.257000", "111847.260000", "111847.262000", "111847.265000", "111847.267000", "111847.270000", "111847.272000", "111847.275000", "111847.277000", "111847.280000", "111847.282000", "111847.285000", "111847.287000", "111847.290000", "111847.292000", "111847.295000", "111847.297000", "111927.168000", "111927.171000", "111927.174000", "111927.176000", "111927.179000", "111927.181000", "111927.184000", "111927.186000", "111927.189000", "111927.191000", "111927.194000", "111927.197000", "111927.199000", "111927.202000", "111927.204000", "111927.207000", "111927.209000", "111927.212000", "111927.214000", "111927.217000", "111927.219000", "111927.222000", "111927.224000", "111927.227000", "111927.229000", "111927.232000", "112006.079000", "112006.082000", "112006.085000", "112006.087000", "112006.090000", "112006.101000", "112006.103000", "112006.106000", "112006.108000", "112006.111000", "112006.113000", "112006.116000", "112006.118000", "112006.121000", "112006.123000", "112006.126000", "112006.128000", "112006.131000", "112006.133000", "112006.136000", "112006.138000", "112006.141000", "112006.143000", "112006.146000", "112006.150000", "112006.152000", "112006.155000"],
      "InstanceCreationTime": ["111647.202000", "111647.212000", "111647.215000", "111647.217000", "111647.220000", "111647.222000", "111647.225000", "111647.227000", "111647.230000", "111647.232000", "111647.235000", "111647.237000", "111647.240000", "111647.242000", "111647.245000", "111647.247000", "111647.250000", "111647.252000", "111647.255000", "111647.257000", "111647.260000", "111647.262000", "111647.265000", "111647.267000", "111647.270000", "111647.272000", "111707.228000", "111707.230000", "111707.233000", "111707.235000", "111707.238000", "111707.240000", "111707.243000", "111707.245000", "111707.248000", "111707.250000", "111707.253000", "111707.255000", "111707.258000", "111707.260000", "111707.262000", "111707.265000", "111707.267000", "111707.270000", "111707.273000", "111707.275000", "111707.277000", "111727.141000", "111727.144000", "111727.146000", "111727.149000", "111727.152000", "111727.154000", "111727.156000", "111727.159000", "111727.161000", "111727.164000", "111727.166000", "111727.175000", "111727.178000", "111727.180000", "111727.182000", "111727.185000", "111727.187000", "111727.190000", "111727.192000", "111727.195000", "111747.152000", "111747.154000", "111747.157000", "111747.159000", "111747.162000", "111747.164000", "111747.167000", "111747.169000", "111747.179000", "111747.181000", "111747.184000", "111747.186000", "111747.190000", "111747.192000", "111747.195000", "111747.197000", "111747.200000", "111747.202000", "111747.205000", "111747.207000", "111807.145000", "111807.152000", "111807.154000", "111807.157000", "111807.160000", "111807.162000", "111807.164000", "111807.167000", "111807.170000", "111807.172000", "111807.175000", "111807.177000", "111807.180000", "111807.182000", "111807.185000", "111807.187000", "111807.190000", "111807.192000", "111807.195000", "111807.197000", "111847.217000", "111847.220000", "111847.222000", "111847.225000", "111847.227000", "111847.230000", "111847.240000", "111847.242000", "111847.245000", "111847.247000", "111847.250000", "111847.252000", "111847.255000", "111847.257000", "111847.260000", "111847.262000", "111847.265000", "111847.267000", "111847.270000", "111847.272000", "111847.275000", "111847.277000", "111847.280000", "111847.282000", "111847.285000", "111847.287000", "111847.290000", "111847.292000", "111847.295000", "111847.297000", "111927.168000", "111927.171000", "111927.174000", "111927.176000", "111927.179000", "111927.181000", "111927.184000", "111927.186000", "111927.189000", "111927.191000", "111927.194000", "111927.197000", "111927.199000", "111927.202000", "111927.204000", "111927.207000", "111927.209000", "111927.212000", "111927.214000", "111927.217000", "111927.219000", "111927.222000", "111927.224000", "111927.227000", "111927.229000", "111927.232000", "112006.079000", "112006.082000", "112006.085000", "112006.087000", "112006.090000", "112006.101000", "112006.103000", "112006.106000", "112006.108000", "112006.111000", "112006.113000", "112006.116000", "112006.118000", "112006.121000", "112006.123000", "112006.126000", "112006.128000", "112006.131000", "112006.133000", "112006.136000", "112006.138000", "112006.141000", "112006.143000", "112006.146000", "112006.150000", "112006.152000", "112006.155000"],
      "InstanceNumber": [1, 2, 3, 4, 5, 6, 7, 8, 9, 10, 11, 12, 13, 14, 15, 16, 17, 18, 19, 20, 21, 22, 23, 24, 25, 26, 27, 28, 29, 30, 31, 32, 33, 34, 35, 36, 37, 38, 39, 40, 41, 42, 43, 44, 45, 46, 47, 48, 49, 50, 51, 52, 53, 54, 55, 56, 57, 58, 59, 60, 61, 62, 63, 64, 65, 66, 67, 68, 69, 70, 71, 72, 73, 74, 75, 76, 77, 78, 79, 80, 81, 82, 83, 84, 85, 86, 87, 88, 89, 90, 91, 92, 93, 94, 95, 96, 97, 98, 99, 100, 101, 102, 103, 104, 105, 106, 107, 108, 109, 110, 111, 112, 113, 114, 115, 116, 117, 118, 119, 120, 121, 122, 123, 124, 125, 126, 127, 128, 129, 130, 131, 132, 133, 134, 135, 136, 137, 138, 139, 140, 141, 142, 143, 144, 145, 146, 147, 148, 149, 150, 151, 152, 153, 154, 155, 156, 157, 158, 159, 160, 161, 162, 163, 164, 165, 166, 167, 168, 169, 170, 171, 172, 173, 174, 175, 176, 177, 178, 179, 180, 181, 182, 183, 184, 185, 186, 187, 188, 189, 190],
      "WindowCenter": [4860.0, 4836.0, 4858.0, 4880.0, 4904.0, 4882.0, 4856.0, 4862.0, 4836.0, 4858.0, 4838.0, 4860.0, 4856.0, 4858.0, 4884.0, 4862.0, 4884.0, 4860.0, 4856.0, 4860.0, 4836.0, 4860.0, 4858.0, 4838.0, 4882.0, 4880.0, 4882.0, 4860.0, 4858.0, 4838.0, 4836.0, 4860.0, 4858.0, 4858.0, 4886.0, 4858.0, 4884.0, 4884.0, 4856.0, 4862.0, 4836.0, 4860.0, 4858.0, 4862.0, 4858.0, 4858.0, 4884.0, 4862.0, 4858.0, 4858.0, 4858.0, 4858.0, 4858.0, 4860.0, 4858.0, 4860.0, 4860.0, 4860.0, 4860.0, 4884.0, 4862.0, 4858.0, 4858.0, 4858.0, 4858.0, 4858.0, 4858.0, 4882.0, 4860.0, 4860.0, 4884.0, 4836.0, 4858.0, 4862.0, 4858.0, 4858.0, 4854.0, 4884.0, 4860.0, 4886.0, 4886.0, 4858.0, 4858.0, 4834.0, 4858.0, 4860.0, 4858.0, 4862.0, 4862.0, 4862.0, 4860.0, 4860.0, 4862.0, 4856.0, 4880.0, 4860.0, 4858.0, 4862.0, 4860.0, 4860.0, 4836.0, 4856.0, 4860.0, 4882.0, 4862.0, 4860.0, 4884.0, 4858.0, 4858.0, 4860.0, 4858.0, 4860.0, 4856.0, 4858.0, 4860.0, 4860.0, 4862.0, 4860.0, 4884.0, 4860.0, 4862.0, 4862.0, 4860.0, 4860.0, 4836.0, 4858.0, 4860.0, 4860.0, 4858.0, 4858.0, 4882.0, 4860.0, 4882.0, 4860.0, 4856.0, 4836.0, 4858.0, 4858.0, 4832.0, 4860.0, 4858.0, 4882.0, 4860.0, 4860.0, 4860.0, 4860.0, 4864.0, 4856.0, 4860.0, 4862.0, 4860.0, 4858.0, 4862.0, 4858.0, 4884.0, 4884.0, 4860.0, 4884.0, 4858.0, 4860.0, 4862.0, 4862.0, 4838.0, 4836.0, 4836.0, 4858.0, 4884.0, 4860.0, 4884.0, 4862.0, 4862.0, 4860.0, 4860.0, 4860.0, 4860.0, 4860.0, 4860.0, 4860.0, 4884.0, 4860.0, 4860.0, 4856.0, 4856.0, 4864.0, 4860.0, 4884.0, 4862.0, 4858.0, 4864.0, 4858.0],
      "WindowWidth": [18602.0, 18568.0, 18594.0, 18646.0, 18692.0, 18640.0, 18602.0, 18610.0, 18572.0, 18606.0, 18574.0, 18602.0, 18598.0, 18600.0, 18646.0, 18604.0, 18644.0, 18606.0, 18600.0, 18606.0, 18572.0, 18604.0, 18598.0, 18568.0, 18652.0, 18652.0, 18642.0, 18598.0, 18608.0, 18580.0, 18572.0, 18604.0, 18596.0, 18608.0, 18640.0, 18600.0, 18650.0, 18640.0, 18602.0, 18608.0, 18572.0, 18610.0, 18602.0, 18610.0, 18604.0, 18598.0, 18646.0, 18608.0, 18602.0, 18610.0, 18600.0, 18610.0, 18600.0, 18602.0, 18600.0, 18600.0, 18608.0, 18598.0, 18600.0, 18634.0, 18606.0, 18604.0, 18598.0, 18606.0, 18602.0, 18612.0, 18600.0, 18644.0, 18604.0, 18606.0, 18644.0, 18576.0, 18608.0, 18606.0, 18604.0, 18600.0, 18594.0, 18638.0, 18606.0, 18652.0, 18642.0, 18604.0, 18606.0, 18570.0, 18604.0, 18606.0, 18602.0, 18606.0, 18600.0, 18606.0, 18600.0, 18608.0, 18612.0, 18596.0, 18640.0, 18600.0, 18606.0, 18602.0, 18602.0, 18602.0, 18572.0, 18602.0, 18602.0, 18652.0, 18604.0, 18604.0, 18642.0, 18596.0, 18604.0, 18598.0, 18600.0, 18612.0, 18600.0, 18604.0, 18602.0, 18602.0, 18612.0, 18598.0, 18638.0, 18604.0, 18602.0, 18610.0, 18604.0, 18604.0, 18570.0, 18604.0, 18602.0, 18604.0, 18600.0, 18604.0, 18656.0, 18608.0, 18646.0, 18606.0, 18604.0, 18572.0, 18604.0, 18602.0, 18570.0, 18604.0, 18600.0, 18640.0, 18606.0, 18608.0, 18608.0, 18602.0, 18608.0, 18598.0, 18606.0, 18602.0, 18604.0, 18602.0, 18606.0, 18602.0, 18640.0, 18644.0, 18600.0, 18644.0, 18604.0, 18604.0, 18608.0, 18604.0, 18570.0, 18572.0, 18574.0, 18608.0, 18648.0, 18606.0, 18650.0, 18608.0, 18608.0, 18602.0, 18602.0, 18604.0, 18608.0, 18600.0, 18612.0, 18602.0, 18642.0, 18606.0, 18606.0, 18602.0, 18596.0, 18608.0, 18598.0, 18638.0, 18604.0, 18600.0, 18610.0, 18600.0]
    },
    "slices": {}
  }
}