{
  "AcquisitionMatrixPE": 104,
  "AcquisitionNumber": 1,
  "AcquisitionTime": "11:09:9.367500",
  "BandwidthPerPixelPhaseEncode": 17.17,
  "BaseResolution": 104,
  "BodyPartExamined": "BRAIN",
  "CoilString": "HC1-7;NC1_2",
  "ConsistencyInfo": "N4_VE11C_LATEST_20160120",
  "ConversionSoftware": "dcm2niix",
  "ConversionSoftwareVersion": "v1.0.20190902",
  "DerivedVendorReportedEchoSpacing": 0.000560011,
  "DeviceSerialNumber": "167006",
  "DwellTime": 2.1e-06,
  "EchoTime": 0.037,
  "EchoTrainLength": 104,
  "EffectiveEchoSpacing": 0.000560011,
  "FlipAngle": 52,
  "ImageComments": "Unaliased_MB4_PE3_LB",
  "ImageOrientationPatientDICOM": [0.999603, 0.0241964, 0.0144483, -0.0139579, 0.870451, -0.492058],
  "ImageType": [
    "ORIGINAL",
    "PRIMARY",
    "P",
    "MB",
    "ND",
    "MOSAIC"
],
  "ImagingFrequency": 123.259,
  "InPlanePhaseEncodingDirectionDICOM": "COL",
  "InstitutionAddress": "Chemin_Queen-Mary_4565_Montreal_District_CA_H3W_1W5",
  "InstitutionName": "IUGM",
  "InstitutionalDepartmentName": "Department",
  "MRAcquisitionType": "2D",
  "MagneticFieldStrength": 3,
  "Manufacturer": "Siemens",
  "ManufacturersModelName": "Prisma_fit",
  "Modality": "MR",
  "MultibandAccelerationFactor": 4,
  "PartialFourier": 1,
  "PatientPosition": "HFS",
  "PercentPhaseFOV": 100,
  "PhaseEncodingDirection": "j",
  "PhaseEncodingSteps": 104,
  "PhaseResolution": 1,
  "PixelBandwidth": 2290,
  "ProcedureStepDescription": "memory_things",
  "ProtocolName": "func_task-things_run-2",
  "PulseSequenceDetails": "%CustomerSeq%_cmrr_mbep2d_bold",
  "ReceiveCoilActiveElements": "HC1-7;NC1,2",
  "ReceiveCoilName": "HeadNeck_64",
  "ReconMatrixPE": 104,
  "RepetitionTime": 1.49,
  "SAR": 0.0669132,
  "ScanOptions": "FS",
  "ScanningSequence": "EP",
  "SequenceName": "epfid2d1_104",
  "SequenceVariant": "SK_SS",
  "SeriesDescription": "func_task-things_run-2",
  "SeriesNumber": 14,
  "ShimSetting": [618, -7182, -8854, 310, -8, -107, -6, -52],
  "SliceThickness": 2,
  "SliceTiming": [0, 0.785, 0.0975, 0.8825, 0.1975, 0.98, 0.295, 1.0775, 0.3925, 1.175, 0.49, 1.275, 0.5875, 1.3725, 0.6875, 0, 0.785, 0.0975, 0.8825, 0.1975, 0.98, 0.295, 1.0775, 0.3925, 1.175, 0.49, 1.275, 0.5875, 1.3725, 0.6875, 0, 0.785, 0.0975, 0.8825, 0.1975, 0.98, 0.295, 1.0775, 0.3925, 1.175, 0.49, 1.275, 0.5875, 1.3725, 0.6875, 0, 0.785, 0.0975, 0.8825, 0.1975, 0.98, 0.295, 1.0775, 0.3925, 1.175, 0.49, 1.275, 0.5875, 1.3725, 0.6875],
  "SoftwareVersions": "syngo_MR_E11",
  "SpacingBetweenSlices": 2,
  "StationName": "MRC35049",
  "TaskName": "things",
  "TotalReadoutTime": 0.0576811,
  "TxRefAmp": 337.054,
  "WipMemBlock": "62456e72-c3dd-482d-bc14-c4d9816cdb37||Sequence: R016 ve11c/master r/e634e98; Dec 19 2017 11:00:25 by eja",
  "dcmmeta_affine": [
    [-1.9992055892944336, -0.027915868908166885, 0.048965174704790115, 107.4001235961914],
    [-0.04839286208152771, 1.740901231765747, -0.9833214282989502, -50.167640686035156],
    [0.0288966316729784, 0.9841156601905823, 1.7408852577209473, -89.67569732666016],
    [0.0, 0.0, 0.0, 1.0]
],
  "dcmmeta_reorient_transform": [
    [0.0, -1.0, 0.0, 103.0],
    [1.0, 0.0, 0.0, 0.0],
    [0.0, 0.0, 1.0, 0.0],
    [0.0, 0.0, 0.0, 1.0]
],
  "dcmmeta_shape": [104, 104, 60, 190],
  "dcmmeta_slice_dim": 2,
  "dcmmeta_version": 0.6,
  "global": {
    "const": {
      "AcquisitionMatrix": [104, 0, 0, 104],
      "AngioFlag": "N",
      "BitsAllocated": 16,
      "BitsStored": 16,
      "BodyPartExamined": "BRAIN",
      "Columns": 832,
      "EchoNumbers": 1,
      "EchoTime": 37.0,
      "EchoTrainLength": 104,
      "FlipAngle": 52.0,
      "HighBit": 15,
      "ImageOrientationPatient": [0.99960281059407, 0.02419643013385, 0.01444831551451, -0.0139579346639, 0.87045061364973, -0.4920578271471],
      "ImagePositionPatient": [-822.07425842688, -780.4482348066, 359.38793649326],
      "ImageType": [
        "ORIGINAL",
        "PRIMARY",
        "P",
        "MB",
        "ND",
        "MOSAIC"
],
      "ImagedNucleus": "1H",
      "ImagingFrequency": 123.258962,
      "InPlanePhaseEncodingDirection": "COL",
      "LargestImagePixelValue": 4095,
      "MRAcquisitionType": "2D",
      "MagneticFieldStrength": 3.0,
      "Manufacturer": "SIEMENS",
      "ManufacturerModelName": "Prisma_fit",
      "Modality": "MR",
      "NumberOfAverages": 1.0,
      "NumberOfPhaseEncodingSteps": 104,
      "PercentPhaseFieldOfView": 100.0,
      "PercentSampling": 100.0,
      "PerformedProcedureStepStartTime": "103720.072000",
      "PhotometricInterpretation": "MONOCHROME2",
      "PixelBandwidth": 2290.0,
      "PixelRepresentation": 0,
      "PixelSpacing": [2.0, 2.0],
      "ProtocolName": "func_task-things_run-2",
      "RepetitionTime": 1490.0,
      "RescaleIntercept": -4096.0,
      "RescaleSlope": 2.0,
      "RescaleType": "US",
      "Rows": 832,
      "SAR": 0.06691318795065,
      "SamplesPerPixel": 1,
      "ScanOptions": "FS",
      "ScanningSequence": "EP",
      "SequenceName": "epfid2d1_104",
      "SequenceVariant": [
        "SK",
        "SS"
],
      "SeriesDescription": "func_task-things_run-2",
      "SeriesNumber": 14,
      "SeriesTime": "111035.335000",
      "SliceLocation": -50.762660240096,
      "SliceThickness": 2.0,
      "SmallestImagePixelValue": 0,
      "SoftwareVersions": "syngo MR E11",
      "SpacingBetweenSlices": 1.9999999785079,
      "SpecificCharacterSet": "ISO_IR 100",
      "StudyID": "1",
      "StudyTime": "103719.995000",
      "TransmitCoilName": "Body",
      "VariableFlipAngleFlag": "N",
      "WindowCenterWidthExplanation": "Algo1",
      "dBdt": 0.0},
    "slices": {}
  },
  "time": {
    "samples": {
      "AcquisitionNumber": [1, 2, 3, 4, 5, 6, 7, 8, 9, 10, 11, 12, 13, 14, 15, 16, 17, 18, 19, 20, 21, 22, 23, 24, 25, 26, 27, 28, 29, 30, 31, 32, 33, 34, 35, 36, 37, 38, 39, 40, 41, 42, 43, 44, 45, 46, 47, 48, 49, 50, 51, 52, 53, 54, 55, 56, 57, 58, 59, 60, 61, 62, 63, 64, 65, 66, 67, 68, 69, 70, 71, 72, 73, 74, 75, 76, 77, 78, 79, 80, 81, 82, 83, 84, 85, 86, 87, 88, 89, 90, 91, 92, 93, 94, 95, 96, 97, 98, 99, 100, 101, 102, 103, 104, 105, 106, 107, 108, 109, 110, 111, 112, 113, 114, 115, 116, 117, 118, 119, 120, 121, 122, 123, 124, 125, 126, 127, 128, 129, 130, 131, 132, 133, 134, 135, 136, 137, 138, 139, 140, 141, 142, 143, 144, 145, 146, 147, 148, 149, 150, 151, 152, 153, 154, 155, 156, 157, 158, 159, 160, 161, 162, 163, 164, 165, 166, 167, 168, 169, 170, 171, 172, 173, 174, 175, 176, 177, 178, 179, 180, 181, 182, 183, 184, 185, 186, 187, 188, 189, 190],
      "AcquisitionTime": ["110909.367500", "110910.857500", "110912.347500", "110913.837500", "110915.327500", "110916.817500", "110918.307500", "110919.797500", "110921.287500", "110922.777500", "110924.267500", "110925.757500", "110927.247500", "110928.737500", "110930.227500", "110931.717500", "110933.207500", "110934.697500", "110936.187500", "110937.677500", "110939.167500", "110940.657500", "110942.147500", "110943.637500", "110945.127500", "110946.617500", "110948.107500", "110949.597500", "110951.087500", "110952.577500", "110954.067500", "110955.557500", "110957.047500", "110958.537500", "111000.027500", "111001.517500", "111003.007500", "111004.497500", "111005.987500", "111007.477500", "111008.967500", "111010.457500", "111011.947500", "111013.437500", "111014.927500", "111016.417500", "111017.907500", "111019.397500", "111020.887500", "111022.377500", "111023.867500", "111025.357500", "111026.847500", "111028.337500", "111029.827500", "111031.317500", "111032.807500", "111034.297500", "111035.787500", "111037.277500", "111038.767500", "111040.257500", "111041.747500", "111043.237500", "111044.727500", "111046.217500", "111047.707500", "111049.197500", "111050.687500", "111052.177500", "111053.667500", "111055.157500", "111056.647500", "111058.137500", "111059.627500", "111101.117500", "111102.607500", "111104.097500", "111105.587500", "111107.077500", "111108.567500", "111110.057500", "111111.547500", "111113.037500", "111114.527500", "111116.017500", "111117.507500", "111118.997500", "111120.487500", "111121.977500", "111123.467500", "111124.957500", "111126.447500", "111127.937500", "111129.427500", "111130.917500", "111132.407500", "111133.897500", "111135.387500", "111136.877500", "111138.367500", "111139.857500", "111141.347500", "111142.837500", "111144.327500", "111145.817500", "111147.307500", "111148.797500", "111150.287500", "111151.777500", "111153.267500", "111154.757500", "111156.247500", "111157.737500", "111159.227500", "111200.717500", "111202.207500", "111203.697500", "111205.187500", "111206.677500", "111208.167500", "111209.657500", "111211.147500", "111212.637500", "111214.127500", "111215.617500", "111217.107500", "111218.597500", "111220.087500", "111221.577500", "111223.067500", "111224.557500", "111226.047500", "111227.537500", "111229.027500", "111230.517500", "111232.007500", "111233.497500", "111234.987500", "111236.477500", "111237.967500", "111239.457500", "111240.947500", "111242.437500", "111243.927500", "111245.417500", "111246.907500", "111248.397500", "111249.887500", "111251.377500", "111252.867500", "111254.357500", "111255.847500", "111257.337500", "111258.827500", "111300.317500", "111301.807500", "111303.297500", "111304.787500", "111306.277500", "111307.767500", "111309.257500", "111310.747500", "111312.237500", "111313.727500", "111315.217500", "111316.707500", "111318.197500", "111319.687500", "111321.177500", "111322.667500", "111324.157500", "111325.647500", "111327.137500", "111328.627500", "111330.117500", "111331.607500", "111333.097500", "111334.587500", "111336.077500", "111337.567500", "111339.057500", "111340.547500", "111342.037500", "111343.527500", "111345.017500", "111346.507500", "111347.997500", "111349.487500", "111350.977500"],
      "ContentTime": ["111035.337000", "111035.340000", "111035.343000", "111035.345000", "111035.348000", "111035.350000", "111035.352000", "111035.355000", "111035.357000", "111035.366000", "111035.369000", "111035.371000", "111035.374000", "111035.376000", "111035.379000", "111035.381000", "111035.384000", "111035.386000", "111035.389000", "111035.391000", "111035.393000", "111035.396000", "111035.398000", "111035.401000", "111035.403000", "111035.406000", "111035.408000", "111035.411000", "111035.413000", "111035.416000", "111035.418000", "111055.254000", "111055.257000", "111055.260000", "111055.262000", "111055.265000", "111055.267000", "111055.270000", "111055.272000", "111055.275000", "111055.277000", "111055.279000", "111055.282000", "111055.284000", "111055.287000", "111055.289000", "111055.292000", "111055.294000", "111055.297000", "111055.299000", "111055.302000", "111115.242000", "111115.245000", "111115.247000", "111115.249000", "111115.252000", "111115.254000", "111115.257000", "111115.259000", "111115.262000", "111115.264000", "111115.267000", "111115.269000", "111115.272000", "111115.274000", "111115.277000", "111115.279000", "111115.282000", "111115.284000", "111115.286000", "111115.289000", "111135.240000", "111135.242000", "111135.245000", "111135.247000", "111135.250000", "111135.252000", "111135.255000", "111135.257000", "111135.260000", "111135.262000", "111135.265000", "111135.268000", "111135.270000", "111135.272000", "111135.275000", "111135.277000", "111135.280000", "111135.282000", "111135.285000", "111135.287000", "111215.305000", "111215.308000", "111215.311000", "111215.313000", "111215.316000", "111215.318000", "111215.321000", "111215.323000", "111215.326000", "111215.328000", "111215.331000", "111215.333000", "111215.336000", "111215.338000", "111215.341000", "111215.343000", "111215.346000", "111215.348000", "111215.351000", "111215.353000", "111215.356000", "111215.358000", "111215.361000", "111215.363000", "111215.366000", "111215.368000", "111215.371000", "111215.373000", "111215.375000", "111215.378000", "111215.380000", "111215.383000", "111215.385000", "111255.268000", "111255.271000", "111255.273000", "111255.276000", "111255.278000", "111255.281000", "111255.283000", "111255.286000", "111255.288000", "111255.291000", "111255.293000", "111255.296000", "111255.298000", "111255.301000", "111255.303000", "111255.306000", "111255.308000", "111255.311000", "111255.313000", "111255.316000", "111255.318000", "111255.321000", "111255.324000", "111255.326000", "111255.329000", "111255.331000", "111255.334000", "111315.203000", "111315.206000", "111315.208000", "111315.211000", "111315.213000", "111315.216000", "111315.218000", "111315.221000", "111315.223000", "111315.226000", "111315.228000", "111315.231000", "111315.233000", "111353.101000", "111353.104000", "111353.107000", "111353.115000", "111353.118000", "111353.120000", "111353.123000", "111353.126000", "111353.129000", "111353.131000", "111353.134000", "111353.137000", "111353.139000", "111353.142000", "111353.144000", "111353.147000", "111353.150000", "111353.152000", "111353.155000", "111353.158000", "111353.160000", "111353.163000", "111353.166000", "111353.169000", "111353.171000", "111353.174000"],
      "InstanceCreationTime": ["111035.337000", "111035.340000", "111035.343000", "111035.345000", "111035.348000", "111035.350000", "111035.352000", "111035.355000", "111035.357000", "111035.366000", "111035.369000", "111035.371000", "111035.374000", "111035.376000", "111035.379000", "111035.381000", "111035.384000", "111035.386000", "111035.389000", "111035.391000", "111035.393000", "111035.396000", "111035.398000", "111035.401000", "111035.403000", "111035.406000", "111035.408000", "111035.411000", "111035.413000", "111035.416000", "111035.418000", "111055.254000", "111055.257000", "111055.260000", "111055.262000", "111055.265000", "111055.267000", "111055.270000", "111055.272000", "111055.275000", "111055.277000", "111055.279000", "111055.282000", "111055.284000", "111055.287000", "111055.289000", "111055.292000", "111055.294000", "111055.297000", "111055.299000", "111055.302000", "111115.242000", "111115.245000", "111115.247000", "111115.249000", "111115.252000", "111115.254000", "111115.257000", "111115.259000", "111115.262000", "111115.264000", "111115.267000", "111115.269000", "111115.272000", "111115.274000", "111115.277000", "111115.279000", "111115.282000", "111115.284000", "111115.286000", "111115.289000", "111135.240000", "111135.242000", "111135.245000", "111135.247000", "111135.250000", "111135.252000", "111135.255000", "111135.257000", "111135.260000", "111135.262000", "111135.265000", "111135.268000", "111135.270000", "111135.272000", "111135.275000", "111135.277000", "111135.280000", "111135.282000", "111135.285000", "111135.287000", "111215.305000", "111215.308000", "111215.311000", "111215.313000", "111215.316000", "111215.318000", "111215.321000", "111215.323000", "111215.326000", "111215.328000", "111215.331000", "111215.333000", "111215.336000", "111215.338000", "111215.341000", "111215.343000", "111215.346000", "111215.348000", "111215.351000", "111215.353000", "111215.356000", "111215.358000", "111215.361000", "111215.363000", "111215.366000", "111215.368000", "111215.371000", "111215.373000", "111215.375000", "111215.378000", "111215.380000", "111215.383000", "111215.385000", "111255.268000", "111255.271000", "111255.273000", "111255.276000", "111255.278000", "111255.281000", "111255.283000", "111255.286000", "111255.288000", "111255.291000", "111255.293000", "111255.296000", "111255.298000", "111255.301000", "111255.303000", "111255.306000", "111255.308000", "111255.311000", "111255.313000", "111255.316000", "111255.318000", "111255.321000", "111255.324000", "111255.326000", "111255.329000", "111255.331000", "111255.334000", "111315.203000", "111315.206000", "111315.208000", "111315.211000", "111315.213000", "111315.216000", "111315.218000", "111315.221000", "111315.223000", "111315.226000", "111315.228000", "111315.231000", "111315.233000", "111353.101000", "111353.104000", "111353.107000", "111353.115000", "111353.118000", "111353.120000", "111353.123000", "111353.126000", "111353.129000", "111353.131000", "111353.134000", "111353.137000", "111353.139000", "111353.142000", "111353.144000", "111353.147000", "111353.150000", "111353.152000", "111353.155000", "111353.158000", "111353.160000", "111353.163000", "111353.166000", "111353.169000", "111353.171000", "111353.174000"],
      "InstanceNumber": [1, 2, 3, 4, 5, 6, 7, 8, 9, 10, 11, 12, 13, 14, 15, 16, 17, 18, 19, 20, 21, 22, 23, 24, 25, 26, 27, 28, 29, 30, 31, 32, 33, 34, 35, 36, 37, 38, 39, 40, 41, 42, 43, 44, 45, 46, 47, 48, 49, 50, 51, 52, 53, 54, 55, 56, 57, 58, 59, 60, 61, 62, 63, 64, 65, 66, 67, 68, 69, 70, 71, 72, 73, 74, 75, 76, 77, 78, 79, 80, 81, 82, 83, 84, 85, 86, 87, 88, 89, 90, 91, 92, 93, 94, 95, 96, 97, 98, 99, 100, 101, 102, 103, 104, 105, 106, 107, 108, 109, 110, 111, 112, 113, 114, 115, 116, 117, 118, 119, 120, 121, 122, 123, 124, 125, 126, 127, 128, 129, 130, 131, 132, 133, 134, 135, 136, 137, 138, 139, 140, 141, 142, 143, 144, 145, 146, 147, 148, 149, 150, 151, 152, 153, 154, 155, 156, 157, 158, 159, 160, 161, 162, 163, 164, 165, 166, 167, 168, 169, 170, 171, 172, 173, 174, 175, 176, 177, 178, 179, 180, 181, 182, 183, 184, 185, 186, 187, 188, 189, 190],
      "WindowCenter": [4858.0, 4834.0, 4834.0, 4858.0, 4858.0, 4886.0, 4860.0, 4884.0, 4856.0, 4860.0, 4858.0, 4858.0, 4838.0, 4856.0, 4860.0, 4856.0, 4860.0, 4858.0, 4864.0, 4860.0, 4862.0, 4858.0, 4862.0, 4836.0, 4860.0, 4856.0, 4858.0, 4858.0, 4860.0, 4860.0, 4858.0, 4860.0, 4858.0, 4836.0, 4860.0, 4834.0, 4858.0, 4862.0, 4858.0, 4860.0, 4856.0, 4858.0, 4858.0, 4860.0, 4860.0, 4860.0, 4862.0, 4856.0, 4858.0, 4836.0, 4862.0, 4860.0, 4882.0, 4860.0, 4862.0, 4856.0, 4860.0, 4860.0, 4858.0, 4860.0, 4860.0, 4862.0, 4862.0, 4882.0, 4862.0, 4832.0, 4860.0, 4858.0, 4858.0, 4858.0, 4862.0, 4858.0, 4860.0, 4886.0, 4858.0, 4858.0, 4858.0, 4856.0, 4862.0, 4858.0, 4862.0, 4858.0, 4858.0, 4862.0, 4854.0, 4882.0, 4860.0, 4860.0, 4858.0, 4860.0, 4834.0, 4858.0, 4860.0, 4860.0, 4860.0, 4864.0, 4860.0, 4860.0, 4860.0, 4858.0, 4858.0, 4858.0, 4860.0, 4884.0, 4858.0, 4858.0, 4860.0, 4860.0, 4858.0, 4862.0, 4834.0, 4858.0, 4858.0, 4860.0, 4862.0, 4858.0, 4862.0, 4860.0, 4884.0, 4858.0, 4860.0, 4858.0, 4860.0, 4836.0, 4858.0, 4860.0, 4858.0, 4862.0, 4856.0, 4860.0, 4858.0, 4860.0, 4856.0, 4836.0, 4860.0, 4860.0, 4860.0, 4860.0, 4862.0, 4884.0, 4858.0, 4862.0, 4862.0, 4860.0, 4858.0, 4836.0, 4858.0, 4834.0, 4862.0, 4858.0, 4860.0, 4862.0, 4860.0, 4858.0, 4862.0, 4858.0, 4856.0, 4858.0, 4858.0, 4862.0, 4862.0, 4860.0, 4860.0, 4860.0, 4856.0, 4858.0, 4860.0, 4860.0, 4860.0, 4860.0, 4860.0, 4836.0, 4862.0, 4858.0, 4882.0, 4864.0, 4856.0, 4858.0, 4834.0, 4860.0, 4858.0, 4860.0, 4860.0, 4860.0, 4862.0, 4860.0, 4858.0, 4884.0, 4860.0, 4860.0],
      "WindowWidth": [18588.0, 18562.0, 18564.0, 18592.0, 18598.0, 18636.0, 18598.0, 18642.0, 18594.0, 18614.0, 18600.0, 18600.0, 18570.0, 18600.0, 18598.0, 18594.0, 18602.0, 18598.0, 18616.0, 18600.0, 18606.0, 18596.0, 18606.0, 18570.0, 18600.0, 18596.0, 18596.0, 18598.0, 18606.0, 18600.0, 18612.0, 18598.0, 18600.0, 18566.0, 18604.0, 18564.0, 18602.0, 18600.0, 18596.0, 18602.0, 18594.0, 18604.0, 18598.0, 18608.0, 18604.0, 18596.0, 18600.0, 18600.0, 18602.0, 18566.0, 18602.0, 18598.0, 18638.0, 18602.0, 18612.0, 18600.0, 18602.0, 18594.0, 18598.0, 18600.0, 18602.0, 18608.0, 18600.0, 18642.0, 18608.0, 18560.0, 18604.0, 18598.0, 18600.0, 18594.0, 18602.0, 18598.0, 18600.0, 18646.0, 18598.0, 18604.0, 18598.0, 18592.0, 18598.0, 18596.0, 18610.0, 18596.0, 18594.0, 18606.0, 18592.0, 18640.0, 18596.0, 18606.0, 18596.0, 18602.0, 18562.0, 18600.0, 18600.0, 18596.0, 18608.0, 18600.0, 18602.0, 18594.0, 18602.0, 18596.0, 18600.0, 18596.0, 18600.0, 18638.0, 18596.0, 18606.0, 18596.0, 18600.0, 18592.0, 18600.0, 18566.0, 18600.0, 18596.0, 18600.0, 18598.0, 18600.0, 18604.0, 18598.0, 18642.0, 18596.0, 18602.0, 18594.0, 18600.0, 18568.0, 18592.0, 18604.0, 18598.0, 18608.0, 18604.0, 18606.0, 18600.0, 18596.0, 18594.0, 18572.0, 18596.0, 18606.0, 18608.0, 18606.0, 18602.0, 18644.0, 18598.0, 18614.0, 18604.0, 18602.0, 18596.0, 18568.0, 18600.0, 18562.0, 18602.0, 18594.0, 18608.0, 18598.0, 18602.0, 18596.0, 18600.0, 18596.0, 18592.0, 18600.0, 18598.0, 18610.0, 18596.0, 18604.0, 18598.0, 18606.0, 18596.0, 18604.0, 18598.0, 18602.0, 18598.0, 18598.0, 18604.0, 18566.0, 18610.0, 18598.0, 18634.0, 18600.0, 18594.0, 18598.0, 18562.0, 18600.0, 18590.0, 18598.0, 18604.0, 18594.0, 18608.0, 18602.0, 18598.0, 18644.0, 18602.0, 18600.0]
    },
    "slices": {}
  }
}