{
  "AcquisitionMatrixPE": 104,
  "AcquisitionNumber": 1,
  "AcquisitionTime": "11:27:23.022500",
  "BandwidthPerPixelPhaseEncode": 17.17,
  "BaseResolution": 104,
  "BodyPartExamined": "BRAIN",
  "CoilString": "HC1-7;NC1_2",
  "ConsistencyInfo": "N4_VE11C_LATEST_20160120",
  "ConversionSoftware": "dcm2niix",
  "ConversionSoftwareVersion": "v1.0.20190902",
  "DerivedVendorReportedEchoSpacing": 0.000560011,
  "DeviceSerialNumber": "167006",
  "DwellTime": 2.1e-06,
  "EchoTime": 0.037,
  "EchoTrainLength": 104,
  "EffectiveEchoSpacing": 0.000560011,
  "FlipAngle": 52,
  "ImageComments": "Unaliased_MB4_PE3_LB",
  "ImageOrientationPatientDICOM": [0.999527, 0.0129705, 0.0278748, 0.00209346, 0.875836, -0.482604],
  "ImageType": [
    "ORIGINAL",
    "PRIMARY",
    "M",
    "MB",
    "ND",
    "MOSAIC"
],
  "ImagingFrequency": 123.259,
  "InPlanePhaseEncodingDirectionDICOM": "COL",
  "InstitutionAddress": "Chemin_Queen-Mary_4565_Montreal_District_CA_H3W_1W5",
  "InstitutionName": "IUGM",
  "InstitutionalDepartmentName": "Department",
  "MRAcquisitionType": "2D",
  "MagneticFieldStrength": 3,
  "Manufacturer": "Siemens",
  "ManufacturersModelName": "Prisma_fit",
  "Modality": "MR",
  "MultibandAccelerationFactor": 4,
  "PartialFourier": 1,
  "PatientPosition": "HFS",
  "PercentPhaseFOV": 100,
  "PhaseEncodingDirection": "j",
  "PhaseEncodingSteps": 104,
  "PhaseResolution": 1,
  "PixelBandwidth": 2290,
  "ProcedureStepDescription": "memory_things",
  "ProtocolName": "func_task-things_run-6",
  "PulseSequenceDetails": "%CustomerSeq%_cmrr_mbep2d_bold",
  "ReceiveCoilActiveElements": "HC1-7;NC1,2",
  "ReceiveCoilName": "HeadNeck_64",
  "ReconMatrixPE": 104,
  "RepetitionTime": 1.49,
  "SAR": 0.0501315,
  "ScanOptions": "FS",
  "ScanningSequence": "EP",
  "SequenceName": "epfid2d1_104",
  "SequenceVariant": "SK_SS",
  "SeriesDescription": "func_task-things_run-6",
  "SeriesNumber": 25,
  "ShimSetting": [612, -7182, -8877, 302, -11, -104, -21, -27],
  "SliceThickness": 2,
  "SliceTiming": [0, 0.785, 0.1, 0.8825, 0.1975, 0.98, 0.295, 1.08, 0.3925, 1.1775, 0.49, 1.275, 0.59, 1.3725, 0.6875, 0, 0.785, 0.1, 0.8825, 0.1975, 0.98, 0.295, 1.08, 0.3925, 1.1775, 0.49, 1.275, 0.59, 1.3725, 0.6875, 0, 0.785, 0.1, 0.8825, 0.1975, 0.98, 0.295, 1.08, 0.3925, 1.1775, 0.49, 1.275, 0.59, 1.3725, 0.6875, 0, 0.785, 0.1, 0.8825, 0.1975, 0.98, 0.295, 1.08, 0.3925, 1.1775, 0.49, 1.275, 0.59, 1.3725, 0.6875],
  "SoftwareVersions": "syngo_MR_E11",
  "SpacingBetweenSlices": 2,
  "StationName": "MRC35049",
  "TaskName": "things",
  "TotalReadoutTime": 0.0576811,
  "TxRefAmp": 275.353,
  "WipMemBlock": "74bf6cbe-52c0-4afa-a5c6-7995f7ea207d||Sequence: R016 ve11c/master r/e634e98; Dec 19 2017 11:00:25 by eja",
  "dcmmeta_affine": [
    [-1.9990545511245728, 0.004186911042779684, 0.061346832662820816, 105.8602294921875],
    [-0.025941025465726852, 1.751672387123108, -0.964868426322937, -52.76451873779297],
    [0.05574968457221985, 0.9652079939842224, 1.750789999961853, -105.03831481933594],
    [0.0, 0.0, 0.0, 1.0]
],
  "dcmmeta_reorient_transform": [
    [0.0, -1.0, 0.0, 103.0],
    [1.0, 0.0, 0.0, 0.0],
    [0.0, 0.0, 1.0, 0.0],
    [0.0, 0.0, 0.0, 1.0]
],
  "dcmmeta_shape": [104, 104, 60, 190],
  "dcmmeta_slice_dim": 2,
  "dcmmeta_version": 0.6,
  "global": {
    "const": {
      "AcquisitionMatrix": [104, 0, 0, 104],
      "AngioFlag": "N",
      "BitsAllocated": 16,
      "BitsStored": 16,
      "BodyPartExamined": "BRAIN",
      "Columns": 832,
      "EchoNumbers": 1,
      "EchoTime": 37.0,
      "EchoTrainLength": 104,
      "FlipAngle": 52.0,
      "HighBit": 15,
      "ImageOrientationPatient": [0.99952726774786, 0.01297051318762, 0.02787484199323, 0.00209345563716, 0.87583616461022, -0.4826040097268],
      "ImagePositionPatient": [-835.47136952205, -774.70899201789, 325.42094837707],
      "ImageType": [
        "ORIGINAL",
        "PRIMARY",
        "M",
        "MB",
        "ND",
        "MOSAIC"
],
      "ImagedNucleus": "1H",
      "ImagingFrequency": 123.258956,
      "InPlanePhaseEncodingDirection": "COL",
      "MRAcquisitionType": "2D",
      "MagneticFieldStrength": 3.0,
      "Manufacturer": "SIEMENS",
      "ManufacturerModelName": "Prisma_fit",
      "Modality": "MR",
      "NumberOfAverages": 1.0,
      "NumberOfPhaseEncodingSteps": 104,
      "PercentPhaseFieldOfView": 100.0,
      "PercentSampling": 100.0,
      "PerformedProcedureStepStartTime": "100714.179000",
      "PhotometricInterpretation": "MONOCHROME2",
      "PixelBandwidth": 2290.0,
      "PixelRepresentation": 0,
      "PixelSpacing": [2.0, 2.0],
      "ProtocolName": "func_task-things_run-6",
      "RepetitionTime": 1490.0,
      "Rows": 832,
      "SAR": 0.05013150024391,
      "SamplesPerPixel": 1,
      "ScanOptions": "FS",
      "ScanningSequence": "EP",
      "SequenceName": "epfid2d1_104",
      "SequenceVariant": [
        "SK",
        "SS"
],
      "SeriesDescription": "func_task-things_run-6",
      "SeriesNumber": 25,
      "SeriesTime": "112849.082000",
      "SliceLocation": -63.247505545223,
      "SliceThickness": 2.0,
      "SmallestImagePixelValue": 0,
      "SoftwareVersions": "syngo MR E11",
      "SpacingBetweenSlices": 2.0000000158041,
      "SpecificCharacterSet": "ISO_IR 100",
      "StudyID": "1",
      "StudyTime": "100714.120000",
      "TransmitCoilName": "Body",
      "VariableFlipAngleFlag": "N",
      "WindowCenterWidthExplanation": "Algo1",
      "dBdt": 0.0},
    "slices": {}
  },
  "time": {
    "samples": {
      "AcquisitionNumber": [1, 2, 3, 4, 5, 6, 7, 8, 9, 10, 11, 12, 13, 14, 15, 16, 17, 18, 19, 20, 21, 22, 23, 24, 25, 26, 27, 28, 29, 30, 31, 32, 33, 34, 35, 36, 37, 38, 39, 40, 41, 42, 43, 44, 45, 46, 47, 48, 49, 50, 51, 52, 53, 54, 55, 56, 57, 58, 59, 60, 61, 62, 63, 64, 65, 66, 67, 68, 69, 70, 71, 72, 73, 74, 75, 76, 77, 78, 79, 80, 81, 82, 83, 84, 85, 86, 87, 88, 89, 90, 91, 92, 93, 94, 95, 96, 97, 98, 99, 100, 101, 102, 103, 104, 105, 106, 107, 108, 109, 110, 111, 112, 113, 114, 115, 116, 117, 118, 119, 120, 121, 122, 123, 124, 125, 126, 127, 128, 129, 130, 131, 132, 133, 134, 135, 136, 137, 138, 139, 140, 141, 142, 143, 144, 145, 146, 147, 148, 149, 150, 151, 152, 153, 154, 155, 156, 157, 158, 159, 160, 161, 162, 163, 164, 165, 166, 167, 168, 169, 170, 171, 172, 173, 174, 175, 176, 177, 178, 179, 180, 181, 182, 183, 184, 185, 186, 187, 188, 189, 190],
      "AcquisitionTime": ["112723.022500", "112724.512500", "112726.002500", "112727.492500", "112728.982500", "112730.472500", "112731.962500", "112733.452500", "112734.942500", "112736.432500", "112737.922500", "112739.412500", "112740.902500", "112742.392500", "112743.882500", "112745.372500", "112746.862500", "112748.352500", "112749.842500", "112751.332500", "112752.822500", "112754.312500", "112755.802500", "112757.292500", "112758.782500", "112800.272500", "112801.762500", "112803.252500", "112804.742500", "112806.232500", "112807.722500", "112809.212500", "112810.702500", "112812.192500", "112813.682500", "112815.172500", "112816.662500", "112818.152500", "112819.642500", "112821.132500", "112822.622500", "112824.112500", "112825.602500", "112827.092500", "112828.582500", "112830.072500", "112831.562500", "112833.052500", "112834.542500", "112836.032500", "112837.522500", "112839.012500", "112840.502500", "112841.992500", "112843.482500", "112844.972500", "112846.462500", "112847.952500", "112849.442500", "112850.932500", "112852.422500", "112853.912500", "112855.402500", "112856.892500", "112858.382500", "112859.872500", "112901.362500", "112902.852500", "112904.342500", "112905.832500", "112907.322500", "112908.812500", "112910.302500", "112911.792500", "112913.282500", "112914.772500", "112916.262500", "112917.752500", "112919.242500", "112920.732500", "112922.222500", "112923.712500", "112925.202500", "112926.692500", "112928.182500", "112929.672500", "112931.162500", "112932.652500", "112934.142500", "112935.632500", "112937.122500", "112938.612500", "112940.102500", "112941.592500", "112943.082500", "112944.572500", "112946.062500", "112947.552500", "112949.042500", "112950.532500", "112952.022500", "112953.512500", "112955.002500", "112956.492500", "112957.982500", "112959.472500", "113000.962500", "113002.452500", "113003.942500", "113005.432500", "113006.922500", "113008.412500", "113009.902500", "113011.392500", "113012.882500", "113014.372500", "113015.862500", "113017.352500", "113018.842500", "113020.332500", "113021.822500", "113023.312500", "113024.802500", "113026.292500", "113027.782500", "113029.272500", "113030.762500", "113032.252500", "113033.742500", "113035.232500", "113036.722500", "113038.212500", "113039.702500", "113041.192500", "113042.682500", "113044.172500", "113045.662500", "113047.152500", "113048.642500", "113050.132500", "113051.622500", "113053.112500", "113054.602500", "113056.092500", "113057.582500", "113059.072500", "113100.562500", "113102.052500", "113103.542500", "113105.032500", "113106.522500", "113108.012500", "113109.502500", "113110.992500", "113112.482500", "113113.972500", "113115.462500", "113116.952500", "113118.442500", "113119.932500", "113121.422500", "113122.912500", "113124.402500", "113125.892500", "113127.382500", "113128.872500", "113130.362500", "113131.852500", "113133.342500", "113134.832500", "113136.322500", "113137.812500", "113139.302500", "113140.792500", "113142.282500", "113143.772500", "113145.262500", "113146.752500", "113148.242500", "113149.732500", "113151.222500", "113152.712500", "113154.202500", "113155.692500", "113157.182500", "113158.672500", "113200.162500", "113201.652500", "113203.142500", "113204.632500"],
      "ContentTime": ["112849.085000", "112849.089000", "112849.093000", "112849.096000", "112849.099000", "112849.102000", "112849.106000", "112849.109000", "112849.112000", "112849.116000", "112849.119000", "112849.122000", "112849.126000", "112849.129000", "112849.132000", "112849.135000", "112849.139000", "112849.142000", "112849.145000", "112849.148000", "112849.152000", "112849.155000", "112849.158000", "112849.162000", "112849.165000", "112849.168000", "112849.172000", "112849.175000", "112849.178000", "112849.181000", "112849.185000", "112849.188000", "112909.036000", "112909.040000", "112909.043000", "112909.046000", "112909.049000", "112909.053000", "112909.063000", "112909.066000", "112909.069000", "112909.073000", "112909.076000", "112909.079000", "112909.082000", "112909.085000", "112909.089000", "112909.092000", "112909.095000", "112909.099000", "112909.102000", "112909.105000", "112929.036000", "112929.040000", "112929.059000", "112929.062000", "112929.065000", "112929.073000", "112929.077000", "112929.080000", "112929.083000", "112929.086000", "112929.090000", "112929.093000", "112929.096000", "112929.100000", "112929.103000", "112929.106000", "112929.109000", "112929.113000", "112929.116000", "112929.119000", "112949.035000", "112949.039000", "112949.042000", "112949.046000", "112949.049000", "112949.053000", "112949.056000", "112949.059000", "112949.062000", "112949.066000", "112949.069000", "112949.072000", "112949.076000", "112949.079000", "112949.082000", "112949.086000", "112949.089000", "112949.092000", "112949.095000", "112949.099000", "112949.102000", "113029.036000", "113029.040000", "113029.043000", "113029.047000", "113029.050000", "113029.053000", "113029.057000", "113029.060000", "113029.063000", "113029.066000", "113029.070000", "113029.073000", "113029.076000", "113029.080000", "113029.083000", "113029.086000", "113029.090000", "113029.093000", "113029.096000", "113029.100000", "113029.103000", "113029.106000", "113029.110000", "113029.113000", "113029.116000", "113029.119000", "113029.123000", "113029.126000", "113029.129000", "113029.133000", "113029.136000", "113109.037000", "113109.040000", "113109.043000", "113109.047000", "113109.050000", "113109.053000", "113109.057000", "113109.060000", "113109.063000", "113109.066000", "113109.070000", "113109.073000", "113109.076000", "113109.080000", "113109.083000", "113109.086000", "113109.090000", "113109.093000", "113109.096000", "113109.099000", "113109.103000", "113109.106000", "113109.109000", "113109.113000", "113109.116000", "113109.119000", "113109.123000", "113149.036000", "113149.040000", "113149.043000", "113149.046000", "113149.067000", "113149.070000", "113149.073000", "113149.077000", "113149.080000", "113149.083000", "113149.087000", "113149.090000", "113149.093000", "113149.097000", "113149.100000", "113149.103000", "113149.106000", "113149.110000", "113149.113000", "113149.116000", "113149.120000", "113149.123000", "113149.126000", "113149.130000", "113149.133000", "113149.136000", "113149.139000", "113206.841000", "113206.845000", "113206.848000", "113206.852000", "113206.855000", "113206.858000", "113206.861000", "113206.865000", "113206.868000", "113206.871000", "113206.875000", "113206.878000"],
      "InstanceCreationTime": ["112849.085000", "112849.089000", "112849.093000", "112849.096000", "112849.099000", "112849.102000", "112849.106000", "112849.109000", "112849.112000", "112849.116000", "112849.119000", "112849.122000", "112849.126000", "112849.129000", "112849.132000", "112849.135000", "112849.139000", "112849.142000", "112849.145000", "112849.148000", "112849.152000", "112849.155000", "112849.158000", "112849.162000", "112849.165000", "112849.168000", "112849.172000", "112849.175000", "112849.178000", "112849.181000", "112849.185000", "112849.188000", "112909.036000", "112909.040000", "112909.043000", "112909.046000", "112909.049000", "112909.053000", "112909.063000", "112909.066000", "112909.069000", "112909.073000", "112909.076000", "112909.079000", "112909.082000", "112909.085000", "112909.089000", "112909.092000", "112909.095000", "112909.099000", "112909.102000", "112909.105000", "112929.036000", "112929.040000", "112929.059000", "112929.062000", "112929.065000", "112929.073000", "112929.077000", "112929.080000", "112929.083000", "112929.086000", "112929.090000", "112929.093000", "112929.096000", "112929.100000", "112929.103000", "112929.106000", "112929.109000", "112929.113000", "112929.116000", "112929.119000", "112949.035000", "112949.039000", "112949.042000", "112949.046000", "112949.049000", "112949.053000", "112949.056000", "112949.059000", "112949.062000", "112949.066000", "112949.069000", "112949.072000", "112949.076000", "112949.079000", "112949.082000", "112949.086000", "112949.089000", "112949.092000", "112949.095000", "112949.099000", "112949.102000", "113029.036000", "113029.040000", "113029.043000", "113029.047000", "113029.050000", "113029.053000", "113029.057000", "113029.060000", "113029.063000", "113029.066000", "113029.070000", "113029.073000", "113029.076000", "113029.080000", "113029.083000", "113029.086000", "113029.090000", "113029.093000", "113029.096000", "113029.100000", "113029.103000", "113029.106000", "113029.110000", "113029.113000", "113029.116000", "113029.119000", "113029.123000", "113029.126000", "113029.129000", "113029.133000", "113029.136000", "113109.037000", "113109.040000", "113109.043000", "113109.047000", "113109.050000", "113109.053000", "113109.057000", "113109.060000", "113109.063000", "113109.066000", "113109.070000", "113109.073000", "113109.076000", "113109.080000", "113109.083000", "113109.086000", "113109.090000", "113109.093000", "113109.096000", "113109.099000", "113109.103000", "113109.106000", "113109.109000", "113109.113000", "113109.116000", "113109.119000", "113109.123000", "113149.036000", "113149.040000", "113149.043000", "113149.046000", "113149.067000", "113149.070000", "113149.073000", "113149.077000", "113149.080000", "113149.083000", "113149.087000", "113149.090000", "113149.093000", "113149.097000", "113149.100000", "113149.103000", "113149.106000", "113149.110000", "113149.113000", "113149.116000", "113149.120000", "113149.123000", "113149.126000", "113149.130000", "113149.133000", "113149.136000", "113149.139000", "113206.841000", "113206.845000", "113206.848000", "113206.852000", "113206.855000", "113206.858000", "113206.861000", "113206.865000", "113206.868000", "113206.871000", "113206.875000", "113206.878000"],
      "InstanceNumber": [1, 2, 3, 4, 5, 6, 7, 8, 9, 10, 11, 12, 13, 14, 15, 16, 17, 18, 19, 20, 21, 22, 23, 24, 25, 26, 27, 28, 29, 30, 31, 32, 33, 34, 35, 36, 37, 38, 39, 40, 41, 42, 43, 44, 45, 46, 47, 48, 49, 50, 51, 52, 53, 54, 55, 56, 57, 58, 59, 60, 61, 62, 63, 64, 65, 66, 67, 68, 69, 70, 71, 72, 73, 74, 75, 76, 77, 78, 79, 80, 81, 82, 83, 84, 85, 86, 87, 88, 89, 90, 91, 92, 93, 94, 95, 96, 97, 98, 99, 100, 101, 102, 103, 104, 105, 106, 107, 108, 109, 110, 111, 112, 113, 114, 115, 116, 117, 118, 119, 120, 121, 122, 123, 124, 125, 126, 127, 128, 129, 130, 131, 132, 133, 134, 135, 136, 137, 138, 139, 140, 141, 142, 143, 144, 145, 146, 147, 148, 149, 150, 151, 152, 153, 154, 155, 156, 157, 158, 159, 160, 161, 162, 163, 164, 165, 166, 167, 168, 169, 170, 171, 172, 173, 174, 175, 176, 177, 178, 179, 180, 181, 182, 183, 184, 185, 186, 187, 188, 189, 190],
      "LargestImagePixelValue": [47353, 45358, 44351, 44749, 45540, 45882, 44862, 45598, 44630, 44363, 44158, 44277, 44498, 44943, 44964, 43411, 44616, 44886, 45281, 45445, 44887, 44227, 44127, 44238, 44151, 44163, 43882, 44073, 44183, 44806, 45002, 44226, 44652, 45015, 45677, 45594, 44449, 44487, 44204, 44802, 45609, 45734, 45339, 43948, 44638, 44547, 44715, 45579, 44969, 44174, 44694, 44487, 45123, 45482, 44537, 44304, 44621, 44019, 44414, 45598, 44811, 44520, 44109, 44685, 44795, 44549, 44689, 45711, 45767, 45287, 44986, 44253, 44157, 45248, 44939, 44465, 44883, 44879, 44130, 44277, 44436, 43930, 44990, 44771, 43987, 44288, 44761, 44848, 45346, 44700, 43282, 43480, 43586, 43724, 43981, 44274, 44295, 43552, 43936, 44669, 45462, 44037, 44080, 44173, 44535, 44719, 43608, 45288, 44186, 44555, 44808, 45894, 45579, 44605, 44053, 44260, 44734, 44834, 44443, 43981, 44050, 44580, 44411, 44833, 45246, 43686, 44103, 44622, 43926, 44387, 43867, 45103, 43589, 43863, 45183, 43737, 44599, 44440, 44013, 43211, 43458, 43465, 43380, 44096, 43777, 45312, 43138, 44440, 44257, 44092, 44336, 44873, 44887, 44148, 44548, 44570, 44434, 45106, 44325, 45367, 45224, 43619, 44059, 43430, 45271, 43520, 43492, 43488, 44277, 44919, 44370, 44051, 43547, 44031, 43765, 44766, 43738, 43407, 43561, 43944, 44160, 43696, 43874, 43858, 43463, 43613, 43539, 44171, 43702, 44148],
      "WindowCenter": [11176.0, 11088.0, 11041.0, 11058.0, 11094.0, 11115.0, 11100.0, 11093.0, 11065.0, 11051.0, 11036.0, 11030.0, 11030.0, 11062.0, 11098.0, 11097.0, 11087.0, 11063.0, 11058.0, 11076.0, 11098.0, 11096.0, 11082.0, 11045.0, 11021.0, 11051.0, 11088.0, 11100.0, 11083.0, 11080.0, 11068.0, 11055.0, 11043.0, 11042.0, 11066.0, 11089.0, 11110.0, 11107.0, 11077.0, 11020.0, 11004.0, 11029.0, 11089.0, 11107.0, 11111.0, 11078.0, 11057.0, 11052.0, 11060.0, 11054.0, 11055.0, 11038.0, 11057.0, 11073.0, 11077.0, 11088.0, 11085.0, 11039.0, 11020.0, 11023.0, 11058.0, 11081.0, 11076.0, 11075.0, 11072.0, 11052.0, 11043.0, 11037.0, 11038.0, 11055.0, 11058.0, 11060.0, 11042.0, 11039.0, 11045.0, 11080.0, 11096.0, 11100.0, 11082.0, 11062.0, 11052.0, 11054.0, 11065.0, 11061.0, 11047.0, 11039.0, 11033.0, 11033.0, 11053.0, 11068.0, 11079.0, 11084.0, 11070.0, 11076.0, 11078.0, 11077.0, 11078.0, 11058.0, 11035.0, 11025.0, 11036.0, 11048.0, 11077.0, 11080.0, 11069.0, 11073.0, 11065.0, 11045.0, 10993.0, 10965.0, 11023.0, 11097.0, 11116.0, 11098.0, 11073.0, 11040.0, 11029.0, 11033.0, 11042.0, 11061.0, 11079.0, 11080.0, 11068.0, 11081.0, 11065.0, 11012.0, 11001.0, 11025.0, 11040.0, 11077.0, 11087.0, 11087.0, 11073.0, 11059.0, 11040.0, 11010.0, 11018.0, 11043.0, 11076.0, 11083.0, 11062.0, 11052.0, 11048.0, 11046.0, 11050.0, 11073.0, 11063.0, 11080.0, 11053.0, 11024.0, 11004.0, 11029.0, 11072.0, 11101.0, 11088.0, 11072.0, 11062.0, 11070.0, 11078.0, 11124.0, 11097.0, 11048.0, 11052.0, 11058.0, 11092.0, 11084.0, 11068.0, 11046.0, 11040.0, 11049.0, 11049.0, 11064.0, 11044.0, 11050.0, 11055.0, 11074.0, 11074.0, 11063.0, 11043.0, 11028.0, 11043.0, 11071.0, 11087.0, 11095.0, 11070.0, 11061.0, 11065.0, 11070.0, 11068.0, 11076.0],
      "WindowWidth": [24106.0, 23872.0, 23743.0, 23767.0, 23837.0, 23881.0, 23851.0, 23829.0, 23768.0, 23729.0, 23704.0, 23688.0, 23687.0, 23760.0, 23842.0, 23849.0, 23821.0, 23762.0, 23746.0, 23788.0, 23842.0, 23838.0, 23814.0, 23727.0, 23671.0, 23741.0, 23825.0, 23851.0, 23811.0, 23799.0, 23770.0, 23754.0, 23716.0, 23716.0, 23766.0, 23820.0, 23871.0, 23871.0, 23800.0, 23668.0, 23622.0, 23676.0, 23816.0, 23868.0, 23871.0, 23794.0, 23747.0, 23732.0, 23753.0, 23743.0, 23744.0, 23706.0, 23747.0, 23783.0, 23798.0, 23825.0, 23813.0, 23711.0, 23665.0, 23665.0, 23748.0, 23803.0, 23793.0, 23789.0, 23778.0, 23733.0, 23707.0, 23691.0, 23694.0, 23743.0, 23750.0, 23758.0, 23716.0, 23704.0, 23715.0, 23809.0, 23840.0, 23844.0, 23802.0, 23758.0, 23732.0, 23737.0, 23768.0, 23753.0, 23730.0, 23708.0, 23688.0, 23693.0, 23735.0, 23769.0, 23801.0, 23818.0, 23781.0, 23790.0, 23798.0, 23792.0, 23795.0, 23751.0, 23697.0, 23678.0, 23694.0, 23725.0, 23791.0, 23800.0, 23770.0, 23776.0, 23763.0, 23716.0, 23603.0, 23537.0, 23658.0, 23831.0, 23882.0, 23839.0, 23784.0, 23704.0, 23674.0, 23688.0, 23709.0, 23758.0, 23800.0, 23800.0, 23769.0, 23804.0, 23764.0, 23646.0, 23622.0, 23683.0, 23710.0, 23795.0, 23818.0, 23809.0, 23791.0, 23756.0, 23708.0, 23644.0, 23655.0, 23713.0, 23792.0, 23811.0, 23763.0, 23736.0, 23730.0, 23722.0, 23735.0, 23783.0, 23766.0, 23803.0, 23741.0, 23676.0, 23630.0, 23682.0, 23783.0, 23857.0, 23817.0, 23777.0, 23759.0, 23774.0, 23794.0, 23904.0, 23844.0, 23733.0, 23735.0, 23754.0, 23822.0, 23819.0, 23778.0, 23723.0, 23710.0, 23729.0, 23727.0, 23770.0, 23733.0, 23731.0, 23750.0, 23789.0, 23789.0, 23768.0, 23724.0, 23682.0, 23713.0, 23777.0, 23821.0, 23842.0, 23784.0, 23764.0, 23778.0, 23780.0, 23775.0, 23804.0]
    },
    "slices": {}
  }
}