{
  "AcquisitionMatrixPE": 104,
  "AcquisitionNumber": 1,
  "AcquisitionTime": "11:02:31.255000",
  "BandwidthPerPixelPhaseEncode": 17.17,
  "BaseResolution": 104,
  "BodyPartExamined": "BRAIN",
  "CoilString": "HC1-7;NC1_2",
  "ConsistencyInfo": "N4_VE11C_LATEST_20160120",
  "ConversionSoftware": "dcm2niix",
  "ConversionSoftwareVersion": "v1.0.20190902",
  "DerivedVendorReportedEchoSpacing": 0.000560011,
  "DeviceSerialNumber": "167006",
  "DwellTime": 2.1e-06,
  "EchoTime": 0.037,
  "EchoTrainLength": 104,
  "EffectiveEchoSpacing": 0.000560011,
  "FlipAngle": 52,
  "ImageComments": "Unaliased_MB4_PE3_LB",
  "ImageOrientationPatientDICOM": [0.999527, 0.0129705, 0.0278748, 0.00209346, 0.875836, -0.482604],
  "ImageType": [
    "ORIGINAL",
    "PRIMARY",
    "M",
    "MB",
    "ND",
    "MOSAIC"
],
  "ImagingFrequency": 123.259,
  "InPlanePhaseEncodingDirectionDICOM": "COL",
  "InstitutionAddress": "Chemin_Queen-Mary_4565_Montreal_District_CA_H3W_1W5",
  "InstitutionName": "IUGM",
  "InstitutionalDepartmentName": "Department",
  "MRAcquisitionType": "2D",
  "MagneticFieldStrength": 3,
  "Manufacturer": "Siemens",
  "ManufacturersModelName": "Prisma_fit",
  "Modality": "MR",
  "MultibandAccelerationFactor": 4,
  "PartialFourier": 1,
  "PatientPosition": "HFS",
  "PercentPhaseFOV": 100,
  "PhaseEncodingDirection": "j",
  "PhaseEncodingSteps": 104,
  "PhaseResolution": 1,
  "PixelBandwidth": 2290,
  "ProcedureStepDescription": "memory_things",
  "ProtocolName": "func_task-things_run-2",
  "PulseSequenceDetails": "%CustomerSeq%_cmrr_mbep2d_bold",
  "ReceiveCoilActiveElements": "HC1-7;NC1,2",
  "ReceiveCoilName": "HeadNeck_64",
  "ReconMatrixPE": 104,
  "RepetitionTime": 1.49,
  "SAR": 0.0501315,
  "ScanOptions": "FS",
  "ScanningSequence": "EP",
  "SequenceName": "epfid2d1_104",
  "SequenceVariant": "SK_SS",
  "SeriesDescription": "func_task-things_run-2",
  "SeriesNumber": 13,
  "ShimSetting": [612, -7182, -8877, 302, -11, -104, -21, -27],
  "SliceThickness": 2,
  "SliceTiming": [0, 0.785, 0.0975, 0.8825, 0.1975, 0.98, 0.295, 1.0775, 0.3925, 1.1775, 0.49, 1.275, 0.5875, 1.3725, 0.6875, 0, 0.785, 0.0975, 0.8825, 0.1975, 0.98, 0.295, 1.0775, 0.3925, 1.1775, 0.49, 1.275, 0.5875, 1.3725, 0.6875, 0, 0.785, 0.0975, 0.8825, 0.1975, 0.98, 0.295, 1.0775, 0.3925, 1.1775, 0.49, 1.275, 0.5875, 1.3725, 0.6875, 0, 0.785, 0.0975, 0.8825, 0.1975, 0.98, 0.295, 1.0775, 0.3925, 1.1775, 0.49, 1.275, 0.5875, 1.3725, 0.6875],
  "SoftwareVersions": "syngo_MR_E11",
  "SpacingBetweenSlices": 2,
  "StationName": "MRC35049",
  "TaskName": "things",
  "TotalReadoutTime": 0.0576811,
  "TxRefAmp": 275.353,
  "WipMemBlock": "57ff5005-2cf5-454e-ae16-67fb258a6a3a||Sequence: R016 ve11c/master r/e634e98; Dec 19 2017 11:00:25 by eja",
  "dcmmeta_affine": [
    [-1.9990545511245728, 0.004186911042779684, 0.061346832662820816, 105.8602294921875],
    [-0.025941025465726852, 1.751672387123108, -0.964868426322937, -52.76451873779297],
    [0.05574968457221985, 0.9652079939842224, 1.750789999961853, -105.03831481933594],
    [0.0, 0.0, 0.0, 1.0]
],
  "dcmmeta_reorient_transform": [
    [0.0, -1.0, 0.0, 103.0],
    [1.0, 0.0, 0.0, 0.0],
    [0.0, 0.0, 1.0, 0.0],
    [0.0, 0.0, 0.0, 1.0]
],
  "dcmmeta_shape": [104, 104, 60, 190],
  "dcmmeta_slice_dim": 2,
  "dcmmeta_version": 0.6,
  "global": {
    "const": {
      "AcquisitionMatrix": [104, 0, 0, 104],
      "AngioFlag": "N",
      "BitsAllocated": 16,
      "BitsStored": 16,
      "BodyPartExamined": "BRAIN",
      "Columns": 832,
      "EchoNumbers": 1,
      "EchoTime": 37.0,
      "EchoTrainLength": 104,
      "FlipAngle": 52.0,
      "HighBit": 15,
      "ImageOrientationPatient": [0.99952726774786, 0.01297051318762, 0.02787484199323, 0.00209345563716, 0.87583616461022, -0.4826040097268],
      "ImagePositionPatient": [-835.47136952205, -774.70899201789, 325.42094837707],
      "ImageType": [
        "ORIGINAL",
        "PRIMARY",
        "M",
        "MB",
        "ND",
        "MOSAIC"
],
      "ImagedNucleus": "1H",
      "ImagingFrequency": 123.258941,
      "InPlanePhaseEncodingDirection": "COL",
      "MRAcquisitionType": "2D",
      "MagneticFieldStrength": 3.0,
      "Manufacturer": "SIEMENS",
      "ManufacturerModelName": "Prisma_fit",
      "Modality": "MR",
      "NumberOfAverages": 1.0,
      "NumberOfPhaseEncodingSteps": 104,
      "PercentPhaseFieldOfView": 100.0,
      "PercentSampling": 100.0,
      "PerformedProcedureStepStartTime": "100714.179000",
      "PhotometricInterpretation": "MONOCHROME2",
      "PixelBandwidth": 2290.0,
      "PixelRepresentation": 0,
      "PixelSpacing": [2.0, 2.0],
      "ProtocolName": "func_task-things_run-2",
      "RepetitionTime": 1490.0,
      "Rows": 832,
      "SAR": 0.05013150024391,
      "SamplesPerPixel": 1,
      "ScanOptions": "FS",
      "ScanningSequence": "EP",
      "SequenceName": "epfid2d1_104",
      "SequenceVariant": [
        "SK",
        "SS"
],
      "SeriesDescription": "func_task-things_run-2",
      "SeriesNumber": 13,
      "SeriesTime": "110349.027000",
      "SliceLocation": -63.247505545223,
      "SliceThickness": 2.0,
      "SmallestImagePixelValue": 0,
      "SoftwareVersions": "syngo MR E11",
      "SpacingBetweenSlices": 2.0000000158041,
      "SpecificCharacterSet": "ISO_IR 100",
      "StudyID": "1",
      "StudyTime": "100714.120000",
      "TransmitCoilName": "Body",
      "VariableFlipAngleFlag": "N",
      "WindowCenterWidthExplanation": "Algo1",
      "dBdt": 0.0},
    "slices": {}
  },
  "time": {
    "samples": {
      "AcquisitionNumber": [1, 2, 3, 4, 5, 6, 7, 8, 9, 10, 11, 12, 13, 14, 15, 16, 17, 18, 19, 20, 21, 22, 23, 24, 25, 26, 27, 28, 29, 30, 31, 32, 33, 34, 35, 36, 37, 38, 39, 40, 41, 42, 43, 44, 45, 46, 47, 48, 49, 50, 51, 52, 53, 54, 55, 56, 57, 58, 59, 60, 61, 62, 63, 64, 65, 66, 67, 68, 69, 70, 71, 72, 73, 74, 75, 76, 77, 78, 79, 80, 81, 82, 83, 84, 85, 86, 87, 88, 89, 90, 91, 92, 93, 94, 95, 96, 97, 98, 99, 100, 101, 102, 103, 104, 105, 106, 107, 108, 109, 110, 111, 112, 113, 114, 115, 116, 117, 118, 119, 120, 121, 122, 123, 124, 125, 126, 127, 128, 129, 130, 131, 132, 133, 134, 135, 136, 137, 138, 139, 140, 141, 142, 143, 144, 145, 146, 147, 148, 149, 150, 151, 152, 153, 154, 155, 156, 157, 158, 159, 160, 161, 162, 163, 164, 165, 166, 167, 168, 169, 170, 171, 172, 173, 174, 175, 176, 177, 178, 179, 180, 181, 182, 183, 184, 185, 186, 187, 188, 189, 190],
      "AcquisitionTime": ["110231.255000", "110232.745000", "110234.235000", "110235.725000", "110237.215000", "110238.705000", "110240.195000", "110241.685000", "110243.175000", "110244.665000", "110246.155000", "110247.645000", "110249.135000", "110250.625000", "110252.115000", "110253.605000", "110255.095000", "110256.585000", "110258.075000", "110259.565000", "110301.055000", "110302.545000", "110304.035000", "110305.525000", "110307.015000", "110308.505000", "110309.995000", "110311.485000", "110312.975000", "110314.465000", "110315.955000", "110317.445000", "110318.935000", "110320.425000", "110321.915000", "110323.405000", "110324.895000", "110326.385000", "110327.875000", "110329.365000", "110330.855000", "110332.345000", "110333.835000", "110335.325000", "110336.815000", "110338.305000", "110339.795000", "110341.285000", "110342.775000", "110344.265000", "110345.755000", "110347.245000", "110348.735000", "110350.225000", "110351.715000", "110353.205000", "110354.695000", "110356.185000", "110357.675000", "110359.165000", "110400.655000", "110402.145000", "110403.635000", "110405.125000", "110406.615000", "110408.105000", "110409.595000", "110411.085000", "110412.575000", "110414.065000", "110415.555000", "110417.045000", "110418.535000", "110420.025000", "110421.515000", "110423.005000", "110424.495000", "110425.985000", "110427.475000", "110428.965000", "110430.455000", "110431.945000", "110433.435000", "110434.925000", "110436.415000", "110437.905000", "110439.395000", "110440.885000", "110442.375000", "110443.865000", "110445.355000", "110446.845000", "110448.335000", "110449.825000", "110451.315000", "110452.805000", "110454.295000", "110455.785000", "110457.275000", "110458.765000", "110500.255000", "110501.745000", "110503.235000", "110504.725000", "110506.215000", "110507.705000", "110509.195000", "110510.685000", "110512.175000", "110513.665000", "110515.155000", "110516.645000", "110518.135000", "110519.625000", "110521.115000", "110522.605000", "110524.095000", "110525.585000", "110527.075000", "110528.565000", "110530.055000", "110531.545000", "110533.035000", "110534.525000", "110536.015000", "110537.505000", "110538.995000", "110540.485000", "110541.975000", "110543.465000", "110544.955000", "110546.445000", "110547.935000", "110549.425000", "110550.915000", "110552.405000", "110553.895000", "110555.385000", "110556.875000", "110558.365000", "110559.855000", "110601.345000", "110602.835000", "110604.325000", "110605.815000", "110607.305000", "110608.795000", "110610.285000", "110611.775000", "110613.265000", "110614.755000", "110616.245000", "110617.735000", "110619.225000", "110620.715000", "110622.205000", "110623.695000", "110625.185000", "110626.675000", "110628.165000", "110629.655000", "110631.145000", "110632.635000", "110634.125000", "110635.615000", "110637.105000", "110638.595000", "110640.085000", "110641.575000", "110643.065000", "110644.555000", "110646.045000", "110647.535000", "110649.025000", "110650.515000", "110652.005000", "110653.495000", "110654.985000", "110656.475000", "110657.965000", "110659.455000", "110700.945000", "110702.435000", "110703.925000", "110705.415000", "110706.905000", "110708.395000", "110709.885000", "110711.375000", "110712.865000"],
      "ContentTime": ["110349.031000", "110349.035000", "110349.038000", "110349.048000", "110349.051000", "110349.054000", "110349.058000", "110349.061000", "110349.064000", "110349.067000", "110349.071000", "110349.074000", "110349.077000", "110349.080000", "110349.084000", "110349.087000", "110349.090000", "110349.093000", "110349.097000", "110349.100000", "110349.103000", "110349.106000", "110349.110000", "110349.113000", "110408.993000", "110408.997000", "110409.001000", "110409.004000", "110409.008000", "110409.011000", "110409.014000", "110409.017000", "110409.021000", "110409.024000", "110409.027000", "110409.031000", "110409.034000", "110409.037000", "110409.040000", "110409.044000", "110409.047000", "110409.050000", "110409.053000", "110409.057000", "110429.006000", "110429.009000", "110429.013000", "110429.016000", "110429.019000", "110429.023000", "110429.026000", "110429.029000", "110429.032000", "110429.036000", "110429.039000", "110429.042000", "110429.045000", "110429.049000", "110429.052000", "110429.055000", "110429.059000", "110429.062000", "110429.065000", "110429.069000", "110448.994000", "110448.998000", "110449.001000", "110449.005000", "110449.008000", "110449.011000", "110449.014000", "110449.018000", "110449.021000", "110449.024000", "110449.028000", "110449.031000", "110449.034000", "110449.038000", "110449.041000", "110449.044000", "110449.048000", "110449.051000", "110449.059000", "110449.062000", "110508.994000", "110508.998000", "110509.002000", "110509.006000", "110509.009000", "110509.012000", "110509.015000", "110509.019000", "110509.022000", "110509.025000", "110509.029000", "110509.032000", "110509.035000", "110509.038000", "110509.042000", "110509.045000", "110509.048000", "110509.052000", "110509.055000", "110509.058000", "110548.994000", "110548.998000", "110549.002000", "110549.006000", "110549.009000", "110549.012000", "110549.016000", "110549.019000", "110549.022000", "110549.026000", "110549.029000", "110549.032000", "110549.035000", "110549.039000", "110549.042000", "110549.045000", "110549.049000", "110549.052000", "110549.055000", "110549.058000", "110549.062000", "110549.065000", "110549.068000", "110549.072000", "110549.075000", "110549.078000", "110549.081000", "110549.085000", "110628.993000", "110628.997000", "110629.001000", "110629.005000", "110629.021000", "110629.024000", "110629.027000", "110629.031000", "110629.034000", "110629.037000", "110629.040000", "110629.044000", "110629.047000", "110629.050000", "110629.054000", "110629.057000", "110629.060000", "110629.064000", "110629.067000", "110629.070000", "110629.074000", "110629.077000", "110629.080000", "110629.083000", "110629.087000", "110629.090000", "110629.093000", "110708.994000", "110708.998000", "110709.001000", "110709.005000", "110709.008000", "110709.011000", "110709.015000", "110709.018000", "110709.021000", "110709.025000", "110709.028000", "110709.031000", "110709.035000", "110709.038000", "110709.041000", "110709.044000", "110709.048000", "110709.051000", "110709.054000", "110709.058000", "110709.061000", "110709.064000", "110709.067000", "110709.071000", "110709.074000", "110709.077000", "110709.081000", "110714.737000", "110714.741000", "110714.744000", "110714.748000"],
      "InstanceCreationTime": ["110349.031000", "110349.035000", "110349.038000", "110349.048000", "110349.051000", "110349.054000", "110349.058000", "110349.061000", "110349.064000", "110349.067000", "110349.071000", "110349.074000", "110349.077000", "110349.080000", "110349.084000", "110349.087000", "110349.090000", "110349.093000", "110349.097000", "110349.100000", "110349.103000", "110349.106000", "110349.110000", "110349.113000", "110408.993000", "110408.997000", "110409.001000", "110409.004000", "110409.008000", "110409.011000", "110409.014000", "110409.017000", "110409.021000", "110409.024000", "110409.027000", "110409.031000", "110409.034000", "110409.037000", "110409.040000", "110409.044000", "110409.047000", "110409.050000", "110409.053000", "110409.057000", "110429.006000", "110429.009000", "110429.013000", "110429.016000", "110429.019000", "110429.023000", "110429.026000", "110429.029000", "110429.032000", "110429.036000", "110429.039000", "110429.042000", "110429.045000", "110429.049000", "110429.052000", "110429.055000", "110429.059000", "110429.062000", "110429.065000", "110429.069000", "110448.994000", "110448.998000", "110449.001000", "110449.005000", "110449.008000", "110449.011000", "110449.014000", "110449.018000", "110449.021000", "110449.024000", "110449.028000", "110449.031000", "110449.034000", "110449.038000", "110449.041000", "110449.044000", "110449.048000", "110449.051000", "110449.059000", "110449.062000", "110508.994000", "110508.998000", "110509.002000", "110509.006000", "110509.009000", "110509.012000", "110509.015000", "110509.019000", "110509.022000", "110509.025000", "110509.029000", "110509.032000", "110509.035000", "110509.038000", "110509.042000", "110509.045000", "110509.048000", "110509.052000", "110509.055000", "110509.058000", "110548.994000", "110548.998000", "110549.002000", "110549.006000", "110549.009000", "110549.012000", "110549.016000", "110549.019000", "110549.022000", "110549.026000", "110549.029000", "110549.032000", "110549.035000", "110549.039000", "110549.042000", "110549.045000", "110549.049000", "110549.052000", "110549.055000", "110549.058000", "110549.062000", "110549.065000", "110549.068000", "110549.072000", "110549.075000", "110549.078000", "110549.081000", "110549.085000", "110628.993000", "110628.997000", "110629.001000", "110629.005000", "110629.021000", "110629.024000", "110629.027000", "110629.031000", "110629.034000", "110629.037000", "110629.040000", "110629.044000", "110629.047000", "110629.050000", "110629.054000", "110629.057000", "110629.060000", "110629.064000", "110629.067000", "110629.070000", "110629.074000", "110629.077000", "110629.080000", "110629.083000", "110629.087000", "110629.090000", "110629.093000", "110708.994000", "110708.998000", "110709.001000", "110709.005000", "110709.008000", "110709.011000", "110709.015000", "110709.018000", "110709.021000", "110709.025000", "110709.028000", "110709.031000", "110709.035000", "110709.038000", "110709.041000", "110709.044000", "110709.048000", "110709.051000", "110709.054000", "110709.058000", "110709.061000", "110709.064000", "110709.067000", "110709.071000", "110709.074000", "110709.077000", "110709.081000", "110714.737000", "110714.741000", "110714.744000", "110714.748000"],
      "InstanceNumber": [1, 2, 3, 4, 5, 6, 7, 8, 9, 10, 11, 12, 13, 14, 15, 16, 17, 18, 19, 20, 21, 22, 23, 24, 25, 26, 27, 28, 29, 30, 31, 32, 33, 34, 35, 36, 37, 38, 39, 40, 41, 42, 43, 44, 45, 46, 47, 48, 49, 50, 51, 52, 53, 54, 55, 56, 57, 58, 59, 60, 61, 62, 63, 64, 65, 66, 67, 68, 69, 70, 71, 72, 73, 74, 75, 76, 77, 78, 79, 80, 81, 82, 83, 84, 85, 86, 87, 88, 89, 90, 91, 92, 93, 94, 95, 96, 97, 98, 99, 100, 101, 102, 103, 104, 105, 106, 107, 108, 109, 110, 111, 112, 113, 114, 115, 116, 117, 118, 119, 120, 121, 122, 123, 124, 125, 126, 127, 128, 129, 130, 131, 132, 133, 134, 135, 136, 137, 138, 139, 140, 141, 142, 143, 144, 145, 146, 147, 148, 149, 150, 151, 152, 153, 154, 155, 156, 157, 158, 159, 160, 161, 162, 163, 164, 165, 166, 167, 168, 169, 170, 171, 172, 173, 174, 175, 176, 177, 178, 179, 180, 181, 182, 183, 184, 185, 186, 187, 188, 189, 190],
      "LargestImagePixelValue": [50702, 50524, 49238, 48445, 49343, 48379, 49562, 49639, 48302, 49629, 48624, 47100, 47975, 48627, 47321, 49196, 49518, 48142, 47564, 49389, 48811, 48208, 49488, 49109, 48283, 49271, 48052, 48712, 48925, 48481, 49512, 49146, 50312, 49784, 45757, 45798, 47311, 49625, 49480, 49477, 50134, 49284, 49112, 49063, 47542, 48408, 48688, 46827, 48542, 48516, 47622, 49277, 48673, 48552, 48684, 48543, 48986, 48535, 49622, 48355, 46954, 48496, 47381, 49140, 49966, 48851, 50049, 48115, 47131, 49027, 48405, 48763, 48262, 48616, 49729, 48051, 49973, 48513, 47327, 49032, 46929, 47495, 48856, 46116, 49861, 49184, 46766, 47914, 48672, 48634, 49331, 48473, 49303, 47960, 49600, 48925, 45965, 49256, 46903, 47829, 48050, 46341, 49651, 48155, 48627, 48472, 48517, 48807, 48158, 49354, 46975, 46123, 48513, 46311, 46568, 47006, 48010, 48023, 47289, 48484, 46139, 48675, 48820, 45816, 45627, 45937, 48411, 49205, 46734, 45879, 46066, 48312, 46303, 46489, 47782, 46171, 46673, 46860, 46595, 46505, 47992, 46363, 46656, 46841, 46461, 48088, 47092, 46115, 46275, 46607, 46378, 47030, 48528, 45916, 45246, 45741, 46530, 46192, 46205, 47329, 47728, 46309, 46416, 48172, 46324, 46431, 46912, 46491, 46163, 46372, 46334, 46246, 45945, 46867, 46961, 47126, 46250, 46380, 46368, 46053, 47000, 47494, 46329, 45976, 46851, 46697, 46881, 46058, 46902, 46971],
      "WindowCenter": [11434.0, 11382.0, 11347.0, 11326.0, 11324.0, 11302.0, 11315.0, 11318.0, 11314.0, 11325.0, 11324.0, 11319.0, 11332.0, 11331.0, 11316.0, 11333.0, 11339.0, 11344.0, 11331.0, 11311.0, 11315.0, 11323.0, 11329.0, 11323.0, 11326.0, 11311.0, 11282.0, 11303.0, 11310.0, 11292.0, 11332.0, 11316.0, 11304.0, 11305.0, 11316.0, 11305.0, 11312.0, 11322.0, 11318.0, 11308.0, 11293.0, 11275.0, 11268.0, 11265.0, 11260.0, 11270.0, 11274.0, 11264.0, 11283.0, 11284.0, 11276.0, 11289.0, 11285.0, 11291.0, 11291.0, 11293.0, 11298.0, 11292.0, 11300.0, 11294.0, 11280.0, 11268.0, 11223.0, 11227.0, 11250.0, 11310.0, 11350.0, 11335.0, 11302.0, 11287.0, 11277.0, 11267.0, 11265.0, 11269.0, 11281.0, 11262.0, 11279.0, 11274.0, 11266.0, 11276.0, 11259.0, 11258.0, 11269.0, 11248.0, 11286.0, 11292.0, 11272.0, 11260.0, 11244.0, 11253.0, 11275.0, 11269.0, 11276.0, 11244.0, 11257.0, 11260.0, 11233.0, 11275.0, 11260.0, 11275.0, 11276.0, 11263.0, 11284.0, 11268.0, 11277.0, 11265.0, 11245.0, 11226.0, 11232.0, 11298.0, 11289.0, 11247.0, 11244.0, 11236.0, 11214.0, 11238.0, 11246.0, 11261.0, 11228.0, 11261.0, 11239.0, 11236.0, 11260.0, 11259.0, 11224.0, 11196.0, 11250.0, 11281.0, 11270.0, 11238.0, 11188.0, 11175.0, 11172.0, 11223.0, 11268.0, 11245.0, 11228.0, 11203.0, 11183.0, 11182.0, 11211.0, 11210.0, 11224.0, 11223.0, 11220.0, 11241.0, 11240.0, 11237.0, 11232.0, 11234.0, 11239.0, 11252.0, 11263.0, 11255.0, 11241.0, 11235.0, 11228.0, 11221.0, 11236.0, 11246.0, 11242.0, 11223.0, 11224.0, 11237.0, 11222.0, 11230.0, 11242.0, 11235.0, 11228.0, 11237.0, 11246.0, 11247.0, 11240.0, 11246.0, 11251.0, 11258.0, 11251.0, 11245.0, 11231.0, 11190.0, 11210.0, 11251.0, 11279.0, 11272.0, 11230.0, 11221.0, 11225.0, 11229.0, 11251.0, 11252.0],
      "WindowWidth": [24729.0, 24565.0, 24468.0, 24411.0, 24395.0, 24341.0, 24363.0, 24370.0, 24361.0, 24386.0, 24388.0, 24382.0, 24413.0, 24406.0, 24374.0, 24409.0, 24420.0, 24437.0, 24409.0, 24357.0, 24364.0, 24384.0, 24395.0, 24382.0, 24394.0, 24356.0, 24286.0, 24335.0, 24350.0, 24303.0, 24399.0, 24363.0, 24330.0, 24330.0, 24375.0, 24351.0, 24363.0, 24376.0, 24367.0, 24340.0, 24302.0, 24261.0, 24246.0, 24241.0, 24234.0, 24255.0, 24262.0, 24247.0, 24286.0, 24289.0, 24274.0, 24300.0, 24291.0, 24302.0, 24300.0, 24307.0, 24317.0, 24302.0, 24321.0, 24311.0, 24284.0, 24251.0, 24147.0, 24149.0, 24202.0, 24344.0, 24439.0, 24408.0, 24333.0, 24291.0, 24268.0, 24243.0, 24237.0, 24245.0, 24271.0, 24234.0, 24267.0, 24260.0, 24247.0, 24267.0, 24234.0, 24231.0, 24249.0, 24210.0, 24286.0, 24302.0, 24264.0, 24230.0, 24187.0, 24211.0, 24260.0, 24250.0, 24261.0, 24190.0, 24216.0, 24227.0, 24176.0, 24263.0, 24236.0, 24267.0, 24270.0, 24244.0, 24281.0, 24247.0, 24263.0, 24237.0, 24192.0, 24146.0, 24160.0, 24312.0, 24301.0, 24210.0, 24190.0, 24179.0, 24126.0, 24180.0, 24193.0, 24231.0, 24155.0, 24224.0, 24188.0, 24170.0, 24224.0, 24238.0, 24155.0, 24089.0, 24202.0, 24276.0, 24256.0, 24193.0, 24066.0, 24031.0, 24025.0, 24145.0, 24246.0, 24198.0, 24152.0, 24095.0, 24048.0, 24046.0, 24109.0, 24113.0, 24141.0, 24143.0, 24137.0, 24180.0, 24181.0, 24181.0, 24172.0, 24173.0, 24184.0, 24217.0, 24235.0, 24226.0, 24197.0, 24179.0, 24163.0, 24144.0, 24177.0, 24198.0, 24184.0, 24146.0, 24147.0, 24173.0, 24146.0, 24163.0, 24192.0, 24177.0, 24162.0, 24180.0, 24203.0, 24204.0, 24188.0, 24201.0, 24211.0, 24228.0, 24217.0, 24206.0, 24172.0, 24076.0, 24118.0, 24213.0, 24281.0, 24267.0, 24166.0, 24140.0, 24160.0, 24166.0, 24216.0, 24225.0]
    },
    "slices": {}
  }
}