{
  "AcquisitionMatrixPE": 104,
  "AcquisitionNumber": 1,
  "AcquisitionTime": "11:21:21.515000",
  "BandwidthPerPixelPhaseEncode": 17.17,
  "BaseResolution": 104,
  "BodyPartExamined": "BRAIN",
  "CoilString": "HC1-7;NC1_2",
  "ConsistencyInfo": "N4_VE11C_LATEST_20160120",
  "ConversionSoftware": "dcm2niix",
  "ConversionSoftwareVersion": "v1.0.20190902",
  "DerivedVendorReportedEchoSpacing": 0.000560011,
  "DeviceSerialNumber": "167006",
  "DwellTime": 2.1e-06,
  "EchoTime": 0.037,
  "EchoTrainLength": 104,
  "EffectiveEchoSpacing": 0.000560011,
  "FlipAngle": 52,
  "ImageComments": "Unaliased_MB4_PE3_LB",
  "ImageOrientationPatientDICOM": [0.999527, 0.0129705, 0.0278748, 0.00209346, 0.875836, -0.482604],
  "ImageType": [
    "ORIGINAL",
    "PRIMARY",
    "M",
    "MB",
    "ND",
    "MOSAIC"
],
  "ImagingFrequency": 123.259,
  "InPlanePhaseEncodingDirectionDICOM": "COL",
  "InstitutionAddress": "Chemin_Queen-Mary_4565_Montreal_District_CA_H3W_1W5",
  "InstitutionName": "IUGM",
  "InstitutionalDepartmentName": "Department",
  "MRAcquisitionType": "2D",
  "MagneticFieldStrength": 3,
  "Manufacturer": "Siemens",
  "ManufacturersModelName": "Prisma_fit",
  "Modality": "MR",
  "MultibandAccelerationFactor": 4,
  "PartialFourier": 1,
  "PatientPosition": "HFS",
  "PercentPhaseFOV": 100,
  "PhaseEncodingDirection": "j",
  "PhaseEncodingSteps": 104,
  "PhaseResolution": 1,
  "PixelBandwidth": 2290,
  "ProcedureStepDescription": "memory_things",
  "ProtocolName": "func_task-things_run-5",
  "PulseSequenceDetails": "%CustomerSeq%_cmrr_mbep2d_bold",
  "ReceiveCoilActiveElements": "HC1-7;NC1,2",
  "ReceiveCoilName": "HeadNeck_64",
  "ReconMatrixPE": 104,
  "RepetitionTime": 1.49,
  "SAR": 0.0501315,
  "ScanOptions": "FS",
  "ScanningSequence": "EP",
  "SequenceName": "epfid2d1_104",
  "SequenceVariant": "SK_SS",
  "SeriesDescription": "func_task-things_run-5",
  "SeriesNumber": 22,
  "ShimSetting": [612, -7182, -8877, 302, -11, -104, -21, -27],
  "SliceThickness": 2,
  "SliceTiming": [0, 0.785, 0.1, 0.8825, 0.1975, 0.98, 0.295, 1.08, 0.3925, 1.1775, 0.49, 1.275, 0.59, 1.3725, 0.6875, 0, 0.785, 0.1, 0.8825, 0.1975, 0.98, 0.295, 1.08, 0.3925, 1.1775, 0.49, 1.275, 0.59, 1.3725, 0.6875, 0, 0.785, 0.1, 0.8825, 0.1975, 0.98, 0.295, 1.08, 0.3925, 1.1775, 0.49, 1.275, 0.59, 1.3725, 0.6875, 0, 0.785, 0.1, 0.8825, 0.1975, 0.98, 0.295, 1.08, 0.3925, 1.1775, 0.49, 1.275, 0.59, 1.3725, 0.6875],
  "SoftwareVersions": "syngo_MR_E11",
  "SpacingBetweenSlices": 2,
  "StationName": "MRC35049",
  "TaskName": "things",
  "TotalReadoutTime": 0.0576811,
  "TxRefAmp": 275.353,
  "WipMemBlock": "4e0af82c-0432-4474-8711-34ad0a51676b||Sequence: R016 ve11c/master r/e634e98; Dec 19 2017 11:00:25 by eja",
  "dcmmeta_affine": [
    [-1.9990545511245728, 0.004186911042779684, 0.061346832662820816, 105.8602294921875],
    [-0.025941025465726852, 1.751672387123108, -0.964868426322937, -52.76451873779297],
    [0.05574968457221985, 0.9652079939842224, 1.750789999961853, -105.03831481933594],
    [0.0, 0.0, 0.0, 1.0]
],
  "dcmmeta_reorient_transform": [
    [0.0, -1.0, 0.0, 103.0],
    [1.0, 0.0, 0.0, 0.0],
    [0.0, 0.0, 1.0, 0.0],
    [0.0, 0.0, 0.0, 1.0]
],
  "dcmmeta_shape": [104, 104, 60, 190],
  "dcmmeta_slice_dim": 2,
  "dcmmeta_version": 0.6,
  "global": {
    "const": {
      "AcquisitionMatrix": [104, 0, 0, 104],
      "AngioFlag": "N",
      "BitsAllocated": 16,
      "BitsStored": 16,
      "BodyPartExamined": "BRAIN",
      "Columns": 832,
      "EchoNumbers": 1,
      "EchoTime": 37.0,
      "EchoTrainLength": 104,
      "FlipAngle": 52.0,
      "HighBit": 15,
      "ImageOrientationPatient": [0.99952726774786, 0.01297051318762, 0.02787484199323, 0.00209345563716, 0.87583616461022, -0.4826040097268],
      "ImagePositionPatient": [-835.47136952205, -774.70899201789, 325.42094837707],
      "ImageType": [
        "ORIGINAL",
        "PRIMARY",
        "M",
        "MB",
        "ND",
        "MOSAIC"
],
      "ImagedNucleus": "1H",
      "ImagingFrequency": 123.258951,
      "InPlanePhaseEncodingDirection": "COL",
      "MRAcquisitionType": "2D",
      "MagneticFieldStrength": 3.0,
      "Manufacturer": "SIEMENS",
      "ManufacturerModelName": "Prisma_fit",
      "Modality": "MR",
      "NumberOfAverages": 1.0,
      "NumberOfPhaseEncodingSteps": 104,
      "PercentPhaseFieldOfView": 100.0,
      "PercentSampling": 100.0,
      "PerformedProcedureStepStartTime": "100714.179000",
      "PhotometricInterpretation": "MONOCHROME2",
      "PixelBandwidth": 2290.0,
      "PixelRepresentation": 0,
      "PixelSpacing": [2.0, 2.0],
      "ProtocolName": "func_task-things_run-5",
      "RepetitionTime": 1490.0,
      "Rows": 832,
      "SAR": 0.05013150024391,
      "SamplesPerPixel": 1,
      "ScanOptions": "FS",
      "ScanningSequence": "EP",
      "SequenceName": "epfid2d1_104",
      "SequenceVariant": [
        "SK",
        "SS"
],
      "SeriesDescription": "func_task-things_run-5",
      "SeriesNumber": 22,
      "SeriesTime": "112249.026000",
      "SliceLocation": -63.247505545223,
      "SliceThickness": 2.0,
      "SmallestImagePixelValue": 0,
      "SoftwareVersions": "syngo MR E11",
      "SpacingBetweenSlices": 2.0000000158041,
      "SpecificCharacterSet": "ISO_IR 100",
      "StudyID": "1",
      "StudyTime": "100714.120000",
      "TransmitCoilName": "Body",
      "VariableFlipAngleFlag": "N",
      "WindowCenterWidthExplanation": "Algo1",
      "dBdt": 0.0},
    "slices": {}
  },
  "time": {
    "samples": {
      "AcquisitionNumber": [1, 2, 3, 4, 5, 6, 7, 8, 9, 10, 11, 12, 13, 14, 15, 16, 17, 18, 19, 20, 21, 22, 23, 24, 25, 26, 27, 28, 29, 30, 31, 32, 33, 34, 35, 36, 37, 38, 39, 40, 41, 42, 43, 44, 45, 46, 47, 48, 49, 50, 51, 52, 53, 54, 55, 56, 57, 58, 59, 60, 61, 62, 63, 64, 65, 66, 67, 68, 69, 70, 71, 72, 73, 74, 75, 76, 77, 78, 79, 80, 81, 82, 83, 84, 85, 86, 87, 88, 89, 90, 91, 92, 93, 94, 95, 96, 97, 98, 99, 100, 101, 102, 103, 104, 105, 106, 107, 108, 109, 110, 111, 112, 113, 114, 115, 116, 117, 118, 119, 120, 121, 122, 123, 124, 125, 126, 127, 128, 129, 130, 131, 132, 133, 134, 135, 136, 137, 138, 139, 140, 141, 142, 143, 144, 145, 146, 147, 148, 149, 150, 151, 152, 153, 154, 155, 156, 157, 158, 159, 160, 161, 162, 163, 164, 165, 166, 167, 168, 169, 170, 171, 172, 173, 174, 175, 176, 177, 178, 179, 180, 181, 182, 183, 184, 185, 186, 187, 188, 189, 190],
      "AcquisitionTime": ["112121.515000", "112123.005000", "112124.495000", "112125.985000", "112127.475000", "112128.965000", "112130.455000", "112131.945000", "112133.435000", "112134.925000", "112136.415000", "112137.905000", "112139.395000", "112140.885000", "112142.375000", "112143.865000", "112145.355000", "112146.845000", "112148.335000", "112149.825000", "112151.315000", "112152.805000", "112154.295000", "112155.785000", "112157.275000", "112158.765000", "112200.255000", "112201.745000", "112203.235000", "112204.725000", "112206.215000", "112207.705000", "112209.195000", "112210.685000", "112212.175000", "112213.665000", "112215.155000", "112216.645000", "112218.135000", "112219.625000", "112221.115000", "112222.605000", "112224.095000", "112225.585000", "112227.075000", "112228.565000", "112230.055000", "112231.545000", "112233.035000", "112234.525000", "112236.015000", "112237.505000", "112238.995000", "112240.485000", "112241.975000", "112243.465000", "112244.955000", "112246.445000", "112247.935000", "112249.425000", "112250.915000", "112252.405000", "112253.895000", "112255.385000", "112256.875000", "112258.365000", "112259.855000", "112301.345000", "112302.835000", "112304.325000", "112305.815000", "112307.305000", "112308.795000", "112310.285000", "112311.775000", "112313.265000", "112314.755000", "112316.245000", "112317.735000", "112319.225000", "112320.715000", "112322.205000", "112323.695000", "112325.185000", "112326.675000", "112328.165000", "112329.655000", "112331.145000", "112332.635000", "112334.125000", "112335.615000", "112337.105000", "112338.595000", "112340.085000", "112341.575000", "112343.065000", "112344.555000", "112346.045000", "112347.535000", "112349.025000", "112350.515000", "112352.005000", "112353.495000", "112354.985000", "112356.475000", "112357.965000", "112359.455000", "112400.945000", "112402.435000", "112403.925000", "112405.415000", "112406.905000", "112408.395000", "112409.885000", "112411.375000", "112412.865000", "112414.355000", "112415.845000", "112417.335000", "112418.825000", "112420.315000", "112421.805000", "112423.295000", "112424.785000", "112426.275000", "112427.765000", "112429.255000", "112430.745000", "112432.235000", "112433.725000", "112435.215000", "112436.705000", "112438.195000", "112439.685000", "112441.175000", "112442.665000", "112444.155000", "112445.645000", "112447.135000", "112448.625000", "112450.115000", "112451.605000", "112453.095000", "112454.585000", "112456.075000", "112457.565000", "112459.055000", "112500.545000", "112502.035000", "112503.525000", "112505.015000", "112506.505000", "112507.995000", "112509.485000", "112510.975000", "112512.465000", "112513.955000", "112515.445000", "112516.935000", "112518.425000", "112519.915000", "112521.405000", "112522.895000", "112524.385000", "112525.875000", "112527.365000", "112528.855000", "112530.345000", "112531.835000", "112533.325000", "112534.815000", "112536.305000", "112537.795000", "112539.285000", "112540.775000", "112542.265000", "112543.755000", "112545.245000", "112546.735000", "112548.225000", "112549.715000", "112551.205000", "112552.695000", "112554.185000", "112555.675000", "112557.165000", "112558.655000", "112600.145000", "112601.635000", "112603.125000"],
      "ContentTime": ["112249.029000", "112249.033000", "112249.036000", "112249.040000", "112249.043000", "112249.046000", "112249.050000", "112249.053000", "112249.056000", "112249.059000", "112249.063000", "112249.066000", "112249.069000", "112249.072000", "112249.076000", "112249.079000", "112249.082000", "112249.085000", "112249.089000", "112249.092000", "112249.095000", "112249.099000", "112249.102000", "112249.105000", "112249.108000", "112249.112000", "112249.115000", "112249.118000", "112249.121000", "112249.125000", "112249.128000", "112249.131000", "112249.144000", "112249.147000", "112308.993000", "112308.997000", "112309.001000", "112309.004000", "112309.030000", "112309.034000", "112309.038000", "112309.041000", "112309.045000", "112309.048000", "112309.052000", "112309.056000", "112309.060000", "112309.063000", "112309.067000", "112309.071000", "112309.075000", "112309.078000", "112309.082000", "112309.085000", "112328.994000", "112328.998000", "112329.002000", "112329.005000", "112329.009000", "112329.012000", "112329.015000", "112329.019000", "112329.023000", "112329.027000", "112329.030000", "112329.033000", "112329.037000", "112329.040000", "112329.043000", "112329.047000", "112329.050000", "112329.053000", "112329.056000", "112329.060000", "112329.063000", "112348.994000", "112348.998000", "112349.002000", "112349.006000", "112349.009000", "112349.012000", "112349.015000", "112349.019000", "112349.022000", "112349.025000", "112349.029000", "112349.032000", "112349.035000", "112349.038000", "112349.042000", "112349.045000", "112349.048000", "112349.052000", "112349.055000", "112349.058000", "112428.994000", "112428.998000", "112429.002000", "112429.006000", "112429.009000", "112429.012000", "112429.015000", "112429.019000", "112429.022000", "112429.025000", "112429.029000", "112429.032000", "112429.035000", "112429.039000", "112429.042000", "112429.045000", "112429.048000", "112429.052000", "112429.055000", "112429.058000", "112429.062000", "112429.065000", "112429.068000", "112429.071000", "112429.075000", "112429.078000", "112429.081000", "112429.085000", "112429.088000", "112429.091000", "112508.993000", "112508.998000", "112509.004000", "112509.007000", "112509.011000", "112509.015000", "112509.019000", "112509.023000", "112509.026000", "112509.029000", "112509.033000", "112509.036000", "112509.055000", "112509.059000", "112509.062000", "112509.065000", "112509.069000", "112509.072000", "112509.075000", "112509.079000", "112509.082000", "112509.085000", "112509.089000", "112509.092000", "112509.095000", "112509.098000", "112548.994000", "112548.998000", "112549.002000", "112549.006000", "112549.009000", "112549.012000", "112549.016000", "112549.019000", "112549.022000", "112549.026000", "112549.029000", "112549.032000", "112549.035000", "112549.039000", "112549.042000", "112549.045000", "112549.049000", "112549.052000", "112549.055000", "112549.059000", "112549.062000", "112549.065000", "112549.069000", "112549.072000", "112549.075000", "112549.078000", "112549.083000", "112605.679000", "112605.683000", "112605.686000", "112605.690000", "112605.693000", "112605.696000", "112605.700000", "112605.703000", "112605.707000", "112605.711000", "112605.714000", "112605.717000"],
      "InstanceCreationTime": ["112249.029000", "112249.033000", "112249.036000", "112249.040000", "112249.043000", "112249.046000", "112249.050000", "112249.053000", "112249.056000", "112249.059000", "112249.063000", "112249.066000", "112249.069000", "112249.072000", "112249.076000", "112249.079000", "112249.082000", "112249.085000", "112249.089000", "112249.092000", "112249.095000", "112249.099000", "112249.102000", "112249.105000", "112249.108000", "112249.112000", "112249.115000", "112249.118000", "112249.121000", "112249.125000", "112249.128000", "112249.131000", "112249.144000", "112249.147000", "112308.993000", "112308.997000", "112309.001000", "112309.004000", "112309.030000", "112309.034000", "112309.038000", "112309.041000", "112309.045000", "112309.048000", "112309.052000", "112309.056000", "112309.060000", "112309.063000", "112309.067000", "112309.071000", "112309.075000", "112309.078000", "112309.082000", "112309.085000", "112328.994000", "112328.998000", "112329.002000", "112329.005000", "112329.009000", "112329.012000", "112329.015000", "112329.019000", "112329.023000", "112329.027000", "112329.030000", "112329.033000", "112329.037000", "112329.040000", "112329.043000", "112329.047000", "112329.050000", "112329.053000", "112329.056000", "112329.060000", "112329.063000", "112348.994000", "112348.998000", "112349.002000", "112349.006000", "112349.009000", "112349.012000", "112349.015000", "112349.019000", "112349.022000", "112349.025000", "112349.029000", "112349.032000", "112349.035000", "112349.038000", "112349.042000", "112349.045000", "112349.048000", "112349.052000", "112349.055000", "112349.058000", "112428.994000", "112428.998000", "112429.002000", "112429.006000", "112429.009000", "112429.012000", "112429.015000", "112429.019000", "112429.022000", "112429.025000", "112429.029000", "112429.032000", "112429.035000", "112429.039000", "112429.042000", "112429.045000", "112429.048000", "112429.052000", "112429.055000", "112429.058000", "112429.062000", "112429.065000", "112429.068000", "112429.071000", "112429.075000", "112429.078000", "112429.081000", "112429.085000", "112429.088000", "112429.091000", "112508.993000", "112508.998000", "112509.004000", "112509.007000", "112509.011000", "112509.015000", "112509.019000", "112509.023000", "112509.026000", "112509.029000", "112509.033000", "112509.036000", "112509.055000", "112509.059000", "112509.062000", "112509.065000", "112509.069000", "112509.072000", "112509.075000", "112509.079000", "112509.082000", "112509.085000", "112509.089000", "112509.092000", "112509.095000", "112509.098000", "112548.994000", "112548.998000", "112549.002000", "112549.006000", "112549.009000", "112549.012000", "112549.016000", "112549.019000", "112549.022000", "112549.026000", "112549.029000", "112549.032000", "112549.035000", "112549.039000", "112549.042000", "112549.045000", "112549.049000", "112549.052000", "112549.055000", "112549.059000", "112549.062000", "112549.065000", "112549.069000", "112549.072000", "112549.075000", "112549.078000", "112549.083000", "112605.679000", "112605.683000", "112605.686000", "112605.690000", "112605.693000", "112605.696000", "112605.700000", "112605.703000", "112605.707000", "112605.711000", "112605.714000", "112605.717000"],
      "InstanceNumber": [1, 2, 3, 4, 5, 6, 7, 8, 9, 10, 11, 12, 13, 14, 15, 16, 17, 18, 19, 20, 21, 22, 23, 24, 25, 26, 27, 28, 29, 30, 31, 32, 33, 34, 35, 36, 37, 38, 39, 40, 41, 42, 43, 44, 45, 46, 47, 48, 49, 50, 51, 52, 53, 54, 55, 56, 57, 58, 59, 60, 61, 62, 63, 64, 65, 66, 67, 68, 69, 70, 71, 72, 73, 74, 75, 76, 77, 78, 79, 80, 81, 82, 83, 84, 85, 86, 87, 88, 89, 90, 91, 92, 93, 94, 95, 96, 97, 98, 99, 100, 101, 102, 103, 104, 105, 106, 107, 108, 109, 110, 111, 112, 113, 114, 115, 116, 117, 118, 119, 120, 121, 122, 123, 124, 125, 126, 127, 128, 129, 130, 131, 132, 133, 134, 135, 136, 137, 138, 139, 140, 141, 142, 143, 144, 145, 146, 147, 148, 149, 150, 151, 152, 153, 154, 155, 156, 157, 158, 159, 160, 161, 162, 163, 164, 165, 166, 167, 168, 169, 170, 171, 172, 173, 174, 175, 176, 177, 178, 179, 180, 181, 182, 183, 184, 185, 186, 187, 188, 189, 190],
      "LargestImagePixelValue": [46018, 48229, 45332, 44784, 45215, 44097, 46620, 47102, 47349, 45762, 45094, 44296, 45612, 47335, 46193, 45197, 45497, 44234, 45402, 46109, 45900, 46189, 47302, 45623, 45657, 45282, 45275, 45214, 44168, 44296, 44496, 44838, 46552, 46180, 45942, 45254, 44525, 44796, 45239, 44626, 43576, 46209, 44798, 44537, 45479, 47140, 44764, 44335, 47148, 44967, 45287, 46664, 44983, 46186, 44959, 44849, 45832, 44247, 44555, 47395, 45253, 45827, 44662, 43985, 47027, 43900, 43688, 46661, 46070, 43894, 43963, 43768, 43817, 44212, 45688, 43761, 43917, 45547, 44585, 44046, 45059, 44289, 43924, 44090, 43641, 43997, 46421, 46234, 43484, 44064, 44297, 46557, 45160, 43297, 43731, 44572, 44046, 44130, 44958, 45205, 43590, 44322, 43876, 44683, 44750, 44003, 43566, 44159, 43779, 45679, 45959, 44211, 44344, 44633, 44084, 44523, 44670, 44507, 43535, 44172, 44289, 45638, 47057, 45262, 44445, 44650, 44881, 45667, 44850, 44535, 44008, 43829, 44437, 44548, 45809, 44650, 44664, 44741, 45840, 44674, 43366, 43634, 43940, 44499, 45591, 46159, 45993, 45044, 45765, 45622, 45566, 44123, 45649, 47063, 47590, 48055, 47059, 47428, 45057, 44836, 44778, 43910, 44037, 45452, 46867, 47823, 45871, 43794, 43652, 45095, 45377, 44416, 45583, 44906, 43728, 44388, 44427, 44457, 46096, 45601, 44509, 44427, 44499, 44950, 44870, 43883, 44748, 44953, 44316, 45206],
      "WindowCenter": [11199.0, 11177.0, 11152.0, 11171.0, 11143.0, 11081.0, 11119.0, 11153.0, 11172.0, 11144.0, 11114.0, 11060.0, 11081.0, 11139.0, 11158.0, 11164.0, 11131.0, 11068.0, 11098.0, 11129.0, 11140.0, 11147.0, 11133.0, 11113.0, 11105.0, 11105.0, 11099.0, 11121.0, 11104.0, 11085.0, 11083.0, 11094.0, 11136.0, 11166.0, 11165.0, 11142.0, 11134.0, 11136.0, 11136.0, 11129.0, 11104.0, 11115.0, 11108.0, 11119.0, 11135.0, 11157.0, 11131.0, 11129.0, 11144.0, 11123.0, 11121.0, 11139.0, 11127.0, 11129.0, 11113.0, 11109.0, 11116.0, 11098.0, 11107.0, 11128.0, 11123.0, 11141.0, 11116.0, 11099.0, 11148.0, 11123.0, 11114.0, 11129.0, 11113.0, 11092.0, 11092.0, 11090.0, 11091.0, 11086.0, 11113.0, 11116.0, 11114.0, 11111.0, 11091.0, 11085.0, 11093.0, 11086.0, 11102.0, 11101.0, 11075.0, 11080.0, 11114.0, 11125.0, 11087.0, 11077.0, 11059.0, 11080.0, 11110.0, 11121.0, 11121.0, 11104.0, 11096.0, 11093.0, 11086.0, 11095.0, 11083.0, 11085.0, 11063.0, 11072.0, 11084.0, 11103.0, 11093.0, 11078.0, 11058.0, 11073.0, 11111.0, 11098.0, 11093.0, 11082.0, 11068.0, 11066.0, 11069.0, 11072.0, 11078.0, 11066.0, 11071.0, 11095.0, 11115.0, 11107.0, 11100.0, 11080.0, 11070.0, 11087.0, 11097.0, 11116.0, 11105.0, 11086.0, 11093.0, 11088.0, 11103.0, 11090.0, 11081.0, 11070.0, 11081.0, 11095.0, 11093.0, 11075.0, 11063.0, 11071.0, 11100.0, 11121.0, 11108.0, 11115.0, 11109.0, 11078.0, 11070.0, 11048.0, 11071.0, 11096.0, 11111.0, 11104.0, 11087.0, 11091.0, 11082.0, 11086.0, 11085.0, 11059.0, 11056.0, 11095.0, 11142.0, 11160.0, 11145.0, 11093.0, 11065.0, 11068.0, 11087.0, 11114.0, 11140.0, 11130.0, 11103.0, 11087.0, 11057.0, 11057.0, 11097.0, 11119.0, 11110.0, 11085.0, 11074.0, 11082.0, 11097.0, 11093.0, 11074.0, 11043.0, 11034.0, 11065.0],
      "WindowWidth": [24176.0, 24071.0, 24003.0, 24037.0, 23967.0, 23815.0, 23886.0, 23967.0, 24010.0, 23948.0, 23884.0, 23758.0, 23798.0, 23937.0, 23982.0, 24007.0, 23924.0, 23782.0, 23845.0, 23914.0, 23941.0, 23953.0, 23913.0, 23871.0, 23855.0, 23858.0, 23847.0, 23896.0, 23863.0, 23821.0, 23817.0, 23837.0, 23925.0, 23997.0, 23993.0, 23945.0, 23932.0, 23934.0, 23934.0, 23923.0, 23870.0, 23885.0, 23870.0, 23896.0, 23927.0, 23973.0, 23923.0, 23917.0, 23948.0, 23904.0, 23899.0, 23936.0, 23919.0, 23916.0, 23885.0, 23873.0, 23884.0, 23851.0, 23868.0, 23904.0, 23902.0, 23943.0, 23892.0, 23854.0, 23952.0, 23907.0, 23885.0, 23912.0, 23875.0, 23835.0, 23838.0, 23831.0, 23837.0, 23818.0, 23872.0, 23894.0, 23884.0, 23873.0, 23829.0, 23817.0, 23829.0, 23816.0, 23863.0, 23851.0, 23798.0, 23806.0, 23873.0, 23900.0, 23824.0, 23797.0, 23762.0, 23796.0, 23867.0, 23906.0, 23909.0, 23862.0, 23841.0, 23835.0, 23815.0, 23831.0, 23810.0, 23813.0, 23766.0, 23791.0, 23812.0, 23858.0, 23843.0, 23804.0, 23754.0, 23779.0, 23865.0, 23849.0, 23835.0, 23806.0, 23777.0, 23776.0, 23777.0, 23788.0, 23803.0, 23774.0, 23781.0, 23835.0, 23873.0, 23860.0, 23848.0, 23799.0, 23783.0, 23813.0, 23840.0, 23886.0, 23864.0, 23821.0, 23844.0, 23821.0, 23848.0, 23827.0, 23805.0, 23778.0, 23803.0, 23837.0, 23837.0, 23801.0, 23773.0, 23779.0, 23849.0, 23891.0, 23861.0, 23884.0, 23865.0, 23795.0, 23777.0, 23730.0, 23774.0, 23826.0, 23861.0, 23837.0, 23804.0, 23810.0, 23799.0, 23813.0, 23821.0, 23757.0, 23749.0, 23835.0, 23938.0, 23978.0, 23953.0, 23837.0, 23777.0, 23771.0, 23811.0, 23884.0, 23940.0, 23916.0, 23861.0, 23827.0, 23749.0, 23747.0, 23835.0, 23891.0, 23876.0, 23811.0, 23785.0, 23809.0, 23840.0, 23846.0, 23794.0, 23724.0, 23702.0, 23770.0]
    },
    "slices": {}
  }
}