{
  "AcquisitionMatrixPE": 104,
  "AcquisitionNumber": 1,
  "AcquisitionTime": "11:09:3.365000",
  "BandwidthPerPixelPhaseEncode": 17.17,
  "BaseResolution": 104,
  "BodyPartExamined": "BRAIN",
  "CoilString": "HC1-7;NC1_2",
  "ConsistencyInfo": "N4_VE11C_LATEST_20160120",
  "ConversionSoftware": "dcm2niix",
  "ConversionSoftwareVersion": "v1.0.20190902",
  "DerivedVendorReportedEchoSpacing": 0.000560011,
  "DeviceSerialNumber": "167006",
  "DwellTime": 2.1e-06,
  "EchoTime": 0.037,
  "EchoTrainLength": 104,
  "EffectiveEchoSpacing": 0.000560011,
  "FlipAngle": 52,
  "ImageComments": "Unaliased_MB4_PE3_LB",
  "ImageOrientationPatientDICOM": [0.999527, 0.0129705, 0.0278748, 0.00209346, 0.875836, -0.482604],
  "ImageType": [
    "ORIGINAL",
    "PRIMARY",
    "M",
    "MB",
    "ND",
    "MOSAIC"
],
  "ImagingFrequency": 123.259,
  "InPlanePhaseEncodingDirectionDICOM": "COL",
  "InstitutionAddress": "Chemin_Queen-Mary_4565_Montreal_District_CA_H3W_1W5",
  "InstitutionName": "IUGM",
  "InstitutionalDepartmentName": "Department",
  "MRAcquisitionType": "2D",
  "MagneticFieldStrength": 3,
  "Manufacturer": "Siemens",
  "ManufacturersModelName": "Prisma_fit",
  "Modality": "MR",
  "MultibandAccelerationFactor": 4,
  "PartialFourier": 1,
  "PatientPosition": "HFS",
  "PercentPhaseFOV": 100,
  "PhaseEncodingDirection": "j",
  "PhaseEncodingSteps": 104,
  "PhaseResolution": 1,
  "PixelBandwidth": 2290,
  "ProcedureStepDescription": "memory_things",
  "ProtocolName": "func_task-things_run-3",
  "PulseSequenceDetails": "%CustomerSeq%_cmrr_mbep2d_bold",
  "ReceiveCoilActiveElements": "HC1-7;NC1,2",
  "ReceiveCoilName": "HeadNeck_64",
  "ReconMatrixPE": 104,
  "RepetitionTime": 1.49,
  "SAR": 0.0501315,
  "ScanOptions": "FS",
  "ScanningSequence": "EP",
  "SequenceName": "epfid2d1_104",
  "SequenceVariant": "SK_SS",
  "SeriesDescription": "func_task-things_run-3",
  "SeriesNumber": 16,
  "ShimSetting": [612, -7182, -8877, 302, -11, -104, -21, -27],
  "SliceThickness": 2,
  "SliceTiming": [0, 0.785, 0.0975, 0.8825, 0.1975, 0.98, 0.295, 1.0775, 0.3925, 1.1775, 0.49, 1.275, 0.5875, 1.3725, 0.6875, 0, 0.785, 0.0975, 0.8825, 0.1975, 0.98, 0.295, 1.0775, 0.3925, 1.1775, 0.49, 1.275, 0.5875, 1.3725, 0.6875, 0, 0.785, 0.0975, 0.8825, 0.1975, 0.98, 0.295, 1.0775, 0.3925, 1.1775, 0.49, 1.275, 0.5875, 1.3725, 0.6875, 0, 0.785, 0.0975, 0.8825, 0.1975, 0.98, 0.295, 1.0775, 0.3925, 1.1775, 0.49, 1.275, 0.5875, 1.3725, 0.6875],
  "SoftwareVersions": "syngo_MR_E11",
  "SpacingBetweenSlices": 2,
  "StationName": "MRC35049",
  "TaskName": "things",
  "TotalReadoutTime": 0.0576811,
  "TxRefAmp": 275.353,
  "WipMemBlock": "f93fb77a-ff8d-4846-aad3-16a0c97abff4||Sequence: R016 ve11c/master r/e634e98; Dec 19 2017 11:00:25 by eja",
  "dcmmeta_affine": [
    [-1.9990545511245728, 0.004186911042779684, 0.061346832662820816, 105.8602294921875],
    [-0.025941025465726852, 1.751672387123108, -0.964868426322937, -52.76451873779297],
    [0.05574968457221985, 0.9652079939842224, 1.750789999961853, -105.03831481933594],
    [0.0, 0.0, 0.0, 1.0]
],
  "dcmmeta_reorient_transform": [
    [0.0, -1.0, 0.0, 103.0],
    [1.0, 0.0, 0.0, 0.0],
    [0.0, 0.0, 1.0, 0.0],
    [0.0, 0.0, 0.0, 1.0]
],
  "dcmmeta_shape": [104, 104, 60, 190],
  "dcmmeta_slice_dim": 2,
  "dcmmeta_version": 0.6,
  "global": {
    "const": {
      "AcquisitionMatrix": [104, 0, 0, 104],
      "AngioFlag": "N",
      "BitsAllocated": 16,
      "BitsStored": 16,
      "BodyPartExamined": "BRAIN",
      "Columns": 832,
      "EchoNumbers": 1,
      "EchoTime": 37.0,
      "EchoTrainLength": 104,
      "FlipAngle": 52.0,
      "HighBit": 15,
      "ImageOrientationPatient": [0.99952726774786, 0.01297051318762, 0.02787484199323, 0.00209345563716, 0.87583616461022, -0.4826040097268],
      "ImagePositionPatient": [-835.47136952205, -774.70899201789, 325.42094837707],
      "ImageType": [
        "ORIGINAL",
        "PRIMARY",
        "M",
        "MB",
        "ND",
        "MOSAIC"
],
      "ImagedNucleus": "1H",
      "ImagingFrequency": 123.258951,
      "InPlanePhaseEncodingDirection": "COL",
      "MRAcquisitionType": "2D",
      "MagneticFieldStrength": 3.0,
      "Manufacturer": "SIEMENS",
      "ManufacturerModelName": "Prisma_fit",
      "Modality": "MR",
      "NumberOfAverages": 1.0,
      "NumberOfPhaseEncodingSteps": 104,
      "PercentPhaseFieldOfView": 100.0,
      "PercentSampling": 100.0,
      "PerformedProcedureStepStartTime": "100714.179000",
      "PhotometricInterpretation": "MONOCHROME2",
      "PixelBandwidth": 2290.0,
      "PixelRepresentation": 0,
      "PixelSpacing": [2.0, 2.0],
      "ProtocolName": "func_task-things_run-3",
      "RepetitionTime": 1490.0,
      "Rows": 832,
      "SAR": 0.05013150024391,
      "SamplesPerPixel": 1,
      "ScanOptions": "FS",
      "ScanningSequence": "EP",
      "SequenceName": "epfid2d1_104",
      "SequenceVariant": [
        "SK",
        "SS"
],
      "SeriesDescription": "func_task-things_run-3",
      "SeriesNumber": 16,
      "SeriesTime": "111029.069000",
      "SliceLocation": -63.247505545223,
      "SliceThickness": 2.0,
      "SmallestImagePixelValue": 0,
      "SoftwareVersions": "syngo MR E11",
      "SpacingBetweenSlices": 2.0000000158041,
      "SpecificCharacterSet": "ISO_IR 100",
      "StudyID": "1",
      "StudyTime": "100714.120000",
      "TransmitCoilName": "Body",
      "VariableFlipAngleFlag": "N",
      "WindowCenterWidthExplanation": "Algo1",
      "dBdt": 0.0},
    "slices": {}
  },
  "time": {
    "samples": {
      "AcquisitionNumber": [1, 2, 3, 4, 5, 6, 7, 8, 9, 10, 11, 12, 13, 14, 15, 16, 17, 18, 19, 20, 21, 22, 23, 24, 25, 26, 27, 28, 29, 30, 31, 32, 33, 34, 35, 36, 37, 38, 39, 40, 41, 42, 43, 44, 45, 46, 47, 48, 49, 50, 51, 52, 53, 54, 55, 56, 57, 58, 59, 60, 61, 62, 63, 64, 65, 66, 67, 68, 69, 70, 71, 72, 73, 74, 75, 76, 77, 78, 79, 80, 81, 82, 83, 84, 85, 86, 87, 88, 89, 90, 91, 92, 93, 94, 95, 96, 97, 98, 99, 100, 101, 102, 103, 104, 105, 106, 107, 108, 109, 110, 111, 112, 113, 114, 115, 116, 117, 118, 119, 120, 121, 122, 123, 124, 125, 126, 127, 128, 129, 130, 131, 132, 133, 134, 135, 136, 137, 138, 139, 140, 141, 142, 143, 144, 145, 146, 147, 148, 149, 150, 151, 152, 153, 154, 155, 156, 157, 158, 159, 160, 161, 162, 163, 164, 165, 166, 167, 168, 169, 170, 171, 172, 173, 174, 175, 176, 177, 178, 179, 180, 181, 182, 183, 184, 185, 186, 187, 188, 189, 190],
      "AcquisitionTime": ["110903.365000", "110904.855000", "110906.345000", "110907.835000", "110909.325000", "110910.815000", "110912.305000", "110913.795000", "110915.285000", "110916.775000", "110918.265000", "110919.755000", "110921.245000", "110922.735000", "110924.225000", "110925.715000", "110927.205000", "110928.695000", "110930.185000", "110931.675000", "110933.165000", "110934.655000", "110936.145000", "110937.635000", "110939.125000", "110940.615000", "110942.105000", "110943.595000", "110945.085000", "110946.575000", "110948.065000", "110949.555000", "110951.045000", "110952.535000", "110954.025000", "110955.515000", "110957.005000", "110958.495000", "110959.985000", "111001.475000", "111002.965000", "111004.455000", "111005.945000", "111007.435000", "111008.925000", "111010.415000", "111011.905000", "111013.395000", "111014.885000", "111016.375000", "111017.865000", "111019.355000", "111020.845000", "111022.335000", "111023.825000", "111025.315000", "111026.805000", "111028.295000", "111029.785000", "111031.275000", "111032.765000", "111034.255000", "111035.745000", "111037.235000", "111038.725000", "111040.215000", "111041.705000", "111043.195000", "111044.685000", "111046.175000", "111047.665000", "111049.155000", "111050.645000", "111052.135000", "111053.625000", "111055.115000", "111056.605000", "111058.095000", "111059.585000", "111101.075000", "111102.565000", "111104.055000", "111105.545000", "111107.035000", "111108.525000", "111110.015000", "111111.505000", "111112.995000", "111114.485000", "111115.975000", "111117.465000", "111118.955000", "111120.445000", "111121.935000", "111123.425000", "111124.915000", "111126.405000", "111127.895000", "111129.385000", "111130.875000", "111132.365000", "111133.855000", "111135.345000", "111136.835000", "111138.325000", "111139.815000", "111141.305000", "111142.795000", "111144.285000", "111145.775000", "111147.265000", "111148.755000", "111150.245000", "111151.735000", "111153.225000", "111154.715000", "111156.205000", "111157.695000", "111159.185000", "111200.675000", "111202.165000", "111203.655000", "111205.145000", "111206.635000", "111208.125000", "111209.615000", "111211.105000", "111212.595000", "111214.085000", "111215.575000", "111217.065000", "111218.555000", "111220.045000", "111221.535000", "111223.025000", "111224.515000", "111226.005000", "111227.495000", "111228.985000", "111230.475000", "111231.965000", "111233.455000", "111234.945000", "111236.435000", "111237.925000", "111239.415000", "111240.905000", "111242.395000", "111243.885000", "111245.375000", "111246.865000", "111248.355000", "111249.845000", "111251.335000", "111252.825000", "111254.315000", "111255.805000", "111257.295000", "111258.785000", "111300.275000", "111301.765000", "111303.255000", "111304.745000", "111306.235000", "111307.725000", "111309.215000", "111310.705000", "111312.195000", "111313.685000", "111315.175000", "111316.665000", "111318.155000", "111319.645000", "111321.135000", "111322.625000", "111324.115000", "111325.605000", "111327.095000", "111328.585000", "111330.075000", "111331.565000", "111333.055000", "111334.545000", "111336.035000", "111337.525000", "111339.015000", "111340.505000", "111341.995000", "111343.485000", "111344.975000"],
      "ContentTime": ["111029.072000", "111029.076000", "111029.080000", "111029.083000", "111029.089000", "111029.093000", "111029.096000", "111029.099000", "111029.102000", "111029.106000", "111029.109000", "111029.112000", "111029.116000", "111029.119000", "111029.122000", "111029.126000", "111029.129000", "111029.132000", "111029.135000", "111029.139000", "111029.142000", "111029.145000", "111029.148000", "111029.152000", "111029.155000", "111029.158000", "111029.162000", "111029.165000", "111029.168000", "111029.172000", "111029.175000", "111049.036000", "111049.040000", "111049.043000", "111049.046000", "111049.050000", "111049.053000", "111049.056000", "111049.078000", "111049.081000", "111049.084000", "111049.088000", "111049.091000", "111049.094000", "111049.098000", "111049.101000", "111049.104000", "111049.108000", "111049.111000", "111049.114000", "111049.117000", "111109.035000", "111109.039000", "111109.042000", "111109.045000", "111109.049000", "111109.052000", "111109.055000", "111109.058000", "111109.062000", "111109.065000", "111109.068000", "111109.072000", "111109.075000", "111109.078000", "111109.081000", "111109.085000", "111109.088000", "111109.091000", "111109.095000", "111109.098000", "111129.035000", "111129.039000", "111129.042000", "111129.045000", "111129.048000", "111129.052000", "111129.055000", "111129.058000", "111129.062000", "111129.065000", "111129.068000", "111129.072000", "111129.075000", "111129.078000", "111129.081000", "111129.085000", "111129.088000", "111129.091000", "111129.095000", "111129.098000", "111209.036000", "111209.040000", "111209.043000", "111209.046000", "111209.050000", "111209.053000", "111209.056000", "111209.060000", "111209.063000", "111209.066000", "111209.069000", "111209.073000", "111209.076000", "111209.079000", "111209.083000", "111209.086000", "111209.089000", "111209.092000", "111209.096000", "111209.099000", "111209.102000", "111209.106000", "111209.109000", "111209.112000", "111209.115000", "111209.119000", "111209.122000", "111209.125000", "111209.129000", "111209.132000", "111209.135000", "111209.139000", "111209.142000", "111249.036000", "111249.040000", "111249.043000", "111249.046000", "111249.050000", "111249.053000", "111249.056000", "111249.060000", "111249.063000", "111249.066000", "111249.070000", "111249.075000", "111249.079000", "111249.084000", "111249.088000", "111249.091000", "111249.095000", "111249.099000", "111249.102000", "111249.105000", "111249.126000", "111249.129000", "111249.132000", "111249.136000", "111249.139000", "111249.142000", "111329.035000", "111329.039000", "111329.042000", "111329.045000", "111329.049000", "111329.052000", "111329.055000", "111329.059000", "111329.062000", "111329.065000", "111329.069000", "111329.072000", "111329.075000", "111329.079000", "111329.082000", "111329.085000", "111329.088000", "111329.092000", "111329.095000", "111329.098000", "111329.102000", "111329.105000", "111329.108000", "111329.112000", "111329.115000", "111329.118000", "111329.121000", "111347.259000", "111347.263000", "111347.266000", "111347.270000", "111347.274000", "111347.277000", "111347.281000", "111347.284000", "111347.287000", "111347.291000", "111347.294000", "111347.297000", "111347.301000"],
      "InstanceCreationTime": ["111029.072000", "111029.076000", "111029.080000", "111029.083000", "111029.089000", "111029.093000", "111029.096000", "111029.099000", "111029.102000", "111029.106000", "111029.109000", "111029.112000", "111029.116000", "111029.119000", "111029.122000", "111029.126000", "111029.129000", "111029.132000", "111029.135000", "111029.139000", "111029.142000", "111029.145000", "111029.148000", "111029.152000", "111029.155000", "111029.158000", "111029.162000", "111029.165000", "111029.168000", "111029.172000", "111029.175000", "111049.036000", "111049.040000", "111049.043000", "111049.046000", "111049.050000", "111049.053000", "111049.056000", "111049.078000", "111049.081000", "111049.084000", "111049.088000", "111049.091000", "111049.094000", "111049.098000", "111049.101000", "111049.104000", "111049.108000", "111049.111000", "111049.114000", "111049.117000", "111109.035000", "111109.039000", "111109.042000", "111109.045000", "111109.049000", "111109.052000", "111109.055000", "111109.058000", "111109.062000", "111109.065000", "111109.068000", "111109.072000", "111109.075000", "111109.078000", "111109.081000", "111109.085000", "111109.088000", "111109.091000", "111109.095000", "111109.098000", "111129.035000", "111129.039000", "111129.042000", "111129.045000", "111129.048000", "111129.052000", "111129.055000", "111129.058000", "111129.062000", "111129.065000", "111129.068000", "111129.072000", "111129.075000", "111129.078000", "111129.081000", "111129.085000", "111129.088000", "111129.091000", "111129.095000", "111129.098000", "111209.036000", "111209.040000", "111209.043000", "111209.046000", "111209.050000", "111209.053000", "111209.056000", "111209.060000", "111209.063000", "111209.066000", "111209.069000", "111209.073000", "111209.076000", "111209.079000", "111209.083000", "111209.086000", "111209.089000", "111209.092000", "111209.096000", "111209.099000", "111209.102000", "111209.106000", "111209.109000", "111209.112000", "111209.115000", "111209.119000", "111209.122000", "111209.125000", "111209.129000", "111209.132000", "111209.135000", "111209.139000", "111209.142000", "111249.036000", "111249.040000", "111249.043000", "111249.046000", "111249.050000", "111249.053000", "111249.056000", "111249.060000", "111249.063000", "111249.066000", "111249.070000", "111249.075000", "111249.079000", "111249.084000", "111249.088000", "111249.091000", "111249.095000", "111249.099000", "111249.102000", "111249.105000", "111249.126000", "111249.129000", "111249.132000", "111249.136000", "111249.139000", "111249.142000", "111329.035000", "111329.039000", "111329.042000", "111329.045000", "111329.049000", "111329.052000", "111329.055000", "111329.059000", "111329.062000", "111329.065000", "111329.069000", "111329.072000", "111329.075000", "111329.079000", "111329.082000", "111329.085000", "111329.088000", "111329.092000", "111329.095000", "111329.098000", "111329.102000", "111329.105000", "111329.108000", "111329.112000", "111329.115000", "111329.118000", "111329.121000", "111347.259000", "111347.263000", "111347.266000", "111347.270000", "111347.274000", "111347.277000", "111347.281000", "111347.284000", "111347.287000", "111347.291000", "111347.294000", "111347.297000", "111347.301000"],
      "InstanceNumber": [1, 2, 3, 4, 5, 6, 7, 8, 9, 10, 11, 12, 13, 14, 15, 16, 17, 18, 19, 20, 21, 22, 23, 24, 25, 26, 27, 28, 29, 30, 31, 32, 33, 34, 35, 36, 37, 38, 39, 40, 41, 42, 43, 44, 45, 46, 47, 48, 49, 50, 51, 52, 53, 54, 55, 56, 57, 58, 59, 60, 61, 62, 63, 64, 65, 66, 67, 68, 69, 70, 71, 72, 73, 74, 75, 76, 77, 78, 79, 80, 81, 82, 83, 84, 85, 86, 87, 88, 89, 90, 91, 92, 93, 94, 95, 96, 97, 98, 99, 100, 101, 102, 103, 104, 105, 106, 107, 108, 109, 110, 111, 112, 113, 114, 115, 116, 117, 118, 119, 120, 121, 122, 123, 124, 125, 126, 127, 128, 129, 130, 131, 132, 133, 134, 135, 136, 137, 138, 139, 140, 141, 142, 143, 144, 145, 146, 147, 148, 149, 150, 151, 152, 153, 154, 155, 156, 157, 158, 159, 160, 161, 162, 163, 164, 165, 166, 167, 168, 169, 170, 171, 172, 173, 174, 175, 176, 177, 178, 179, 180, 181, 182, 183, 184, 185, 186, 187, 188, 189, 190],
      "LargestImagePixelValue": [49805, 48550, 46395, 46277, 45304, 45304, 45288, 45378, 45711, 45805, 47240, 46899, 49293, 49985, 48839, 45652, 45890, 45981, 46053, 46541, 45528, 46529, 45409, 46388, 46014, 45106, 46031, 46976, 45097, 45888, 45640, 46470, 45474, 45169, 45974, 47720, 47273, 45443, 46745, 46804, 45855, 45645, 45137, 45725, 46041, 47428, 48077, 47039, 46480, 45225, 46262, 44834, 45998, 45442, 45140, 45378, 45489, 46286, 45372, 46608, 46670, 45313, 45294, 46406, 44832, 45393, 45057, 45100, 45481, 45460, 45055, 45522, 46222, 45653, 48048, 46485, 44810, 48126, 45901, 45187, 45610, 45522, 45489, 45578, 45542, 45048, 46741, 45656, 45725, 45234, 45502, 45432, 45224, 45606, 45193, 46241, 45208, 45649, 46570, 45683, 45699, 48240, 45844, 45718, 46487, 47940, 46512, 46100, 45335, 46400, 45373, 46255, 45506, 45484, 46576, 46017, 44902, 46090, 46473, 45341, 45597, 46250, 47009, 47148, 45433, 45646, 46574, 45393, 46025, 45320, 45836, 46387, 45760, 45788, 46238, 46399, 45372, 45765, 46300, 45642, 45805, 45621, 46197, 46282, 49060, 49791, 49196, 47563, 45875, 45469, 45157, 45149, 46051, 45366, 45117, 47433, 47253, 46672, 46214, 45636, 46399, 45591, 45368, 46148, 45646, 46174, 45836, 47128, 47208, 45732, 46688, 46524, 46130, 46193, 45629, 45269, 46148, 46207, 46166, 47260, 46226, 45602, 47453, 47431, 46942, 45809, 45152, 44562, 44395, 45208],
      "WindowCenter": [11336.0, 11249.0, 11206.0, 11214.0, 11227.0, 11232.0, 11231.0, 11213.0, 11192.0, 11182.0, 11207.0, 11221.0, 11282.0, 11279.0, 11233.0, 11194.0, 11204.0, 11234.0, 11250.0, 11260.0, 11230.0, 11209.0, 11186.0, 11158.0, 11172.0, 11198.0, 11237.0, 11242.0, 11196.0, 11193.0, 11198.0, 11188.0, 11186.0, 11244.0, 11262.0, 11261.0, 11248.0, 11225.0, 11205.0, 11213.0, 11212.0, 11223.0, 11226.0, 11239.0, 11231.0, 11231.0, 11218.0, 11166.0, 11124.0, 11127.0, 11181.0, 11207.0, 11219.0, 11207.0, 11211.0, 11223.0, 11216.0, 11211.0, 11195.0, 11204.0, 11193.0, 11176.0, 11177.0, 11195.0, 11182.0, 11184.0, 11183.0, 11179.0, 11195.0, 11205.0, 11207.0, 11199.0, 11201.0, 11192.0, 11211.0, 11185.0, 11161.0, 11204.0, 11202.0, 11200.0, 11201.0, 11212.0, 11189.0, 11166.0, 11156.0, 11173.0, 11228.0, 11218.0, 11203.0, 11178.0, 11157.0, 11155.0, 11151.0, 11163.0, 11162.0, 11176.0, 11163.0, 11173.0, 11182.0, 11173.0, 11174.0, 11200.0, 11176.0, 11167.0, 11187.0, 11209.0, 11170.0, 11172.0, 11176.0, 11194.0, 11178.0, 11171.0, 11149.0, 11132.0, 11146.0, 11150.0, 11152.0, 11180.0, 11185.0, 11178.0, 11186.0, 11206.0, 11212.0, 11200.0, 11161.0, 11157.0, 11176.0, 11180.0, 11190.0, 11188.0, 11186.0, 11183.0, 11169.0, 11166.0, 11165.0, 11162.0, 11158.0, 11167.0, 11179.0, 11170.0, 11142.0, 11149.0, 11189.0, 11213.0, 11269.0, 11268.0, 11240.0, 11207.0, 11178.0, 11173.0, 11166.0, 11160.0, 11154.0, 11146.0, 11139.0, 11157.0, 11165.0, 11150.0, 11146.0, 11163.0, 11178.0, 11177.0, 11172.0, 11182.0, 11187.0, 11196.0, 11206.0, 11212.0, 11203.0, 11194.0, 11196.0, 11181.0, 11173.0, 11174.0, 11169.0, 11175.0, 11192.0, 11183.0, 11176.0, 11174.0, 11158.0, 11158.0, 11186.0, 11171.0, 11126.0, 11127.0, 11158.0, 11171.0, 11171.0, 11152.0],
      "WindowWidth": [24501.0, 24258.0, 24139.0, 24143.0, 24172.0, 24181.0, 24175.0, 24133.0, 24080.0, 24057.0, 24107.0, 24146.0, 24284.0, 24275.0, 24172.0, 24090.0, 24107.0, 24177.0, 24217.0, 24235.0, 24165.0, 24115.0, 24065.0, 24001.0, 24031.0, 24097.0, 24184.0, 24195.0, 24096.0, 24081.0, 24097.0, 24067.0, 24063.0, 24204.0, 24247.0, 24234.0, 24205.0, 24158.0, 24107.0, 24128.0, 24125.0, 24150.0, 24159.0, 24188.0, 24169.0, 24165.0, 24136.0, 24017.0, 23920.0, 23928.0, 24049.0, 24121.0, 24142.0, 24115.0, 24126.0, 24150.0, 24136.0, 24124.0, 24087.0, 24105.0, 24081.0, 24046.0, 24047.0, 24086.0, 24063.0, 24063.0, 24067.0, 24051.0, 24090.0, 24113.0, 24118.0, 24098.0, 24102.0, 24079.0, 24119.0, 24069.0, 24016.0, 24101.0, 24106.0, 24103.0, 24102.0, 24130.0, 24076.0, 24018.0, 23996.0, 24033.0, 24157.0, 24137.0, 24100.0, 24043.0, 23991.0, 23986.0, 23981.0, 24007.0, 24007.0, 24035.0, 24011.0, 24029.0, 24049.0, 24032.0, 24037.0, 24088.0, 24046.0, 24024.0, 24069.0, 24116.0, 24029.0, 24032.0, 24043.0, 24080.0, 24044.0, 24023.0, 23979.0, 23939.0, 23967.0, 23980.0, 23987.0, 24052.0, 24060.0, 24047.0, 24063.0, 24108.0, 24122.0, 24098.0, 24006.0, 23995.0, 24039.0, 24053.0, 24072.0, 24074.0, 24063.0, 24051.0, 24022.0, 24016.0, 24011.0, 24003.0, 23997.0, 24016.0, 24042.0, 24030.0, 23962.0, 23976.0, 24068.0, 24124.0, 24253.0, 24250.0, 24181.0, 24112.0, 24048.0, 24034.0, 24018.0, 24010.0, 23985.0, 23974.0, 23957.0, 23990.0, 24012.0, 23974.0, 23969.0, 24006.0, 24039.0, 24040.0, 24033.0, 24048.0, 24061.0, 24083.0, 24112.0, 24120.0, 24098.0, 24081.0, 24082.0, 24050.0, 24029.0, 24031.0, 24023.0, 24041.0, 24074.0, 24058.0, 24041.0, 24029.0, 23997.0, 23999.0, 24056.0, 24029.0, 23917.0, 23925.0, 23999.0, 24036.0, 24030.0, 23986.0]
    },
    "slices": {}
  }
}