{
  "AcquisitionMatrixPE": 104,
  "AcquisitionNumber": 1,
  "AcquisitionTime": "11:27:23.022500",
  "BandwidthPerPixelPhaseEncode": 17.17,
  "BaseResolution": 104,
  "BodyPartExamined": "BRAIN",
  "CoilString": "HC1-7;NC1_2",
  "ConsistencyInfo": "N4_VE11C_LATEST_20160120",
  "ConversionSoftware": "dcm2niix",
  "ConversionSoftwareVersion": "v1.0.20190902",
  "DerivedVendorReportedEchoSpacing": 0.000560011,
  "DeviceSerialNumber": "167006",
  "DwellTime": 2.1e-06,
  "EchoTime": 0.037,
  "EchoTrainLength": 104,
  "EffectiveEchoSpacing": 0.000560011,
  "FlipAngle": 52,
  "ImageComments": "Unaliased_MB4_PE3_LB",
  "ImageOrientationPatientDICOM": [0.999527, 0.0129705, 0.0278748, 0.00209346, 0.875836, -0.482604],
  "ImageType": [
    "ORIGINAL",
    "PRIMARY",
    "P",
    "MB",
    "ND",
    "MOSAIC"
],
  "ImagingFrequency": 123.259,
  "InPlanePhaseEncodingDirectionDICOM": "COL",
  "InstitutionAddress": "Chemin_Queen-Mary_4565_Montreal_District_CA_H3W_1W5",
  "InstitutionName": "IUGM",
  "InstitutionalDepartmentName": "Department",
  "MRAcquisitionType": "2D",
  "MagneticFieldStrength": 3,
  "Manufacturer": "Siemens",
  "ManufacturersModelName": "Prisma_fit",
  "Modality": "MR",
  "MultibandAccelerationFactor": 4,
  "PartialFourier": 1,
  "PatientPosition": "HFS",
  "PercentPhaseFOV": 100,
  "PhaseEncodingDirection": "j",
  "PhaseEncodingSteps": 104,
  "PhaseResolution": 1,
  "PixelBandwidth": 2290,
  "ProcedureStepDescription": "memory_things",
  "ProtocolName": "func_task-things_run-6",
  "PulseSequenceDetails": "%CustomerSeq%_cmrr_mbep2d_bold",
  "ReceiveCoilActiveElements": "HC1-7;NC1,2",
  "ReceiveCoilName": "HeadNeck_64",
  "ReconMatrixPE": 104,
  "RepetitionTime": 1.49,
  "SAR": 0.0501315,
  "ScanOptions": "FS",
  "ScanningSequence": "EP",
  "SequenceName": "epfid2d1_104",
  "SequenceVariant": "SK_SS",
  "SeriesDescription": "func_task-things_run-6",
  "SeriesNumber": 26,
  "ShimSetting": [612, -7182, -8877, 302, -11, -104, -21, -27],
  "SliceThickness": 2,
  "SliceTiming": [0, 0.785, 0.1, 0.8825, 0.1975, 0.98, 0.295, 1.08, 0.3925, 1.1775, 0.49, 1.275, 0.59, 1.3725, 0.6875, 0, 0.785, 0.1, 0.8825, 0.1975, 0.98, 0.295, 1.08, 0.3925, 1.1775, 0.49, 1.275, 0.59, 1.3725, 0.6875, 0, 0.785, 0.1, 0.8825, 0.1975, 0.98, 0.295, 1.08, 0.3925, 1.1775, 0.49, 1.275, 0.59, 1.3725, 0.6875, 0, 0.785, 0.1, 0.8825, 0.1975, 0.98, 0.295, 1.08, 0.3925, 1.1775, 0.49, 1.275, 0.59, 1.3725, 0.6875],
  "SoftwareVersions": "syngo_MR_E11",
  "SpacingBetweenSlices": 2,
  "StationName": "MRC35049",
  "TaskName": "things",
  "TotalReadoutTime": 0.0576811,
  "TxRefAmp": 275.353,
  "WipMemBlock": "74bf6cbe-52c0-4afa-a5c6-7995f7ea207d||Sequence: R016 ve11c/master r/e634e98; Dec 19 2017 11:00:25 by eja",
  "dcmmeta_affine": [
    [-1.9990545511245728, 0.004186911042779684, 0.061346832662820816, 105.8602294921875],
    [-0.025941025465726852, 1.751672387123108, -0.964868426322937, -52.76451873779297],
    [0.05574968457221985, 0.9652079939842224, 1.750789999961853, -105.03831481933594],
    [0.0, 0.0, 0.0, 1.0]
],
  "dcmmeta_reorient_transform": [
    [0.0, -1.0, 0.0, 103.0],
    [1.0, 0.0, 0.0, 0.0],
    [0.0, 0.0, 1.0, 0.0],
    [0.0, 0.0, 0.0, 1.0]
],
  "dcmmeta_shape": [104, 104, 60, 190],
  "dcmmeta_slice_dim": 2,
  "dcmmeta_version": 0.6,
  "global": {
    "const": {
      "AcquisitionMatrix": [104, 0, 0, 104],
      "AngioFlag": "N",
      "BitsAllocated": 16,
      "BitsStored": 16,
      "BodyPartExamined": "BRAIN",
      "Columns": 832,
      "EchoNumbers": 1,
      "EchoTime": 37.0,
      "EchoTrainLength": 104,
      "FlipAngle": 52.0,
      "HighBit": 15,
      "ImageOrientationPatient": [0.99952726774786, 0.01297051318762, 0.02787484199323, 0.00209345563716, 0.87583616461022, -0.4826040097268],
      "ImagePositionPatient": [-835.47136952205, -774.70899201789, 325.42094837707],
      "ImageType": [
        "ORIGINAL",
        "PRIMARY",
        "P",
        "MB",
        "ND",
        "MOSAIC"
],
      "ImagedNucleus": "1H",
      "ImagingFrequency": 123.258956,
      "InPlanePhaseEncodingDirection": "COL",
      "LargestImagePixelValue": 4095,
      "MRAcquisitionType": "2D",
      "MagneticFieldStrength": 3.0,
      "Manufacturer": "SIEMENS",
      "ManufacturerModelName": "Prisma_fit",
      "Modality": "MR",
      "NumberOfAverages": 1.0,
      "NumberOfPhaseEncodingSteps": 104,
      "PercentPhaseFieldOfView": 100.0,
      "PercentSampling": 100.0,
      "PerformedProcedureStepStartTime": "100714.179000",
      "PhotometricInterpretation": "MONOCHROME2",
      "PixelBandwidth": 2290.0,
      "PixelRepresentation": 0,
      "PixelSpacing": [2.0, 2.0],
      "ProtocolName": "func_task-things_run-6",
      "RepetitionTime": 1490.0,
      "RescaleIntercept": -4096.0,
      "RescaleSlope": 2.0,
      "RescaleType": "US",
      "Rows": 832,
      "SAR": 0.05013150024391,
      "SamplesPerPixel": 1,
      "ScanOptions": "FS",
      "ScanningSequence": "EP",
      "SequenceName": "epfid2d1_104",
      "SequenceVariant": [
        "SK",
        "SS"
],
      "SeriesDescription": "func_task-things_run-6",
      "SeriesNumber": 26,
      "SeriesTime": "112849.241000",
      "SliceLocation": -63.247505545223,
      "SliceThickness": 2.0,
      "SmallestImagePixelValue": 0,
      "SoftwareVersions": "syngo MR E11",
      "SpacingBetweenSlices": 2.0000000158041,
      "SpecificCharacterSet": "ISO_IR 100",
      "StudyID": "1",
      "StudyTime": "100714.120000",
      "TransmitCoilName": "Body",
      "VariableFlipAngleFlag": "N",
      "WindowCenterWidthExplanation": "Algo1",
      "dBdt": 0.0},
    "slices": {}
  },
  "time": {
    "samples": {
      "AcquisitionNumber": [1, 2, 3, 4, 5, 6, 7, 8, 9, 10, 11, 12, 13, 14, 15, 16, 17, 18, 19, 20, 21, 22, 23, 24, 25, 26, 27, 28, 29, 30, 31, 32, 33, 34, 35, 36, 37, 38, 39, 40, 41, 42, 43, 44, 45, 46, 47, 48, 49, 50, 51, 52, 53, 54, 55, 56, 57, 58, 59, 60, 61, 62, 63, 64, 65, 66, 67, 68, 69, 70, 71, 72, 73, 74, 75, 76, 77, 78, 79, 80, 81, 82, 83, 84, 85, 86, 87, 88, 89, 90, 91, 92, 93, 94, 95, 96, 97, 98, 99, 100, 101, 102, 103, 104, 105, 106, 107, 108, 109, 110, 111, 112, 113, 114, 115, 116, 117, 118, 119, 120, 121, 122, 123, 124, 125, 126, 127, 128, 129, 130, 131, 132, 133, 134, 135, 136, 137, 138, 139, 140, 141, 142, 143, 144, 145, 146, 147, 148, 149, 150, 151, 152, 153, 154, 155, 156, 157, 158, 159, 160, 161, 162, 163, 164, 165, 166, 167, 168, 169, 170, 171, 172, 173, 174, 175, 176, 177, 178, 179, 180, 181, 182, 183, 184, 185, 186, 187, 188, 189, 190],
      "AcquisitionTime": ["112723.022500", "112724.512500", "112726.002500", "112727.492500", "112728.982500", "112730.472500", "112731.962500", "112733.452500", "112734.942500", "112736.432500", "112737.922500", "112739.412500", "112740.902500", "112742.392500", "112743.882500", "112745.372500", "112746.862500", "112748.352500", "112749.842500", "112751.332500", "112752.822500", "112754.312500", "112755.802500", "112757.292500", "112758.782500", "112800.272500", "112801.762500", "112803.252500", "112804.742500", "112806.232500", "112807.722500", "112809.212500", "112810.702500", "112812.192500", "112813.682500", "112815.172500", "112816.662500", "112818.152500", "112819.642500", "112821.132500", "112822.622500", "112824.112500", "112825.602500", "112827.092500", "112828.582500", "112830.072500", "112831.562500", "112833.052500", "112834.542500", "112836.032500", "112837.522500", "112839.012500", "112840.502500", "112841.992500", "112843.482500", "112844.972500", "112846.462500", "112847.952500", "112849.442500", "112850.932500", "112852.422500", "112853.912500", "112855.402500", "112856.892500", "112858.382500", "112859.872500", "112901.362500", "112902.852500", "112904.342500", "112905.832500", "112907.322500", "112908.812500", "112910.302500", "112911.792500", "112913.282500", "112914.772500", "112916.262500", "112917.752500", "112919.242500", "112920.732500", "112922.222500", "112923.712500", "112925.202500", "112926.692500", "112928.182500", "112929.672500", "112931.162500", "112932.652500", "112934.142500", "112935.632500", "112937.122500", "112938.612500", "112940.102500", "112941.592500", "112943.082500", "112944.572500", "112946.062500", "112947.552500", "112949.042500", "112950.532500", "112952.022500", "112953.512500", "112955.002500", "112956.492500", "112957.982500", "112959.472500", "113000.962500", "113002.452500", "113003.942500", "113005.432500", "113006.922500", "113008.412500", "113009.902500", "113011.392500", "113012.882500", "113014.372500", "113015.862500", "113017.352500", "113018.842500", "113020.332500", "113021.822500", "113023.312500", "113024.802500", "113026.292500", "113027.782500", "113029.272500", "113030.762500", "113032.252500", "113033.742500", "113035.232500", "113036.722500", "113038.212500", "113039.702500", "113041.192500", "113042.682500", "113044.172500", "113045.662500", "113047.152500", "113048.642500", "113050.132500", "113051.622500", "113053.112500", "113054.602500", "113056.092500", "113057.582500", "113059.072500", "113100.562500", "113102.052500", "113103.542500", "113105.032500", "113106.522500", "113108.012500", "113109.502500", "113110.992500", "113112.482500", "113113.972500", "113115.462500", "113116.952500", "113118.442500", "113119.932500", "113121.422500", "113122.912500", "113124.402500", "113125.892500", "113127.382500", "113128.872500", "113130.362500", "113131.852500", "113133.342500", "113134.832500", "113136.322500", "113137.812500", "113139.302500", "113140.792500", "113142.282500", "113143.772500", "113145.262500", "113146.752500", "113148.242500", "113149.732500", "113151.222500", "113152.712500", "113154.202500", "113155.692500", "113157.182500", "113158.672500", "113200.162500", "113201.652500", "113203.142500", "113204.632500"],
      "ContentTime": ["112849.243000", "112849.246000", "112849.248000", "112849.251000", "112849.253000", "112849.256000", "112849.271000", "112849.273000", "112849.276000", "112849.278000", "112849.280000", "112849.283000", "112849.286000", "112849.288000", "112849.291000", "112849.293000", "112849.295000", "112849.298000", "112849.300000", "112849.303000", "112849.305000", "112849.308000", "112849.310000", "112849.313000", "112849.315000", "112849.318000", "112849.320000", "112849.323000", "112849.325000", "112849.328000", "112849.330000", "112849.333000", "112909.143000", "112909.146000", "112909.149000", "112909.151000", "112909.154000", "112909.156000", "112909.159000", "112909.161000", "112909.163000", "112909.166000", "112909.169000", "112909.171000", "112909.174000", "112909.176000", "112909.179000", "112909.181000", "112909.184000", "112909.186000", "112909.189000", "112909.191000", "112929.159000", "112929.162000", "112929.164000", "112929.167000", "112929.169000", "112929.172000", "112929.174000", "112929.177000", "112929.179000", "112929.182000", "112929.184000", "112929.187000", "112929.189000", "112929.192000", "112929.194000", "112929.197000", "112929.199000", "112929.202000", "112929.204000", "112929.207000", "112949.146000", "112949.149000", "112949.151000", "112949.154000", "112949.156000", "112949.159000", "112949.161000", "112949.164000", "112949.166000", "112949.169000", "112949.171000", "112949.174000", "112949.176000", "112949.179000", "112949.181000", "112949.184000", "112949.186000", "112949.189000", "112949.191000", "112949.194000", "112949.196000", "113029.201000", "113029.204000", "113029.206000", "113029.209000", "113029.211000", "113029.214000", "113029.216000", "113029.219000", "113029.221000", "113029.224000", "113029.226000", "113029.229000", "113029.231000", "113029.234000", "113029.236000", "113029.239000", "113029.241000", "113029.244000", "113029.246000", "113029.249000", "113029.251000", "113029.254000", "113029.256000", "113029.259000", "113029.261000", "113029.264000", "113029.266000", "113029.269000", "113029.271000", "113029.273000", "113029.276000", "113109.168000", "113109.171000", "113109.173000", "113109.176000", "113109.178000", "113109.181000", "113109.183000", "113109.185000", "113109.188000", "113109.190000", "113109.193000", "113109.195000", "113109.198000", "113109.200000", "113109.203000", "113109.205000", "113109.208000", "113109.210000", "113109.213000", "113109.215000", "113109.218000", "113109.220000", "113109.223000", "113109.225000", "113109.228000", "113109.231000", "113109.233000", "113149.200000", "113149.203000", "113149.205000", "113149.208000", "113149.210000", "113149.213000", "113149.216000", "113149.219000", "113149.221000", "113149.224000", "113149.226000", "113149.229000", "113149.231000", "113149.234000", "113149.236000", "113149.239000", "113149.241000", "113149.244000", "113149.246000", "113149.249000", "113149.251000", "113149.254000", "113149.256000", "113149.259000", "113149.261000", "113149.264000", "113149.266000", "113206.916000", "113206.919000", "113206.921000", "113206.924000", "113206.927000", "113206.929000", "113206.932000", "113206.934000", "113206.937000", "113206.939000", "113206.942000", "113206.944000"],
      "InstanceCreationTime": ["112849.243000", "112849.246000", "112849.248000", "112849.251000", "112849.253000", "112849.256000", "112849.271000", "112849.273000", "112849.276000", "112849.278000", "112849.280000", "112849.283000", "112849.286000", "112849.288000", "112849.291000", "112849.293000", "112849.295000", "112849.298000", "112849.300000", "112849.303000", "112849.305000", "112849.308000", "112849.310000", "112849.313000", "112849.315000", "112849.318000", "112849.320000", "112849.323000", "112849.325000", "112849.328000", "112849.330000", "112849.333000", "112909.143000", "112909.146000", "112909.149000", "112909.151000", "112909.154000", "112909.156000", "112909.159000", "112909.161000", "112909.163000", "112909.166000", "112909.169000", "112909.171000", "112909.174000", "112909.176000", "112909.179000", "112909.181000", "112909.184000", "112909.186000", "112909.189000", "112909.191000", "112929.159000", "112929.162000", "112929.164000", "112929.167000", "112929.169000", "112929.172000", "112929.174000", "112929.177000", "112929.179000", "112929.182000", "112929.184000", "112929.187000", "112929.189000", "112929.192000", "112929.194000", "112929.197000", "112929.199000", "112929.202000", "112929.204000", "112929.207000", "112949.146000", "112949.149000", "112949.151000", "112949.154000", "112949.156000", "112949.159000", "112949.161000", "112949.164000", "112949.166000", "112949.169000", "112949.171000", "112949.174000", "112949.176000", "112949.179000", "112949.181000", "112949.184000", "112949.186000", "112949.189000", "112949.191000", "112949.194000", "112949.196000", "113029.201000", "113029.204000", "113029.206000", "113029.209000", "113029.211000", "113029.214000", "113029.216000", "113029.219000", "113029.221000", "113029.224000", "113029.226000", "113029.229000", "113029.231000", "113029.234000", "113029.236000", "113029.239000", "113029.241000", "113029.244000", "113029.246000", "113029.249000", "113029.251000", "113029.254000", "113029.256000", "113029.259000", "113029.261000", "113029.264000", "113029.266000", "113029.269000", "113029.271000", "113029.273000", "113029.276000", "113109.168000", "113109.171000", "113109.173000", "113109.176000", "113109.178000", "113109.181000", "113109.183000", "113109.185000", "113109.188000", "113109.190000", "113109.193000", "113109.195000", "113109.198000", "113109.200000", "113109.203000", "113109.205000", "113109.208000", "113109.210000", "113109.213000", "113109.215000", "113109.218000", "113109.220000", "113109.223000", "113109.225000", "113109.228000", "113109.231000", "113109.233000", "113149.200000", "113149.203000", "113149.205000", "113149.208000", "113149.210000", "113149.213000", "113149.216000", "113149.219000", "113149.221000", "113149.224000", "113149.226000", "113149.229000", "113149.231000", "113149.234000", "113149.236000", "113149.239000", "113149.241000", "113149.244000", "113149.246000", "113149.249000", "113149.251000", "113149.254000", "113149.256000", "113149.259000", "113149.261000", "113149.264000", "113149.266000", "113206.916000", "113206.919000", "113206.921000", "113206.924000", "113206.927000", "113206.929000", "113206.932000", "113206.934000", "113206.937000", "113206.939000", "113206.942000", "113206.944000"],
      "InstanceNumber": [1, 2, 3, 4, 5, 6, 7, 8, 9, 10, 11, 12, 13, 14, 15, 16, 17, 18, 19, 20, 21, 22, 23, 24, 25, 26, 27, 28, 29, 30, 31, 32, 33, 34, 35, 36, 37, 38, 39, 40, 41, 42, 43, 44, 45, 46, 47, 48, 49, 50, 51, 52, 53, 54, 55, 56, 57, 58, 59, 60, 61, 62, 63, 64, 65, 66, 67, 68, 69, 70, 71, 72, 73, 74, 75, 76, 77, 78, 79, 80, 81, 82, 83, 84, 85, 86, 87, 88, 89, 90, 91, 92, 93, 94, 95, 96, 97, 98, 99, 100, 101, 102, 103, 104, 105, 106, 107, 108, 109, 110, 111, 112, 113, 114, 115, 116, 117, 118, 119, 120, 121, 122, 123, 124, 125, 126, 127, 128, 129, 130, 131, 132, 133, 134, 135, 136, 137, 138, 139, 140, 141, 142, 143, 144, 145, 146, 147, 148, 149, 150, 151, 152, 153, 154, 155, 156, 157, 158, 159, 160, 161, 162, 163, 164, 165, 166, 167, 168, 169, 170, 171, 172, 173, 174, 175, 176, 177, 178, 179, 180, 181, 182, 183, 184, 185, 186, 187, 188, 189, 190],
      "WindowCenter": [4956.0, 4934.0, 4934.0, 4936.0, 4934.0, 4954.0, 4974.0, 4982.0, 4974.0, 4968.0, 4956.0, 4930.0, 4910.0, 4982.0, 4974.0, 4956.0, 4936.0, 4940.0, 4936.0, 4978.0, 4984.0, 4994.0, 4974.0, 4958.0, 4936.0, 4936.0, 4934.0, 4936.0, 4978.0, 4978.0, 4982.0, 4978.0, 4958.0, 4936.0, 4960.0, 4996.0, 4994.0, 4958.0, 4934.0, 4908.0, 4908.0, 4960.0, 4974.0, 4974.0, 4978.0, 4954.0, 4956.0, 4970.0, 4974.0, 4956.0, 4936.0, 4934.0, 4908.0, 4936.0, 4990.0, 4972.0, 4972.0, 4960.0, 4910.0, 4938.0, 4960.0, 4960.0, 4958.0, 4960.0, 4958.0, 4958.0, 4954.0, 4958.0, 4974.0, 4966.0, 4970.0, 4980.0, 4908.0, 4880.0, 4886.0, 4910.0, 4938.0, 4974.0, 4964.0, 4968.0, 4968.0, 4956.0, 4958.0, 4974.0, 4980.0, 4934.0, 4906.0, 4910.0, 4978.0, 4970.0, 4978.0, 4958.0, 4956.0, 4960.0, 4978.0, 4988.0, 4990.0, 4958.0, 4908.0, 4878.0, 4934.0, 4936.0, 4936.0, 4974.0, 4938.0, 4928.0, 4964.0, 4936.0, 4880.0, 4828.0, 4882.0, 4910.0, 4976.0, 4964.0, 4964.0, 4962.0, 4956.0, 4936.0, 4908.0, 4908.0, 4910.0, 4976.0, 4930.0, 4962.0, 4976.0, 4912.0, 4880.0, 4856.0, 4882.0, 4936.0, 4972.0, 4926.0, 4930.0, 4960.0, 4960.0, 4908.0, 4880.0, 4938.0, 4980.0, 4976.0, 4960.0, 4958.0, 4960.0, 4958.0, 4954.0, 4974.0, 4972.0, 4990.0, 4962.0, 4884.0, 4854.0, 4908.0, 4960.0, 4956.0, 4974.0, 4976.0, 4976.0, 4976.0, 4974.0, 4996.0, 4962.0, 4886.0, 4856.0, 4860.0, 4960.0, 4960.0, 4976.0, 4974.0, 4966.0, 4970.0, 4980.0, 4976.0, 4934.0, 4908.0, 4906.0, 4962.0, 4980.0, 4962.0, 4936.0, 4934.0, 4954.0, 4954.0, 4964.0, 4970.0, 4974.0, 4960.0, 4958.0, 4978.0, 4978.0, 4936.0],
      "WindowWidth": [18684.0, 18638.0, 18632.0, 18632.0, 18642.0, 18686.0, 18736.0, 18808.0, 18834.0, 18746.0, 18676.0, 18622.0, 18586.0, 18724.0, 18736.0, 18684.0, 18640.0, 18634.0, 18640.0, 18726.0, 18814.0, 18794.0, 18726.0, 18678.0, 18636.0, 18620.0, 18620.0, 18632.0, 18732.0, 18824.0, 18804.0, 18718.0, 18666.0, 18624.0, 18684.0, 18800.0, 18792.0, 18680.0, 18620.0, 18582.0, 18582.0, 18678.0, 18742.0, 18734.0, 18732.0, 18692.0, 18684.0, 18756.0, 18738.0, 18686.0, 18634.0, 18624.0, 18586.0, 18638.0, 18818.0, 18836.0, 18752.0, 18660.0, 18584.0, 18622.0, 18660.0, 18664.0, 18676.0, 18680.0, 18686.0, 18686.0, 18686.0, 18686.0, 18740.0, 18838.0, 18842.0, 18724.0, 18582.0, 18548.0, 18554.0, 18584.0, 18630.0, 18750.0, 18756.0, 18758.0, 18750.0, 18694.0, 18682.0, 18748.0, 18724.0, 18622.0, 18584.0, 18586.0, 18720.0, 18746.0, 18732.0, 18692.0, 18684.0, 18680.0, 18732.0, 18812.0, 18810.0, 18688.0, 18582.0, 18558.0, 18618.0, 18622.0, 18636.0, 18734.0, 18816.0, 18818.0, 18766.0, 18632.0, 18556.0, 18492.0, 18556.0, 18586.0, 18734.0, 18844.0, 18838.0, 18758.0, 18680.0, 18624.0, 18584.0, 18588.0, 18588.0, 18736.0, 18820.0, 18846.0, 18728.0, 18590.0, 18546.0, 18522.0, 18552.0, 18640.0, 18748.0, 18818.0, 18818.0, 18768.0, 18674.0, 18584.0, 18552.0, 18634.0, 18718.0, 18730.0, 18692.0, 18666.0, 18668.0, 18670.0, 18692.0, 18830.0, 18842.0, 18786.0, 18676.0, 18554.0, 18520.0, 18590.0, 18676.0, 18696.0, 18734.0, 18726.0, 18744.0, 18834.0, 18828.0, 18772.0, 18664.0, 18550.0, 18520.0, 18524.0, 18662.0, 18686.0, 18732.0, 18746.0, 18748.0, 18828.0, 18818.0, 18726.0, 18626.0, 18584.0, 18584.0, 18684.0, 18718.0, 18672.0, 18636.0, 18638.0, 18674.0, 18698.0, 18766.0, 18750.0, 18726.0, 18672.0, 18672.0, 18734.0, 18728.0, 18632.0]
    },
    "slices": {}
  }
}