{
  "AcquisitionMatrixPE": 104,
  "AcquisitionNumber": 1,
  "AcquisitionTime": "10:56:18.382500",
  "BandwidthPerPixelPhaseEncode": 17.17,
  "BaseResolution": 104,
  "BodyPartExamined": "BRAIN",
  "CoilString": "HC1-7;NC1_2",
  "ConsistencyInfo": "N4_VE11C_LATEST_20160120",
  "ConversionSoftware": "dcm2niix",
  "ConversionSoftwareVersion": "v1.0.20190902",
  "DerivedVendorReportedEchoSpacing": 0.000560011,
  "DeviceSerialNumber": "167006",
  "DwellTime": 2.1e-06,
  "EchoTime": 0.037,
  "EchoTrainLength": 104,
  "EffectiveEchoSpacing": 0.000560011,
  "FlipAngle": 52,
  "ImageComments": "Unaliased_MB4_PE3_LB",
  "ImageOrientationPatientDICOM": [0.999527, 0.0129705, 0.0278748, 0.00209346, 0.875836, -0.482604],
  "ImageType": [
    "ORIGINAL",
    "PRIMARY",
    "P",
    "MB",
    "ND",
    "MOSAIC"
],
  "ImagingFrequency": 123.259,
  "InPlanePhaseEncodingDirectionDICOM": "COL",
  "InstitutionAddress": "Chemin_Queen-Mary_4565_Montreal_District_CA_H3W_1W5",
  "InstitutionName": "IUGM",
  "InstitutionalDepartmentName": "Department",
  "MRAcquisitionType": "2D",
  "MagneticFieldStrength": 3,
  "Manufacturer": "Siemens",
  "ManufacturersModelName": "Prisma_fit",
  "Modality": "MR",
  "MultibandAccelerationFactor": 4,
  "PartialFourier": 1,
  "PatientPosition": "HFS",
  "PercentPhaseFOV": 100,
  "PhaseEncodingDirection": "j",
  "PhaseEncodingSteps": 104,
  "PhaseResolution": 1,
  "PixelBandwidth": 2290,
  "ProcedureStepDescription": "memory_things",
  "ProtocolName": "func_task-things_run-1",
  "PulseSequenceDetails": "%CustomerSeq%_cmrr_mbep2d_bold",
  "ReceiveCoilActiveElements": "HC1-7;NC1,2",
  "ReceiveCoilName": "HeadNeck_64",
  "ReconMatrixPE": 104,
  "RepetitionTime": 1.49,
  "SAR": 0.0501315,
  "ScanOptions": "FS",
  "ScanningSequence": "EP",
  "SequenceName": "epfid2d1_104",
  "SequenceVariant": "SK_SS",
  "SeriesDescription": "func_task-things_run-1",
  "SeriesNumber": 11,
  "ShimSetting": [612, -7182, -8877, 302, -11, -104, -21, -27],
  "SliceThickness": 2,
  "SliceTiming": [0, 0.7825, 0.0975, 0.8825, 0.195, 0.98, 0.2925, 1.0775, 0.3925, 1.175, 0.49, 1.2725, 0.5875, 1.3725, 0.685, 0, 0.7825, 0.0975, 0.8825, 0.195, 0.98, 0.2925, 1.0775, 0.3925, 1.175, 0.49, 1.2725, 0.5875, 1.3725, 0.685, 0, 0.7825, 0.0975, 0.8825, 0.195, 0.98, 0.2925, 1.0775, 0.3925, 1.175, 0.49, 1.2725, 0.5875, 1.3725, 0.685, 0, 0.7825, 0.0975, 0.8825, 0.195, 0.98, 0.2925, 1.0775, 0.3925, 1.175, 0.49, 1.2725, 0.5875, 1.3725, 0.685],
  "SoftwareVersions": "syngo_MR_E11",
  "SpacingBetweenSlices": 2,
  "StationName": "MRC35049",
  "TaskName": "things",
  "TotalReadoutTime": 0.0576811,
  "TxRefAmp": 275.353,
  "WipMemBlock": "fb1dd786-fe52-4a56-82ad-0128af59aada||Sequence: R016 ve11c/master r/e634e98; Dec 19 2017 11:00:25 by eja",
  "dcmmeta_affine": [
    [-1.9990545511245728, 0.004186911042779684, 0.061346832662820816, 105.8602294921875],
    [-0.025941025465726852, 1.751672387123108, -0.964868426322937, -52.76451873779297],
    [0.05574968457221985, 0.9652079939842224, 1.750789999961853, -105.03831481933594],
    [0.0, 0.0, 0.0, 1.0]
],
  "dcmmeta_reorient_transform": [
    [0.0, -1.0, 0.0, 103.0],
    [1.0, 0.0, 0.0, 0.0],
    [0.0, 0.0, 1.0, 0.0],
    [0.0, 0.0, 0.0, 1.0]
],
  "dcmmeta_shape": [104, 104, 60, 190],
  "dcmmeta_slice_dim": 2,
  "dcmmeta_version": 0.6,
  "global": {
    "const": {
      "AcquisitionMatrix": [104, 0, 0, 104],
      "AngioFlag": "N",
      "BitsAllocated": 16,
      "BitsStored": 16,
      "BodyPartExamined": "BRAIN",
      "Columns": 832,
      "EchoNumbers": 1,
      "EchoTime": 37.0,
      "EchoTrainLength": 104,
      "FlipAngle": 52.0,
      "HighBit": 15,
      "ImageOrientationPatient": [0.99952726774786, 0.01297051318762, 0.02787484199323, 0.00209345563716, 0.87583616461022, -0.4826040097268],
      "ImagePositionPatient": [-835.47136952205, -774.70899201789, 325.42094837707],
      "ImageType": [
        "ORIGINAL",
        "PRIMARY",
        "P",
        "MB",
        "ND",
        "MOSAIC"
],
      "ImagedNucleus": "1H",
      "ImagingFrequency": 123.258936,
      "InPlanePhaseEncodingDirection": "COL",
      "LargestImagePixelValue": 4095,
      "MRAcquisitionType": "2D",
      "MagneticFieldStrength": 3.0,
      "Manufacturer": "SIEMENS",
      "ManufacturerModelName": "Prisma_fit",
      "Modality": "MR",
      "NumberOfAverages": 1.0,
      "NumberOfPhaseEncodingSteps": 104,
      "PercentPhaseFieldOfView": 100.0,
      "PercentSampling": 100.0,
      "PerformedProcedureStepStartTime": "100714.179000",
      "PhotometricInterpretation": "MONOCHROME2",
      "PixelBandwidth": 2290.0,
      "PixelRepresentation": 0,
      "PixelSpacing": [2.0, 2.0],
      "ProtocolName": "func_task-things_run-1",
      "RepetitionTime": 1490.0,
      "RescaleIntercept": -4096.0,
      "RescaleSlope": 2.0,
      "RescaleType": "US",
      "Rows": 832,
      "SAR": 0.05013150024391,
      "SamplesPerPixel": 1,
      "ScanOptions": "FS",
      "ScanningSequence": "EP",
      "SequenceName": "epfid2d1_104",
      "SequenceVariant": [
        "SK",
        "SS"
],
      "SeriesDescription": "func_task-things_run-1",
      "SeriesNumber": 11,
      "SeriesTime": "105727.141000",
      "SliceLocation": -63.247505545223,
      "SliceThickness": 2.0,
      "SmallestImagePixelValue": 0,
      "SoftwareVersions": "syngo MR E11",
      "SpacingBetweenSlices": 2.0000000158041,
      "SpecificCharacterSet": "ISO_IR 100",
      "StudyID": "1",
      "StudyTime": "100714.120000",
      "TransmitCoilName": "Body",
      "VariableFlipAngleFlag": "N",
      "WindowCenterWidthExplanation": "Algo1",
      "dBdt": 0.0},
    "slices": {}
  },
  "time": {
    "samples": {
      "AcquisitionNumber": [1, 2, 3, 4, 5, 6, 7, 8, 9, 10, 11, 12, 13, 14, 15, 16, 17, 18, 19, 20, 21, 22, 23, 24, 25, 26, 27, 28, 29, 30, 31, 32, 33, 34, 35, 36, 37, 38, 39, 40, 41, 42, 43, 44, 45, 46, 47, 48, 49, 50, 51, 52, 53, 54, 55, 56, 57, 58, 59, 60, 61, 62, 63, 64, 65, 66, 67, 68, 69, 70, 71, 72, 73, 74, 75, 76, 77, 78, 79, 80, 81, 82, 83, 84, 85, 86, 87, 88, 89, 90, 91, 92, 93, 94, 95, 96, 97, 98, 99, 100, 101, 102, 103, 104, 105, 106, 107, 108, 109, 110, 111, 112, 113, 114, 115, 116, 117, 118, 119, 120, 121, 122, 123, 124, 125, 126, 127, 128, 129, 130, 131, 132, 133, 134, 135, 136, 137, 138, 139, 140, 141, 142, 143, 144, 145, 146, 147, 148, 149, 150, 151, 152, 153, 154, 155, 156, 157, 158, 159, 160, 161, 162, 163, 164, 165, 166, 167, 168, 169, 170, 171, 172, 173, 174, 175, 176, 177, 178, 179, 180, 181, 182, 183, 184, 185, 186, 187, 188, 189, 190],
      "AcquisitionTime": ["105618.382500", "105619.872500", "105621.362500", "105622.852500", "105624.342500", "105625.832500", "105627.322500", "105628.812500", "105630.302500", "105631.792500", "105633.282500", "105634.772500", "105636.262500", "105637.752500", "105639.242500", "105640.732500", "105642.222500", "105643.712500", "105645.202500", "105646.692500", "105648.182500", "105649.672500", "105651.162500", "105652.652500", "105654.142500", "105655.632500", "105657.122500", "105658.612500", "105700.102500", "105701.592500", "105703.082500", "105704.572500", "105706.062500", "105707.552500", "105709.042500", "105710.532500", "105712.022500", "105713.512500", "105715.002500", "105716.492500", "105717.982500", "105719.472500", "105720.962500", "105722.452500", "105723.942500", "105725.432500", "105726.922500", "105728.412500", "105729.902500", "105731.392500", "105732.882500", "105734.372500", "105735.862500", "105737.352500", "105738.842500", "105740.332500", "105741.822500", "105743.312500", "105744.802500", "105746.292500", "105747.782500", "105749.272500", "105750.762500", "105752.252500", "105753.742500", "105755.232500", "105756.722500", "105758.212500", "105759.702500", "105801.192500", "105802.682500", "105804.172500", "105805.662500", "105807.152500", "105808.642500", "105810.132500", "105811.622500", "105813.112500", "105814.602500", "105816.092500", "105817.582500", "105819.072500", "105820.562500", "105822.052500", "105823.542500", "105825.032500", "105826.522500", "105828.012500", "105829.502500", "105830.992500", "105832.482500", "105833.972500", "105835.462500", "105836.952500", "105838.442500", "105839.932500", "105841.422500", "105842.912500", "105844.402500", "105845.892500", "105847.382500", "105848.872500", "105850.362500", "105851.852500", "105853.342500", "105854.832500", "105856.322500", "105857.812500", "105859.302500", "105900.792500", "105902.282500", "105903.772500", "105905.262500", "105906.752500", "105908.242500", "105909.732500", "105911.222500", "105912.712500", "105914.202500", "105915.692500", "105917.182500", "105918.672500", "105920.162500", "105921.652500", "105923.142500", "105924.632500", "105926.122500", "105927.612500", "105929.102500", "105930.592500", "105932.082500", "105933.572500", "105935.062500", "105936.552500", "105938.042500", "105939.532500", "105941.022500", "105942.512500", "105944.002500", "105945.492500", "105946.982500", "105948.472500", "105949.962500", "105951.452500", "105952.942500", "105954.432500", "105955.922500", "105957.412500", "105958.902500", "110000.392500", "110001.882500", "110003.372500", "110004.862500", "110006.352500", "110007.842500", "110009.332500", "110010.822500", "110012.312500", "110013.802500", "110015.292500", "110016.782500", "110018.272500", "110019.762500", "110021.252500", "110022.742500", "110024.232500", "110025.722500", "110027.212500", "110028.702500", "110030.192500", "110031.682500", "110033.172500", "110034.662500", "110036.152500", "110037.642500", "110039.132500", "110040.622500", "110042.112500", "110043.602500", "110045.092500", "110046.582500", "110048.072500", "110049.562500", "110051.052500", "110052.542500", "110054.032500", "110055.522500", "110057.012500", "110058.502500", "110059.992500"],
      "ContentTime": ["105727.143000", "105727.146000", "105727.159000", "105727.168000", "105727.170000", "105727.173000", "105727.175000", "105727.178000", "105727.180000", "105727.183000", "105727.185000", "105747.147000", "105747.149000", "105747.152000", "105747.154000", "105747.157000", "105747.159000", "105747.162000", "105747.164000", "105747.167000", "105747.169000", "105747.172000", "105747.174000", "105747.177000", "105747.179000", "105747.182000", "105747.184000", "105747.186000", "105747.189000", "105747.191000", "105747.194000", "105807.141000", "105807.144000", "105807.146000", "105807.149000", "105807.151000", "105807.154000", "105807.156000", "105807.159000", "105807.161000", "105807.163000", "105807.166000", "105807.168000", "105807.171000", "105807.173000", "105807.176000", "105807.178000", "105807.181000", "105807.183000", "105807.186000", "105827.197000", "105827.200000", "105827.202000", "105827.204000", "105827.207000", "105827.209000", "105827.212000", "105827.214000", "105827.217000", "105827.219000", "105827.222000", "105827.224000", "105827.226000", "105827.229000", "105827.231000", "105827.234000", "105827.236000", "105827.239000", "105827.241000", "105827.244000", "105827.246000", "105847.162000", "105847.164000", "105847.167000", "105847.169000", "105847.172000", "105847.174000", "105847.177000", "105847.179000", "105847.182000", "105847.184000", "105847.187000", "105847.189000", "105847.192000", "105847.194000", "105847.197000", "105847.199000", "105847.202000", "105847.204000", "105847.207000", "105847.209000", "105907.131000", "105907.134000", "105907.136000", "105907.139000", "105907.141000", "105907.143000", "105907.146000", "105907.148000", "105907.151000", "105907.153000", "105907.156000", "105907.158000", "105907.161000", "105907.163000", "105907.166000", "105907.168000", "105907.171000", "105907.173000", "105907.176000", "105907.178000", "105947.173000", "105947.176000", "105947.178000", "105947.181000", "105947.183000", "105947.186000", "105947.188000", "105947.191000", "105947.193000", "105947.196000", "105947.198000", "105947.201000", "105947.203000", "105947.206000", "105947.208000", "105947.211000", "105947.213000", "105947.216000", "105947.218000", "105947.221000", "105947.223000", "105947.226000", "105947.228000", "105947.231000", "105947.233000", "105947.236000", "105947.238000", "105947.241000", "110027.176000", "110027.179000", "110027.181000", "110027.184000", "110027.186000", "110027.189000", "110027.191000", "110027.194000", "110027.196000", "110027.199000", "110027.201000", "110027.204000", "110027.206000", "110027.209000", "110027.211000", "110027.214000", "110027.216000", "110027.219000", "110027.221000", "110027.224000", "110027.226000", "110027.229000", "110027.231000", "110027.234000", "110027.236000", "110027.239000", "110027.241000", "110102.575000", "110102.578000", "110102.580000", "110102.583000", "110102.586000", "110102.589000", "110102.591000", "110102.594000", "110102.597000", "110102.599000", "110102.602000", "110102.605000", "110102.607000", "110102.610000", "110102.613000", "110102.616000", "110102.619000", "110102.622000", "110102.624000", "110102.627000", "110102.630000", "110102.632000", "110102.635000", "110102.637000"],
      "InstanceCreationTime": ["105727.143000", "105727.146000", "105727.159000", "105727.168000", "105727.170000", "105727.173000", "105727.175000", "105727.178000", "105727.180000", "105727.183000", "105727.185000", "105747.147000", "105747.149000", "105747.152000", "105747.154000", "105747.157000", "105747.159000", "105747.162000", "105747.164000", "105747.167000", "105747.169000", "105747.172000", "105747.174000", "105747.177000", "105747.179000", "105747.182000", "105747.184000", "105747.186000", "105747.189000", "105747.191000", "105747.194000", "105807.141000", "105807.144000", "105807.146000", "105807.149000", "105807.151000", "105807.154000", "105807.156000", "105807.159000", "105807.161000", "105807.163000", "105807.166000", "105807.168000", "105807.171000", "105807.173000", "105807.176000", "105807.178000", "105807.181000", "105807.183000", "105807.186000", "105827.197000", "105827.200000", "105827.202000", "105827.204000", "105827.207000", "105827.209000", "105827.212000", "105827.214000", "105827.217000", "105827.219000", "105827.222000", "105827.224000", "105827.226000", "105827.229000", "105827.231000", "105827.234000", "105827.236000", "105827.239000", "105827.241000", "105827.244000", "105827.246000", "105847.162000", "105847.164000", "105847.167000", "105847.169000", "105847.172000", "105847.174000", "105847.177000", "105847.179000", "105847.182000", "105847.184000", "105847.187000", "105847.189000", "105847.192000", "105847.194000", "105847.197000", "105847.199000", "105847.202000", "105847.204000", "105847.207000", "105847.209000", "105907.131000", "105907.134000", "105907.136000", "105907.139000", "105907.141000", "105907.143000", "105907.146000", "105907.148000", "105907.151000", "105907.153000", "105907.156000", "105907.158000", "105907.161000", "105907.163000", "105907.166000", "105907.168000", "105907.171000", "105907.173000", "105907.176000", "105907.178000", "105947.173000", "105947.176000", "105947.178000", "105947.181000", "105947.183000", "105947.186000", "105947.188000", "105947.191000", "105947.193000", "105947.196000", "105947.198000", "105947.201000", "105947.203000", "105947.206000", "105947.208000", "105947.211000", "105947.213000", "105947.216000", "105947.218000", "105947.221000", "105947.223000", "105947.226000", "105947.228000", "105947.231000", "105947.233000", "105947.236000", "105947.238000", "105947.241000", "110027.176000", "110027.179000", "110027.181000", "110027.184000", "110027.186000", "110027.189000", "110027.191000", "110027.194000", "110027.196000", "110027.199000", "110027.201000", "110027.204000", "110027.206000", "110027.209000", "110027.211000", "110027.214000", "110027.216000", "110027.219000", "110027.221000", "110027.224000", "110027.226000", "110027.229000", "110027.231000", "110027.234000", "110027.236000", "110027.239000", "110027.241000", "110102.575000", "110102.578000", "110102.580000", "110102.583000", "110102.586000", "110102.589000", "110102.591000", "110102.594000", "110102.597000", "110102.599000", "110102.602000", "110102.605000", "110102.607000", "110102.610000", "110102.613000", "110102.616000", "110102.619000", "110102.622000", "110102.624000", "110102.627000", "110102.630000", "110102.632000", "110102.635000", "110102.637000"],
      "InstanceNumber": [1, 2, 3, 4, 5, 6, 7, 8, 9, 10, 11, 12, 13, 14, 15, 16, 17, 18, 19, 20, 21, 22, 23, 24, 25, 26, 27, 28, 29, 30, 31, 32, 33, 34, 35, 36, 37, 38, 39, 40, 41, 42, 43, 44, 45, 46, 47, 48, 49, 50, 51, 52, 53, 54, 55, 56, 57, 58, 59, 60, 61, 62, 63, 64, 65, 66, 67, 68, 69, 70, 71, 72, 73, 74, 75, 76, 77, 78, 79, 80, 81, 82, 83, 84, 85, 86, 87, 88, 89, 90, 91, 92, 93, 94, 95, 96, 97, 98, 99, 100, 101, 102, 103, 104, 105, 106, 107, 108, 109, 110, 111, 112, 113, 114, 115, 116, 117, 118, 119, 120, 121, 122, 123, 124, 125, 126, 127, 128, 129, 130, 131, 132, 133, 134, 135, 136, 137, 138, 139, 140, 141, 142, 143, 144, 145, 146, 147, 148, 149, 150, 151, 152, 153, 154, 155, 156, 157, 158, 159, 160, 161, 162, 163, 164, 165, 166, 167, 168, 169, 170, 171, 172, 173, 174, 175, 176, 177, 178, 179, 180, 181, 182, 183, 184, 185, 186, 187, 188, 189, 190],
      "WindowCenter": [4930.0, 4928.0, 4948.0, 4930.0, 4928.0, 4930.0, 4932.0, 4908.0, 4910.0, 4912.0, 4928.0, 4926.0, 4924.0, 4928.0, 4928.0, 4928.0, 4910.0, 4932.0, 4912.0, 4930.0, 4932.0, 4930.0, 4906.0, 4928.0, 4930.0, 4934.0, 4930.0, 4906.0, 4910.0, 4908.0, 4930.0, 4908.0, 4948.0, 4924.0, 4924.0, 4946.0, 4908.0, 4934.0, 4910.0, 4910.0, 4936.0, 4930.0, 4912.0, 4928.0, 4904.0, 4932.0, 4904.0, 4926.0, 4930.0, 4926.0, 4926.0, 4906.0, 4932.0, 4912.0, 4910.0, 4910.0, 4906.0, 4928.0, 4930.0, 4942.0, 4946.0, 4928.0, 4928.0, 4910.0, 4916.0, 4910.0, 4912.0, 4930.0, 4930.0, 4926.0, 4948.0, 4904.0, 4928.0, 4908.0, 4908.0, 4912.0, 4910.0, 4928.0, 4906.0, 4926.0, 4944.0, 4904.0, 4910.0, 4910.0, 4912.0, 4928.0, 4908.0, 4912.0, 4906.0, 4910.0, 4910.0, 4908.0, 4926.0, 4926.0, 4882.0, 4872.0, 4928.0, 4892.0, 4894.0, 4892.0, 4912.0, 4928.0, 4928.0, 4928.0, 4944.0, 4928.0, 4926.0, 4932.0, 4910.0, 4914.0, 4914.0, 4910.0, 4932.0, 4906.0, 4928.0, 4946.0, 4930.0, 4926.0, 4928.0, 4910.0, 4910.0, 4908.0, 4912.0, 4910.0, 4932.0, 4932.0, 4906.0, 4928.0, 4928.0, 4910.0, 4926.0, 4910.0, 4910.0, 4910.0, 4912.0, 4908.0, 4930.0, 4948.0, 4930.0, 4928.0, 4928.0, 4908.0, 4930.0, 4908.0, 4908.0, 4930.0, 4926.0, 4906.0, 4930.0, 4928.0, 4908.0, 4910.0, 4910.0, 4910.0, 4908.0, 4930.0, 4908.0, 4932.0, 4930.0, 4906.0, 4932.0, 4930.0, 4908.0, 4908.0, 4930.0, 4906.0, 4930.0, 4930.0, 4908.0, 4926.0, 4908.0, 4928.0, 4906.0, 4908.0, 4908.0, 4910.0, 4932.0, 4910.0, 4948.0, 4944.0, 4930.0, 4910.0, 4910.0, 4932.0, 4914.0, 4910.0, 4930.0, 4912.0, 4928.0, 4950.0],
      "WindowWidth": [18726.0, 18754.0, 18786.0, 18720.0, 18750.0, 18722.0, 18722.0, 18682.0, 18684.0, 18684.0, 18726.0, 18740.0, 18750.0, 18758.0, 18740.0, 18726.0, 18682.0, 18728.0, 18676.0, 18728.0, 18722.0, 18726.0, 18688.0, 18734.0, 18724.0, 18732.0, 18748.0, 18684.0, 18670.0, 18664.0, 18728.0, 18692.0, 18786.0, 18736.0, 18760.0, 18802.0, 18694.0, 18728.0, 18682.0, 18656.0, 18728.0, 18712.0, 18678.0, 18728.0, 18676.0, 18732.0, 18688.0, 18762.0, 18734.0, 18748.0, 18738.0, 18682.0, 18726.0, 18670.0, 18680.0, 18676.0, 18682.0, 18720.0, 18728.0, 18816.0, 18796.0, 18726.0, 18748.0, 18680.0, 18668.0, 18678.0, 18662.0, 18732.0, 18728.0, 18740.0, 18792.0, 18694.0, 18732.0, 18686.0, 18668.0, 18670.0, 18676.0, 18744.0, 18696.0, 18756.0, 18796.0, 18700.0, 18678.0, 18686.0, 18668.0, 18734.0, 18690.0, 18672.0, 18674.0, 18682.0, 18682.0, 18688.0, 18746.0, 18730.0, 18746.0, 18764.0, 18738.0, 18614.0, 18612.0, 18612.0, 18684.0, 18754.0, 18758.0, 18760.0, 18804.0, 18742.0, 18762.0, 18722.0, 18676.0, 18666.0, 18658.0, 18668.0, 18728.0, 18684.0, 18736.0, 18792.0, 18734.0, 18746.0, 18746.0, 18680.0, 18686.0, 18684.0, 18662.0, 18690.0, 18728.0, 18722.0, 18680.0, 18738.0, 18732.0, 18692.0, 18746.0, 18686.0, 18690.0, 18672.0, 18684.0, 18668.0, 18742.0, 18796.0, 18732.0, 18732.0, 18738.0, 18670.0, 18722.0, 18692.0, 18670.0, 18728.0, 18730.0, 18680.0, 18754.0, 18750.0, 18692.0, 18672.0, 18686.0, 18668.0, 18694.0, 18736.0, 18688.0, 18728.0, 18728.0, 18674.0, 18738.0, 18724.0, 18688.0, 18672.0, 18722.0, 18676.0, 18728.0, 18732.0, 18690.0, 18746.0, 18688.0, 18728.0, 18690.0, 18678.0, 18678.0, 18680.0, 18726.0, 18680.0, 18798.0, 18810.0, 18738.0, 18668.0, 18654.0, 18718.0, 18676.0, 18668.0, 18730.0, 18682.0, 18740.0, 18804.0]
    },
    "slices": {}
  }
}