{
  "AcquisitionMatrixPE": 104,
  "AcquisitionNumber": 1,
  "AcquisitionTime": "10:56:18.382500",
  "BandwidthPerPixelPhaseEncode": 17.17,
  "BaseResolution": 104,
  "BodyPartExamined": "BRAIN",
  "CoilString": "HC1-7;NC1_2",
  "ConsistencyInfo": "N4_VE11C_LATEST_20160120",
  "ConversionSoftware": "dcm2niix",
  "ConversionSoftwareVersion": "v1.0.20190902",
  "DerivedVendorReportedEchoSpacing": 0.000560011,
  "DeviceSerialNumber": "167006",
  "DwellTime": 2.1e-06,
  "EchoTime": 0.037,
  "EchoTrainLength": 104,
  "EffectiveEchoSpacing": 0.000560011,
  "FlipAngle": 52,
  "ImageComments": "Unaliased_MB4_PE3_LB",
  "ImageOrientationPatientDICOM": [0.999527, 0.0129705, 0.0278748, 0.00209346, 0.875836, -0.482604],
  "ImageType": [
    "ORIGINAL",
    "PRIMARY",
    "M",
    "MB",
    "ND",
    "MOSAIC"
],
  "ImagingFrequency": 123.259,
  "InPlanePhaseEncodingDirectionDICOM": "COL",
  "InstitutionAddress": "Chemin_Queen-Mary_4565_Montreal_District_CA_H3W_1W5",
  "InstitutionName": "IUGM",
  "InstitutionalDepartmentName": "Department",
  "MRAcquisitionType": "2D",
  "MagneticFieldStrength": 3,
  "Manufacturer": "Siemens",
  "ManufacturersModelName": "Prisma_fit",
  "Modality": "MR",
  "MultibandAccelerationFactor": 4,
  "PartialFourier": 1,
  "PatientPosition": "HFS",
  "PercentPhaseFOV": 100,
  "PhaseEncodingDirection": "j",
  "PhaseEncodingSteps": 104,
  "PhaseResolution": 1,
  "PixelBandwidth": 2290,
  "ProcedureStepDescription": "memory_things",
  "ProtocolName": "func_task-things_run-1",
  "PulseSequenceDetails": "%CustomerSeq%_cmrr_mbep2d_bold",
  "ReceiveCoilActiveElements": "HC1-7;NC1,2",
  "ReceiveCoilName": "HeadNeck_64",
  "ReconMatrixPE": 104,
  "RepetitionTime": 1.49,
  "SAR": 0.0501315,
  "ScanOptions": "FS",
  "ScanningSequence": "EP",
  "SequenceName": "epfid2d1_104",
  "SequenceVariant": "SK_SS",
  "SeriesDescription": "func_task-things_run-1",
  "SeriesNumber": 10,
  "ShimSetting": [612, -7182, -8877, 302, -11, -104, -21, -27],
  "SliceThickness": 2,
  "SliceTiming": [0, 0.7825, 0.0975, 0.8825, 0.195, 0.98, 0.2925, 1.0775, 0.3925, 1.175, 0.49, 1.2725, 0.5875, 1.3725, 0.685, 0, 0.7825, 0.0975, 0.8825, 0.195, 0.98, 0.2925, 1.0775, 0.3925, 1.175, 0.49, 1.2725, 0.5875, 1.3725, 0.685, 0, 0.7825, 0.0975, 0.8825, 0.195, 0.98, 0.2925, 1.0775, 0.3925, 1.175, 0.49, 1.2725, 0.5875, 1.3725, 0.685, 0, 0.7825, 0.0975, 0.8825, 0.195, 0.98, 0.2925, 1.0775, 0.3925, 1.175, 0.49, 1.2725, 0.5875, 1.3725, 0.685],
  "SoftwareVersions": "syngo_MR_E11",
  "SpacingBetweenSlices": 2,
  "StationName": "MRC35049",
  "TaskName": "things",
  "TotalReadoutTime": 0.0576811,
  "TxRefAmp": 275.353,
  "WipMemBlock": "fb1dd786-fe52-4a56-82ad-0128af59aada||Sequence: R016 ve11c/master r/e634e98; Dec 19 2017 11:00:25 by eja",
  "dcmmeta_affine": [
    [-1.9990545511245728, 0.004186911042779684, 0.061346832662820816, 105.8602294921875],
    [-0.025941025465726852, 1.751672387123108, -0.964868426322937, -52.76451873779297],
    [0.05574968457221985, 0.9652079939842224, 1.750789999961853, -105.03831481933594],
    [0.0, 0.0, 0.0, 1.0]
],
  "dcmmeta_reorient_transform": [
    [0.0, -1.0, 0.0, 103.0],
    [1.0, 0.0, 0.0, 0.0],
    [0.0, 0.0, 1.0, 0.0],
    [0.0, 0.0, 0.0, 1.0]
],
  "dcmmeta_shape": [104, 104, 60, 190],
  "dcmmeta_slice_dim": 2,
  "dcmmeta_version": 0.6,
  "global": {
    "const": {
      "AcquisitionMatrix": [104, 0, 0, 104],
      "AngioFlag": "N",
      "BitsAllocated": 16,
      "BitsStored": 16,
      "BodyPartExamined": "BRAIN",
      "Columns": 832,
      "EchoNumbers": 1,
      "EchoTime": 37.0,
      "EchoTrainLength": 104,
      "FlipAngle": 52.0,
      "HighBit": 15,
      "ImageOrientationPatient": [0.99952726774786, 0.01297051318762, 0.02787484199323, 0.00209345563716, 0.87583616461022, -0.4826040097268],
      "ImagePositionPatient": [-835.47136952205, -774.70899201789, 325.42094837707],
      "ImageType": [
        "ORIGINAL",
        "PRIMARY",
        "M",
        "MB",
        "ND",
        "MOSAIC"
],
      "ImagedNucleus": "1H",
      "ImagingFrequency": 123.258936,
      "InPlanePhaseEncodingDirection": "COL",
      "MRAcquisitionType": "2D",
      "MagneticFieldStrength": 3.0,
      "Manufacturer": "SIEMENS",
      "ManufacturerModelName": "Prisma_fit",
      "Modality": "MR",
      "NumberOfAverages": 1.0,
      "NumberOfPhaseEncodingSteps": 104,
      "PercentPhaseFieldOfView": 100.0,
      "PercentSampling": 100.0,
      "PerformedProcedureStepStartTime": "100714.179000",
      "PhotometricInterpretation": "MONOCHROME2",
      "PixelBandwidth": 2290.0,
      "PixelRepresentation": 0,
      "PixelSpacing": [2.0, 2.0],
      "ProtocolName": "func_task-things_run-1",
      "RepetitionTime": 1490.0,
      "Rows": 832,
      "SAR": 0.05013150024391,
      "SamplesPerPixel": 1,
      "ScanOptions": "FS",
      "ScanningSequence": "EP",
      "SequenceName": "epfid2d1_104",
      "SequenceVariant": [
        "SK",
        "SS"
],
      "SeriesDescription": "func_task-things_run-1",
      "SeriesNumber": 10,
      "SeriesTime": "105727.066000",
      "SliceLocation": -63.247505545223,
      "SliceThickness": 2.0,
      "SmallestImagePixelValue": 0,
      "SoftwareVersions": "syngo MR E11",
      "SpacingBetweenSlices": 2.0000000158041,
      "SpecificCharacterSet": "ISO_IR 100",
      "StudyID": "1",
      "StudyTime": "100714.120000",
      "TransmitCoilName": "Body",
      "VariableFlipAngleFlag": "N",
      "WindowCenterWidthExplanation": "Algo1",
      "dBdt": 0.0},
    "slices": {}
  },
  "time": {
    "samples": {
      "AcquisitionNumber": [1, 2, 3, 4, 5, 6, 7, 8, 9, 10, 11, 12, 13, 14, 15, 16, 17, 18, 19, 20, 21, 22, 23, 24, 25, 26, 27, 28, 29, 30, 31, 32, 33, 34, 35, 36, 37, 38, 39, 40, 41, 42, 43, 44, 45, 46, 47, 48, 49, 50, 51, 52, 53, 54, 55, 56, 57, 58, 59, 60, 61, 62, 63, 64, 65, 66, 67, 68, 69, 70, 71, 72, 73, 74, 75, 76, 77, 78, 79, 80, 81, 82, 83, 84, 85, 86, 87, 88, 89, 90, 91, 92, 93, 94, 95, 96, 97, 98, 99, 100, 101, 102, 103, 104, 105, 106, 107, 108, 109, 110, 111, 112, 113, 114, 115, 116, 117, 118, 119, 120, 121, 122, 123, 124, 125, 126, 127, 128, 129, 130, 131, 132, 133, 134, 135, 136, 137, 138, 139, 140, 141, 142, 143, 144, 145, 146, 147, 148, 149, 150, 151, 152, 153, 154, 155, 156, 157, 158, 159, 160, 161, 162, 163, 164, 165, 166, 167, 168, 169, 170, 171, 172, 173, 174, 175, 176, 177, 178, 179, 180, 181, 182, 183, 184, 185, 186, 187, 188, 189, 190],
      "AcquisitionTime": ["105618.382500", "105619.872500", "105621.362500", "105622.852500", "105624.342500", "105625.832500", "105627.322500", "105628.812500", "105630.302500", "105631.792500", "105633.282500", "105634.772500", "105636.262500", "105637.752500", "105639.242500", "105640.732500", "105642.222500", "105643.712500", "105645.202500", "105646.692500", "105648.182500", "105649.672500", "105651.162500", "105652.652500", "105654.142500", "105655.632500", "105657.122500", "105658.612500", "105700.102500", "105701.592500", "105703.082500", "105704.572500", "105706.062500", "105707.552500", "105709.042500", "105710.532500", "105712.022500", "105713.512500", "105715.002500", "105716.492500", "105717.982500", "105719.472500", "105720.962500", "105722.452500", "105723.942500", "105725.432500", "105726.922500", "105728.412500", "105729.902500", "105731.392500", "105732.882500", "105734.372500", "105735.862500", "105737.352500", "105738.842500", "105740.332500", "105741.822500", "105743.312500", "105744.802500", "105746.292500", "105747.782500", "105749.272500", "105750.762500", "105752.252500", "105753.742500", "105755.232500", "105756.722500", "105758.212500", "105759.702500", "105801.192500", "105802.682500", "105804.172500", "105805.662500", "105807.152500", "105808.642500", "105810.132500", "105811.622500", "105813.112500", "105814.602500", "105816.092500", "105817.582500", "105819.072500", "105820.562500", "105822.052500", "105823.542500", "105825.032500", "105826.522500", "105828.012500", "105829.502500", "105830.992500", "105832.482500", "105833.972500", "105835.462500", "105836.952500", "105838.442500", "105839.932500", "105841.422500", "105842.912500", "105844.402500", "105845.892500", "105847.382500", "105848.872500", "105850.362500", "105851.852500", "105853.342500", "105854.832500", "105856.322500", "105857.812500", "105859.302500", "105900.792500", "105902.282500", "105903.772500", "105905.262500", "105906.752500", "105908.242500", "105909.732500", "105911.222500", "105912.712500", "105914.202500", "105915.692500", "105917.182500", "105918.672500", "105920.162500", "105921.652500", "105923.142500", "105924.632500", "105926.122500", "105927.612500", "105929.102500", "105930.592500", "105932.082500", "105933.572500", "105935.062500", "105936.552500", "105938.042500", "105939.532500", "105941.022500", "105942.512500", "105944.002500", "105945.492500", "105946.982500", "105948.472500", "105949.962500", "105951.452500", "105952.942500", "105954.432500", "105955.922500", "105957.412500", "105958.902500", "110000.392500", "110001.882500", "110003.372500", "110004.862500", "110006.352500", "110007.842500", "110009.332500", "110010.822500", "110012.312500", "110013.802500", "110015.292500", "110016.782500", "110018.272500", "110019.762500", "110021.252500", "110022.742500", "110024.232500", "110025.722500", "110027.212500", "110028.702500", "110030.192500", "110031.682500", "110033.172500", "110034.662500", "110036.152500", "110037.642500", "110039.132500", "110040.622500", "110042.112500", "110043.602500", "110045.092500", "110046.582500", "110048.072500", "110049.562500", "110051.052500", "110052.542500", "110054.032500", "110055.522500", "110057.012500", "110058.502500", "110059.992500"],
      "ContentTime": ["105727.069000", "105727.073000", "105727.076000", "105727.080000", "105727.083000", "105727.086000", "105727.090000", "105727.093000", "105727.097000", "105727.101000", "105727.105000", "105747.026000", "105747.030000", "105747.033000", "105747.036000", "105747.039000", "105747.043000", "105747.046000", "105747.049000", "105747.054000", "105747.057000", "105747.060000", "105747.064000", "105747.067000", "105747.070000", "105747.074000", "105747.088000", "105747.091000", "105747.094000", "105747.097000", "105747.101000", "105807.028000", "105807.032000", "105807.035000", "105807.039000", "105807.042000", "105807.045000", "105807.049000", "105807.052000", "105807.055000", "105807.058000", "105807.062000", "105807.065000", "105807.068000", "105807.071000", "105807.075000", "105807.089000", "105807.093000", "105807.096000", "105807.099000", "105807.102000", "105827.027000", "105827.031000", "105827.034000", "105827.037000", "105827.040000", "105827.044000", "105827.047000", "105827.050000", "105827.053000", "105827.057000", "105827.060000", "105827.063000", "105827.066000", "105827.070000", "105827.073000", "105827.076000", "105827.080000", "105827.083000", "105827.086000", "105827.089000", "105847.026000", "105847.030000", "105847.033000", "105847.036000", "105847.040000", "105847.043000", "105847.046000", "105847.050000", "105847.053000", "105847.056000", "105847.059000", "105847.063000", "105847.066000", "105847.069000", "105847.073000", "105847.076000", "105847.079000", "105847.083000", "105847.093000", "105847.096000", "105907.026000", "105907.030000", "105907.033000", "105907.036000", "105907.039000", "105907.043000", "105907.046000", "105907.049000", "105907.052000", "105907.056000", "105907.059000", "105907.062000", "105907.066000", "105907.069000", "105907.072000", "105907.076000", "105907.079000", "105907.083000", "105907.086000", "105907.089000", "105947.026000", "105947.030000", "105947.033000", "105947.036000", "105947.039000", "105947.043000", "105947.046000", "105947.049000", "105947.053000", "105947.056000", "105947.059000", "105947.063000", "105947.066000", "105947.069000", "105947.073000", "105947.076000", "105947.079000", "105947.086000", "105947.089000", "105947.092000", "105947.096000", "105947.099000", "105947.102000", "105947.106000", "105947.109000", "105947.112000", "105947.115000", "105947.119000", "110027.027000", "110027.031000", "110027.034000", "110027.049000", "110027.052000", "110027.055000", "110027.059000", "110027.062000", "110027.065000", "110027.069000", "110027.072000", "110027.075000", "110027.078000", "110027.082000", "110027.085000", "110027.088000", "110027.092000", "110027.095000", "110027.098000", "110027.102000", "110027.105000", "110027.108000", "110027.111000", "110027.115000", "110027.118000", "110027.121000", "110027.125000", "110102.434000", "110102.438000", "110102.442000", "110102.445000", "110102.449000", "110102.452000", "110102.455000", "110102.459000", "110102.462000", "110102.465000", "110102.469000", "110102.473000", "110102.476000", "110102.479000", "110102.483000", "110102.486000", "110102.489000", "110102.493000", "110102.496000", "110102.499000", "110102.503000", "110102.506000", "110102.509000", "110102.513000"],
      "InstanceCreationTime": ["105727.069000", "105727.073000", "105727.076000", "105727.080000", "105727.083000", "105727.086000", "105727.090000", "105727.093000", "105727.097000", "105727.101000", "105727.105000", "105747.026000", "105747.030000", "105747.033000", "105747.036000", "105747.039000", "105747.043000", "105747.046000", "105747.049000", "105747.054000", "105747.057000", "105747.060000", "105747.064000", "105747.067000", "105747.070000", "105747.074000", "105747.088000", "105747.091000", "105747.094000", "105747.097000", "105747.101000", "105807.028000", "105807.032000", "105807.035000", "105807.039000", "105807.042000", "105807.045000", "105807.049000", "105807.052000", "105807.055000", "105807.058000", "105807.062000", "105807.065000", "105807.068000", "105807.071000", "105807.075000", "105807.089000", "105807.093000", "105807.096000", "105807.099000", "105807.102000", "105827.027000", "105827.031000", "105827.034000", "105827.037000", "105827.040000", "105827.044000", "105827.047000", "105827.050000", "105827.053000", "105827.057000", "105827.060000", "105827.063000", "105827.066000", "105827.070000", "105827.073000", "105827.076000", "105827.080000", "105827.083000", "105827.086000", "105827.089000", "105847.026000", "105847.030000", "105847.033000", "105847.036000", "105847.040000", "105847.043000", "105847.046000", "105847.050000", "105847.053000", "105847.056000", "105847.059000", "105847.063000", "105847.066000", "105847.069000", "105847.073000", "105847.076000", "105847.079000", "105847.083000", "105847.093000", "105847.096000", "105907.026000", "105907.030000", "105907.033000", "105907.036000", "105907.039000", "105907.043000", "105907.046000", "105907.049000", "105907.052000", "105907.056000", "105907.059000", "105907.062000", "105907.066000", "105907.069000", "105907.072000", "105907.076000", "105907.079000", "105907.083000", "105907.086000", "105907.089000", "105947.026000", "105947.030000", "105947.033000", "105947.036000", "105947.039000", "105947.043000", "105947.046000", "105947.049000", "105947.053000", "105947.056000", "105947.059000", "105947.063000", "105947.066000", "105947.069000", "105947.073000", "105947.076000", "105947.079000", "105947.086000", "105947.089000", "105947.092000", "105947.096000", "105947.099000", "105947.102000", "105947.106000", "105947.109000", "105947.112000", "105947.115000", "105947.119000", "110027.027000", "110027.031000", "110027.034000", "110027.049000", "110027.052000", "110027.055000", "110027.059000", "110027.062000", "110027.065000", "110027.069000", "110027.072000", "110027.075000", "110027.078000", "110027.082000", "110027.085000", "110027.088000", "110027.092000", "110027.095000", "110027.098000", "110027.102000", "110027.105000", "110027.108000", "110027.111000", "110027.115000", "110027.118000", "110027.121000", "110027.125000", "110102.434000", "110102.438000", "110102.442000", "110102.445000", "110102.449000", "110102.452000", "110102.455000", "110102.459000", "110102.462000", "110102.465000", "110102.469000", "110102.473000", "110102.476000", "110102.479000", "110102.483000", "110102.486000", "110102.489000", "110102.493000", "110102.496000", "110102.499000", "110102.503000", "110102.506000", "110102.509000", "110102.513000"],
      "InstanceNumber": [1, 2, 3, 4, 5, 6, 7, 8, 9, 10, 11, 12, 13, 14, 15, 16, 17, 18, 19, 20, 21, 22, 23, 24, 25, 26, 27, 28, 29, 30, 31, 32, 33, 34, 35, 36, 37, 38, 39, 40, 41, 42, 43, 44, 45, 46, 47, 48, 49, 50, 51, 52, 53, 54, 55, 56, 57, 58, 59, 60, 61, 62, 63, 64, 65, 66, 67, 68, 69, 70, 71, 72, 73, 74, 75, 76, 77, 78, 79, 80, 81, 82, 83, 84, 85, 86, 87, 88, 89, 90, 91, 92, 93, 94, 95, 96, 97, 98, 99, 100, 101, 102, 103, 104, 105, 106, 107, 108, 109, 110, 111, 112, 113, 114, 115, 116, 117, 118, 119, 120, 121, 122, 123, 124, 125, 126, 127, 128, 129, 130, 131, 132, 133, 134, 135, 136, 137, 138, 139, 140, 141, 142, 143, 144, 145, 146, 147, 148, 149, 150, 151, 152, 153, 154, 155, 156, 157, 158, 159, 160, 161, 162, 163, 164, 165, 166, 167, 168, 169, 170, 171, 172, 173, 174, 175, 176, 177, 178, 179, 180, 181, 182, 183, 184, 185, 186, 187, 188, 189, 190],
      "LargestImagePixelValue": [51786, 51358, 50330, 48949, 50180, 49077, 50254, 49758, 49357, 49475, 49906, 50021, 50186, 49795, 49405, 50245, 50128, 50088, 49021, 50613, 50110, 50335, 50428, 49921, 50100, 49199, 50047, 49771, 49481, 50515, 49320, 50589, 49955, 50487, 48906, 49959, 49800, 50616, 49551, 49904, 50097, 49411, 49485, 50460, 49367, 50551, 50209, 49728, 49635, 50067, 50124, 49919, 49775, 48906, 49617, 50141, 50306, 50373, 50111, 49914, 50115, 49903, 49992, 49711, 49781, 49961, 49433, 49960, 50217, 49849, 49720, 49767, 49966, 49710, 49890, 49525, 50189, 49309, 49578, 49705, 49825, 49780, 50007, 50194, 49847, 49505, 50189, 50030, 49751, 50016, 49793, 50070, 49969, 49338, 46915, 47612, 48067, 47765, 48585, 49146, 49135, 48807, 49038, 48601, 48839, 48615, 49005, 48208, 48323, 48684, 48834, 48426, 48987, 48620, 48776, 48993, 48693, 48738, 48557, 48163, 48163, 49086, 48174, 48677, 48621, 48779, 48560, 48973, 48498, 48619, 48544, 48266, 47771, 48186, 48027, 48322, 48108, 48531, 48336, 48604, 48438, 47797, 47814, 48581, 47795, 47771, 47957, 48421, 48080, 48177, 47767, 48171, 48125, 48054, 47514, 47873, 48195, 48005, 48091, 47894, 48097, 47713, 48611, 47874, 47926, 48214, 47696, 48278, 49404, 48183, 47989, 47602, 47579, 47679, 48112, 48493, 48648, 48201, 47616, 48845, 48026, 48165, 48651, 47867, 48228, 49356, 48408, 48734, 50016, 48417],
      "WindowCenter": [11470.0, 11417.0, 11383.0, 11345.0, 11340.0, 11320.0, 11329.0, 11333.0, 11341.0, 11353.0, 11357.0, 11352.0, 11354.0, 11363.0, 11345.0, 11349.0, 11347.0, 11352.0, 11342.0, 11354.0, 11350.0, 11345.0, 11343.0, 11324.0, 11287.0, 11297.0, 11328.0, 11377.0, 11367.0, 11355.0, 11362.0, 11368.0, 11362.0, 11335.0, 11295.0, 11323.0, 11359.0, 11375.0, 11365.0, 11349.0, 11343.0, 11331.0, 11319.0, 11320.0, 11305.0, 11321.0, 11327.0, 11319.0, 11308.0, 11308.0, 11303.0, 11297.0, 11298.0, 11306.0, 11313.0, 11330.0, 11332.0, 11334.0, 11330.0, 11334.0, 11335.0, 11327.0, 11318.0, 11314.0, 11317.0, 11327.0, 11327.0, 11335.0, 11323.0, 11291.0, 11309.0, 11341.0, 11328.0, 11339.0, 11332.0, 11328.0, 11325.0, 11317.0, 11330.0, 11314.0, 11343.0, 11327.0, 11324.0, 11316.0, 11315.0, 11337.0, 11349.0, 11315.0, 11311.0, 11298.0, 11322.0, 11318.0, 11310.0, 11314.0, 11287.0, 11295.0, 11349.0, 11336.0, 11317.0, 11354.0, 11377.0, 11383.0, 11353.0, 11318.0, 11303.0, 11259.0, 11276.0, 11303.0, 11309.0, 11314.0, 11305.0, 11292.0, 11302.0, 11294.0, 11298.0, 11306.0, 11308.0, 11308.0, 11316.0, 11319.0, 11319.0, 11336.0, 11334.0, 11334.0, 11342.0, 11343.0, 11358.0, 11366.0, 11354.0, 11338.0, 11325.0, 11310.0, 11305.0, 11294.0, 11311.0, 11323.0, 11344.0, 11386.0, 11353.0, 11354.0, 11321.0, 11312.0, 11308.0, 11332.0, 11334.0, 11310.0, 11326.0, 11307.0, 11308.0, 11301.0, 11300.0, 11274.0, 11281.0, 11269.0, 11263.0, 11313.0, 11313.0, 11300.0, 11312.0, 11297.0, 11291.0, 11304.0, 11308.0, 11293.0, 11278.0, 11294.0, 11311.0, 11345.0, 11332.0, 11330.0, 11316.0, 11284.0, 11274.0, 11276.0, 11328.0, 11360.0, 11365.0, 11343.0, 11327.0, 11333.0, 11318.0, 11306.0, 11298.0, 11293.0, 11311.0, 11315.0, 11304.0, 11308.0, 11320.0, 11330.0],
      "WindowWidth": [24813.0, 24650.0, 24549.0, 24452.0, 24429.0, 24381.0, 24397.0, 24405.0, 24426.0, 24455.0, 24460.0, 24450.0, 24453.0, 24475.0, 24434.0, 24441.0, 24438.0, 24448.0, 24429.0, 24452.0, 24441.0, 24426.0, 24420.0, 24382.0, 24293.0, 24316.0, 24387.0, 24506.0, 24491.0, 24450.0, 24470.0, 24482.0, 24468.0, 24404.0, 24309.0, 24374.0, 24463.0, 24500.0, 24480.0, 24442.0, 24429.0, 24401.0, 24369.0, 24367.0, 24335.0, 24369.0, 24382.0, 24366.0, 24342.0, 24342.0, 24329.0, 24316.0, 24319.0, 24341.0, 24360.0, 24395.0, 24402.0, 24402.0, 24392.0, 24403.0, 24405.0, 24386.0, 24366.0, 24360.0, 24368.0, 24391.0, 24392.0, 24408.0, 24378.0, 24307.0, 24345.0, 24421.0, 24394.0, 24420.0, 24401.0, 24394.0, 24381.0, 24366.0, 24393.0, 24357.0, 24425.0, 24386.0, 24382.0, 24359.0, 24358.0, 24414.0, 24438.0, 24360.0, 24352.0, 24318.0, 24375.0, 24369.0, 24346.0, 24360.0, 24305.0, 24328.0, 24452.0, 24426.0, 24376.0, 24455.0, 24511.0, 24524.0, 24454.0, 24371.0, 24335.0, 24236.0, 24275.0, 24340.0, 24356.0, 24363.0, 24343.0, 24313.0, 24335.0, 24318.0, 24324.0, 24343.0, 24351.0, 24352.0, 24371.0, 24381.0, 24379.0, 24416.0, 24414.0, 24413.0, 24430.0, 24438.0, 24467.0, 24488.0, 24461.0, 24423.0, 24388.0, 24355.0, 24346.0, 24317.0, 24356.0, 24385.0, 24436.0, 24532.0, 24459.0, 24460.0, 24383.0, 24366.0, 24354.0, 24409.0, 24418.0, 24359.0, 24394.0, 24353.0, 24348.0, 24332.0, 24336.0, 24270.0, 24288.0, 24262.0, 24248.0, 24363.0, 24364.0, 24332.0, 24359.0, 24326.0, 24310.0, 24343.0, 24352.0, 24317.0, 24283.0, 24319.0, 24361.0, 24438.0, 24405.0, 24401.0, 24372.0, 24299.0, 24274.0, 24278.0, 24397.0, 24472.0, 24484.0, 24435.0, 24396.0, 24406.0, 24380.0, 24349.0, 24326.0, 24315.0, 24355.0, 24366.0, 24342.0, 24351.0, 24375.0, 24409.0]
    },
    "slices": {}
  }
}