{
  "AcquisitionMatrixPE": 104,
  "AcquisitionNumber": 1,
  "AcquisitionTime": "11:15:6.780000",
  "BandwidthPerPixelPhaseEncode": 17.17,
  "BaseResolution": 104,
  "BodyPartExamined": "BRAIN",
  "CoilString": "HC1-7;NC1_2",
  "ConsistencyInfo": "N4_VE11C_LATEST_20160120",
  "ConversionSoftware": "dcm2niix",
  "ConversionSoftwareVersion": "v1.0.20190902",
  "DerivedVendorReportedEchoSpacing": 0.000560011,
  "DeviceSerialNumber": "167006",
  "DwellTime": 2.1e-06,
  "EchoTime": 0.037,
  "EchoTrainLength": 104,
  "EffectiveEchoSpacing": 0.000560011,
  "FlipAngle": 52,
  "ImageComments": "Unaliased_MB4_PE3_LB",
  "ImageOrientationPatientDICOM": [0.999527, 0.0129705, 0.0278748, 0.00209346, 0.875836, -0.482604],
  "ImageType": [
    "ORIGINAL",
    "PRIMARY",
    "M",
    "MB",
    "ND",
    "MOSAIC"
],
  "ImagingFrequency": 123.259,
  "InPlanePhaseEncodingDirectionDICOM": "COL",
  "InstitutionAddress": "Chemin_Queen-Mary_4565_Montreal_District_CA_H3W_1W5",
  "InstitutionName": "IUGM",
  "InstitutionalDepartmentName": "Department",
  "MRAcquisitionType": "2D",
  "MagneticFieldStrength": 3,
  "Manufacturer": "Siemens",
  "ManufacturersModelName": "Prisma_fit",
  "Modality": "MR",
  "MultibandAccelerationFactor": 4,
  "PartialFourier": 1,
  "PatientPosition": "HFS",
  "PercentPhaseFOV": 100,
  "PhaseEncodingDirection": "j",
  "PhaseEncodingSteps": 104,
  "PhaseResolution": 1,
  "PixelBandwidth": 2290,
  "ProcedureStepDescription": "memory_things",
  "ProtocolName": "func_task-things_run-4",
  "PulseSequenceDetails": "%CustomerSeq%_cmrr_mbep2d_bold",
  "ReceiveCoilActiveElements": "HC1-7;NC1,2",
  "ReceiveCoilName": "HeadNeck_64",
  "ReconMatrixPE": 104,
  "RepetitionTime": 1.49,
  "SAR": 0.0501315,
  "ScanOptions": "FS",
  "ScanningSequence": "EP",
  "SequenceName": "epfid2d1_104",
  "SequenceVariant": "SK_SS",
  "SeriesDescription": "func_task-things_run-4",
  "SeriesNumber": 19,
  "ShimSetting": [612, -7182, -8877, 302, -11, -104, -21, -27],
  "SliceThickness": 2,
  "SliceTiming": [0, 0.785, 0.1, 0.8825, 0.1975, 0.98, 0.295, 1.08, 0.3925, 1.1775, 0.49, 1.275, 0.59, 1.3725, 0.6875, 0, 0.785, 0.1, 0.8825, 0.1975, 0.98, 0.295, 1.08, 0.3925, 1.1775, 0.49, 1.275, 0.59, 1.3725, 0.6875, 0, 0.785, 0.1, 0.8825, 0.1975, 0.98, 0.295, 1.08, 0.3925, 1.1775, 0.49, 1.275, 0.59, 1.3725, 0.6875, 0, 0.785, 0.1, 0.8825, 0.1975, 0.98, 0.295, 1.08, 0.3925, 1.1775, 0.49, 1.275, 0.59, 1.3725, 0.6875],
  "SoftwareVersions": "syngo_MR_E11",
  "SpacingBetweenSlices": 2,
  "StationName": "MRC35049",
  "TaskName": "things",
  "TotalReadoutTime": 0.0576811,
  "TxRefAmp": 275.353,
  "WipMemBlock": "df01bf50-c4f2-4747-a03a-74814e69a16a||Sequence: R016 ve11c/master r/e634e98; Dec 19 2017 11:00:25 by eja",
  "dcmmeta_affine": [
    [-1.9990545511245728, 0.004186911042779684, 0.061346832662820816, 105.8602294921875],
    [-0.025941025465726852, 1.751672387123108, -0.964868426322937, -52.76451873779297],
    [0.05574968457221985, 0.9652079939842224, 1.750789999961853, -105.03831481933594],
    [0.0, 0.0, 0.0, 1.0]
],
  "dcmmeta_reorient_transform": [
    [0.0, -1.0, 0.0, 103.0],
    [1.0, 0.0, 0.0, 0.0],
    [0.0, 0.0, 1.0, 0.0],
    [0.0, 0.0, 0.0, 1.0]
],
  "dcmmeta_shape": [104, 104, 60, 190],
  "dcmmeta_slice_dim": 2,
  "dcmmeta_version": 0.6,
  "global": {
    "const": {
      "AcquisitionMatrix": [104, 0, 0, 104],
      "AngioFlag": "N",
      "BitsAllocated": 16,
      "BitsStored": 16,
      "BodyPartExamined": "BRAIN",
      "Columns": 832,
      "EchoNumbers": 1,
      "EchoTime": 37.0,
      "EchoTrainLength": 104,
      "FlipAngle": 52.0,
      "HighBit": 15,
      "ImageOrientationPatient": [0.99952726774786, 0.01297051318762, 0.02787484199323, 0.00209345563716, 0.87583616461022, -0.4826040097268],
      "ImagePositionPatient": [-835.47136952205, -774.70899201789, 325.42094837707],
      "ImageType": [
        "ORIGINAL",
        "PRIMARY",
        "M",
        "MB",
        "ND",
        "MOSAIC"
],
      "ImagedNucleus": "1H",
      "ImagingFrequency": 123.25895,
      "InPlanePhaseEncodingDirection": "COL",
      "MRAcquisitionType": "2D",
      "MagneticFieldStrength": 3.0,
      "Manufacturer": "SIEMENS",
      "ManufacturerModelName": "Prisma_fit",
      "Modality": "MR",
      "NumberOfAverages": 1.0,
      "NumberOfPhaseEncodingSteps": 104,
      "PercentPhaseFieldOfView": 100.0,
      "PercentSampling": 100.0,
      "PerformedProcedureStepStartTime": "100714.179000",
      "PhotometricInterpretation": "MONOCHROME2",
      "PixelBandwidth": 2290.0,
      "PixelRepresentation": 0,
      "PixelSpacing": [2.0, 2.0],
      "ProtocolName": "func_task-things_run-4",
      "RepetitionTime": 1490.0,
      "Rows": 832,
      "SAR": 0.05013150024391,
      "SamplesPerPixel": 1,
      "ScanOptions": "FS",
      "ScanningSequence": "EP",
      "SequenceName": "epfid2d1_104",
      "SequenceVariant": [
        "SK",
        "SS"
],
      "SeriesDescription": "func_task-things_run-4",
      "SeriesNumber": 19,
      "SeriesTime": "111607.068000",
      "SliceLocation": -63.247505545223,
      "SliceThickness": 2.0,
      "SmallestImagePixelValue": 0,
      "SoftwareVersions": "syngo MR E11",
      "SpacingBetweenSlices": 2.0000000158041,
      "SpecificCharacterSet": "ISO_IR 100",
      "StudyID": "1",
      "StudyTime": "100714.120000",
      "TransmitCoilName": "Body",
      "VariableFlipAngleFlag": "N",
      "WindowCenterWidthExplanation": "Algo1",
      "dBdt": 0.0},
    "slices": {}
  },
  "time": {
    "samples": {
      "AcquisitionNumber": [1, 2, 3, 4, 5, 6, 7, 8, 9, 10, 11, 12, 13, 14, 15, 16, 17, 18, 19, 20, 21, 22, 23, 24, 25, 26, 27, 28, 29, 30, 31, 32, 33, 34, 35, 36, 37, 38, 39, 40, 41, 42, 43, 44, 45, 46, 47, 48, 49, 50, 51, 52, 53, 54, 55, 56, 57, 58, 59, 60, 61, 62, 63, 64, 65, 66, 67, 68, 69, 70, 71, 72, 73, 74, 75, 76, 77, 78, 79, 80, 81, 82, 83, 84, 85, 86, 87, 88, 89, 90, 91, 92, 93, 94, 95, 96, 97, 98, 99, 100, 101, 102, 103, 104, 105, 106, 107, 108, 109, 110, 111, 112, 113, 114, 115, 116, 117, 118, 119, 120, 121, 122, 123, 124, 125, 126, 127, 128, 129, 130, 131, 132, 133, 134, 135, 136, 137, 138, 139, 140, 141, 142, 143, 144, 145, 146, 147, 148, 149, 150, 151, 152, 153, 154, 155, 156, 157, 158, 159, 160, 161, 162, 163, 164, 165, 166, 167, 168, 169, 170, 171, 172, 173, 174, 175, 176, 177, 178, 179, 180, 181, 182, 183, 184, 185, 186, 187, 188, 189, 190],
      "AcquisitionTime": ["111506.780000", "111508.270000", "111509.760000", "111511.250000", "111512.740000", "111514.230000", "111515.720000", "111517.210000", "111518.700000", "111520.190000", "111521.680000", "111523.170000", "111524.660000", "111526.150000", "111527.640000", "111529.130000", "111530.620000", "111532.110000", "111533.600000", "111535.090000", "111536.580000", "111538.070000", "111539.560000", "111541.050000", "111542.540000", "111544.030000", "111545.520000", "111547.010000", "111548.500000", "111549.990000", "111551.480000", "111552.970000", "111554.460000", "111555.950000", "111557.440000", "111558.930000", "111600.420000", "111601.910000", "111603.400000", "111604.890000", "111606.380000", "111607.870000", "111609.360000", "111610.850000", "111612.340000", "111613.830000", "111615.320000", "111616.810000", "111618.300000", "111619.790000", "111621.280000", "111622.770000", "111624.260000", "111625.750000", "111627.240000", "111628.730000", "111630.220000", "111631.710000", "111633.200000", "111634.690000", "111636.180000", "111637.670000", "111639.160000", "111640.650000", "111642.140000", "111643.630000", "111645.120000", "111646.610000", "111648.100000", "111649.590000", "111651.080000", "111652.570000", "111654.060000", "111655.550000", "111657.040000", "111658.530000", "111700.020000", "111701.510000", "111703.000000", "111704.490000", "111705.980000", "111707.470000", "111708.960000", "111710.450000", "111711.940000", "111713.430000", "111714.920000", "111716.410000", "111717.900000", "111719.390000", "111720.880000", "111722.370000", "111723.860000", "111725.350000", "111726.840000", "111728.330000", "111729.820000", "111731.310000", "111732.800000", "111734.290000", "111735.780000", "111737.270000", "111738.760000", "111740.250000", "111741.740000", "111743.230000", "111744.720000", "111746.210000", "111747.700000", "111749.190000", "111750.680000", "111752.170000", "111753.660000", "111755.150000", "111756.640000", "111758.130000", "111759.620000", "111801.110000", "111802.600000", "111804.090000", "111805.580000", "111807.070000", "111808.560000", "111810.050000", "111811.540000", "111813.030000", "111814.520000", "111816.010000", "111817.500000", "111818.990000", "111820.480000", "111821.970000", "111823.460000", "111824.950000", "111826.440000", "111827.930000", "111829.420000", "111830.910000", "111832.400000", "111833.890000", "111835.380000", "111836.870000", "111838.360000", "111839.850000", "111841.340000", "111842.830000", "111844.320000", "111845.810000", "111847.300000", "111848.790000", "111850.280000", "111851.770000", "111853.260000", "111854.750000", "111856.240000", "111857.730000", "111859.220000", "111900.710000", "111902.200000", "111903.690000", "111905.180000", "111906.670000", "111908.160000", "111909.650000", "111911.140000", "111912.630000", "111914.120000", "111915.610000", "111917.100000", "111918.590000", "111920.080000", "111921.570000", "111923.060000", "111924.550000", "111926.040000", "111927.530000", "111929.020000", "111930.510000", "111932.000000", "111933.490000", "111934.980000", "111936.470000", "111937.960000", "111939.450000", "111940.940000", "111942.430000", "111943.920000", "111945.410000", "111946.900000", "111948.390000"],
      "ContentTime": ["111607.071000", "111607.075000", "111607.078000", "111607.081000", "111627.026000", "111627.030000", "111627.033000", "111627.036000", "111627.039000", "111627.043000", "111627.046000", "111627.049000", "111627.052000", "111627.056000", "111627.059000", "111627.063000", "111627.066000", "111627.069000", "111627.072000", "111627.076000", "111627.079000", "111627.082000", "111627.091000", "111627.094000", "111627.097000", "111647.027000", "111647.031000", "111647.034000", "111647.037000", "111647.040000", "111647.043000", "111647.047000", "111647.050000", "111647.053000", "111647.057000", "111647.060000", "111647.063000", "111647.066000", "111647.070000", "111647.085000", "111647.088000", "111647.091000", "111647.094000", "111647.098000", "111647.101000", "111707.028000", "111707.031000", "111707.035000", "111707.038000", "111707.041000", "111707.049000", "111707.052000", "111707.055000", "111707.059000", "111707.062000", "111707.065000", "111707.068000", "111707.072000", "111707.075000", "111707.078000", "111707.081000", "111707.085000", "111707.088000", "111707.091000", "111707.095000", "111727.026000", "111727.030000", "111727.033000", "111727.036000", "111727.040000", "111727.043000", "111727.046000", "111727.049000", "111727.053000", "111727.056000", "111727.059000", "111727.063000", "111727.066000", "111727.069000", "111727.073000", "111727.076000", "111727.079000", "111727.082000", "111727.086000", "111727.089000", "111747.026000", "111747.030000", "111747.033000", "111747.036000", "111747.040000", "111747.043000", "111747.046000", "111747.049000", "111747.053000", "111747.056000", "111747.059000", "111747.063000", "111747.066000", "111747.069000", "111747.073000", "111747.076000", "111747.079000", "111747.083000", "111747.086000", "111747.089000", "111827.026000", "111827.030000", "111827.033000", "111827.036000", "111827.040000", "111827.043000", "111827.046000", "111827.050000", "111827.053000", "111827.056000", "111827.060000", "111827.063000", "111827.066000", "111827.070000", "111827.073000", "111827.076000", "111827.090000", "111827.093000", "111827.096000", "111827.100000", "111827.103000", "111827.106000", "111827.110000", "111827.113000", "111827.116000", "111827.119000", "111827.123000", "111827.126000", "111827.129000", "111907.027000", "111907.040000", "111907.043000", "111907.046000", "111907.050000", "111907.053000", "111907.056000", "111907.060000", "111907.063000", "111907.066000", "111907.070000", "111907.073000", "111907.076000", "111907.079000", "111907.083000", "111907.086000", "111907.089000", "111907.092000", "111907.096000", "111907.099000", "111907.102000", "111907.106000", "111907.109000", "111907.112000", "111907.116000", "111907.119000", "111907.122000", "111947.027000", "111947.031000", "111947.034000", "111947.038000", "111947.042000", "111947.045000", "111947.049000", "111947.052000", "111947.056000", "111947.059000", "111947.062000", "111947.066000", "111947.069000", "111947.072000", "111947.076000", "111947.079000", "111947.082000", "111947.085000", "111947.089000", "111947.092000", "111947.095000", "111947.099000", "111947.102000", "111947.105000", "111947.109000", "111947.112000", "111950.083000", "111950.086000", "111950.090000"],
      "InstanceCreationTime": ["111607.071000", "111607.075000", "111607.078000", "111607.081000", "111627.026000", "111627.030000", "111627.033000", "111627.036000", "111627.039000", "111627.043000", "111627.046000", "111627.049000", "111627.052000", "111627.056000", "111627.059000", "111627.063000", "111627.066000", "111627.069000", "111627.072000", "111627.076000", "111627.079000", "111627.082000", "111627.091000", "111627.094000", "111627.097000", "111647.027000", "111647.031000", "111647.034000", "111647.037000", "111647.040000", "111647.043000", "111647.047000", "111647.050000", "111647.053000", "111647.057000", "111647.060000", "111647.063000", "111647.066000", "111647.070000", "111647.085000", "111647.088000", "111647.091000", "111647.094000", "111647.098000", "111647.101000", "111707.028000", "111707.031000", "111707.035000", "111707.038000", "111707.041000", "111707.049000", "111707.052000", "111707.055000", "111707.059000", "111707.062000", "111707.065000", "111707.068000", "111707.072000", "111707.075000", "111707.078000", "111707.081000", "111707.085000", "111707.088000", "111707.091000", "111707.095000", "111727.026000", "111727.030000", "111727.033000", "111727.036000", "111727.040000", "111727.043000", "111727.046000", "111727.049000", "111727.053000", "111727.056000", "111727.059000", "111727.063000", "111727.066000", "111727.069000", "111727.073000", "111727.076000", "111727.079000", "111727.082000", "111727.086000", "111727.089000", "111747.026000", "111747.030000", "111747.033000", "111747.036000", "111747.040000", "111747.043000", "111747.046000", "111747.049000", "111747.053000", "111747.056000", "111747.059000", "111747.063000", "111747.066000", "111747.069000", "111747.073000", "111747.076000", "111747.079000", "111747.083000", "111747.086000", "111747.089000", "111827.026000", "111827.030000", "111827.033000", "111827.036000", "111827.040000", "111827.043000", "111827.046000", "111827.050000", "111827.053000", "111827.056000", "111827.060000", "111827.063000", "111827.066000", "111827.070000", "111827.073000", "111827.076000", "111827.090000", "111827.093000", "111827.096000", "111827.100000", "111827.103000", "111827.106000", "111827.110000", "111827.113000", "111827.116000", "111827.119000", "111827.123000", "111827.126000", "111827.129000", "111907.027000", "111907.040000", "111907.043000", "111907.046000", "111907.050000", "111907.053000", "111907.056000", "111907.060000", "111907.063000", "111907.066000", "111907.070000", "111907.073000", "111907.076000", "111907.079000", "111907.083000", "111907.086000", "111907.089000", "111907.092000", "111907.096000", "111907.099000", "111907.102000", "111907.106000", "111907.109000", "111907.112000", "111907.116000", "111907.119000", "111907.122000", "111947.027000", "111947.031000", "111947.034000", "111947.038000", "111947.042000", "111947.045000", "111947.049000", "111947.052000", "111947.056000", "111947.059000", "111947.062000", "111947.066000", "111947.069000", "111947.072000", "111947.076000", "111947.079000", "111947.082000", "111947.085000", "111947.089000", "111947.092000", "111947.095000", "111947.099000", "111947.102000", "111947.105000", "111947.109000", "111947.112000", "111950.083000", "111950.086000", "111950.090000"],
      "InstanceNumber": [1, 2, 3, 4, 5, 6, 7, 8, 9, 10, 11, 12, 13, 14, 15, 16, 17, 18, 19, 20, 21, 22, 23, 24, 25, 26, 27, 28, 29, 30, 31, 32, 33, 34, 35, 36, 37, 38, 39, 40, 41, 42, 43, 44, 45, 46, 47, 48, 49, 50, 51, 52, 53, 54, 55, 56, 57, 58, 59, 60, 61, 62, 63, 64, 65, 66, 67, 68, 69, 70, 71, 72, 73, 74, 75, 76, 77, 78, 79, 80, 81, 82, 83, 84, 85, 86, 87, 88, 89, 90, 91, 92, 93, 94, 95, 96, 97, 98, 99, 100, 101, 102, 103, 104, 105, 106, 107, 108, 109, 110, 111, 112, 113, 114, 115, 116, 117, 118, 119, 120, 121, 122, 123, 124, 125, 126, 127, 128, 129, 130, 131, 132, 133, 134, 135, 136, 137, 138, 139, 140, 141, 142, 143, 144, 145, 146, 147, 148, 149, 150, 151, 152, 153, 154, 155, 156, 157, 158, 159, 160, 161, 162, 163, 164, 165, 166, 167, 168, 169, 170, 171, 172, 173, 174, 175, 176, 177, 178, 179, 180, 181, 182, 183, 184, 185, 186, 187, 188, 189, 190],
      "LargestImagePixelValue": [46787, 46677, 47213, 44525, 45367, 44804, 44160, 44409, 45204, 45916, 45936, 45790, 45428, 44501, 43895, 44432, 44123, 45959, 46620, 45751, 45524, 45682, 44858, 44608, 45068, 45933, 46601, 45324, 45131, 44983, 44507, 44244, 44328, 45237, 45370, 45760, 44986, 46030, 46298, 44488, 44479, 45087, 45838, 45778, 45386, 46798, 45197, 46715, 46087, 44536, 46192, 45342, 45639, 45698, 44993, 45629, 45722, 46109, 44884, 45183, 45397, 45395, 45125, 45271, 47245, 46470, 45816, 45330, 45419, 45155, 44976, 45078, 45863, 45410, 45587, 45218, 46768, 45928, 45748, 45042, 46973, 45639, 46501, 47326, 47037, 45328, 45773, 45979, 46888, 47453, 45723, 45221, 45892, 46882, 47808, 46945, 47001, 45983, 45757, 45746, 45856, 47187, 46167, 47554, 46652, 45751, 44745, 45841, 46876, 45783, 46275, 45408, 46127, 45541, 44992, 44804, 45799, 45931, 46294, 46407, 45772, 45378, 46039, 45815, 45745, 45239, 45159, 45248, 45371, 45837, 47263, 46326, 45567, 44513, 46445, 46018, 45134, 45391, 44636, 44247, 44028, 46552, 45886, 44845, 44287, 44859, 48096, 45646, 44378, 44460, 43575, 43093, 46103, 45159, 45682, 45606, 43794, 44019, 44102, 44701, 43941, 43285, 43411, 43554, 43871, 45997, 47555, 45874, 45125, 43122, 43986, 44961, 45019, 45217, 45379, 44599, 46909, 46013, 45015, 43365, 43442, 44784, 45580, 43963, 45178, 44235, 45289, 47087, 47416, 45613],
      "WindowCenter": [11274.0, 11230.0, 11202.0, 11173.0, 11171.0, 11135.0, 11119.0, 11122.0, 11143.0, 11162.0, 11174.0, 11175.0, 11172.0, 11166.0, 11151.0, 11156.0, 11162.0, 11188.0, 11208.0, 11213.0, 11203.0, 11172.0, 11129.0, 11121.0, 11161.0, 11207.0, 11217.0, 11193.0, 11160.0, 11142.0, 11127.0, 11104.0, 11086.0, 11112.0, 11145.0, 11166.0, 11159.0, 11163.0, 11163.0, 11145.0, 11143.0, 11146.0, 11167.0, 11170.0, 11177.0, 11171.0, 11138.0, 11142.0, 11152.0, 11157.0, 11180.0, 11170.0, 11164.0, 11158.0, 11151.0, 11148.0, 11147.0, 11147.0, 11128.0, 11133.0, 11134.0, 11131.0, 11125.0, 11138.0, 11170.0, 11158.0, 11133.0, 11119.0, 11110.0, 11123.0, 11131.0, 11139.0, 11145.0, 11131.0, 11130.0, 11132.0, 11146.0, 11131.0, 11118.0, 11110.0, 11136.0, 11142.0, 11185.0, 11161.0, 11141.0, 11100.0, 11090.0, 11110.0, 11125.0, 11128.0, 11106.0, 11108.0, 11105.0, 11120.0, 11139.0, 11125.0, 11114.0, 11109.0, 11118.0, 11136.0, 11139.0, 11139.0, 11131.0, 11151.0, 11133.0, 11120.0, 11114.0, 11144.0, 11173.0, 11147.0, 11134.0, 11124.0, 11141.0, 11131.0, 11116.0, 11114.0, 11136.0, 11155.0, 11149.0, 11122.0, 11102.0, 11100.0, 11119.0, 11128.0, 11127.0, 11108.0, 11096.0, 11094.0, 11118.0, 11153.0, 11170.0, 11129.0, 11086.0, 11079.0, 11124.0, 11140.0, 11113.0, 11107.0, 11104.0, 11107.0, 11105.0, 11124.0, 11101.0, 11071.0, 11056.0, 11093.0, 11165.0, 11159.0, 11137.0, 11114.0, 11073.0, 11042.0, 11094.0, 11123.0, 11162.0, 11120.0, 11055.0, 11023.0, 11036.0, 11104.0, 11132.0, 11128.0, 11111.0, 11106.0, 11097.0, 11131.0, 11136.0, 11091.0, 11089.0, 11060.0, 11073.0, 11094.0, 11095.0, 11097.0, 11100.0, 11111.0, 11133.0, 11101.0, 11066.0, 11050.0, 11076.0, 11107.0, 11116.0, 11100.0, 11107.0, 11101.0, 11125.0, 11121.0, 11092.0, 11066.0],
      "WindowWidth": [24358.0, 24210.0, 24121.0, 24048.0, 24037.0, 23953.0, 23912.0, 23915.0, 23961.0, 24006.0, 24028.0, 24032.0, 24027.0, 24017.0, 23984.0, 23995.0, 24011.0, 24064.0, 24115.0, 24124.0, 24104.0, 24030.0, 23937.0, 23911.0, 23999.0, 24113.0, 24129.0, 24072.0, 23995.0, 23956.0, 23926.0, 23874.0, 23829.0, 23885.0, 23961.0, 24011.0, 23993.0, 23997.0, 23995.0, 23965.0, 23959.0, 23963.0, 24011.0, 24021.0, 24035.0, 24019.0, 23950.0, 23952.0, 23973.0, 23992.0, 24041.0, 24020.0, 24003.0, 23990.0, 23976.0, 23970.0, 23966.0, 23967.0, 23926.0, 23936.0, 23940.0, 23931.0, 23919.0, 23952.0, 24018.0, 23989.0, 23934.0, 23898.0, 23878.0, 23911.0, 23927.0, 23947.0, 23959.0, 23927.0, 23927.0, 23933.0, 23960.0, 23926.0, 23896.0, 23879.0, 23933.0, 23952.0, 24051.0, 23995.0, 23942.0, 23854.0, 23827.0, 23870.0, 23902.0, 23907.0, 23865.0, 23875.0, 23861.0, 23890.0, 23935.0, 23908.0, 23880.0, 23872.0, 23891.0, 23932.0, 23940.0, 23931.0, 23917.0, 23960.0, 23925.0, 23899.0, 23887.0, 23953.0, 24020.0, 23963.0, 23928.0, 23904.0, 23940.0, 23922.0, 23894.0, 23887.0, 23934.0, 23977.0, 23965.0, 23901.0, 23856.0, 23852.0, 23893.0, 23919.0, 23915.0, 23875.0, 23845.0, 23842.0, 23892.0, 23975.0, 24010.0, 23917.0, 23823.0, 23809.0, 23903.0, 23948.0, 23890.0, 23866.0, 23861.0, 23872.0, 23868.0, 23901.0, 23854.0, 23788.0, 23754.0, 23836.0, 23991.0, 23985.0, 23942.0, 23885.0, 23795.0, 23728.0, 23832.0, 23904.0, 23996.0, 23899.0, 23763.0, 23685.0, 23708.0, 23859.0, 23928.0, 23920.0, 23880.0, 23868.0, 23849.0, 23921.0, 23933.0, 23833.0, 23833.0, 23773.0, 23794.0, 23840.0, 23844.0, 23842.0, 23851.0, 23879.0, 23921.0, 23861.0, 23776.0, 23744.0, 23799.0, 23869.0, 23884.0, 23854.0, 23867.0, 23860.0, 23916.0, 23903.0, 23829.0, 23785.0]
    },
    "slices": {}
  }
}