{
  "AcquisitionMatrixPE": 104,
  "AcquisitionNumber": 1,
  "AcquisitionTime": "17:46:52.142500",
  "BandwidthPerPixelPhaseEncode": 17.17,
  "BaseResolution": 104,
  "BodyPartExamined": "BRAIN",
  "CoilString": "HC1-7;NC1_2",
  "ConsistencyInfo": "N4_VE11C_LATEST_20160120",
  "ConversionSoftware": "dcm2niix",
  "ConversionSoftwareVersion": "v1.0.20190902",
  "DerivedVendorReportedEchoSpacing": 0.000560011,
  "DeviceSerialNumber": "167006",
  "DwellTime": 2.1e-06,
  "EchoTime": 0.037,
  "EchoTrainLength": 104,
  "EffectiveEchoSpacing": 0.000560011,
  "FlipAngle": 52,
  "ImageComments": "Unaliased_MB4_PE3_LB",
  "ImageOrientationPatientDICOM": [0.997842, 0.0525037, 0.0394391, -0.0365891, 0.943271, -0.330003],
  "ImageType": [
    "ORIGINAL",
    "PRIMARY",
    "P",
    "MB",
    "ND",
    "MOSAIC"
],
  "ImagingFrequency": 123.259,
  "InPlanePhaseEncodingDirectionDICOM": "COL",
  "InstitutionAddress": "Chemin_Queen-Mary_4565_Montreal_District_CA_H3W_1W5",
  "InstitutionName": "IUGM",
  "InstitutionalDepartmentName": "Department",
  "MRAcquisitionType": "2D",
  "MagneticFieldStrength": 3,
  "Manufacturer": "Siemens",
  "ManufacturersModelName": "Prisma_fit",
  "Modality": "MR",
  "MultibandAccelerationFactor": 4,
  "PartialFourier": 1,
  "PatientPosition": "HFS",
  "PercentPhaseFOV": 100,
  "PhaseEncodingDirection": "j",
  "PhaseEncodingSteps": 104,
  "PhaseResolution": 1,
  "PixelBandwidth": 2290,
  "ProcedureStepDescription": "memory_things",
  "ProtocolName": "func_task-things_run-4",
  "PulseSequenceDetails": "%CustomerSeq%_cmrr_mbep2d_bold",
  "ReceiveCoilActiveElements": "HC1-7;NC1,2",
  "ReceiveCoilName": "HeadNeck_64",
  "ReconMatrixPE": 104,
  "RepetitionTime": 1.49,
  "SAR": 0.0566362,
  "ScanOptions": "FS",
  "ScanningSequence": "EP",
  "SequenceName": "epfid2d1_104",
  "SequenceVariant": "SK_SS",
  "SeriesDescription": "func_task-things_run-4",
  "SeriesNumber": 20,
  "ShimSetting": [632, -7175, -8792, 671, 84, 74, -28, -16],
  "SliceThickness": 2,
  "SliceTiming": [0, 0.785, 0.0975, 0.8825, 0.195, 0.98, 0.295, 1.0775, 0.3925, 1.175, 0.49, 1.2725, 0.5875, 1.3725, 0.685, 0, 0.785, 0.0975, 0.8825, 0.195, 0.98, 0.295, 1.0775, 0.3925, 1.175, 0.49, 1.2725, 0.5875, 1.3725, 0.685, 0, 0.785, 0.0975, 0.8825, 0.195, 0.98, 0.295, 1.0775, 0.3925, 1.175, 0.49, 1.2725, 0.5875, 1.3725, 0.685, 0, 0.785, 0.0975, 0.8825, 0.195, 0.98, 0.295, 1.0775, 0.3925, 1.175, 0.49, 1.2725, 0.5875, 1.3725, 0.685],
  "SoftwareVersions": "syngo_MR_E11",
  "SpacingBetweenSlices": 2,
  "StationName": "MRC35049",
  "TaskName": "things",
  "TotalReadoutTime": 0.0576811,
  "TxRefAmp": 290.439,
  "WipMemBlock": "aa346f39-a0ed-4784-94fd-4d60f485927d||Sequence: R016 ve11c/master r/e634e98; Dec 19 2017 11:00:25 by eja",
  "dcmmeta_affine": [
    [-1.9956833124160767, -0.07317829877138138, 0.10905627906322479, 108.08109283447266],
    [-0.10500742495059967, 1.8865410089492798, -0.6556952595710754, -55.71520233154297],
    [0.0788782387971878, 0.6600058674812317, 1.8863112926483154, -57.94007873535156],
    [0.0, 0.0, 0.0, 1.0]
],
  "dcmmeta_reorient_transform": [
    [0.0, -1.0, 0.0, 103.0],
    [1.0, 0.0, 0.0, 0.0],
    [0.0, 0.0, 1.0, 0.0],
    [0.0, 0.0, 0.0, 1.0]
],
  "dcmmeta_shape": [104, 104, 60, 190],
  "dcmmeta_slice_dim": 2,
  "dcmmeta_version": 0.6,
  "global": {
    "const": {
      "AcquisitionMatrix": [104, 0, 0, 104],
      "AngioFlag": "N",
      "BitsAllocated": 16,
      "BitsStored": 16,
      "BodyPartExamined": "BRAIN",
      "Columns": 832,
      "EchoNumbers": 1,
      "EchoTime": 37.0,
      "EchoTrainLength": 104,
      "FlipAngle": 52.0,
      "HighBit": 15,
      "ImageOrientationPatient": [0.99784162877792, 0.0525037109893, 0.03943912030183, -0.0365891509705, 0.94327053248117, -0.3300029342051],
      "ImagePositionPatient": [-800.33553403559, -863.52217639629, 221.57098113747],
      "ImageType": [
        "ORIGINAL",
        "PRIMARY",
        "P",
        "MB",
        "ND",
        "MOSAIC"
],
      "ImagedNucleus": "1H",
      "ImagingFrequency": 123.258895,
      "InPlanePhaseEncodingDirection": "COL",
      "LargestImagePixelValue": 4095,
      "MRAcquisitionType": "2D",
      "MagneticFieldStrength": 3.0,
      "Manufacturer": "SIEMENS",
      "ManufacturerModelName": "Prisma_fit",
      "Modality": "MR",
      "NumberOfAverages": 1.0,
      "NumberOfPhaseEncodingSteps": 104,
      "PercentPhaseFieldOfView": 100.0,
      "PercentSampling": 100.0,
      "PerformedProcedureStepStartTime": "170453.829000",
      "PhotometricInterpretation": "MONOCHROME2",
      "PixelBandwidth": 2290.0,
      "PixelRepresentation": 0,
      "PixelSpacing": [2.0, 2.0],
      "ProtocolName": "func_task-things_run-4",
      "RepetitionTime": 1490.0,
      "RescaleIntercept": -4096.0,
      "RescaleSlope": 2.0,
      "RescaleType": "US",
      "Rows": 832,
      "SAR": 0.05663615776613,
      "SamplesPerPixel": 1,
      "ScanOptions": "FS",
      "ScanningSequence": "EP",
      "SequenceName": "epfid2d1_104",
      "SequenceVariant": [
        "SK",
        "SS"
],
      "SeriesDescription": "func_task-things_run-4",
      "SeriesNumber": 20,
      "SeriesTime": "174805.420000",
      "SliceLocation": -30.486957268536,
      "SliceThickness": 2.0,
      "SmallestImagePixelValue": 0,
      "SoftwareVersions": "syngo MR E11",
      "SpacingBetweenSlices": 2.0000000095256,
      "SpecificCharacterSet": "ISO_IR 100",
      "StudyID": "1",
      "StudyTime": "170453.736000",
      "TransmitCoilName": "Body",
      "VariableFlipAngleFlag": "N",
      "WindowCenterWidthExplanation": "Algo1",
      "dBdt": 0.0},
    "slices": {}
  },
  "time": {
    "samples": {
      "AcquisitionNumber": [1, 2, 3, 4, 5, 6, 7, 8, 9, 10, 11, 12, 13, 14, 15, 16, 17, 18, 19, 20, 21, 22, 23, 24, 25, 26, 27, 28, 29, 30, 31, 32, 33, 34, 35, 36, 37, 38, 39, 40, 41, 42, 43, 44, 45, 46, 47, 48, 49, 50, 51, 52, 53, 54, 55, 56, 57, 58, 59, 60, 61, 62, 63, 64, 65, 66, 67, 68, 69, 70, 71, 72, 73, 74, 75, 76, 77, 78, 79, 80, 81, 82, 83, 84, 85, 86, 87, 88, 89, 90, 91, 92, 93, 94, 95, 96, 97, 98, 99, 100, 101, 102, 103, 104, 105, 106, 107, 108, 109, 110, 111, 112, 113, 114, 115, 116, 117, 118, 119, 120, 121, 122, 123, 124, 125, 126, 127, 128, 129, 130, 131, 132, 133, 134, 135, 136, 137, 138, 139, 140, 141, 142, 143, 144, 145, 146, 147, 148, 149, 150, 151, 152, 153, 154, 155, 156, 157, 158, 159, 160, 161, 162, 163, 164, 165, 166, 167, 168, 169, 170, 171, 172, 173, 174, 175, 176, 177, 178, 179, 180, 181, 182, 183, 184, 185, 186, 187, 188, 189, 190],
      "AcquisitionTime": ["174652.142500", "174653.632500", "174655.122500", "174656.612500", "174658.102500", "174659.592500", "174701.082500", "174702.572500", "174704.062500", "174705.552500", "174707.042500", "174708.532500", "174710.022500", "174711.512500", "174713.002500", "174714.492500", "174715.982500", "174717.472500", "174718.962500", "174720.452500", "174721.942500", "174723.432500", "174724.922500", "174726.412500", "174727.902500", "174729.392500", "174730.882500", "174732.372500", "174733.862500", "174735.352500", "174736.842500", "174738.332500", "174739.822500", "174741.312500", "174742.802500", "174744.292500", "174745.782500", "174747.272500", "174748.762500", "174750.252500", "174751.742500", "174753.232500", "174754.722500", "174756.212500", "174757.702500", "174759.192500", "174800.682500", "174802.172500", "174803.662500", "174805.152500", "174806.642500", "174808.132500", "174809.622500", "174811.112500", "174812.602500", "174814.092500", "174815.582500", "174817.072500", "174818.562500", "174820.052500", "174821.542500", "174823.032500", "174824.522500", "174826.012500", "174827.502500", "174828.992500", "174830.482500", "174831.972500", "174833.462500", "174834.952500", "174836.442500", "174837.932500", "174839.422500", "174840.912500", "174842.402500", "174843.892500", "174845.382500", "174846.872500", "174848.362500", "174849.852500", "174851.342500", "174852.832500", "174854.322500", "174855.812500", "174857.302500", "174858.792500", "174900.282500", "174901.772500", "174903.262500", "174904.752500", "174906.242500", "174907.732500", "174909.222500", "174910.712500", "174912.202500", "174913.692500", "174915.182500", "174916.672500", "174918.162500", "174919.652500", "174921.142500", "174922.632500", "174924.122500", "174925.612500", "174927.102500", "174928.592500", "174930.082500", "174931.572500", "174933.062500", "174934.552500", "174936.042500", "174937.532500", "174939.022500", "174940.512500", "174942.002500", "174943.492500", "174944.982500", "174946.472500", "174947.962500", "174949.452500", "174950.942500", "174952.432500", "174953.922500", "174955.412500", "174956.902500", "174958.392500", "174959.882500", "175001.372500", "175002.862500", "175004.352500", "175005.842500", "175007.332500", "175008.822500", "175010.312500", "175011.802500", "175013.292500", "175014.782500", "175016.272500", "175017.762500", "175019.252500", "175020.742500", "175022.232500", "175023.722500", "175025.212500", "175026.702500", "175028.192500", "175029.682500", "175031.172500", "175032.662500", "175034.152500", "175035.642500", "175037.132500", "175038.622500", "175040.112500", "175041.602500", "175043.092500", "175044.582500", "175046.072500", "175047.562500", "175049.052500", "175050.542500", "175052.032500", "175053.522500", "175055.012500", "175056.502500", "175057.992500", "175059.482500", "175100.972500", "175102.462500", "175103.952500", "175105.442500", "175106.932500", "175108.422500", "175109.912500", "175111.402500", "175112.892500", "175114.382500", "175115.872500", "175117.362500", "175118.852500", "175120.342500", "175121.832500", "175123.322500", "175124.812500", "175126.302500", "175127.792500", "175129.282500", "175130.772500", "175132.262500", "175133.752500"],
      "ContentTime": ["174805.422000", "174805.425000", "174805.427000", "174805.430000", "174805.432000", "174805.443000", "174805.445000", "174805.447000", "174805.450000", "174805.452000", "174805.455000", "174805.457000", "174805.460000", "174805.462000", "174805.465000", "174805.468000", "174805.471000", "174805.473000", "174805.476000", "174805.478000", "174825.388000", "174825.391000", "174825.393000", "174825.396000", "174825.398000", "174825.401000", "174825.403000", "174825.405000", "174825.408000", "174825.410000", "174825.413000", "174825.415000", "174825.418000", "174825.420000", "174825.423000", "174825.425000", "174825.428000", "174825.430000", "174825.433000", "174825.435000", "174845.399000", "174845.401000", "174845.404000", "174845.407000", "174845.409000", "174845.412000", "174845.414000", "174845.417000", "174845.419000", "174845.422000", "174845.425000", "174845.427000", "174845.430000", "174845.432000", "174845.435000", "174845.437000", "174845.439000", "174845.442000", "174845.444000", "174845.447000", "174905.387000", "174905.390000", "174905.392000", "174905.395000", "174905.397000", "174905.400000", "174905.402000", "174905.405000", "174905.407000", "174905.409000", "174905.412000", "174905.414000", "174905.417000", "174905.419000", "174905.422000", "174905.424000", "174905.426000", "174905.429000", "174905.431000", "174905.434000", "174905.436000", "174925.374000", "174925.377000", "174925.387000", "174925.390000", "174925.392000", "174925.395000", "174925.397000", "174925.400000", "174925.402000", "174925.405000", "174925.407000", "174925.410000", "174925.412000", "174925.415000", "174925.417000", "174925.419000", "174925.422000", "174925.424000", "174925.427000", "174925.429000", "175005.416000", "175005.419000", "175005.422000", "175005.424000", "175005.427000", "175005.429000", "175005.432000", "175005.434000", "175005.436000", "175005.439000", "175005.441000", "175005.444000", "175005.446000", "175005.449000", "175005.451000", "175005.454000", "175005.456000", "175005.459000", "175005.461000", "175005.464000", "175005.466000", "175005.469000", "175005.471000", "175005.474000", "175005.476000", "175005.478000", "175005.481000", "175005.483000", "175045.789000", "175045.792000", "175045.794000", "175045.797000", "175045.799000", "175045.802000", "175045.804000", "175045.807000", "175045.809000", "175045.812000", "175045.814000", "175045.817000", "175045.819000", "175045.822000", "175045.824000", "175045.827000", "175045.829000", "175045.832000", "175045.834000", "175045.837000", "175045.839000", "175045.842000", "175045.844000", "175045.847000", "175045.849000", "175045.852000", "175045.854000", "175125.404000", "175125.406000", "175125.409000", "175125.411000", "175125.414000", "175125.416000", "175125.419000", "175125.421000", "175125.424000", "175125.426000", "175125.429000", "175125.431000", "175125.434000", "175125.436000", "175125.438000", "175125.441000", "175125.443000", "175125.446000", "175125.448000", "175125.451000", "175125.453000", "175125.456000", "175125.458000", "175125.461000", "175125.463000", "175125.466000", "175135.823000", "175135.826000", "175135.829000", "175135.831000", "175135.834000", "175135.837000", "175135.839000", "175135.842000"],
      "InstanceCreationTime": ["174805.422000", "174805.425000", "174805.427000", "174805.430000", "174805.432000", "174805.443000", "174805.445000", "174805.447000", "174805.450000", "174805.452000", "174805.455000", "174805.457000", "174805.460000", "174805.462000", "174805.465000", "174805.468000", "174805.471000", "174805.473000", "174805.476000", "174805.478000", "174825.388000", "174825.391000", "174825.393000", "174825.396000", "174825.398000", "174825.401000", "174825.403000", "174825.405000", "174825.408000", "174825.410000", "174825.413000", "174825.415000", "174825.418000", "174825.420000", "174825.423000", "174825.425000", "174825.428000", "174825.430000", "174825.433000", "174825.435000", "174845.399000", "174845.401000", "174845.404000", "174845.407000", "174845.409000", "174845.412000", "174845.414000", "174845.417000", "174845.419000", "174845.422000", "174845.425000", "174845.427000", "174845.430000", "174845.432000", "174845.435000", "174845.437000", "174845.439000", "174845.442000", "174845.444000", "174845.447000", "174905.387000", "174905.390000", "174905.392000", "174905.395000", "174905.397000", "174905.400000", "174905.402000", "174905.405000", "174905.407000", "174905.409000", "174905.412000", "174905.414000", "174905.417000", "174905.419000", "174905.422000", "174905.424000", "174905.426000", "174905.429000", "174905.431000", "174905.434000", "174905.436000", "174925.374000", "174925.377000", "174925.387000", "174925.390000", "174925.392000", "174925.395000", "174925.397000", "174925.400000", "174925.402000", "174925.405000", "174925.407000", "174925.410000", "174925.412000", "174925.415000", "174925.417000", "174925.419000", "174925.422000", "174925.424000", "174925.427000", "174925.429000", "175005.416000", "175005.419000", "175005.422000", "175005.424000", "175005.427000", "175005.429000", "175005.432000", "175005.434000", "175005.436000", "175005.439000", "175005.441000", "175005.444000", "175005.446000", "175005.449000", "175005.451000", "175005.454000", "175005.456000", "175005.459000", "175005.461000", "175005.464000", "175005.466000", "175005.469000", "175005.471000", "175005.474000", "175005.476000", "175005.478000", "175005.481000", "175005.483000", "175045.789000", "175045.792000", "175045.794000", "175045.797000", "175045.799000", "175045.802000", "175045.804000", "175045.807000", "175045.809000", "175045.812000", "175045.814000", "175045.817000", "175045.819000", "175045.822000", "175045.824000", "175045.827000", "175045.829000", "175045.832000", "175045.834000", "175045.837000", "175045.839000", "175045.842000", "175045.844000", "175045.847000", "175045.849000", "175045.852000", "175045.854000", "175125.404000", "175125.406000", "175125.409000", "175125.411000", "175125.414000", "175125.416000", "175125.419000", "175125.421000", "175125.424000", "175125.426000", "175125.429000", "175125.431000", "175125.434000", "175125.436000", "175125.438000", "175125.441000", "175125.443000", "175125.446000", "175125.448000", "175125.451000", "175125.453000", "175125.456000", "175125.458000", "175125.461000", "175125.463000", "175125.466000", "175135.823000", "175135.826000", "175135.829000", "175135.831000", "175135.834000", "175135.837000", "175135.839000", "175135.842000"],
      "InstanceNumber": [1, 2, 3, 4, 5, 6, 7, 8, 9, 10, 11, 12, 13, 14, 15, 16, 17, 18, 19, 20, 21, 22, 23, 24, 25, 26, 27, 28, 29, 30, 31, 32, 33, 34, 35, 36, 37, 38, 39, 40, 41, 42, 43, 44, 45, 46, 47, 48, 49, 50, 51, 52, 53, 54, 55, 56, 57, 58, 59, 60, 61, 62, 63, 64, 65, 66, 67, 68, 69, 70, 71, 72, 73, 74, 75, 76, 77, 78, 79, 80, 81, 82, 83, 84, 85, 86, 87, 88, 89, 90, 91, 92, 93, 94, 95, 96, 97, 98, 99, 100, 101, 102, 103, 104, 105, 106, 107, 108, 109, 110, 111, 112, 113, 114, 115, 116, 117, 118, 119, 120, 121, 122, 123, 124, 125, 126, 127, 128, 129, 130, 131, 132, 133, 134, 135, 136, 137, 138, 139, 140, 141, 142, 143, 144, 145, 146, 147, 148, 149, 150, 151, 152, 153, 154, 155, 156, 157, 158, 159, 160, 161, 162, 163, 164, 165, 166, 167, 168, 169, 170, 171, 172, 173, 174, 175, 176, 177, 178, 179, 180, 181, 182, 183, 184, 185, 186, 187, 188, 189, 190],
      "WindowCenter": [4830.0, 4834.0, 4836.0, 4834.0, 4834.0, 4834.0, 4832.0, 4832.0, 4834.0, 4834.0, 4834.0, 4834.0, 4830.0, 4834.0, 4836.0, 4832.0, 4832.0, 4830.0, 4832.0, 4834.0, 4832.0, 4834.0, 4836.0, 4832.0, 4834.0, 4834.0, 4836.0, 4832.0, 4830.0, 4834.0, 4836.0, 4834.0, 4834.0, 4834.0, 4834.0, 4834.0, 4834.0, 4830.0, 4832.0, 4830.0, 4832.0, 4834.0, 4838.0, 4836.0, 4834.0, 4834.0, 4834.0, 4832.0, 4834.0, 4834.0, 4834.0, 4836.0, 4834.0, 4834.0, 4836.0, 4834.0, 4834.0, 4834.0, 4834.0, 4834.0, 4834.0, 4836.0, 4836.0, 4832.0, 4830.0, 4834.0, 4832.0, 4836.0, 4832.0, 4832.0, 4834.0, 4836.0, 4836.0, 4834.0, 4832.0, 4834.0, 4810.0, 4834.0, 4832.0, 4832.0, 4834.0, 4832.0, 4832.0, 4834.0, 4834.0, 4836.0, 4832.0, 4834.0, 4834.0, 4830.0, 4836.0, 4836.0, 4834.0, 4834.0, 4834.0, 4836.0, 4834.0, 4834.0, 4834.0, 4836.0, 4836.0, 4834.0, 4834.0, 4834.0, 4832.0, 4834.0, 4834.0, 4838.0, 4810.0, 4832.0, 4832.0, 4834.0, 4834.0, 4834.0, 4834.0, 4834.0, 4834.0, 4834.0, 4836.0, 4834.0, 4834.0, 4832.0, 4836.0, 4834.0, 4832.0, 4832.0, 4834.0, 4834.0, 4832.0, 4836.0, 4830.0, 4832.0, 4836.0, 4838.0, 4834.0, 4836.0, 4830.0, 4836.0, 4832.0, 4834.0, 4836.0, 4832.0, 4836.0, 4836.0, 4836.0, 4834.0, 4832.0, 4832.0, 4832.0, 4836.0, 4834.0, 4832.0, 4836.0, 4832.0, 4836.0, 4834.0, 4830.0, 4832.0, 4834.0, 4832.0, 4834.0, 4832.0, 4838.0, 4834.0, 4834.0, 4836.0, 4834.0, 4834.0, 4832.0, 4834.0, 4832.0, 4830.0, 4834.0, 4834.0, 4834.0, 4836.0, 4832.0, 4836.0, 4832.0, 4838.0, 4836.0, 4836.0, 4834.0, 4832.0, 4832.0, 4838.0, 4838.0, 4832.0, 4832.0, 4834.0],
      "WindowWidth": [18646.0, 18648.0, 18646.0, 18648.0, 18656.0, 18656.0, 18658.0, 18652.0, 18646.0, 18644.0, 18650.0, 18654.0, 18650.0, 18650.0, 18650.0, 18650.0, 18658.0, 18654.0, 18648.0, 18652.0, 18648.0, 18654.0, 18662.0, 18654.0, 18650.0, 18652.0, 18652.0, 18648.0, 18644.0, 18648.0, 18656.0, 18656.0, 18658.0, 18652.0, 18648.0, 18650.0, 18652.0, 18646.0, 18652.0, 18652.0, 18650.0, 18656.0, 18662.0, 18654.0, 18644.0, 18644.0, 18644.0, 18648.0, 18660.0, 18660.0, 18660.0, 18656.0, 18658.0, 18656.0, 18654.0, 18652.0, 18652.0, 18648.0, 18648.0, 18650.0, 18658.0, 18662.0, 18658.0, 18646.0, 18644.0, 18648.0, 18656.0, 18656.0, 18648.0, 18650.0, 18650.0, 18652.0, 18658.0, 18658.0, 18652.0, 18652.0, 18622.0, 18656.0, 18650.0, 18648.0, 18648.0, 18650.0, 18650.0, 18654.0, 18652.0, 18662.0, 18656.0, 18652.0, 18652.0, 18648.0, 18654.0, 18654.0, 18652.0, 18652.0, 18652.0, 18654.0, 18658.0, 18654.0, 18648.0, 18660.0, 18656.0, 18654.0, 18648.0, 18654.0, 18648.0, 18650.0, 18652.0, 18656.0, 18628.0, 18658.0, 18646.0, 18646.0, 18644.0, 18652.0, 18650.0, 18654.0, 18654.0, 18658.0, 18662.0, 18654.0, 18652.0, 18648.0, 18656.0, 18652.0, 18648.0, 18646.0, 18646.0, 18650.0, 18660.0, 18658.0, 18654.0, 18656.0, 18656.0, 18658.0, 18654.0, 18650.0, 18644.0, 18652.0, 18650.0, 18652.0, 18662.0, 18656.0, 18656.0, 18656.0, 18660.0, 18652.0, 18648.0, 18648.0, 18654.0, 18650.0, 18650.0, 18650.0, 18658.0, 18656.0, 18660.0, 18652.0, 18646.0, 18652.0, 18646.0, 18650.0, 18650.0, 18654.0, 18660.0, 18658.0, 18658.0, 18660.0, 18658.0, 18648.0, 18646.0, 18652.0, 18644.0, 18646.0, 18650.0, 18652.0, 18654.0, 18660.0, 18660.0, 18658.0, 18656.0, 18658.0, 18656.0, 18652.0, 18644.0, 18642.0, 18646.0, 18664.0, 18660.0, 18652.0, 18656.0, 18658.0]
    },
    "slices": {}
  }
}