{
  "AcquisitionMatrixPE": 104,
  "AcquisitionNumber": 1,
  "AcquisitionTime": "17:46:52.142500",
  "BandwidthPerPixelPhaseEncode": 17.17,
  "BaseResolution": 104,
  "BodyPartExamined": "BRAIN",
  "CoilString": "HC1-7;NC1_2",
  "ConsistencyInfo": "N4_VE11C_LATEST_20160120",
  "ConversionSoftware": "dcm2niix",
  "ConversionSoftwareVersion": "v1.0.20190902",
  "DerivedVendorReportedEchoSpacing": 0.000560011,
  "DeviceSerialNumber": "167006",
  "DwellTime": 2.1e-06,
  "EchoTime": 0.037,
  "EchoTrainLength": 104,
  "EffectiveEchoSpacing": 0.000560011,
  "FlipAngle": 52,
  "ImageComments": "Unaliased_MB4_PE3_LB",
  "ImageOrientationPatientDICOM": [0.997842, 0.0525037, 0.0394391, -0.0365891, 0.943271, -0.330003],
  "ImageType": [
    "ORIGINAL",
    "PRIMARY",
    "M",
    "MB",
    "ND",
    "MOSAIC"
],
  "ImagingFrequency": 123.259,
  "InPlanePhaseEncodingDirectionDICOM": "COL",
  "InstitutionAddress": "Chemin_Queen-Mary_4565_Montreal_District_CA_H3W_1W5",
  "InstitutionName": "IUGM",
  "InstitutionalDepartmentName": "Department",
  "MRAcquisitionType": "2D",
  "MagneticFieldStrength": 3,
  "Manufacturer": "Siemens",
  "ManufacturersModelName": "Prisma_fit",
  "Modality": "MR",
  "MultibandAccelerationFactor": 4,
  "PartialFourier": 1,
  "PatientPosition": "HFS",
  "PercentPhaseFOV": 100,
  "PhaseEncodingDirection": "j",
  "PhaseEncodingSteps": 104,
  "PhaseResolution": 1,
  "PixelBandwidth": 2290,
  "ProcedureStepDescription": "memory_things",
  "ProtocolName": "func_task-things_run-4",
  "PulseSequenceDetails": "%CustomerSeq%_cmrr_mbep2d_bold",
  "ReceiveCoilActiveElements": "HC1-7;NC1,2",
  "ReceiveCoilName": "HeadNeck_64",
  "ReconMatrixPE": 104,
  "RepetitionTime": 1.49,
  "SAR": 0.0566362,
  "ScanOptions": "FS",
  "ScanningSequence": "EP",
  "SequenceName": "epfid2d1_104",
  "SequenceVariant": "SK_SS",
  "SeriesDescription": "func_task-things_run-4",
  "SeriesNumber": 19,
  "ShimSetting": [632, -7175, -8792, 671, 84, 74, -28, -16],
  "SliceThickness": 2,
  "SliceTiming": [0, 0.785, 0.0975, 0.8825, 0.195, 0.98, 0.295, 1.0775, 0.3925, 1.175, 0.49, 1.2725, 0.5875, 1.3725, 0.685, 0, 0.785, 0.0975, 0.8825, 0.195, 0.98, 0.295, 1.0775, 0.3925, 1.175, 0.49, 1.2725, 0.5875, 1.3725, 0.685, 0, 0.785, 0.0975, 0.8825, 0.195, 0.98, 0.295, 1.0775, 0.3925, 1.175, 0.49, 1.2725, 0.5875, 1.3725, 0.685, 0, 0.785, 0.0975, 0.8825, 0.195, 0.98, 0.295, 1.0775, 0.3925, 1.175, 0.49, 1.2725, 0.5875, 1.3725, 0.685],
  "SoftwareVersions": "syngo_MR_E11",
  "SpacingBetweenSlices": 2,
  "StationName": "MRC35049",
  "TaskName": "things",
  "TotalReadoutTime": 0.0576811,
  "TxRefAmp": 290.439,
  "WipMemBlock": "aa346f39-a0ed-4784-94fd-4d60f485927d||Sequence: R016 ve11c/master r/e634e98; Dec 19 2017 11:00:25 by eja",
  "dcmmeta_affine": [
    [-1.9956833124160767, -0.07317829877138138, 0.10905627906322479, 108.08109283447266],
    [-0.10500742495059967, 1.8865410089492798, -0.6556952595710754, -55.71520233154297],
    [0.0788782387971878, 0.6600058674812317, 1.8863112926483154, -57.94007873535156],
    [0.0, 0.0, 0.0, 1.0]
],
  "dcmmeta_reorient_transform": [
    [0.0, -1.0, 0.0, 103.0],
    [1.0, 0.0, 0.0, 0.0],
    [0.0, 0.0, 1.0, 0.0],
    [0.0, 0.0, 0.0, 1.0]
],
  "dcmmeta_shape": [104, 104, 60, 190],
  "dcmmeta_slice_dim": 2,
  "dcmmeta_version": 0.6,
  "global": {
    "const": {
      "AcquisitionMatrix": [104, 0, 0, 104],
      "AngioFlag": "N",
      "BitsAllocated": 16,
      "BitsStored": 16,
      "BodyPartExamined": "BRAIN",
      "Columns": 832,
      "EchoNumbers": 1,
      "EchoTime": 37.0,
      "EchoTrainLength": 104,
      "FlipAngle": 52.0,
      "HighBit": 15,
      "ImageOrientationPatient": [0.99784162877792, 0.0525037109893, 0.03943912030183, -0.0365891509705, 0.94327053248117, -0.3300029342051],
      "ImagePositionPatient": [-800.33553403559, -863.52217639629, 221.57098113747],
      "ImageType": [
        "ORIGINAL",
        "PRIMARY",
        "M",
        "MB",
        "ND",
        "MOSAIC"
],
      "ImagedNucleus": "1H",
      "ImagingFrequency": 123.258895,
      "InPlanePhaseEncodingDirection": "COL",
      "MRAcquisitionType": "2D",
      "MagneticFieldStrength": 3.0,
      "Manufacturer": "SIEMENS",
      "ManufacturerModelName": "Prisma_fit",
      "Modality": "MR",
      "NumberOfAverages": 1.0,
      "NumberOfPhaseEncodingSteps": 104,
      "PercentPhaseFieldOfView": 100.0,
      "PercentSampling": 100.0,
      "PerformedProcedureStepStartTime": "170453.829000",
      "PhotometricInterpretation": "MONOCHROME2",
      "PixelBandwidth": 2290.0,
      "PixelRepresentation": 0,
      "PixelSpacing": [2.0, 2.0],
      "ProtocolName": "func_task-things_run-4",
      "RepetitionTime": 1490.0,
      "Rows": 832,
      "SAR": 0.05663615776613,
      "SamplesPerPixel": 1,
      "ScanOptions": "FS",
      "ScanningSequence": "EP",
      "SequenceName": "epfid2d1_104",
      "SequenceVariant": [
        "SK",
        "SS"
],
      "SeriesDescription": "func_task-things_run-4",
      "SeriesNumber": 19,
      "SeriesTime": "174805.301000",
      "SliceLocation": -30.486957268536,
      "SliceThickness": 2.0,
      "SmallestImagePixelValue": 0,
      "SoftwareVersions": "syngo MR E11",
      "SpacingBetweenSlices": 2.0000000095256,
      "SpecificCharacterSet": "ISO_IR 100",
      "StudyID": "1",
      "StudyTime": "170453.736000",
      "TransmitCoilName": "Body",
      "VariableFlipAngleFlag": "N",
      "WindowCenterWidthExplanation": "Algo1",
      "dBdt": 0.0},
    "slices": {}
  },
  "time": {
    "samples": {
      "AcquisitionNumber": [1, 2, 3, 4, 5, 6, 7, 8, 9, 10, 11, 12, 13, 14, 15, 16, 17, 18, 19, 20, 21, 22, 23, 24, 25, 26, 27, 28, 29, 30, 31, 32, 33, 34, 35, 36, 37, 38, 39, 40, 41, 42, 43, 44, 45, 46, 47, 48, 49, 50, 51, 52, 53, 54, 55, 56, 57, 58, 59, 60, 61, 62, 63, 64, 65, 66, 67, 68, 69, 70, 71, 72, 73, 74, 75, 76, 77, 78, 79, 80, 81, 82, 83, 84, 85, 86, 87, 88, 89, 90, 91, 92, 93, 94, 95, 96, 97, 98, 99, 100, 101, 102, 103, 104, 105, 106, 107, 108, 109, 110, 111, 112, 113, 114, 115, 116, 117, 118, 119, 120, 121, 122, 123, 124, 125, 126, 127, 128, 129, 130, 131, 132, 133, 134, 135, 136, 137, 138, 139, 140, 141, 142, 143, 144, 145, 146, 147, 148, 149, 150, 151, 152, 153, 154, 155, 156, 157, 158, 159, 160, 161, 162, 163, 164, 165, 166, 167, 168, 169, 170, 171, 172, 173, 174, 175, 176, 177, 178, 179, 180, 181, 182, 183, 184, 185, 186, 187, 188, 189, 190],
      "AcquisitionTime": ["174652.142500", "174653.632500", "174655.122500", "174656.612500", "174658.102500", "174659.592500", "174701.082500", "174702.572500", "174704.062500", "174705.552500", "174707.042500", "174708.532500", "174710.022500", "174711.512500", "174713.002500", "174714.492500", "174715.982500", "174717.472500", "174718.962500", "174720.452500", "174721.942500", "174723.432500", "174724.922500", "174726.412500", "174727.902500", "174729.392500", "174730.882500", "174732.372500", "174733.862500", "174735.352500", "174736.842500", "174738.332500", "174739.822500", "174741.312500", "174742.802500", "174744.292500", "174745.782500", "174747.272500", "174748.762500", "174750.252500", "174751.742500", "174753.232500", "174754.722500", "174756.212500", "174757.702500", "174759.192500", "174800.682500", "174802.172500", "174803.662500", "174805.152500", "174806.642500", "174808.132500", "174809.622500", "174811.112500", "174812.602500", "174814.092500", "174815.582500", "174817.072500", "174818.562500", "174820.052500", "174821.542500", "174823.032500", "174824.522500", "174826.012500", "174827.502500", "174828.992500", "174830.482500", "174831.972500", "174833.462500", "174834.952500", "174836.442500", "174837.932500", "174839.422500", "174840.912500", "174842.402500", "174843.892500", "174845.382500", "174846.872500", "174848.362500", "174849.852500", "174851.342500", "174852.832500", "174854.322500", "174855.812500", "174857.302500", "174858.792500", "174900.282500", "174901.772500", "174903.262500", "174904.752500", "174906.242500", "174907.732500", "174909.222500", "174910.712500", "174912.202500", "174913.692500", "174915.182500", "174916.672500", "174918.162500", "174919.652500", "174921.142500", "174922.632500", "174924.122500", "174925.612500", "174927.102500", "174928.592500", "174930.082500", "174931.572500", "174933.062500", "174934.552500", "174936.042500", "174937.532500", "174939.022500", "174940.512500", "174942.002500", "174943.492500", "174944.982500", "174946.472500", "174947.962500", "174949.452500", "174950.942500", "174952.432500", "174953.922500", "174955.412500", "174956.902500", "174958.392500", "174959.882500", "175001.372500", "175002.862500", "175004.352500", "175005.842500", "175007.332500", "175008.822500", "175010.312500", "175011.802500", "175013.292500", "175014.782500", "175016.272500", "175017.762500", "175019.252500", "175020.742500", "175022.232500", "175023.722500", "175025.212500", "175026.702500", "175028.192500", "175029.682500", "175031.172500", "175032.662500", "175034.152500", "175035.642500", "175037.132500", "175038.622500", "175040.112500", "175041.602500", "175043.092500", "175044.582500", "175046.072500", "175047.562500", "175049.052500", "175050.542500", "175052.032500", "175053.522500", "175055.012500", "175056.502500", "175057.992500", "175059.482500", "175100.972500", "175102.462500", "175103.952500", "175105.442500", "175106.932500", "175108.422500", "175109.912500", "175111.402500", "175112.892500", "175114.382500", "175115.872500", "175117.362500", "175118.852500", "175120.342500", "175121.832500", "175123.322500", "175124.812500", "175126.302500", "175127.792500", "175129.282500", "175130.772500", "175132.262500", "175133.752500"],
      "ContentTime": ["174805.304000", "174805.308000", "174805.311000", "174805.314000", "174805.323000", "174805.327000", "174805.330000", "174805.333000", "174805.336000", "174805.340000", "174805.343000", "174805.346000", "174805.349000", "174805.352000", "174805.356000", "174805.359000", "174805.362000", "174805.365000", "174805.368000", "174805.372000", "174825.266000", "174825.270000", "174825.273000", "174825.276000", "174825.279000", "174825.283000", "174825.286000", "174825.289000", "174825.292000", "174825.295000", "174825.299000", "174825.311000", "174825.314000", "174825.317000", "174825.320000", "174825.324000", "174825.327000", "174825.330000", "174825.333000", "174825.337000", "174845.266000", "174845.270000", "174845.273000", "174845.276000", "174845.279000", "174845.283000", "174845.286000", "174845.289000", "174845.292000", "174845.295000", "174845.299000", "174845.302000", "174845.305000", "174845.315000", "174845.318000", "174845.322000", "174845.325000", "174845.328000", "174845.331000", "174845.335000", "174905.267000", "174905.271000", "174905.274000", "174905.277000", "174905.280000", "174905.284000", "174905.287000", "174905.290000", "174905.293000", "174905.297000", "174905.300000", "174905.303000", "174905.306000", "174905.310000", "174905.313000", "174905.316000", "174905.319000", "174905.323000", "174905.326000", "174905.329000", "174905.332000", "174925.266000", "174925.270000", "174925.273000", "174925.276000", "174925.279000", "174925.283000", "174925.286000", "174925.289000", "174925.292000", "174925.296000", "174925.299000", "174925.302000", "174925.305000", "174925.309000", "174925.312000", "174925.315000", "174925.318000", "174925.322000", "174925.325000", "174925.328000", "175005.266000", "175005.270000", "175005.273000", "175005.276000", "175005.280000", "175005.283000", "175005.286000", "175005.289000", "175005.293000", "175005.296000", "175005.299000", "175005.302000", "175005.306000", "175005.309000", "175005.312000", "175005.316000", "175005.319000", "175005.322000", "175005.325000", "175005.329000", "175005.332000", "175005.335000", "175005.338000", "175005.342000", "175005.345000", "175005.348000", "175005.351000", "175005.355000", "175045.266000", "175045.270000", "175045.273000", "175045.276000", "175045.280000", "175045.283000", "175045.286000", "175045.289000", "175045.293000", "175045.296000", "175045.299000", "175045.302000", "175045.306000", "175045.309000", "175045.312000", "175045.315000", "175045.318000", "175045.322000", "175045.325000", "175045.328000", "175045.332000", "175045.335000", "175045.338000", "175045.341000", "175045.345000", "175045.348000", "175045.351000", "175125.267000", "175125.271000", "175125.274000", "175125.278000", "175125.281000", "175125.284000", "175125.288000", "175125.291000", "175125.294000", "175125.297000", "175125.301000", "175125.304000", "175125.307000", "175125.310000", "175125.314000", "175125.317000", "175125.320000", "175125.323000", "175125.327000", "175125.330000", "175125.333000", "175125.336000", "175125.340000", "175125.343000", "175125.346000", "175125.349000", "175125.353000", "175135.754000", "175135.758000", "175135.761000", "175135.765000", "175135.768000", "175135.771000", "175135.775000"],
      "InstanceCreationTime": ["174805.304000", "174805.308000", "174805.311000", "174805.314000", "174805.323000", "174805.327000", "174805.330000", "174805.333000", "174805.336000", "174805.340000", "174805.343000", "174805.346000", "174805.349000", "174805.352000", "174805.356000", "174805.359000", "174805.362000", "174805.365000", "174805.368000", "174805.372000", "174825.266000", "174825.270000", "174825.273000", "174825.276000", "174825.279000", "174825.283000", "174825.286000", "174825.289000", "174825.292000", "174825.295000", "174825.299000", "174825.311000", "174825.314000", "174825.317000", "174825.320000", "174825.324000", "174825.327000", "174825.330000", "174825.333000", "174825.337000", "174845.266000", "174845.270000", "174845.273000", "174845.276000", "174845.279000", "174845.283000", "174845.286000", "174845.289000", "174845.292000", "174845.295000", "174845.299000", "174845.302000", "174845.305000", "174845.315000", "174845.318000", "174845.322000", "174845.325000", "174845.328000", "174845.331000", "174845.335000", "174905.267000", "174905.271000", "174905.274000", "174905.277000", "174905.280000", "174905.284000", "174905.287000", "174905.290000", "174905.293000", "174905.297000", "174905.300000", "174905.303000", "174905.306000", "174905.310000", "174905.313000", "174905.316000", "174905.319000", "174905.323000", "174905.326000", "174905.329000", "174905.332000", "174925.266000", "174925.270000", "174925.273000", "174925.276000", "174925.279000", "174925.283000", "174925.286000", "174925.289000", "174925.292000", "174925.296000", "174925.299000", "174925.302000", "174925.305000", "174925.309000", "174925.312000", "174925.315000", "174925.318000", "174925.322000", "174925.325000", "174925.328000", "175005.266000", "175005.270000", "175005.273000", "175005.276000", "175005.280000", "175005.283000", "175005.286000", "175005.289000", "175005.293000", "175005.296000", "175005.299000", "175005.302000", "175005.306000", "175005.309000", "175005.312000", "175005.316000", "175005.319000", "175005.322000", "175005.325000", "175005.329000", "175005.332000", "175005.335000", "175005.338000", "175005.342000", "175005.345000", "175005.348000", "175005.351000", "175005.355000", "175045.266000", "175045.270000", "175045.273000", "175045.276000", "175045.280000", "175045.283000", "175045.286000", "175045.289000", "175045.293000", "175045.296000", "175045.299000", "175045.302000", "175045.306000", "175045.309000", "175045.312000", "175045.315000", "175045.318000", "175045.322000", "175045.325000", "175045.328000", "175045.332000", "175045.335000", "175045.338000", "175045.341000", "175045.345000", "175045.348000", "175045.351000", "175125.267000", "175125.271000", "175125.274000", "175125.278000", "175125.281000", "175125.284000", "175125.288000", "175125.291000", "175125.294000", "175125.297000", "175125.301000", "175125.304000", "175125.307000", "175125.310000", "175125.314000", "175125.317000", "175125.320000", "175125.323000", "175125.327000", "175125.330000", "175125.333000", "175125.336000", "175125.340000", "175125.343000", "175125.346000", "175125.349000", "175125.353000", "175135.754000", "175135.758000", "175135.761000", "175135.765000", "175135.768000", "175135.771000", "175135.775000"],
      "InstanceNumber": [1, 2, 3, 4, 5, 6, 7, 8, 9, 10, 11, 12, 13, 14, 15, 16, 17, 18, 19, 20, 21, 22, 23, 24, 25, 26, 27, 28, 29, 30, 31, 32, 33, 34, 35, 36, 37, 38, 39, 40, 41, 42, 43, 44, 45, 46, 47, 48, 49, 50, 51, 52, 53, 54, 55, 56, 57, 58, 59, 60, 61, 62, 63, 64, 65, 66, 67, 68, 69, 70, 71, 72, 73, 74, 75, 76, 77, 78, 79, 80, 81, 82, 83, 84, 85, 86, 87, 88, 89, 90, 91, 92, 93, 94, 95, 96, 97, 98, 99, 100, 101, 102, 103, 104, 105, 106, 107, 108, 109, 110, 111, 112, 113, 114, 115, 116, 117, 118, 119, 120, 121, 122, 123, 124, 125, 126, 127, 128, 129, 130, 131, 132, 133, 134, 135, 136, 137, 138, 139, 140, 141, 142, 143, 144, 145, 146, 147, 148, 149, 150, 151, 152, 153, 154, 155, 156, 157, 158, 159, 160, 161, 162, 163, 164, 165, 166, 167, 168, 169, 170, 171, 172, 173, 174, 175, 176, 177, 178, 179, 180, 181, 182, 183, 184, 185, 186, 187, 188, 189, 190],
      "LargestImagePixelValue": [44689, 43916, 42954, 40874, 41377, 41187, 41100, 42075, 41071, 40454, 40984, 39958, 41341, 41900, 40751, 40140, 39708, 40817, 41924, 41710, 40211, 40048, 39976, 42057, 41587, 40303, 40084, 41413, 42125, 40887, 40459, 40149, 41887, 41876, 42026, 40950, 40512, 42016, 42397, 41597, 41295, 41018, 40985, 43042, 42530, 41139, 40826, 40485, 40401, 41689, 42131, 42137, 42297, 43484, 42573, 41821, 42125, 42854, 41991, 41596, 41591, 41278, 42917, 42667, 41657, 40851, 41086, 41118, 43075, 41473, 41152, 40744, 40140, 41853, 42077, 40297, 40194, 41032, 42549, 42248, 41371, 41615, 41971, 41868, 41076, 41195, 42447, 42460, 41885, 40937, 40979, 42858, 43208, 41577, 41435, 40999, 42359, 41940, 41004, 41485, 41113, 42748, 41119, 40747, 41985, 42118, 40818, 41564, 41126, 42774, 42428, 41741, 41395, 41134, 40859, 41259, 41664, 41166, 41256, 42766, 42328, 41354, 41380, 40938, 42499, 42022, 41490, 41289, 41613, 42321, 41789, 41145, 41116, 40427, 43078, 42605, 41200, 42201, 41637, 40736, 41633, 41934, 41677, 40613, 40183, 42673, 41598, 41770, 40652, 42474, 42318, 41504, 40735, 40146, 42864, 43202, 41872, 40026, 41586, 40981, 40802, 40037, 40053, 40677, 40218, 40590, 41289, 42243, 41336, 40633, 42014, 42232, 40949, 40974, 41523, 41098, 41830, 42456, 42064, 40767, 40196, 41895, 42042, 40814, 40182, 39897, 41399, 41557, 40684, 39938],
      "WindowCenter": [10596.0, 10551.0, 10527.0, 10518.0, 10533.0, 10525.0, 10529.0, 10513.0, 10482.0, 10466.0, 10480.0, 10495.0, 10542.0, 10548.0, 10512.0, 10491.0, 10489.0, 10516.0, 10528.0, 10506.0, 10479.0, 10468.0, 10469.0, 10515.0, 10495.0, 10467.0, 10456.0, 10491.0, 10530.0, 10519.0, 10491.0, 10480.0, 10500.0, 10499.0, 10484.0, 10465.0, 10472.0, 10491.0, 10510.0, 10497.0, 10479.0, 10467.0, 10478.0, 10526.0, 10515.0, 10481.0, 10470.0, 10469.0, 10465.0, 10490.0, 10507.0, 10509.0, 10494.0, 10506.0, 10502.0, 10489.0, 10489.0, 10500.0, 10498.0, 10499.0, 10493.0, 10495.0, 10522.0, 10522.0, 10501.0, 10489.0, 10491.0, 10504.0, 10529.0, 10498.0, 10485.0, 10482.0, 10487.0, 10525.0, 10528.0, 10496.0, 10476.0, 10482.0, 10515.0, 10526.0, 10508.0, 10508.0, 10500.0, 10496.0, 10482.0, 10479.0, 10496.0, 10525.0, 10538.0, 10529.0, 10522.0, 10537.0, 10551.0, 10532.0, 10521.0, 10522.0, 10534.0, 10524.0, 10502.0, 10507.0, 10526.0, 10553.0, 10514.0, 10495.0, 10502.0, 10517.0, 10509.0, 10515.0, 10533.0, 10560.0, 10530.0, 10498.0, 10489.0, 10507.0, 10520.0, 10529.0, 10508.0, 10485.0, 10478.0, 10511.0, 10535.0, 10517.0, 10516.0, 10517.0, 10534.0, 10514.0, 10505.0, 10505.0, 10522.0, 10551.0, 10538.0, 10518.0, 10502.0, 10503.0, 10554.0, 10545.0, 10516.0, 10516.0, 10515.0, 10517.0, 10529.0, 10531.0, 10514.0, 10487.0, 10484.0, 10514.0, 10527.0, 10548.0, 10525.0, 10527.0, 10507.0, 10481.0, 10467.0, 10471.0, 10537.0, 10548.0, 10515.0, 10481.0, 10495.0, 10507.0, 10499.0, 10472.0, 10461.0, 10481.0, 10484.0, 10491.0, 10502.0, 10508.0, 10494.0, 10474.0, 10505.0, 10526.0, 10507.0, 10498.0, 10502.0, 10500.0, 10518.0, 10532.0, 10520.0, 10502.0, 10496.0, 10517.0, 10512.0, 10485.0, 10467.0, 10462.0, 10493.0, 10512.0, 10494.0, 10473.0],
      "WindowWidth": [22550.0, 22432.0, 22373.0, 22353.0, 22379.0, 22354.0, 22363.0, 22321.0, 22252.0, 22217.0, 22252.0, 22291.0, 22396.0, 22404.0, 22326.0, 22279.0, 22273.0, 22334.0, 22359.0, 22308.0, 22247.0, 22219.0, 22224.0, 22326.0, 22281.0, 22219.0, 22193.0, 22274.0, 22362.0, 22343.0, 22280.0, 22253.0, 22293.0, 22291.0, 22256.0, 22220.0, 22237.0, 22275.0, 22318.0, 22290.0, 22245.0, 22214.0, 22243.0, 22348.0, 22325.0, 22250.0, 22224.0, 22221.0, 22216.0, 22266.0, 22308.0, 22313.0, 22278.0, 22301.0, 22294.0, 22269.0, 22267.0, 22289.0, 22288.0, 22290.0, 22279.0, 22282.0, 22347.0, 22344.0, 22299.0, 22273.0, 22280.0, 22310.0, 22360.0, 22295.0, 22259.0, 22257.0, 22274.0, 22352.0, 22357.0, 22290.0, 22240.0, 22252.0, 22328.0, 22356.0, 22315.0, 22323.0, 22294.0, 22287.0, 22254.0, 22243.0, 22279.0, 22350.0, 22382.0, 22364.0, 22348.0, 22374.0, 22407.0, 22379.0, 22346.0, 22347.0, 22374.0, 22346.0, 22296.0, 22307.0, 22354.0, 22414.0, 22330.0, 22283.0, 22293.0, 22330.0, 22317.0, 22327.0, 22370.0, 22428.0, 22360.0, 22285.0, 22268.0, 22311.0, 22342.0, 22362.0, 22309.0, 22259.0, 22239.0, 22311.0, 22373.0, 22334.0, 22327.0, 22332.0, 22366.0, 22322.0, 22304.0, 22301.0, 22344.0, 22412.0, 22379.0, 22334.0, 22296.0, 22304.0, 22412.0, 22398.0, 22331.0, 22324.0, 22330.0, 22339.0, 22358.0, 22368.0, 22323.0, 22267.0, 22260.0, 22322.0, 22358.0, 22407.0, 22359.0, 22356.0, 22312.0, 22253.0, 22223.0, 22236.0, 22376.0, 22401.0, 22331.0, 22254.0, 22281.0, 22312.0, 22293.0, 22233.0, 22207.0, 22253.0, 22262.0, 22274.0, 22299.0, 22311.0, 22279.0, 22239.0, 22303.0, 22361.0, 22313.0, 22290.0, 22299.0, 22298.0, 22336.0, 22368.0, 22340.0, 22302.0, 22291.0, 22331.0, 22318.0, 22260.0, 22216.0, 22208.0, 22276.0, 22321.0, 22283.0, 22238.0]
    },
    "slices": {}
  }
}