{
  "AcquisitionMatrixPE": 104,
  "AcquisitionNumber": 1,
  "AcquisitionTime": "17:59:3.335000",
  "BandwidthPerPixelPhaseEncode": 17.17,
  "BaseResolution": 104,
  "BodyPartExamined": "BRAIN",
  "CoilString": "HC1-7;NC1_2",
  "ConsistencyInfo": "N4_VE11C_LATEST_20160120",
  "ConversionSoftware": "dcm2niix",
  "ConversionSoftwareVersion": "v1.0.20190902",
  "DerivedVendorReportedEchoSpacing": 0.000560011,
  "DeviceSerialNumber": "167006",
  "DwellTime": 2.1e-06,
  "EchoTime": 0.037,
  "EchoTrainLength": 104,
  "EffectiveEchoSpacing": 0.000560011,
  "FlipAngle": 52,
  "ImageComments": "Unaliased_MB4_PE3_LB",
  "ImageOrientationPatientDICOM": [0.997842, 0.0525037, 0.0394391, -0.0365891, 0.943271, -0.330003],
  "ImageType": [
    "ORIGINAL",
    "PRIMARY",
    "M",
    "MB",
    "ND",
    "MOSAIC"
],
  "ImagingFrequency": 123.259,
  "InPlanePhaseEncodingDirectionDICOM": "COL",
  "InstitutionAddress": "Chemin_Queen-Mary_4565_Montreal_District_CA_H3W_1W5",
  "InstitutionName": "IUGM",
  "InstitutionalDepartmentName": "Department",
  "MRAcquisitionType": "2D",
  "MagneticFieldStrength": 3,
  "Manufacturer": "Siemens",
  "ManufacturersModelName": "Prisma_fit",
  "Modality": "MR",
  "MultibandAccelerationFactor": 4,
  "PartialFourier": 1,
  "PatientPosition": "HFS",
  "PercentPhaseFOV": 100,
  "PhaseEncodingDirection": "j",
  "PhaseEncodingSteps": 104,
  "PhaseResolution": 1,
  "PixelBandwidth": 2290,
  "ProcedureStepDescription": "memory_things",
  "ProtocolName": "func_task-things_run-6",
  "PulseSequenceDetails": "%CustomerSeq%_cmrr_mbep2d_bold",
  "ReceiveCoilActiveElements": "HC1-7;NC1,2",
  "ReceiveCoilName": "HeadNeck_64",
  "ReconMatrixPE": 104,
  "RepetitionTime": 1.49,
  "SAR": 0.0566362,
  "ScanOptions": "FS",
  "ScanningSequence": "EP",
  "SequenceName": "epfid2d1_104",
  "SequenceVariant": "SK_SS",
  "SeriesDescription": "func_task-things_run-6",
  "SeriesNumber": 25,
  "ShimSetting": [632, -7175, -8792, 671, 84, 74, -28, -16],
  "SliceThickness": 2,
  "SliceTiming": [0, 0.785, 0.1, 0.8825, 0.1975, 0.98, 0.295, 1.08, 0.3925, 1.1775, 0.49, 1.275, 0.59, 1.3725, 0.6875, 0, 0.785, 0.1, 0.8825, 0.1975, 0.98, 0.295, 1.08, 0.3925, 1.1775, 0.49, 1.275, 0.59, 1.3725, 0.6875, 0, 0.785, 0.1, 0.8825, 0.1975, 0.98, 0.295, 1.08, 0.3925, 1.1775, 0.49, 1.275, 0.59, 1.3725, 0.6875, 0, 0.785, 0.1, 0.8825, 0.1975, 0.98, 0.295, 1.08, 0.3925, 1.1775, 0.49, 1.275, 0.59, 1.3725, 0.6875],
  "SoftwareVersions": "syngo_MR_E11",
  "SpacingBetweenSlices": 2,
  "StationName": "MRC35049",
  "TaskName": "things",
  "TotalReadoutTime": 0.0576811,
  "TxRefAmp": 290.439,
  "WipMemBlock": "efe55df8-dd4e-4c66-be72-6e888f01ceda||Sequence: R016 ve11c/master r/e634e98; Dec 19 2017 11:00:25 by eja",
  "dcmmeta_affine": [
    [-1.9956833124160767, -0.07317829877138138, 0.10905627906322479, 108.08109283447266],
    [-0.10500742495059967, 1.8865410089492798, -0.6556952595710754, -55.71520233154297],
    [0.0788782387971878, 0.6600058674812317, 1.8863112926483154, -57.94007873535156],
    [0.0, 0.0, 0.0, 1.0]
],
  "dcmmeta_reorient_transform": [
    [0.0, -1.0, 0.0, 103.0],
    [1.0, 0.0, 0.0, 0.0],
    [0.0, 0.0, 1.0, 0.0],
    [0.0, 0.0, 0.0, 1.0]
],
  "dcmmeta_shape": [104, 104, 60, 190],
  "dcmmeta_slice_dim": 2,
  "dcmmeta_version": 0.6,
  "global": {
    "const": {
      "AcquisitionMatrix": [104, 0, 0, 104],
      "AngioFlag": "N",
      "BitsAllocated": 16,
      "BitsStored": 16,
      "BodyPartExamined": "BRAIN",
      "Columns": 832,
      "EchoNumbers": 1,
      "EchoTime": 37.0,
      "EchoTrainLength": 104,
      "FlipAngle": 52.0,
      "HighBit": 15,
      "ImageOrientationPatient": [0.99784162877792, 0.0525037109893, 0.03943912030183, -0.0365891509705, 0.94327053248117, -0.3300029342051],
      "ImagePositionPatient": [-800.33553403559, -863.52217639629, 221.57098113747],
      "ImageType": [
        "ORIGINAL",
        "PRIMARY",
        "M",
        "MB",
        "ND",
        "MOSAIC"
],
      "ImagedNucleus": "1H",
      "ImagingFrequency": 123.258902,
      "InPlanePhaseEncodingDirection": "COL",
      "MRAcquisitionType": "2D",
      "MagneticFieldStrength": 3.0,
      "Manufacturer": "SIEMENS",
      "ManufacturerModelName": "Prisma_fit",
      "Modality": "MR",
      "NumberOfAverages": 1.0,
      "NumberOfPhaseEncodingSteps": 104,
      "PercentPhaseFieldOfView": 100.0,
      "PercentSampling": 100.0,
      "PerformedProcedureStepStartTime": "170453.829000",
      "PhotometricInterpretation": "MONOCHROME2",
      "PixelBandwidth": 2290.0,
      "PixelRepresentation": 0,
      "PixelSpacing": [2.0, 2.0],
      "ProtocolName": "func_task-things_run-6",
      "RepetitionTime": 1490.0,
      "Rows": 832,
      "SAR": 0.05663615776613,
      "SamplesPerPixel": 1,
      "ScanOptions": "FS",
      "ScanningSequence": "EP",
      "SequenceName": "epfid2d1_104",
      "SequenceVariant": [
        "SK",
        "SS"
],
      "SeriesDescription": "func_task-things_run-6",
      "SeriesNumber": 25,
      "SeriesTime": "180023.472000",
      "SliceLocation": -30.486957268536,
      "SliceThickness": 2.0,
      "SmallestImagePixelValue": 0,
      "SoftwareVersions": "syngo MR E11",
      "SpacingBetweenSlices": 2.0000000095256,
      "SpecificCharacterSet": "ISO_IR 100",
      "StudyID": "1",
      "StudyTime": "170453.736000",
      "TransmitCoilName": "Body",
      "VariableFlipAngleFlag": "N",
      "WindowCenterWidthExplanation": "Algo1",
      "dBdt": 0.0},
    "slices": {}
  },
  "time": {
    "samples": {
      "AcquisitionNumber": [1, 2, 3, 4, 5, 6, 7, 8, 9, 10, 11, 12, 13, 14, 15, 16, 17, 18, 19, 20, 21, 22, 23, 24, 25, 26, 27, 28, 29, 30, 31, 32, 33, 34, 35, 36, 37, 38, 39, 40, 41, 42, 43, 44, 45, 46, 47, 48, 49, 50, 51, 52, 53, 54, 55, 56, 57, 58, 59, 60, 61, 62, 63, 64, 65, 66, 67, 68, 69, 70, 71, 72, 73, 74, 75, 76, 77, 78, 79, 80, 81, 82, 83, 84, 85, 86, 87, 88, 89, 90, 91, 92, 93, 94, 95, 96, 97, 98, 99, 100, 101, 102, 103, 104, 105, 106, 107, 108, 109, 110, 111, 112, 113, 114, 115, 116, 117, 118, 119, 120, 121, 122, 123, 124, 125, 126, 127, 128, 129, 130, 131, 132, 133, 134, 135, 136, 137, 138, 139, 140, 141, 142, 143, 144, 145, 146, 147, 148, 149, 150, 151, 152, 153, 154, 155, 156, 157, 158, 159, 160, 161, 162, 163, 164, 165, 166, 167, 168, 169, 170, 171, 172, 173, 174, 175, 176, 177, 178, 179, 180, 181, 182, 183, 184, 185, 186, 187, 188, 189, 190],
      "AcquisitionTime": ["175903.335000", "175904.825000", "175906.315000", "175907.805000", "175909.295000", "175910.785000", "175912.275000", "175913.765000", "175915.255000", "175916.745000", "175918.235000", "175919.725000", "175921.215000", "175922.705000", "175924.195000", "175925.685000", "175927.175000", "175928.665000", "175930.155000", "175931.645000", "175933.135000", "175934.625000", "175936.115000", "175937.605000", "175939.095000", "175940.585000", "175942.075000", "175943.565000", "175945.055000", "175946.545000", "175948.035000", "175949.525000", "175951.015000", "175952.505000", "175953.995000", "175955.485000", "175956.975000", "175958.465000", "175959.955000", "180001.445000", "180002.935000", "180004.425000", "180005.915000", "180007.405000", "180008.895000", "180010.385000", "180011.875000", "180013.365000", "180014.855000", "180016.345000", "180017.835000", "180019.325000", "180020.815000", "180022.305000", "180023.795000", "180025.285000", "180026.775000", "180028.265000", "180029.755000", "180031.245000", "180032.735000", "180034.225000", "180035.715000", "180037.205000", "180038.695000", "180040.185000", "180041.675000", "180043.165000", "180044.655000", "180046.145000", "180047.635000", "180049.125000", "180050.615000", "180052.105000", "180053.595000", "180055.085000", "180056.575000", "180058.065000", "180059.555000", "180101.045000", "180102.535000", "180104.025000", "180105.515000", "180107.005000", "180108.495000", "180109.985000", "180111.475000", "180112.965000", "180114.455000", "180115.945000", "180117.435000", "180118.925000", "180120.415000", "180121.905000", "180123.395000", "180124.885000", "180126.375000", "180127.865000", "180129.355000", "180130.845000", "180132.335000", "180133.825000", "180135.315000", "180136.805000", "180138.295000", "180139.785000", "180141.275000", "180142.765000", "180144.255000", "180145.745000", "180147.235000", "180148.725000", "180150.215000", "180151.705000", "180153.195000", "180154.685000", "180156.175000", "180157.665000", "180159.155000", "180200.645000", "180202.135000", "180203.625000", "180205.115000", "180206.605000", "180208.095000", "180209.585000", "180211.075000", "180212.565000", "180214.055000", "180215.545000", "180217.035000", "180218.525000", "180220.015000", "180221.505000", "180222.995000", "180224.485000", "180225.975000", "180227.465000", "180228.955000", "180230.445000", "180231.935000", "180233.425000", "180234.915000", "180236.405000", "180237.895000", "180239.385000", "180240.875000", "180242.365000", "180243.855000", "180245.345000", "180246.835000", "180248.325000", "180249.815000", "180251.305000", "180252.795000", "180254.285000", "180255.775000", "180257.265000", "180258.755000", "180300.245000", "180301.735000", "180303.225000", "180304.715000", "180306.205000", "180307.695000", "180309.185000", "180310.675000", "180312.165000", "180313.655000", "180315.145000", "180316.635000", "180318.125000", "180319.615000", "180321.105000", "180322.595000", "180324.085000", "180325.575000", "180327.065000", "180328.555000", "180330.045000", "180331.535000", "180333.025000", "180334.515000", "180336.005000", "180337.495000", "180338.985000", "180340.475000", "180341.965000", "180343.455000", "180344.945000"],
      "ContentTime": ["180023.475000", "180023.479000", "180023.482000", "180023.485000", "180023.488000", "180023.492000", "180023.495000", "180023.498000", "180023.501000", "180023.505000", "180023.508000", "180023.511000", "180023.514000", "180023.525000", "180023.528000", "180023.532000", "180023.535000", "180023.538000", "180023.541000", "180023.545000", "180023.548000", "180023.551000", "180023.554000", "180023.558000", "180023.567000", "180023.570000", "180043.420000", "180043.424000", "180043.427000", "180043.430000", "180043.433000", "180043.437000", "180043.440000", "180043.443000", "180043.446000", "180043.449000", "180043.453000", "180043.456000", "180043.459000", "180043.462000", "180043.466000", "180043.469000", "180043.473000", "180043.476000", "180043.479000", "180043.483000", "180103.420000", "180103.424000", "180103.427000", "180103.430000", "180103.433000", "180103.437000", "180103.440000", "180103.443000", "180103.446000", "180103.450000", "180103.453000", "180103.464000", "180103.467000", "180103.470000", "180103.474000", "180103.477000", "180103.480000", "180103.484000", "180103.487000", "180103.490000", "180123.420000", "180123.423000", "180123.427000", "180123.430000", "180123.433000", "180123.436000", "180123.440000", "180123.443000", "180123.446000", "180123.450000", "180123.453000", "180123.456000", "180123.459000", "180123.462000", "180123.466000", "180123.469000", "180123.472000", "180123.475000", "180123.479000", "180123.482000", "180123.485000", "180203.420000", "180203.424000", "180203.427000", "180203.431000", "180203.434000", "180203.437000", "180203.441000", "180203.444000", "180203.447000", "180203.450000", "180203.454000", "180203.457000", "180203.460000", "180203.463000", "180203.467000", "180203.470000", "180203.473000", "180203.476000", "180203.480000", "180203.483000", "180203.486000", "180203.490000", "180203.493000", "180203.496000", "180203.499000", "180203.502000", "180203.506000", "180203.509000", "180203.525000", "180203.528000", "180203.531000", "180203.534000", "180203.538000", "180243.419000", "180243.423000", "180243.426000", "180243.429000", "180243.432000", "180243.436000", "180243.439000", "180243.442000", "180243.445000", "180243.449000", "180243.452000", "180243.455000", "180243.458000", "180243.462000", "180243.465000", "180243.468000", "180243.472000", "180243.475000", "180243.478000", "180243.481000", "180243.484000", "180243.488000", "180243.491000", "180243.494000", "180243.498000", "180243.501000", "180243.504000", "180323.420000", "180323.424000", "180323.427000", "180323.430000", "180323.434000", "180323.437000", "180323.440000", "180323.443000", "180323.452000", "180323.455000", "180323.460000", "180323.463000", "180323.467000", "180323.470000", "180323.474000", "180323.477000", "180323.481000", "180323.484000", "180323.487000", "180323.491000", "180323.494000", "180323.497000", "180323.501000", "180323.504000", "180323.507000", "180323.510000", "180347.383000", "180347.386000", "180347.389000", "180347.393000", "180347.396000", "180347.399000", "180347.402000", "180347.406000", "180347.409000", "180347.412000", "180347.416000", "180347.419000", "180347.422000", "180347.425000", "180347.429000", "180347.432000", "180347.435000"],
      "InstanceCreationTime": ["180023.475000", "180023.479000", "180023.482000", "180023.485000", "180023.488000", "180023.492000", "180023.495000", "180023.498000", "180023.501000", "180023.505000", "180023.508000", "180023.511000", "180023.514000", "180023.525000", "180023.528000", "180023.532000", "180023.535000", "180023.538000", "180023.541000", "180023.545000", "180023.548000", "180023.551000", "180023.554000", "180023.558000", "180023.567000", "180023.570000", "180043.420000", "180043.424000", "180043.427000", "180043.430000", "180043.433000", "180043.437000", "180043.440000", "180043.443000", "180043.446000", "180043.449000", "180043.453000", "180043.456000", "180043.459000", "180043.462000", "180043.466000", "180043.469000", "180043.473000", "180043.476000", "180043.479000", "180043.483000", "180103.420000", "180103.424000", "180103.427000", "180103.430000", "180103.433000", "180103.437000", "180103.440000", "180103.443000", "180103.446000", "180103.450000", "180103.453000", "180103.464000", "180103.467000", "180103.470000", "180103.474000", "180103.477000", "180103.480000", "180103.484000", "180103.487000", "180103.490000", "180123.420000", "180123.423000", "180123.427000", "180123.430000", "180123.433000", "180123.436000", "180123.440000", "180123.443000", "180123.446000", "180123.450000", "180123.453000", "180123.456000", "180123.459000", "180123.462000", "180123.466000", "180123.469000", "180123.472000", "180123.475000", "180123.479000", "180123.482000", "180123.485000", "180203.420000", "180203.424000", "180203.427000", "180203.431000", "180203.434000", "180203.437000", "180203.441000", "180203.444000", "180203.447000", "180203.450000", "180203.454000", "180203.457000", "180203.460000", "180203.463000", "180203.467000", "180203.470000", "180203.473000", "180203.476000", "180203.480000", "180203.483000", "180203.486000", "180203.490000", "180203.493000", "180203.496000", "180203.499000", "180203.502000", "180203.506000", "180203.509000", "180203.525000", "180203.528000", "180203.531000", "180203.534000", "180203.538000", "180243.419000", "180243.423000", "180243.426000", "180243.429000", "180243.432000", "180243.436000", "180243.439000", "180243.442000", "180243.445000", "180243.449000", "180243.452000", "180243.455000", "180243.458000", "180243.462000", "180243.465000", "180243.468000", "180243.472000", "180243.475000", "180243.478000", "180243.481000", "180243.484000", "180243.488000", "180243.491000", "180243.494000", "180243.498000", "180243.501000", "180243.504000", "180323.420000", "180323.424000", "180323.427000", "180323.430000", "180323.434000", "180323.437000", "180323.440000", "180323.443000", "180323.452000", "180323.455000", "180323.460000", "180323.463000", "180323.467000", "180323.470000", "180323.474000", "180323.477000", "180323.481000", "180323.484000", "180323.487000", "180323.491000", "180323.494000", "180323.497000", "180323.501000", "180323.504000", "180323.507000", "180323.510000", "180347.383000", "180347.386000", "180347.389000", "180347.393000", "180347.396000", "180347.399000", "180347.402000", "180347.406000", "180347.409000", "180347.412000", "180347.416000", "180347.419000", "180347.422000", "180347.425000", "180347.429000", "180347.432000", "180347.435000"],
      "InstanceNumber": [1, 2, 3, 4, 5, 6, 7, 8, 9, 10, 11, 12, 13, 14, 15, 16, 17, 18, 19, 20, 21, 22, 23, 24, 25, 26, 27, 28, 29, 30, 31, 32, 33, 34, 35, 36, 37, 38, 39, 40, 41, 42, 43, 44, 45, 46, 47, 48, 49, 50, 51, 52, 53, 54, 55, 56, 57, 58, 59, 60, 61, 62, 63, 64, 65, 66, 67, 68, 69, 70, 71, 72, 73, 74, 75, 76, 77, 78, 79, 80, 81, 82, 83, 84, 85, 86, 87, 88, 89, 90, 91, 92, 93, 94, 95, 96, 97, 98, 99, 100, 101, 102, 103, 104, 105, 106, 107, 108, 109, 110, 111, 112, 113, 114, 115, 116, 117, 118, 119, 120, 121, 122, 123, 124, 125, 126, 127, 128, 129, 130, 131, 132, 133, 134, 135, 136, 137, 138, 139, 140, 141, 142, 143, 144, 145, 146, 147, 148, 149, 150, 151, 152, 153, 154, 155, 156, 157, 158, 159, 160, 161, 162, 163, 164, 165, 166, 167, 168, 169, 170, 171, 172, 173, 174, 175, 176, 177, 178, 179, 180, 181, 182, 183, 184, 185, 186, 187, 188, 189, 190],
      "LargestImagePixelValue": [43541, 42464, 42812, 42302, 42213, 44455, 43233, 41860, 42195, 42066, 43122, 44184, 43428, 43041, 43192, 44717, 44851, 44013, 42065, 41939, 42825, 44306, 43066, 42182, 42896, 43512, 44250, 45584, 43636, 41860, 42782, 43970, 45128, 47984, 45544, 45877, 43936, 43488, 43716, 43681, 45957, 45849, 44854, 43164, 42709, 42049, 42166, 43415, 43655, 45538, 43907, 42725, 43488, 42811, 42663, 44300, 44150, 44310, 43890, 44188, 43272, 43850, 43132, 43062, 44919, 45139, 44356, 44824, 44021, 43076, 44313, 44249, 44556, 44312, 45648, 44168, 43326, 43176, 43153, 43413, 45079, 44226, 43885, 44386, 44914, 44794, 43380, 44385, 44331, 44110, 43484, 42921, 44813, 44850, 44902, 43129, 43083, 43944, 44252, 45492, 44651, 44581, 44654, 44720, 43830, 43579, 44464, 43862, 43729, 42608, 42975, 42865, 42790, 42537, 42953, 43002, 43478, 42349, 43455, 42323, 41488, 41825, 47435, 42173, 40565, 40599, 41302, 40085, 40711, 40830, 41800, 40033, 39805, 40045, 39543, 40079, 40417, 39514, 40904, 39879, 39708, 41950, 40118, 40992, 40880, 42228, 39873, 40613, 40508, 39933, 39848, 40113, 40409, 40240, 40118, 38890, 39663, 40311, 40400, 40570, 41132, 46122, 40177, 40188, 41142, 40631, 40934, 39932, 39618, 39890, 40703, 40421, 39787, 43286, 40257, 41086, 41659, 42983, 39569, 39663, 39746, 39626, 40639, 39749, 41860, 40386, 40673, 40453, 39177, 39534],
      "WindowCenter": [10557.0, 10506.0, 10473.0, 10446.0, 10444.0, 10482.0, 10489.0, 10491.0, 10501.0, 10479.0, 10475.0, 10479.0, 10487.0, 10499.0, 10502.0, 10509.0, 10510.0, 10495.0, 10483.0, 10491.0, 10501.0, 10502.0, 10490.0, 10494.0, 10520.0, 10530.0, 10521.0, 10523.0, 10516.0, 10524.0, 10513.0, 10515.0, 10517.0, 10535.0, 10494.0, 10490.0, 10485.0, 10505.0, 10504.0, 10496.0, 10514.0, 10519.0, 10532.0, 10528.0, 10505.0, 10494.0, 10507.0, 10512.0, 10508.0, 10515.0, 10509.0, 10507.0, 10510.0, 10489.0, 10485.0, 10508.0, 10511.0, 10519.0, 10514.0, 10511.0, 10492.0, 10502.0, 10499.0, 10508.0, 10523.0, 10523.0, 10528.0, 10527.0, 10510.0, 10495.0, 10514.0, 10534.0, 10543.0, 10541.0, 10540.0, 10506.0, 10489.0, 10482.0, 10472.0, 10476.0, 10507.0, 10541.0, 10573.0, 10574.0, 10537.0, 10500.0, 10476.0, 10481.0, 10489.0, 10501.0, 10501.0, 10502.0, 10529.0, 10527.0, 10494.0, 10449.0, 10445.0, 10455.0, 10492.0, 10526.0, 10511.0, 10499.0, 10493.0, 10489.0, 10492.0, 10493.0, 10523.0, 10532.0, 10532.0, 10512.0, 10504.0, 10504.0, 10502.0, 10505.0, 10519.0, 10522.0, 10518.0, 10487.0, 10491.0, 10474.0, 10453.0, 10461.0, 10508.0, 10485.0, 10498.0, 10506.0, 10515.0, 10486.0, 10482.0, 10483.0, 10511.0, 10497.0, 10485.0, 10479.0, 10470.0, 10476.0, 10483.0, 10469.0, 10497.0, 10502.0, 10505.0, 10517.0, 10485.0, 10515.0, 10494.0, 10533.0, 10518.0, 10519.0, 10535.0, 10523.0, 10523.0, 10526.0, 10526.0, 10521.0, 10518.0, 10508.0, 10522.0, 10543.0, 10557.0, 10564.0, 10561.0, 10596.0, 10520.0, 10518.0, 10541.0, 10553.0, 10560.0, 10528.0, 10506.0, 10499.0, 10501.0, 10509.0, 10505.0, 10552.0, 10529.0, 10536.0, 10535.0, 10537.0, 10496.0, 10495.0, 10503.0, 10528.0, 10535.0, 10517.0, 10524.0, 10516.0, 10523.0, 10550.0, 10537.0, 10521.0],
      "WindowWidth": [22468.0, 22331.0, 22238.0, 22173.0, 22165.0, 22240.0, 22259.0, 22271.0, 22299.0, 22249.0, 22233.0, 22240.0, 22260.0, 22290.0, 22296.0, 22304.0, 22317.0, 22271.0, 22259.0, 22278.0, 22294.0, 22289.0, 22265.0, 22282.0, 22350.0, 22357.0, 22332.0, 22338.0, 22327.0, 22354.0, 22329.0, 22326.0, 22327.0, 22368.0, 22269.0, 22253.0, 22251.0, 22305.0, 22300.0, 22283.0, 22313.0, 22328.0, 22362.0, 22361.0, 22309.0, 22287.0, 22316.0, 22326.0, 22312.0, 22319.0, 22315.0, 22317.0, 22321.0, 22273.0, 22260.0, 22304.0, 22313.0, 22328.0, 22323.0, 22312.0, 22276.0, 22298.0, 22293.0, 22314.0, 22339.0, 22337.0, 22352.0, 22350.0, 22311.0, 22280.0, 22319.0, 22368.0, 22387.0, 22379.0, 22372.0, 22298.0, 22263.0, 22252.0, 22228.0, 22234.0, 22299.0, 22385.0, 22460.0, 22461.0, 22372.0, 22286.0, 22233.0, 22243.0, 22262.0, 22289.0, 22294.0, 22300.0, 22360.0, 22356.0, 22279.0, 22179.0, 22173.0, 22186.0, 22273.0, 22347.0, 22312.0, 22290.0, 22275.0, 22264.0, 22275.0, 22278.0, 22348.0, 22369.0, 22366.0, 22325.0, 22303.0, 22304.0, 22299.0, 22311.0, 22341.0, 22352.0, 22335.0, 22263.0, 22264.0, 22231.0, 22186.0, 22215.0, 22305.0, 22265.0, 22303.0, 22321.0, 22343.0, 22278.0, 22264.0, 22264.0, 22325.0, 22305.0, 22280.0, 22258.0, 22238.0, 22254.0, 22272.0, 22238.0, 22299.0, 22316.0, 22321.0, 22343.0, 22272.0, 22340.0, 22288.0, 22383.0, 22348.0, 22351.0, 22386.0, 22360.0, 22362.0, 22370.0, 22365.0, 22353.0, 22346.0, 22332.0, 22360.0, 22407.0, 22443.0, 22460.0, 22448.0, 22534.0, 22352.0, 22345.0, 22394.0, 22426.0, 22441.0, 22372.0, 22319.0, 22303.0, 22306.0, 22325.0, 22317.0, 22423.0, 22372.0, 22388.0, 22375.0, 22383.0, 22295.0, 22294.0, 22312.0, 22369.0, 22378.0, 22343.0, 22347.0, 22337.0, 22352.0, 22416.0, 22394.0, 22356.0]
    },
    "slices": {}
  }
}