{
  "AcquisitionMatrixPE": 104,
  "AcquisitionNumber": 1,
  "AcquisitionTime": "17:28:37.117500",
  "BandwidthPerPixelPhaseEncode": 17.17,
  "BaseResolution": 104,
  "BodyPartExamined": "BRAIN",
  "CoilString": "HC1-7;NC1_2",
  "ConsistencyInfo": "N4_VE11C_LATEST_20160120",
  "ConversionSoftware": "dcm2niix",
  "ConversionSoftwareVersion": "v1.0.20190902",
  "DerivedVendorReportedEchoSpacing": 0.000560011,
  "DeviceSerialNumber": "167006",
  "DwellTime": 2.1e-06,
  "EchoTime": 0.037,
  "EchoTrainLength": 104,
  "EffectiveEchoSpacing": 0.000560011,
  "FlipAngle": 52,
  "ImageComments": "Unaliased_MB4_PE3_LB",
  "ImageOrientationPatientDICOM": [0.997842, 0.0525037, 0.0394391, -0.0365891, 0.943271, -0.330003],
  "ImageType": [
    "ORIGINAL",
    "PRIMARY",
    "M",
    "MB",
    "ND",
    "MOSAIC"
],
  "ImagingFrequency": 123.259,
  "InPlanePhaseEncodingDirectionDICOM": "COL",
  "InstitutionAddress": "Chemin_Queen-Mary_4565_Montreal_District_CA_H3W_1W5",
  "InstitutionName": "IUGM",
  "InstitutionalDepartmentName": "Department",
  "MRAcquisitionType": "2D",
  "MagneticFieldStrength": 3,
  "Manufacturer": "Siemens",
  "ManufacturersModelName": "Prisma_fit",
  "Modality": "MR",
  "MultibandAccelerationFactor": 4,
  "PartialFourier": 1,
  "PatientPosition": "HFS",
  "PercentPhaseFOV": 100,
  "PhaseEncodingDirection": "j",
  "PhaseEncodingSteps": 104,
  "PhaseResolution": 1,
  "PixelBandwidth": 2290,
  "ProcedureStepDescription": "memory_things",
  "ProtocolName": "func_task-things_run-1",
  "PulseSequenceDetails": "%CustomerSeq%_cmrr_mbep2d_bold",
  "ReceiveCoilActiveElements": "HC1-7;NC1,2",
  "ReceiveCoilName": "HeadNeck_64",
  "ReconMatrixPE": 104,
  "RepetitionTime": 1.49,
  "SAR": 0.0566362,
  "ScanOptions": "FS",
  "ScanningSequence": "EP",
  "SequenceName": "epfid2d1_104",
  "SequenceVariant": "SK_SS",
  "SeriesDescription": "func_task-things_run-1",
  "SeriesNumber": 10,
  "ShimSetting": [632, -7175, -8792, 671, 84, 74, -28, -16],
  "SliceThickness": 2,
  "SliceTiming": [0, 0.785, 0.0975, 0.8825, 0.195, 0.98, 0.295, 1.0775, 0.3925, 1.175, 0.49, 1.275, 0.5875, 1.3725, 0.685, 0, 0.785, 0.0975, 0.8825, 0.195, 0.98, 0.295, 1.0775, 0.3925, 1.175, 0.49, 1.275, 0.5875, 1.3725, 0.685, 0, 0.785, 0.0975, 0.8825, 0.195, 0.98, 0.295, 1.0775, 0.3925, 1.175, 0.49, 1.275, 0.5875, 1.3725, 0.685, 0, 0.785, 0.0975, 0.8825, 0.195, 0.98, 0.295, 1.0775, 0.3925, 1.175, 0.49, 1.275, 0.5875, 1.3725, 0.685],
  "SoftwareVersions": "syngo_MR_E11",
  "SpacingBetweenSlices": 2,
  "StationName": "MRC35049",
  "TaskName": "things",
  "TotalReadoutTime": 0.0576811,
  "TxRefAmp": 290.439,
  "WipMemBlock": "0bf8f7a5-63e5-4913-b00e-86c226204f1b||Sequence: R016 ve11c/master r/e634e98; Dec 19 2017 11:00:25 by eja",
  "dcmmeta_affine": [
    [-1.9956833124160767, -0.07317829877138138, 0.10905627906322479, 108.08109283447266],
    [-0.10500742495059967, 1.8865410089492798, -0.6556952595710754, -55.71520233154297],
    [0.0788782387971878, 0.6600058674812317, 1.8863112926483154, -57.94007873535156],
    [0.0, 0.0, 0.0, 1.0]
],
  "dcmmeta_reorient_transform": [
    [0.0, -1.0, 0.0, 103.0],
    [1.0, 0.0, 0.0, 0.0],
    [0.0, 0.0, 1.0, 0.0],
    [0.0, 0.0, 0.0, 1.0]
],
  "dcmmeta_shape": [104, 104, 60, 190],
  "dcmmeta_slice_dim": 2,
  "dcmmeta_version": 0.6,
  "global": {
    "const": {
      "AcquisitionMatrix": [104, 0, 0, 104],
      "AngioFlag": "N",
      "BitsAllocated": 16,
      "BitsStored": 16,
      "BodyPartExamined": "BRAIN",
      "Columns": 832,
      "EchoNumbers": 1,
      "EchoTime": 37.0,
      "EchoTrainLength": 104,
      "FlipAngle": 52.0,
      "HighBit": 15,
      "ImageOrientationPatient": [0.99784162877792, 0.0525037109893, 0.03943912030183, -0.0365891509705, 0.94327053248117, -0.3300029342051],
      "ImagePositionPatient": [-800.33553403559, -863.52217639629, 221.57098113747],
      "ImageType": [
        "ORIGINAL",
        "PRIMARY",
        "M",
        "MB",
        "ND",
        "MOSAIC"
],
      "ImagedNucleus": "1H",
      "ImagingFrequency": 123.258883,
      "InPlanePhaseEncodingDirection": "COL",
      "MRAcquisitionType": "2D",
      "MagneticFieldStrength": 3.0,
      "Manufacturer": "SIEMENS",
      "ManufacturerModelName": "Prisma_fit",
      "Modality": "MR",
      "NumberOfAverages": 1.0,
      "NumberOfPhaseEncodingSteps": 104,
      "PercentPhaseFieldOfView": 100.0,
      "PercentSampling": 100.0,
      "PerformedProcedureStepStartTime": "170453.829000",
      "PhotometricInterpretation": "MONOCHROME2",
      "PixelBandwidth": 2290.0,
      "PixelRepresentation": 0,
      "PixelSpacing": [2.0, 2.0],
      "ProtocolName": "func_task-things_run-1",
      "RepetitionTime": 1490.0,
      "Rows": 832,
      "SAR": 0.05663615776613,
      "SamplesPerPixel": 1,
      "ScanOptions": "FS",
      "ScanningSequence": "EP",
      "SequenceName": "epfid2d1_104",
      "SequenceVariant": [
        "SK",
        "SS"
],
      "SeriesDescription": "func_task-things_run-1",
      "SeriesNumber": 10,
      "SeriesTime": "173005.297000",
      "SliceLocation": -30.486957268536,
      "SliceThickness": 2.0,
      "SmallestImagePixelValue": 0,
      "SoftwareVersions": "syngo MR E11",
      "SpacingBetweenSlices": 2.0000000095256,
      "SpecificCharacterSet": "ISO_IR 100",
      "StudyID": "1",
      "StudyTime": "170453.736000",
      "TransmitCoilName": "Body",
      "VariableFlipAngleFlag": "N",
      "WindowCenterWidthExplanation": "Algo1",
      "dBdt": 0.0},
    "slices": {}
  },
  "time": {
    "samples": {
      "AcquisitionNumber": [1, 2, 3, 4, 5, 6, 7, 8, 9, 10, 11, 12, 13, 14, 15, 16, 17, 18, 19, 20, 21, 22, 23, 24, 25, 26, 27, 28, 29, 30, 31, 32, 33, 34, 35, 36, 37, 38, 39, 40, 41, 42, 43, 44, 45, 46, 47, 48, 49, 50, 51, 52, 53, 54, 55, 56, 57, 58, 59, 60, 61, 62, 63, 64, 65, 66, 67, 68, 69, 70, 71, 72, 73, 74, 75, 76, 77, 78, 79, 80, 81, 82, 83, 84, 85, 86, 87, 88, 89, 90, 91, 92, 93, 94, 95, 96, 97, 98, 99, 100, 101, 102, 103, 104, 105, 106, 107, 108, 109, 110, 111, 112, 113, 114, 115, 116, 117, 118, 119, 120, 121, 122, 123, 124, 125, 126, 127, 128, 129, 130, 131, 132, 133, 134, 135, 136, 137, 138, 139, 140, 141, 142, 143, 144, 145, 146, 147, 148, 149, 150, 151, 152, 153, 154, 155, 156, 157, 158, 159, 160, 161, 162, 163, 164, 165, 166, 167, 168, 169, 170, 171, 172, 173, 174, 175, 176, 177, 178, 179, 180, 181, 182, 183, 184, 185, 186, 187, 188, 189, 190],
      "AcquisitionTime": ["172837.117500", "172838.607500", "172840.097500", "172841.587500", "172843.077500", "172844.567500", "172846.057500", "172847.547500", "172849.037500", "172850.527500", "172852.017500", "172853.507500", "172854.997500", "172856.487500", "172857.977500", "172859.467500", "172900.957500", "172902.447500", "172903.937500", "172905.427500", "172906.917500", "172908.407500", "172909.897500", "172911.387500", "172912.877500", "172914.367500", "172915.857500", "172917.347500", "172918.837500", "172920.327500", "172921.817500", "172923.307500", "172924.797500", "172926.287500", "172927.777500", "172929.267500", "172930.757500", "172932.247500", "172933.737500", "172935.227500", "172936.717500", "172938.207500", "172939.697500", "172941.187500", "172942.677500", "172944.167500", "172945.657500", "172947.147500", "172948.637500", "172950.127500", "172951.617500", "172953.107500", "172954.597500", "172956.087500", "172957.577500", "172959.067500", "173000.557500", "173002.047500", "173003.537500", "173005.027500", "173006.517500", "173008.007500", "173009.497500", "173010.987500", "173012.477500", "173013.967500", "173015.457500", "173016.947500", "173018.437500", "173019.927500", "173021.417500", "173022.907500", "173024.397500", "173025.887500", "173027.377500", "173028.867500", "173030.357500", "173031.847500", "173033.337500", "173034.827500", "173036.317500", "173037.807500", "173039.297500", "173040.787500", "173042.277500", "173043.767500", "173045.257500", "173046.747500", "173048.237500", "173049.727500", "173051.217500", "173052.707500", "173054.197500", "173055.687500", "173057.177500", "173058.667500", "173100.157500", "173101.647500", "173103.137500", "173104.627500", "173106.117500", "173107.607500", "173109.097500", "173110.587500", "173112.077500", "173113.567500", "173115.057500", "173116.547500", "173118.037500", "173119.527500", "173121.017500", "173122.507500", "173123.997500", "173125.487500", "173126.977500", "173128.467500", "173129.957500", "173131.447500", "173132.937500", "173134.427500", "173135.917500", "173137.407500", "173138.897500", "173140.387500", "173141.877500", "173143.367500", "173144.857500", "173146.347500", "173147.837500", "173149.327500", "173150.817500", "173152.307500", "173153.797500", "173155.287500", "173156.777500", "173158.267500", "173159.757500", "173201.247500", "173202.737500", "173204.227500", "173205.717500", "173207.207500", "173208.697500", "173210.187500", "173211.677500", "173213.167500", "173214.657500", "173216.147500", "173217.637500", "173219.127500", "173220.617500", "173222.107500", "173223.597500", "173225.087500", "173226.577500", "173228.067500", "173229.557500", "173231.047500", "173232.537500", "173234.027500", "173235.517500", "173237.007500", "173238.497500", "173239.987500", "173241.477500", "173242.967500", "173244.457500", "173245.947500", "173247.437500", "173248.927500", "173250.417500", "173251.907500", "173253.397500", "173254.887500", "173256.377500", "173257.867500", "173259.357500", "173300.847500", "173302.337500", "173303.827500", "173305.317500", "173306.807500", "173308.297500", "173309.787500", "173311.277500", "173312.767500", "173314.257500", "173315.747500", "173317.237500", "173318.727500"],
      "ContentTime": ["173005.301000", "173005.319000", "173005.322000", "173005.326000", "173005.329000", "173005.332000", "173005.335000", "173005.339000", "173005.342000", "173005.345000", "173005.348000", "173005.351000", "173005.355000", "173005.367000", "173005.370000", "173005.373000", "173005.377000", "173005.380000", "173005.383000", "173005.386000", "173005.389000", "173005.393000", "173005.396000", "173005.399000", "173005.402000", "173005.406000", "173005.409000", "173005.412000", "173005.415000", "173005.419000", "173005.422000", "173025.267000", "173025.271000", "173025.274000", "173025.277000", "173025.280000", "173025.284000", "173025.287000", "173025.290000", "173025.293000", "173025.297000", "173025.300000", "173025.303000", "173025.314000", "173025.317000", "173025.320000", "173025.324000", "173025.327000", "173025.331000", "173025.334000", "173025.337000", "173045.266000", "173045.270000", "173045.273000", "173045.276000", "173045.279000", "173045.283000", "173045.286000", "173045.289000", "173045.292000", "173045.296000", "173045.299000", "173045.302000", "173045.305000", "173045.308000", "173045.318000", "173045.321000", "173045.324000", "173045.328000", "173045.331000", "173045.334000", "173045.337000", "173105.266000", "173105.270000", "173105.273000", "173105.276000", "173105.279000", "173105.282000", "173105.286000", "173105.299000", "173105.302000", "173105.305000", "173105.309000", "173105.312000", "173105.315000", "173105.318000", "173105.322000", "173105.325000", "173105.328000", "173105.331000", "173105.335000", "173105.338000", "173125.266000", "173125.270000", "173125.273000", "173125.276000", "173125.279000", "173125.283000", "173125.286000", "173125.289000", "173125.292000", "173125.296000", "173125.299000", "173125.302000", "173125.305000", "173125.308000", "173125.312000", "173125.315000", "173125.318000", "173125.322000", "173125.325000", "173125.328000", "173205.267000", "173205.270000", "173205.274000", "173205.277000", "173205.280000", "173205.284000", "173205.287000", "173205.290000", "173205.293000", "173205.297000", "173205.300000", "173205.303000", "173205.306000", "173205.310000", "173205.313000", "173205.316000", "173205.327000", "173205.330000", "173205.334000", "173205.337000", "173205.340000", "173205.344000", "173205.348000", "173205.352000", "173205.355000", "173205.358000", "173245.267000", "173245.424000", "173245.427000", "173245.430000", "173245.434000", "173245.437000", "173245.440000", "173245.444000", "173245.447000", "173245.450000", "173245.454000", "173245.457000", "173245.460000", "173245.464000", "173245.467000", "173245.470000", "173245.473000", "173245.477000", "173245.480000", "173245.483000", "173245.486000", "173245.490000", "173245.493000", "173245.496000", "173245.500000", "173245.503000", "173245.506000", "173321.388000", "173321.392000", "173321.395000", "173321.398000", "173321.402000", "173321.405000", "173321.408000", "173321.412000", "173321.415000", "173321.418000", "173321.422000", "173321.425000", "173321.429000", "173321.432000", "173321.435000", "173321.438000", "173321.455000", "173321.458000", "173321.461000", "173321.465000", "173321.468000", "173321.471000", "173321.475000", "173321.478000", "173321.481000"],
      "InstanceCreationTime": ["173005.301000", "173005.319000", "173005.322000", "173005.326000", "173005.329000", "173005.332000", "173005.335000", "173005.339000", "173005.342000", "173005.345000", "173005.348000", "173005.351000", "173005.355000", "173005.367000", "173005.370000", "173005.373000", "173005.377000", "173005.380000", "173005.383000", "173005.386000", "173005.389000", "173005.393000", "173005.396000", "173005.399000", "173005.402000", "173005.406000", "173005.409000", "173005.412000", "173005.415000", "173005.419000", "173005.422000", "173025.267000", "173025.271000", "173025.274000", "173025.277000", "173025.280000", "173025.284000", "173025.287000", "173025.290000", "173025.293000", "173025.297000", "173025.300000", "173025.303000", "173025.314000", "173025.317000", "173025.320000", "173025.324000", "173025.327000", "173025.331000", "173025.334000", "173025.337000", "173045.266000", "173045.270000", "173045.273000", "173045.276000", "173045.279000", "173045.283000", "173045.286000", "173045.289000", "173045.292000", "173045.296000", "173045.299000", "173045.302000", "173045.305000", "173045.308000", "173045.318000", "173045.321000", "173045.324000", "173045.328000", "173045.331000", "173045.334000", "173045.337000", "173105.266000", "173105.270000", "173105.273000", "173105.276000", "173105.279000", "173105.282000", "173105.286000", "173105.299000", "173105.302000", "173105.305000", "173105.309000", "173105.312000", "173105.315000", "173105.318000", "173105.322000", "173105.325000", "173105.328000", "173105.331000", "173105.335000", "173105.338000", "173125.266000", "173125.270000", "173125.273000", "173125.276000", "173125.279000", "173125.283000", "173125.286000", "173125.289000", "173125.292000", "173125.296000", "173125.299000", "173125.302000", "173125.305000", "173125.308000", "173125.312000", "173125.315000", "173125.318000", "173125.322000", "173125.325000", "173125.328000", "173205.267000", "173205.270000", "173205.274000", "173205.277000", "173205.280000", "173205.284000", "173205.287000", "173205.290000", "173205.293000", "173205.297000", "173205.300000", "173205.303000", "173205.306000", "173205.310000", "173205.313000", "173205.316000", "173205.327000", "173205.330000", "173205.334000", "173205.337000", "173205.340000", "173205.344000", "173205.348000", "173205.352000", "173205.355000", "173205.358000", "173245.267000", "173245.424000", "173245.427000", "173245.430000", "173245.434000", "173245.437000", "173245.440000", "173245.444000", "173245.447000", "173245.450000", "173245.454000", "173245.457000", "173245.460000", "173245.464000", "173245.467000", "173245.470000", "173245.473000", "173245.477000", "173245.480000", "173245.483000", "173245.486000", "173245.490000", "173245.493000", "173245.496000", "173245.500000", "173245.503000", "173245.506000", "173321.388000", "173321.392000", "173321.395000", "173321.398000", "173321.402000", "173321.405000", "173321.408000", "173321.412000", "173321.415000", "173321.418000", "173321.422000", "173321.425000", "173321.429000", "173321.432000", "173321.435000", "173321.438000", "173321.455000", "173321.458000", "173321.461000", "173321.465000", "173321.468000", "173321.471000", "173321.475000", "173321.478000", "173321.481000"],
      "InstanceNumber": [1, 2, 3, 4, 5, 6, 7, 8, 9, 10, 11, 12, 13, 14, 15, 16, 17, 18, 19, 20, 21, 22, 23, 24, 25, 26, 27, 28, 29, 30, 31, 32, 33, 34, 35, 36, 37, 38, 39, 40, 41, 42, 43, 44, 45, 46, 47, 48, 49, 50, 51, 52, 53, 54, 55, 56, 57, 58, 59, 60, 61, 62, 63, 64, 65, 66, 67, 68, 69, 70, 71, 72, 73, 74, 75, 76, 77, 78, 79, 80, 81, 82, 83, 84, 85, 86, 87, 88, 89, 90, 91, 92, 93, 94, 95, 96, 97, 98, 99, 100, 101, 102, 103, 104, 105, 106, 107, 108, 109, 110, 111, 112, 113, 114, 115, 116, 117, 118, 119, 120, 121, 122, 123, 124, 125, 126, 127, 128, 129, 130, 131, 132, 133, 134, 135, 136, 137, 138, 139, 140, 141, 142, 143, 144, 145, 146, 147, 148, 149, 150, 151, 152, 153, 154, 155, 156, 157, 158, 159, 160, 161, 162, 163, 164, 165, 166, 167, 168, 169, 170, 171, 172, 173, 174, 175, 176, 177, 178, 179, 180, 181, 182, 183, 184, 185, 186, 187, 188, 189, 190],
      "LargestImagePixelValue": [43615, 41964, 42174, 41832, 41081, 40903, 41194, 41129, 40877, 41128, 41186, 40954, 40631, 41328, 41010, 41297, 41193, 40925, 41149, 41296, 41165, 41509, 41090, 41080, 41881, 41006, 41026, 40914, 41182, 41564, 41334, 41597, 41146, 41418, 41252, 41352, 41524, 41545, 41022, 41107, 41396, 41157, 41379, 41344, 41328, 41112, 41376, 41128, 41283, 41454, 41366, 41406, 41716, 41554, 40832, 41430, 41491, 41195, 41706, 41064, 40998, 40651, 40981, 40583, 41173, 41290, 40821, 41142, 41119, 41153, 40877, 41149, 41087, 40858, 40903, 40989, 40782, 41220, 41328, 41025, 41163, 41021, 41476, 40826, 40922, 41622, 40812, 41314, 41012, 41267, 41064, 41020, 40805, 41294, 40888, 40992, 41025, 41369, 40806, 40888, 40608, 40948, 40662, 40867, 41027, 41212, 40995, 40756, 40770, 40800, 41334, 40873, 40999, 41167, 41192, 40775, 41221, 40844, 40674, 40383, 40773, 40988, 40439, 41022, 41188, 40605, 40932, 41231, 40819, 40324, 40465, 41009, 40849, 40317, 40201, 40239, 41173, 40231, 40543, 40311, 40417, 40471, 40687, 40525, 40748, 40996, 40648, 40592, 40777, 40436, 40626, 40639, 40641, 40638, 40322, 40451, 40582, 40439, 40759, 40555, 40752, 40413, 40408, 40269, 40381, 41354, 40870, 39878, 41115, 40075, 40620, 40430, 40343, 40313, 40318, 40362, 40593, 40395, 40947, 40431, 40224, 40627, 40404, 40055, 40791, 40381, 41837, 40619, 40261, 39944],
      "WindowCenter": [10631.0, 10583.0, 10585.0, 10588.0, 10569.0, 10558.0, 10558.0, 10540.0, 10535.0, 10542.0, 10545.0, 10547.0, 10558.0, 10568.0, 10546.0, 10533.0, 10541.0, 10541.0, 10546.0, 10543.0, 10529.0, 10524.0, 10520.0, 10541.0, 10559.0, 10547.0, 10544.0, 10545.0, 10544.0, 10543.0, 10533.0, 10540.0, 10552.0, 10546.0, 10544.0, 10536.0, 10530.0, 10522.0, 10515.0, 10530.0, 10540.0, 10528.0, 10518.0, 10523.0, 10529.0, 10534.0, 10525.0, 10515.0, 10507.0, 10510.0, 10521.0, 10522.0, 10513.0, 10513.0, 10516.0, 10536.0, 10546.0, 10532.0, 10520.0, 10505.0, 10514.0, 10527.0, 10535.0, 10523.0, 10542.0, 10540.0, 10520.0, 10525.0, 10512.0, 10523.0, 10528.0, 10519.0, 10517.0, 10509.0, 10523.0, 10533.0, 10512.0, 10498.0, 10496.0, 10495.0, 10521.0, 10516.0, 10511.0, 10499.0, 10499.0, 10514.0, 10515.0, 10505.0, 10497.0, 10503.0, 10517.0, 10541.0, 10520.0, 10490.0, 10481.0, 10495.0, 10529.0, 10560.0, 10538.0, 10502.0, 10475.0, 10471.0, 10457.0, 10477.0, 10496.0, 10499.0, 10489.0, 10475.0, 10481.0, 10480.0, 10495.0, 10488.0, 10477.0, 10483.0, 10486.0, 10498.0, 10513.0, 10498.0, 10483.0, 10483.0, 10491.0, 10497.0, 10501.0, 10496.0, 10496.0, 10490.0, 10505.0, 10520.0, 10509.0, 10504.0, 10512.0, 10551.0, 10555.0, 10514.0, 10490.0, 10483.0, 10488.0, 10492.0, 10502.0, 10495.0, 10479.0, 10469.0, 10473.0, 10486.0, 10498.0, 10497.0, 10484.0, 10485.0, 10492.0, 10505.0, 10511.0, 10501.0, 10484.0, 10489.0, 10492.0, 10503.0, 10508.0, 10496.0, 10503.0, 10506.0, 10528.0, 10522.0, 10499.0, 10477.0, 10474.0, 10495.0, 10507.0, 10512.0, 10518.0, 10488.0, 10494.0, 10502.0, 10525.0, 10521.0, 10496.0, 10484.0, 10490.0, 10499.0, 10520.0, 10511.0, 10495.0, 10492.0, 10494.0, 10502.0, 10517.0, 10504.0, 10513.0, 10503.0, 10513.0, 10507.0],
      "WindowWidth": [22650.0, 22527.0, 22521.0, 22523.0, 22480.0, 22450.0, 22449.0, 22404.0, 22391.0, 22407.0, 22417.0, 22421.0, 22450.0, 22468.0, 22418.0, 22387.0, 22406.0, 22408.0, 22416.0, 22408.0, 22376.0, 22364.0, 22360.0, 22406.0, 22447.0, 22420.0, 22408.0, 22416.0, 22413.0, 22409.0, 22386.0, 22403.0, 22433.0, 22418.0, 22408.0, 22392.0, 22376.0, 22362.0, 22341.0, 22379.0, 22402.0, 22375.0, 22353.0, 22361.0, 22374.0, 22391.0, 22367.0, 22343.0, 22324.0, 22330.0, 22360.0, 22359.0, 22335.0, 22337.0, 22348.0, 22392.0, 22415.0, 22389.0, 22355.0, 22321.0, 22347.0, 22379.0, 22393.0, 22368.0, 22411.0, 22404.0, 22359.0, 22368.0, 22341.0, 22366.0, 22379.0, 22356.0, 22356.0, 22328.0, 22362.0, 22389.0, 22341.0, 22301.0, 22295.0, 22297.0, 22359.0, 22349.0, 22332.0, 22304.0, 22305.0, 22339.0, 22344.0, 22320.0, 22299.0, 22313.0, 22352.0, 22407.0, 22356.0, 22284.0, 22263.0, 22295.0, 22376.0, 22451.0, 22400.0, 22314.0, 22251.0, 22239.0, 22211.0, 22257.0, 22304.0, 22310.0, 22282.0, 22253.0, 22264.0, 22261.0, 22300.0, 22284.0, 22252.0, 22265.0, 22275.0, 22309.0, 22342.0, 22303.0, 22272.0, 22271.0, 22287.0, 22303.0, 22315.0, 22297.0, 22298.0, 22288.0, 22324.0, 22355.0, 22332.0, 22321.0, 22341.0, 22433.0, 22443.0, 22345.0, 22287.0, 22267.0, 22277.0, 22289.0, 22316.0, 22300.0, 22261.0, 22240.0, 22245.0, 22273.0, 22308.0, 22305.0, 22275.0, 22278.0, 22292.0, 22329.0, 22342.0, 22314.0, 22275.0, 22287.0, 22295.0, 22324.0, 22332.0, 22304.0, 22322.0, 22328.0, 22378.0, 22367.0, 22313.0, 22262.0, 22252.0, 22298.0, 22328.0, 22345.0, 22360.0, 22287.0, 22299.0, 22317.0, 22372.0, 22366.0, 22305.0, 22274.0, 22287.0, 22309.0, 22354.0, 22337.0, 22302.0, 22293.0, 22299.0, 22319.0, 22354.0, 22323.0, 22338.0, 22321.0, 22346.0, 22335.0]
    },
    "slices": {}
  }
}