{
  "AcquisitionMatrixPE": 104,
  "AcquisitionNumber": 1,
  "AcquisitionTime": "17:28:37.117500",
  "BandwidthPerPixelPhaseEncode": 17.17,
  "BaseResolution": 104,
  "BodyPartExamined": "BRAIN",
  "CoilString": "HC1-7;NC1_2",
  "ConsistencyInfo": "N4_VE11C_LATEST_20160120",
  "ConversionSoftware": "dcm2niix",
  "ConversionSoftwareVersion": "v1.0.20190902",
  "DerivedVendorReportedEchoSpacing": 0.000560011,
  "DeviceSerialNumber": "167006",
  "DwellTime": 2.1e-06,
  "EchoTime": 0.037,
  "EchoTrainLength": 104,
  "EffectiveEchoSpacing": 0.000560011,
  "FlipAngle": 52,
  "ImageComments": "Unaliased_MB4_PE3_LB",
  "ImageOrientationPatientDICOM": [0.997842, 0.0525037, 0.0394391, -0.0365891, 0.943271, -0.330003],
  "ImageType": [
    "ORIGINAL",
    "PRIMARY",
    "P",
    "MB",
    "ND",
    "MOSAIC"
],
  "ImagingFrequency": 123.259,
  "InPlanePhaseEncodingDirectionDICOM": "COL",
  "InstitutionAddress": "Chemin_Queen-Mary_4565_Montreal_District_CA_H3W_1W5",
  "InstitutionName": "IUGM",
  "InstitutionalDepartmentName": "Department",
  "MRAcquisitionType": "2D",
  "MagneticFieldStrength": 3,
  "Manufacturer": "Siemens",
  "ManufacturersModelName": "Prisma_fit",
  "Modality": "MR",
  "MultibandAccelerationFactor": 4,
  "PartialFourier": 1,
  "PatientPosition": "HFS",
  "PercentPhaseFOV": 100,
  "PhaseEncodingDirection": "j",
  "PhaseEncodingSteps": 104,
  "PhaseResolution": 1,
  "PixelBandwidth": 2290,
  "ProcedureStepDescription": "memory_things",
  "ProtocolName": "func_task-things_run-1",
  "PulseSequenceDetails": "%CustomerSeq%_cmrr_mbep2d_bold",
  "ReceiveCoilActiveElements": "HC1-7;NC1,2",
  "ReceiveCoilName": "HeadNeck_64",
  "ReconMatrixPE": 104,
  "RepetitionTime": 1.49,
  "SAR": 0.0566362,
  "ScanOptions": "FS",
  "ScanningSequence": "EP",
  "SequenceName": "epfid2d1_104",
  "SequenceVariant": "SK_SS",
  "SeriesDescription": "func_task-things_run-1",
  "SeriesNumber": 11,
  "ShimSetting": [632, -7175, -8792, 671, 84, 74, -28, -16],
  "SliceThickness": 2,
  "SliceTiming": [0, 0.785, 0.0975, 0.8825, 0.195, 0.98, 0.295, 1.0775, 0.3925, 1.175, 0.49, 1.275, 0.5875, 1.3725, 0.685, 0, 0.785, 0.0975, 0.8825, 0.195, 0.98, 0.295, 1.0775, 0.3925, 1.175, 0.49, 1.275, 0.5875, 1.3725, 0.685, 0, 0.785, 0.0975, 0.8825, 0.195, 0.98, 0.295, 1.0775, 0.3925, 1.175, 0.49, 1.275, 0.5875, 1.3725, 0.685, 0, 0.785, 0.0975, 0.8825, 0.195, 0.98, 0.295, 1.0775, 0.3925, 1.175, 0.49, 1.275, 0.5875, 1.3725, 0.685],
  "SoftwareVersions": "syngo_MR_E11",
  "SpacingBetweenSlices": 2,
  "StationName": "MRC35049",
  "TaskName": "things",
  "TotalReadoutTime": 0.0576811,
  "TxRefAmp": 290.439,
  "WipMemBlock": "0bf8f7a5-63e5-4913-b00e-86c226204f1b||Sequence: R016 ve11c/master r/e634e98; Dec 19 2017 11:00:25 by eja",
  "dcmmeta_affine": [
    [-1.9956833124160767, -0.07317829877138138, 0.10905627906322479, 108.08109283447266],
    [-0.10500742495059967, 1.8865410089492798, -0.6556952595710754, -55.71520233154297],
    [0.0788782387971878, 0.6600058674812317, 1.8863112926483154, -57.94007873535156],
    [0.0, 0.0, 0.0, 1.0]
],
  "dcmmeta_reorient_transform": [
    [0.0, -1.0, 0.0, 103.0],
    [1.0, 0.0, 0.0, 0.0],
    [0.0, 0.0, 1.0, 0.0],
    [0.0, 0.0, 0.0, 1.0]
],
  "dcmmeta_shape": [104, 104, 60, 190],
  "dcmmeta_slice_dim": 2,
  "dcmmeta_version": 0.6,
  "global": {
    "const": {
      "AcquisitionMatrix": [104, 0, 0, 104],
      "AngioFlag": "N",
      "BitsAllocated": 16,
      "BitsStored": 16,
      "BodyPartExamined": "BRAIN",
      "Columns": 832,
      "EchoNumbers": 1,
      "EchoTime": 37.0,
      "EchoTrainLength": 104,
      "FlipAngle": 52.0,
      "HighBit": 15,
      "ImageOrientationPatient": [0.99784162877792, 0.0525037109893, 0.03943912030183, -0.0365891509705, 0.94327053248117, -0.3300029342051],
      "ImagePositionPatient": [-800.33553403559, -863.52217639629, 221.57098113747],
      "ImageType": [
        "ORIGINAL",
        "PRIMARY",
        "P",
        "MB",
        "ND",
        "MOSAIC"
],
      "ImagedNucleus": "1H",
      "ImagingFrequency": 123.258883,
      "InPlanePhaseEncodingDirection": "COL",
      "LargestImagePixelValue": 4095,
      "MRAcquisitionType": "2D",
      "MagneticFieldStrength": 3.0,
      "Manufacturer": "SIEMENS",
      "ManufacturerModelName": "Prisma_fit",
      "Modality": "MR",
      "NumberOfAverages": 1.0,
      "NumberOfPhaseEncodingSteps": 104,
      "PercentPhaseFieldOfView": 100.0,
      "PercentSampling": 100.0,
      "PerformedProcedureStepStartTime": "170453.829000",
      "PhotometricInterpretation": "MONOCHROME2",
      "PixelBandwidth": 2290.0,
      "PixelRepresentation": 0,
      "PixelSpacing": [2.0, 2.0],
      "ProtocolName": "func_task-things_run-1",
      "RepetitionTime": 1490.0,
      "RescaleIntercept": -4096.0,
      "RescaleSlope": 2.0,
      "RescaleType": "US",
      "Rows": 832,
      "SAR": 0.05663615776613,
      "SamplesPerPixel": 1,
      "ScanOptions": "FS",
      "ScanningSequence": "EP",
      "SequenceName": "epfid2d1_104",
      "SequenceVariant": [
        "SK",
        "SS"
],
      "SeriesDescription": "func_task-things_run-1",
      "SeriesNumber": 11,
      "SeriesTime": "173005.467000",
      "SliceLocation": -30.486957268536,
      "SliceThickness": 2.0,
      "SmallestImagePixelValue": 0,
      "SoftwareVersions": "syngo MR E11",
      "SpacingBetweenSlices": 2.0000000095256,
      "SpecificCharacterSet": "ISO_IR 100",
      "StudyID": "1",
      "StudyTime": "170453.736000",
      "TransmitCoilName": "Body",
      "VariableFlipAngleFlag": "N",
      "WindowCenterWidthExplanation": "Algo1",
      "dBdt": 0.0},
    "slices": {}
  },
  "time": {
    "samples": {
      "AcquisitionNumber": [1, 2, 3, 4, 5, 6, 7, 8, 9, 10, 11, 12, 13, 14, 15, 16, 17, 18, 19, 20, 21, 22, 23, 24, 25, 26, 27, 28, 29, 30, 31, 32, 33, 34, 35, 36, 37, 38, 39, 40, 41, 42, 43, 44, 45, 46, 47, 48, 49, 50, 51, 52, 53, 54, 55, 56, 57, 58, 59, 60, 61, 62, 63, 64, 65, 66, 67, 68, 69, 70, 71, 72, 73, 74, 75, 76, 77, 78, 79, 80, 81, 82, 83, 84, 85, 86, 87, 88, 89, 90, 91, 92, 93, 94, 95, 96, 97, 98, 99, 100, 101, 102, 103, 104, 105, 106, 107, 108, 109, 110, 111, 112, 113, 114, 115, 116, 117, 118, 119, 120, 121, 122, 123, 124, 125, 126, 127, 128, 129, 130, 131, 132, 133, 134, 135, 136, 137, 138, 139, 140, 141, 142, 143, 144, 145, 146, 147, 148, 149, 150, 151, 152, 153, 154, 155, 156, 157, 158, 159, 160, 161, 162, 163, 164, 165, 166, 167, 168, 169, 170, 171, 172, 173, 174, 175, 176, 177, 178, 179, 180, 181, 182, 183, 184, 185, 186, 187, 188, 189, 190],
      "AcquisitionTime": ["172837.117500", "172838.607500", "172840.097500", "172841.587500", "172843.077500", "172844.567500", "172846.057500", "172847.547500", "172849.037500", "172850.527500", "172852.017500", "172853.507500", "172854.997500", "172856.487500", "172857.977500", "172859.467500", "172900.957500", "172902.447500", "172903.937500", "172905.427500", "172906.917500", "172908.407500", "172909.897500", "172911.387500", "172912.877500", "172914.367500", "172915.857500", "172917.347500", "172918.837500", "172920.327500", "172921.817500", "172923.307500", "172924.797500", "172926.287500", "172927.777500", "172929.267500", "172930.757500", "172932.247500", "172933.737500", "172935.227500", "172936.717500", "172938.207500", "172939.697500", "172941.187500", "172942.677500", "172944.167500", "172945.657500", "172947.147500", "172948.637500", "172950.127500", "172951.617500", "172953.107500", "172954.597500", "172956.087500", "172957.577500", "172959.067500", "173000.557500", "173002.047500", "173003.537500", "173005.027500", "173006.517500", "173008.007500", "173009.497500", "173010.987500", "173012.477500", "173013.967500", "173015.457500", "173016.947500", "173018.437500", "173019.927500", "173021.417500", "173022.907500", "173024.397500", "173025.887500", "173027.377500", "173028.867500", "173030.357500", "173031.847500", "173033.337500", "173034.827500", "173036.317500", "173037.807500", "173039.297500", "173040.787500", "173042.277500", "173043.767500", "173045.257500", "173046.747500", "173048.237500", "173049.727500", "173051.217500", "173052.707500", "173054.197500", "173055.687500", "173057.177500", "173058.667500", "173100.157500", "173101.647500", "173103.137500", "173104.627500", "173106.117500", "173107.607500", "173109.097500", "173110.587500", "173112.077500", "173113.567500", "173115.057500", "173116.547500", "173118.037500", "173119.527500", "173121.017500", "173122.507500", "173123.997500", "173125.487500", "173126.977500", "173128.467500", "173129.957500", "173131.447500", "173132.937500", "173134.427500", "173135.917500", "173137.407500", "173138.897500", "173140.387500", "173141.877500", "173143.367500", "173144.857500", "173146.347500", "173147.837500", "173149.327500", "173150.817500", "173152.307500", "173153.797500", "173155.287500", "173156.777500", "173158.267500", "173159.757500", "173201.247500", "173202.737500", "173204.227500", "173205.717500", "173207.207500", "173208.697500", "173210.187500", "173211.677500", "173213.167500", "173214.657500", "173216.147500", "173217.637500", "173219.127500", "173220.617500", "173222.107500", "173223.597500", "173225.087500", "173226.577500", "173228.067500", "173229.557500", "173231.047500", "173232.537500", "173234.027500", "173235.517500", "173237.007500", "173238.497500", "173239.987500", "173241.477500", "173242.967500", "173244.457500", "173245.947500", "173247.437500", "173248.927500", "173250.417500", "173251.907500", "173253.397500", "173254.887500", "173256.377500", "173257.867500", "173259.357500", "173300.847500", "173302.337500", "173303.827500", "173305.317500", "173306.807500", "173308.297500", "173309.787500", "173311.277500", "173312.767500", "173314.257500", "173315.747500", "173317.237500", "173318.727500"],
      "ContentTime": ["173005.469000", "173005.472000", "173005.474000", "173005.477000", "173005.479000", "173005.482000", "173005.489000", "173005.492000", "173005.494000", "173005.497000", "173005.499000", "173005.501000", "173005.504000", "173005.506000", "173005.509000", "173005.511000", "173005.514000", "173005.516000", "173005.518000", "173005.521000", "173005.523000", "173005.526000", "173005.528000", "173005.531000", "173005.533000", "173005.536000", "173005.538000", "173005.540000", "173005.543000", "173005.545000", "173005.548000", "173025.388000", "173025.391000", "173025.393000", "173025.396000", "173025.398000", "173025.401000", "173025.403000", "173025.406000", "173025.408000", "173025.410000", "173025.413000", "173025.415000", "173025.418000", "173025.420000", "173025.423000", "173025.425000", "173025.427000", "173025.430000", "173025.432000", "173025.435000", "173045.380000", "173045.383000", "173045.386000", "173045.388000", "173045.391000", "173045.393000", "173045.396000", "173045.398000", "173045.400000", "173045.403000", "173045.405000", "173045.408000", "173045.410000", "173045.413000", "173045.415000", "173045.417000", "173045.420000", "173045.422000", "173045.425000", "173045.427000", "173045.430000", "173105.379000", "173105.382000", "173105.385000", "173105.387000", "173105.389000", "173105.392000", "173105.394000", "173105.397000", "173105.399000", "173105.402000", "173105.404000", "173105.407000", "173105.409000", "173105.412000", "173105.414000", "173105.417000", "173105.419000", "173105.421000", "173105.424000", "173105.426000", "173125.447000", "173125.450000", "173125.452000", "173125.454000", "173125.457000", "173125.459000", "173125.462000", "173125.464000", "173125.467000", "173125.469000", "173125.472000", "173125.474000", "173125.477000", "173125.479000", "173125.482000", "173125.484000", "173125.486000", "173125.489000", "173125.491000", "173125.494000", "173205.408000", "173205.411000", "173205.414000", "173205.416000", "173205.419000", "173205.421000", "173205.424000", "173205.426000", "173205.429000", "173205.431000", "173205.434000", "173205.436000", "173205.438000", "173205.441000", "173205.443000", "173205.446000", "173205.448000", "173205.454000", "173205.457000", "173205.459000", "173205.462000", "173205.464000", "173205.467000", "173205.469000", "173205.472000", "173205.474000", "173245.566000", "173245.568000", "173245.571000", "173245.574000", "173245.576000", "173245.579000", "173245.581000", "173245.584000", "173245.587000", "173245.590000", "173245.592000", "173245.595000", "173245.597000", "173245.600000", "173245.602000", "173245.605000", "173245.607000", "173245.610000", "173245.612000", "173245.615000", "173245.617000", "173245.620000", "173245.622000", "173245.625000", "173245.627000", "173245.630000", "173245.632000", "173321.547000", "173321.549000", "173321.552000", "173321.555000", "173321.557000", "173321.560000", "173321.562000", "173321.565000", "173321.567000", "173321.570000", "173321.573000", "173321.575000", "173321.578000", "173321.580000", "173321.583000", "173321.585000", "173321.588000", "173321.590000", "173321.593000", "173321.595000", "173321.598000", "173321.600000", "173321.603000", "173321.605000", "173321.608000"],
      "InstanceCreationTime": ["173005.469000", "173005.472000", "173005.474000", "173005.477000", "173005.479000", "173005.482000", "173005.489000", "173005.492000", "173005.494000", "173005.497000", "173005.499000", "173005.501000", "173005.504000", "173005.506000", "173005.509000", "173005.511000", "173005.514000", "173005.516000", "173005.518000", "173005.521000", "173005.523000", "173005.526000", "173005.528000", "173005.531000", "173005.533000", "173005.536000", "173005.538000", "173005.540000", "173005.543000", "173005.545000", "173005.548000", "173025.388000", "173025.391000", "173025.393000", "173025.396000", "173025.398000", "173025.401000", "173025.403000", "173025.406000", "173025.408000", "173025.410000", "173025.413000", "173025.415000", "173025.418000", "173025.420000", "173025.423000", "173025.425000", "173025.427000", "173025.430000", "173025.432000", "173025.435000", "173045.380000", "173045.383000", "173045.386000", "173045.388000", "173045.391000", "173045.393000", "173045.396000", "173045.398000", "173045.400000", "173045.403000", "173045.405000", "173045.408000", "173045.410000", "173045.413000", "173045.415000", "173045.417000", "173045.420000", "173045.422000", "173045.425000", "173045.427000", "173045.430000", "173105.379000", "173105.382000", "173105.385000", "173105.387000", "173105.389000", "173105.392000", "173105.394000", "173105.397000", "173105.399000", "173105.402000", "173105.404000", "173105.407000", "173105.409000", "173105.412000", "173105.414000", "173105.417000", "173105.419000", "173105.421000", "173105.424000", "173105.426000", "173125.447000", "173125.450000", "173125.452000", "173125.454000", "173125.457000", "173125.459000", "173125.462000", "173125.464000", "173125.467000", "173125.469000", "173125.472000", "173125.474000", "173125.477000", "173125.479000", "173125.482000", "173125.484000", "173125.486000", "173125.489000", "173125.491000", "173125.494000", "173205.408000", "173205.411000", "173205.414000", "173205.416000", "173205.419000", "173205.421000", "173205.424000", "173205.426000", "173205.429000", "173205.431000", "173205.434000", "173205.436000", "173205.438000", "173205.441000", "173205.443000", "173205.446000", "173205.448000", "173205.454000", "173205.457000", "173205.459000", "173205.462000", "173205.464000", "173205.467000", "173205.469000", "173205.472000", "173205.474000", "173245.566000", "173245.568000", "173245.571000", "173245.574000", "173245.576000", "173245.579000", "173245.581000", "173245.584000", "173245.587000", "173245.590000", "173245.592000", "173245.595000", "173245.597000", "173245.600000", "173245.602000", "173245.605000", "173245.607000", "173245.610000", "173245.612000", "173245.615000", "173245.617000", "173245.620000", "173245.622000", "173245.625000", "173245.627000", "173245.630000", "173245.632000", "173321.547000", "173321.549000", "173321.552000", "173321.555000", "173321.557000", "173321.560000", "173321.562000", "173321.565000", "173321.567000", "173321.570000", "173321.573000", "173321.575000", "173321.578000", "173321.580000", "173321.583000", "173321.585000", "173321.588000", "173321.590000", "173321.593000", "173321.595000", "173321.598000", "173321.600000", "173321.603000", "173321.605000", "173321.608000"],
      "InstanceNumber": [1, 2, 3, 4, 5, 6, 7, 8, 9, 10, 11, 12, 13, 14, 15, 16, 17, 18, 19, 20, 21, 22, 23, 24, 25, 26, 27, 28, 29, 30, 31, 32, 33, 34, 35, 36, 37, 38, 39, 40, 41, 42, 43, 44, 45, 46, 47, 48, 49, 50, 51, 52, 53, 54, 55, 56, 57, 58, 59, 60, 61, 62, 63, 64, 65, 66, 67, 68, 69, 70, 71, 72, 73, 74, 75, 76, 77, 78, 79, 80, 81, 82, 83, 84, 85, 86, 87, 88, 89, 90, 91, 92, 93, 94, 95, 96, 97, 98, 99, 100, 101, 102, 103, 104, 105, 106, 107, 108, 109, 110, 111, 112, 113, 114, 115, 116, 117, 118, 119, 120, 121, 122, 123, 124, 125, 126, 127, 128, 129, 130, 131, 132, 133, 134, 135, 136, 137, 138, 139, 140, 141, 142, 143, 144, 145, 146, 147, 148, 149, 150, 151, 152, 153, 154, 155, 156, 157, 158, 159, 160, 161, 162, 163, 164, 165, 166, 167, 168, 169, 170, 171, 172, 173, 174, 175, 176, 177, 178, 179, 180, 181, 182, 183, 184, 185, 186, 187, 188, 189, 190],
      "WindowCenter": [4814.0, 4814.0, 4836.0, 4834.0, 4810.0, 4814.0, 4810.0, 4808.0, 4808.0, 4814.0, 4812.0, 4806.0, 4808.0, 4812.0, 4836.0, 4834.0, 4834.0, 4808.0, 4806.0, 4808.0, 4804.0, 4808.0, 4802.0, 4810.0, 4810.0, 4810.0, 4812.0, 4832.0, 4808.0, 4812.0, 4808.0, 4806.0, 4806.0, 4806.0, 4778.0, 4802.0, 4810.0, 4834.0, 4812.0, 4810.0, 4834.0, 4808.0, 4808.0, 4782.0, 4780.0, 4802.0, 4808.0, 4812.0, 4810.0, 4806.0, 4808.0, 4810.0, 4808.0, 4806.0, 4780.0, 4780.0, 4808.0, 4810.0, 4808.0, 4808.0, 4812.0, 4810.0, 4806.0, 4780.0, 4804.0, 4804.0, 4808.0, 4806.0, 4802.0, 4804.0, 4804.0, 4810.0, 4806.0, 4804.0, 4782.0, 4806.0, 4806.0, 4810.0, 4806.0, 4804.0, 4804.0, 4800.0, 4802.0, 4782.0, 4778.0, 4780.0, 4804.0, 4810.0, 4808.0, 4804.0, 4780.0, 4778.0, 4804.0, 4808.0, 4804.0, 4802.0, 4806.0, 4780.0, 4808.0, 4810.0, 4808.0, 4804.0, 4782.0, 4806.0, 4804.0, 4802.0, 4804.0, 4804.0, 4804.0, 4782.0, 4802.0, 4806.0, 4808.0, 4804.0, 4782.0, 4782.0, 4804.0, 4834.0, 4810.0, 4804.0, 4780.0, 4782.0, 4800.0, 4802.0, 4804.0, 4782.0, 4802.0, 4806.0, 4810.0, 4782.0, 4784.0, 4806.0, 4808.0, 4812.0, 4832.0, 4810.0, 4804.0, 4782.0, 4780.0, 4780.0, 4804.0, 4804.0, 4804.0, 4802.0, 4806.0, 4808.0, 4810.0, 4808.0, 4782.0, 4778.0, 4778.0, 4806.0, 4806.0, 4808.0, 4804.0, 4808.0, 4804.0, 4804.0, 4802.0, 4782.0, 4778.0, 4804.0, 4808.0, 4812.0, 4810.0, 4808.0, 4780.0, 4806.0, 4804.0, 4802.0, 4780.0, 4780.0, 4780.0, 4806.0, 4808.0, 4812.0, 4806.0, 4784.0, 4782.0, 4802.0, 4804.0, 4804.0, 4804.0, 4778.0, 4804.0, 4804.0, 4802.0, 4780.0, 4804.0, 4802.0],
      "WindowWidth": [18628.0, 18622.0, 18660.0, 18654.0, 18620.0, 18626.0, 18620.0, 18612.0, 18616.0, 18626.0, 18626.0, 18606.0, 18612.0, 18628.0, 18656.0, 18656.0, 18654.0, 18618.0, 18608.0, 18618.0, 18616.0, 18622.0, 18612.0, 18620.0, 18626.0, 18622.0, 18618.0, 18654.0, 18626.0, 18628.0, 18620.0, 18616.0, 18620.0, 18610.0, 18572.0, 18612.0, 18624.0, 18654.0, 18624.0, 18630.0, 18658.0, 18622.0, 18620.0, 18574.0, 18578.0, 18610.0, 18622.0, 18624.0, 18622.0, 18616.0, 18622.0, 18624.0, 18622.0, 18614.0, 18574.0, 18576.0, 18618.0, 18628.0, 18622.0, 18624.0, 18628.0, 18624.0, 18610.0, 18576.0, 18606.0, 18622.0, 18622.0, 18616.0, 18604.0, 18608.0, 18620.0, 18624.0, 18620.0, 18606.0, 18578.0, 18618.0, 18624.0, 18626.0, 18616.0, 18616.0, 18616.0, 18614.0, 18612.0, 18574.0, 18568.0, 18572.0, 18616.0, 18628.0, 18628.0, 18608.0, 18570.0, 18576.0, 18618.0, 18626.0, 18620.0, 18610.0, 18602.0, 18572.0, 18616.0, 18624.0, 18622.0, 18616.0, 18576.0, 18606.0, 18608.0, 18616.0, 18620.0, 18618.0, 18606.0, 18574.0, 18610.0, 18618.0, 18624.0, 18612.0, 18574.0, 18572.0, 18616.0, 18660.0, 18624.0, 18620.0, 18576.0, 18574.0, 18606.0, 18610.0, 18612.0, 18572.0, 18610.0, 18622.0, 18622.0, 18578.0, 18570.0, 18606.0, 18622.0, 18628.0, 18660.0, 18624.0, 18606.0, 18566.0, 18570.0, 18576.0, 18614.0, 18614.0, 18604.0, 18600.0, 18614.0, 18618.0, 18624.0, 18614.0, 18572.0, 18564.0, 18570.0, 18614.0, 18620.0, 18614.0, 18610.0, 18618.0, 18614.0, 18620.0, 18604.0, 18566.0, 18560.0, 18606.0, 18620.0, 18630.0, 18630.0, 18612.0, 18574.0, 18608.0, 18612.0, 18610.0, 18576.0, 18568.0, 18572.0, 18616.0, 18622.0, 18626.0, 18610.0, 18572.0, 18574.0, 18610.0, 18612.0, 18618.0, 18604.0, 18570.0, 18608.0, 18614.0, 18606.0, 18568.0, 18604.0, 18608.0]
    },
    "slices": {}
  }
}