{
  "AcquisitionMatrixPE": 104,
  "AcquisitionNumber": 1,
  "AcquisitionTime": "17:34:46.947500",
  "BandwidthPerPixelPhaseEncode": 17.17,
  "BaseResolution": 104,
  "BodyPartExamined": "BRAIN",
  "CoilString": "HC1-7;NC1_2",
  "ConsistencyInfo": "N4_VE11C_LATEST_20160120",
  "ConversionSoftware": "dcm2niix",
  "ConversionSoftwareVersion": "v1.0.20190902",
  "DerivedVendorReportedEchoSpacing": 0.000560011,
  "DeviceSerialNumber": "167006",
  "DwellTime": 2.1e-06,
  "EchoTime": 0.037,
  "EchoTrainLength": 104,
  "EffectiveEchoSpacing": 0.000560011,
  "FlipAngle": 52,
  "ImageComments": "Unaliased_MB4_PE3_LB",
  "ImageOrientationPatientDICOM": [0.997842, 0.0525037, 0.0394391, -0.0365891, 0.943271, -0.330003],
  "ImageType": [
    "ORIGINAL",
    "PRIMARY",
    "M",
    "MB",
    "ND",
    "MOSAIC"
],
  "ImagingFrequency": 123.259,
  "InPlanePhaseEncodingDirectionDICOM": "COL",
  "InstitutionAddress": "Chemin_Queen-Mary_4565_Montreal_District_CA_H3W_1W5",
  "InstitutionName": "IUGM",
  "InstitutionalDepartmentName": "Department",
  "MRAcquisitionType": "2D",
  "MagneticFieldStrength": 3,
  "Manufacturer": "Siemens",
  "ManufacturersModelName": "Prisma_fit",
  "Modality": "MR",
  "MultibandAccelerationFactor": 4,
  "PartialFourier": 1,
  "PatientPosition": "HFS",
  "PercentPhaseFOV": 100,
  "PhaseEncodingDirection": "j",
  "PhaseEncodingSteps": 104,
  "PhaseResolution": 1,
  "PixelBandwidth": 2290,
  "ProcedureStepDescription": "memory_things",
  "ProtocolName": "func_task-things_run-2",
  "PulseSequenceDetails": "%CustomerSeq%_cmrr_mbep2d_bold",
  "ReceiveCoilActiveElements": "HC1-7;NC1,2",
  "ReceiveCoilName": "HeadNeck_64",
  "ReconMatrixPE": 104,
  "RepetitionTime": 1.49,
  "SAR": 0.0566362,
  "ScanOptions": "FS",
  "ScanningSequence": "EP",
  "SequenceName": "epfid2d1_104",
  "SequenceVariant": "SK_SS",
  "SeriesDescription": "func_task-things_run-2",
  "SeriesNumber": 13,
  "ShimSetting": [632, -7175, -8792, 671, 84, 74, -28, -16],
  "SliceThickness": 2,
  "SliceTiming": [0, 0.785, 0.1, 0.8825, 0.1975, 0.98, 0.295, 1.08, 0.3925, 1.1775, 0.49, 1.275, 0.59, 1.3725, 0.6875, 0, 0.785, 0.1, 0.8825, 0.1975, 0.98, 0.295, 1.08, 0.3925, 1.1775, 0.49, 1.275, 0.59, 1.3725, 0.6875, 0, 0.785, 0.1, 0.8825, 0.1975, 0.98, 0.295, 1.08, 0.3925, 1.1775, 0.49, 1.275, 0.59, 1.3725, 0.6875, 0, 0.785, 0.1, 0.8825, 0.1975, 0.98, 0.295, 1.08, 0.3925, 1.1775, 0.49, 1.275, 0.59, 1.3725, 0.6875],
  "SoftwareVersions": "syngo_MR_E11",
  "SpacingBetweenSlices": 2,
  "StationName": "MRC35049",
  "TaskName": "things",
  "TotalReadoutTime": 0.0576811,
  "TxRefAmp": 290.439,
  "WipMemBlock": "54e15141-aba0-426a-b8bf-d4b6c04548d6||Sequence: R016 ve11c/master r/e634e98; Dec 19 2017 11:00:25 by eja",
  "dcmmeta_affine": [
    [-1.9956833124160767, -0.07317829877138138, 0.10905627906322479, 108.08109283447266],
    [-0.10500742495059967, 1.8865410089492798, -0.6556952595710754, -55.71520233154297],
    [0.0788782387971878, 0.6600058674812317, 1.8863112926483154, -57.94007873535156],
    [0.0, 0.0, 0.0, 1.0]
],
  "dcmmeta_reorient_transform": [
    [0.0, -1.0, 0.0, 103.0],
    [1.0, 0.0, 0.0, 0.0],
    [0.0, 0.0, 1.0, 0.0],
    [0.0, 0.0, 0.0, 1.0]
],
  "dcmmeta_shape": [104, 104, 60, 190],
  "dcmmeta_slice_dim": 2,
  "dcmmeta_version": 0.6,
  "global": {
    "const": {
      "AcquisitionMatrix": [104, 0, 0, 104],
      "AngioFlag": "N",
      "BitsAllocated": 16,
      "BitsStored": 16,
      "BodyPartExamined": "BRAIN",
      "Columns": 832,
      "EchoNumbers": 1,
      "EchoTime": 37.0,
      "EchoTrainLength": 104,
      "FlipAngle": 52.0,
      "HighBit": 15,
      "ImageOrientationPatient": [0.99784162877792, 0.0525037109893, 0.03943912030183, -0.0365891509705, 0.94327053248117, -0.3300029342051],
      "ImagePositionPatient": [-800.33553403559, -863.52217639629, 221.57098113747],
      "ImageType": [
        "ORIGINAL",
        "PRIMARY",
        "M",
        "MB",
        "ND",
        "MOSAIC"
],
      "ImagedNucleus": "1H",
      "ImagingFrequency": 123.258889,
      "InPlanePhaseEncodingDirection": "COL",
      "MRAcquisitionType": "2D",
      "MagneticFieldStrength": 3.0,
      "Manufacturer": "SIEMENS",
      "ManufacturerModelName": "Prisma_fit",
      "Modality": "MR",
      "NumberOfAverages": 1.0,
      "NumberOfPhaseEncodingSteps": 104,
      "PercentPhaseFieldOfView": 100.0,
      "PercentSampling": 100.0,
      "PerformedProcedureStepStartTime": "170453.829000",
      "PhotometricInterpretation": "MONOCHROME2",
      "PixelBandwidth": 2290.0,
      "PixelRepresentation": 0,
      "PixelSpacing": [2.0, 2.0],
      "ProtocolName": "func_task-things_run-2",
      "RepetitionTime": 1490.0,
      "Rows": 832,
      "SAR": 0.05663615776613,
      "SamplesPerPixel": 1,
      "ScanOptions": "FS",
      "ScanningSequence": "EP",
      "SequenceName": "epfid2d1_104",
      "SequenceVariant": [
        "SK",
        "SS"
],
      "SeriesDescription": "func_task-things_run-2",
      "SeriesNumber": 13,
      "SeriesTime": "173603.664000",
      "SliceLocation": -30.486957268536,
      "SliceThickness": 2.0,
      "SmallestImagePixelValue": 0,
      "SoftwareVersions": "syngo MR E11",
      "SpacingBetweenSlices": 2.0000000095256,
      "SpecificCharacterSet": "ISO_IR 100",
      "StudyID": "1",
      "StudyTime": "170453.736000",
      "TransmitCoilName": "Body",
      "VariableFlipAngleFlag": "N",
      "WindowCenterWidthExplanation": "Algo1",
      "dBdt": 0.0},
    "slices": {}
  },
  "time": {
    "samples": {
      "AcquisitionNumber": [1, 2, 3, 4, 5, 6, 7, 8, 9, 10, 11, 12, 13, 14, 15, 16, 17, 18, 19, 20, 21, 22, 23, 24, 25, 26, 27, 28, 29, 30, 31, 32, 33, 34, 35, 36, 37, 38, 39, 40, 41, 42, 43, 44, 45, 46, 47, 48, 49, 50, 51, 52, 53, 54, 55, 56, 57, 58, 59, 60, 61, 62, 63, 64, 65, 66, 67, 68, 69, 70, 71, 72, 73, 74, 75, 76, 77, 78, 79, 80, 81, 82, 83, 84, 85, 86, 87, 88, 89, 90, 91, 92, 93, 94, 95, 96, 97, 98, 99, 100, 101, 102, 103, 104, 105, 106, 107, 108, 109, 110, 111, 112, 113, 114, 115, 116, 117, 118, 119, 120, 121, 122, 123, 124, 125, 126, 127, 128, 129, 130, 131, 132, 133, 134, 135, 136, 137, 138, 139, 140, 141, 142, 143, 144, 145, 146, 147, 148, 149, 150, 151, 152, 153, 154, 155, 156, 157, 158, 159, 160, 161, 162, 163, 164, 165, 166, 167, 168, 169, 170, 171, 172, 173, 174, 175, 176, 177, 178, 179, 180, 181, 182, 183, 184, 185, 186, 187, 188, 189, 190],
      "AcquisitionTime": ["173446.947500", "173448.437500", "173449.927500", "173451.417500", "173452.907500", "173454.397500", "173455.887500", "173457.377500", "173458.867500", "173500.357500", "173501.847500", "173503.337500", "173504.827500", "173506.317500", "173507.807500", "173509.297500", "173510.787500", "173512.277500", "173513.767500", "173515.257500", "173516.747500", "173518.237500", "173519.727500", "173521.217500", "173522.707500", "173524.197500", "173525.687500", "173527.177500", "173528.667500", "173530.157500", "173531.647500", "173533.137500", "173534.627500", "173536.117500", "173537.607500", "173539.097500", "173540.587500", "173542.077500", "173543.567500", "173545.057500", "173546.547500", "173548.037500", "173549.527500", "173551.017500", "173552.507500", "173553.997500", "173555.487500", "173556.977500", "173558.467500", "173559.957500", "173601.447500", "173602.937500", "173604.427500", "173605.917500", "173607.407500", "173608.897500", "173610.387500", "173611.877500", "173613.367500", "173614.857500", "173616.347500", "173617.837500", "173619.327500", "173620.817500", "173622.307500", "173623.797500", "173625.287500", "173626.777500", "173628.267500", "173629.757500", "173631.247500", "173632.737500", "173634.227500", "173635.717500", "173637.207500", "173638.697500", "173640.187500", "173641.677500", "173643.167500", "173644.657500", "173646.147500", "173647.637500", "173649.127500", "173650.617500", "173652.107500", "173653.597500", "173655.087500", "173656.577500", "173658.067500", "173659.557500", "173701.047500", "173702.537500", "173704.027500", "173705.517500", "173707.007500", "173708.497500", "173709.987500", "173711.477500", "173712.967500", "173714.457500", "173715.947500", "173717.437500", "173718.927500", "173720.417500", "173721.907500", "173723.397500", "173724.887500", "173726.377500", "173727.867500", "173729.357500", "173730.847500", "173732.337500", "173733.827500", "173735.317500", "173736.807500", "173738.297500", "173739.787500", "173741.277500", "173742.767500", "173744.257500", "173745.747500", "173747.237500", "173748.727500", "173750.217500", "173751.707500", "173753.197500", "173754.687500", "173756.177500", "173757.667500", "173759.157500", "173800.647500", "173802.137500", "173803.627500", "173805.117500", "173806.607500", "173808.097500", "173809.587500", "173811.077500", "173812.567500", "173814.057500", "173815.547500", "173817.037500", "173818.527500", "173820.017500", "173821.507500", "173822.997500", "173824.487500", "173825.977500", "173827.467500", "173828.957500", "173830.447500", "173831.937500", "173833.427500", "173834.917500", "173836.407500", "173837.897500", "173839.387500", "173840.877500", "173842.367500", "173843.857500", "173845.347500", "173846.837500", "173848.327500", "173849.817500", "173851.307500", "173852.797500", "173854.287500", "173855.777500", "173857.267500", "173858.757500", "173900.247500", "173901.737500", "173903.227500", "173904.717500", "173906.207500", "173907.697500", "173909.187500", "173910.677500", "173912.167500", "173913.657500", "173915.147500", "173916.637500", "173918.127500", "173919.617500", "173921.107500", "173922.597500", "173924.087500", "173925.577500", "173927.067500", "173928.557500"],
      "ContentTime": ["173603.667000", "173603.671000", "173603.674000", "173603.678000", "173603.681000", "173603.684000", "173603.687000", "173603.691000", "173603.694000", "173603.697000", "173603.700000", "173603.703000", "173603.707000", "173603.710000", "173603.723000", "173603.726000", "173603.729000", "173603.733000", "173603.736000", "173603.739000", "173603.742000", "173603.746000", "173623.626000", "173623.630000", "173623.633000", "173623.636000", "173623.639000", "173623.643000", "173623.646000", "173623.649000", "173623.652000", "173623.656000", "173623.659000", "173623.662000", "173623.665000", "173623.669000", "173623.672000", "173623.675000", "173623.678000", "173623.681000", "173623.685000", "173623.688000", "173643.626000", "173643.630000", "173643.633000", "173643.645000", "173643.649000", "173643.652000", "173643.655000", "173643.659000", "173643.662000", "173643.665000", "173643.668000", "173643.672000", "173643.675000", "173643.678000", "173643.681000", "173643.685000", "173643.688000", "173643.691000", "173643.694000", "173643.697000", "173703.626000", "173703.630000", "173703.633000", "173703.636000", "173703.640000", "173703.643000", "173703.646000", "173703.649000", "173703.653000", "173703.656000", "173703.659000", "173703.662000", "173703.666000", "173703.669000", "173703.672000", "173703.675000", "173703.679000", "173703.682000", "173703.685000", "173703.688000", "173723.626000", "173723.630000", "173723.633000", "173723.636000", "173723.657000", "173723.661000", "173723.664000", "173723.667000", "173723.670000", "173723.674000", "173723.677000", "173723.680000", "173723.683000", "173723.687000", "173723.690000", "173723.693000", "173723.696000", "173723.699000", "173723.703000", "173723.706000", "173723.709000", "173803.626000", "173803.630000", "173803.633000", "173803.637000", "173803.640000", "173803.643000", "173803.646000", "173803.650000", "173803.653000", "173803.656000", "173803.659000", "173803.663000", "173803.666000", "173803.669000", "173803.673000", "173803.676000", "173803.679000", "173803.683000", "173803.686000", "173803.689000", "173803.692000", "173803.696000", "173803.699000", "173803.702000", "173803.705000", "173803.709000", "173803.712000", "173803.715000", "173843.626000", "173843.630000", "173843.633000", "173843.636000", "173843.640000", "173843.643000", "173843.646000", "173843.649000", "173843.652000", "173843.656000", "173843.659000", "173843.662000", "173843.665000", "173843.669000", "173843.672000", "173843.675000", "173843.678000", "173843.682000", "173843.685000", "173843.688000", "173843.691000", "173843.694000", "173843.698000", "173843.701000", "173843.704000", "173843.707000", "173843.711000", "173923.626000", "173923.630000", "173923.633000", "173923.636000", "173923.640000", "173923.643000", "173923.646000", "173923.649000", "173923.653000", "173923.656000", "173923.659000", "173923.662000", "173923.666000", "173923.669000", "173923.672000", "173923.675000", "173923.679000", "173923.682000", "173923.685000", "173923.689000", "173923.692000", "173923.695000", "173923.698000", "173923.701000", "173923.705000", "173923.708000", "173923.711000", "173930.727000", "173930.731000", "173930.734000", "173930.738000", "173930.741000"],
      "InstanceCreationTime": ["173603.667000", "173603.671000", "173603.674000", "173603.678000", "173603.681000", "173603.684000", "173603.687000", "173603.691000", "173603.694000", "173603.697000", "173603.700000", "173603.703000", "173603.707000", "173603.710000", "173603.723000", "173603.726000", "173603.729000", "173603.733000", "173603.736000", "173603.739000", "173603.742000", "173603.746000", "173623.626000", "173623.630000", "173623.633000", "173623.636000", "173623.639000", "173623.643000", "173623.646000", "173623.649000", "173623.652000", "173623.656000", "173623.659000", "173623.662000", "173623.665000", "173623.669000", "173623.672000", "173623.675000", "173623.678000", "173623.681000", "173623.685000", "173623.688000", "173643.626000", "173643.630000", "173643.633000", "173643.645000", "173643.649000", "173643.652000", "173643.655000", "173643.659000", "173643.662000", "173643.665000", "173643.668000", "173643.672000", "173643.675000", "173643.678000", "173643.681000", "173643.685000", "173643.688000", "173643.691000", "173643.694000", "173643.697000", "173703.626000", "173703.630000", "173703.633000", "173703.636000", "173703.640000", "173703.643000", "173703.646000", "173703.649000", "173703.653000", "173703.656000", "173703.659000", "173703.662000", "173703.666000", "173703.669000", "173703.672000", "173703.675000", "173703.679000", "173703.682000", "173703.685000", "173703.688000", "173723.626000", "173723.630000", "173723.633000", "173723.636000", "173723.657000", "173723.661000", "173723.664000", "173723.667000", "173723.670000", "173723.674000", "173723.677000", "173723.680000", "173723.683000", "173723.687000", "173723.690000", "173723.693000", "173723.696000", "173723.699000", "173723.703000", "173723.706000", "173723.709000", "173803.626000", "173803.630000", "173803.633000", "173803.637000", "173803.640000", "173803.643000", "173803.646000", "173803.650000", "173803.653000", "173803.656000", "173803.659000", "173803.663000", "173803.666000", "173803.669000", "173803.673000", "173803.676000", "173803.679000", "173803.683000", "173803.686000", "173803.689000", "173803.692000", "173803.696000", "173803.699000", "173803.702000", "173803.705000", "173803.709000", "173803.712000", "173803.715000", "173843.626000", "173843.630000", "173843.633000", "173843.636000", "173843.640000", "173843.643000", "173843.646000", "173843.649000", "173843.652000", "173843.656000", "173843.659000", "173843.662000", "173843.665000", "173843.669000", "173843.672000", "173843.675000", "173843.678000", "173843.682000", "173843.685000", "173843.688000", "173843.691000", "173843.694000", "173843.698000", "173843.701000", "173843.704000", "173843.707000", "173843.711000", "173923.626000", "173923.630000", "173923.633000", "173923.636000", "173923.640000", "173923.643000", "173923.646000", "173923.649000", "173923.653000", "173923.656000", "173923.659000", "173923.662000", "173923.666000", "173923.669000", "173923.672000", "173923.675000", "173923.679000", "173923.682000", "173923.685000", "173923.689000", "173923.692000", "173923.695000", "173923.698000", "173923.701000", "173923.705000", "173923.708000", "173923.711000", "173930.727000", "173930.731000", "173930.734000", "173930.738000", "173930.741000"],
      "InstanceNumber": [1, 2, 3, 4, 5, 6, 7, 8, 9, 10, 11, 12, 13, 14, 15, 16, 17, 18, 19, 20, 21, 22, 23, 24, 25, 26, 27, 28, 29, 30, 31, 32, 33, 34, 35, 36, 37, 38, 39, 40, 41, 42, 43, 44, 45, 46, 47, 48, 49, 50, 51, 52, 53, 54, 55, 56, 57, 58, 59, 60, 61, 62, 63, 64, 65, 66, 67, 68, 69, 70, 71, 72, 73, 74, 75, 76, 77, 78, 79, 80, 81, 82, 83, 84, 85, 86, 87, 88, 89, 90, 91, 92, 93, 94, 95, 96, 97, 98, 99, 100, 101, 102, 103, 104, 105, 106, 107, 108, 109, 110, 111, 112, 113, 114, 115, 116, 117, 118, 119, 120, 121, 122, 123, 124, 125, 126, 127, 128, 129, 130, 131, 132, 133, 134, 135, 136, 137, 138, 139, 140, 141, 142, 143, 144, 145, 146, 147, 148, 149, 150, 151, 152, 153, 154, 155, 156, 157, 158, 159, 160, 161, 162, 163, 164, 165, 166, 167, 168, 169, 170, 171, 172, 173, 174, 175, 176, 177, 178, 179, 180, 181, 182, 183, 184, 185, 186, 187, 188, 189, 190],
      "LargestImagePixelValue": [45141, 43081, 41994, 40465, 41985, 42844, 42054, 40865, 41211, 42637, 43241, 41118, 40458, 40265, 41043, 42051, 43127, 42089, 41912, 41788, 41843, 42176, 42094, 43117, 42411, 42049, 41540, 41663, 41382, 42187, 43371, 43823, 43372, 42538, 42685, 42153, 41502, 43385, 44004, 42811, 43121, 42941, 42323, 42030, 43689, 44299, 44246, 43389, 42907, 41674, 43364, 44555, 44197, 44070, 43481, 43089, 44722, 44502, 44016, 43655, 42417, 42455, 44525, 44695, 44572, 44228, 43066, 41744, 41699, 43218, 44012, 44334, 43942, 42833, 42179, 44446, 44960, 43112, 42489, 42203, 42195, 44499, 44703, 42928, 43174, 44211, 43606, 41720, 43209, 43807, 43733, 42825, 42250, 43013, 44273, 44420, 43456, 42324, 42277, 43606, 44662, 43944, 43127, 43293, 44861, 45152, 43808, 42782, 44489, 44741, 43235, 42163, 41599, 42823, 42265, 42512, 43008, 44911, 45053, 43761, 42381, 42941, 43852, 43919, 42606, 42219, 42329, 44371, 45506, 44703, 43586, 41949, 42254, 42870, 43691, 42671, 42089, 41239, 42515, 45012, 46117, 44353, 42921, 43379, 43732, 43001, 41816, 41808, 42069, 43730, 43199, 42357, 43551, 45136, 44194, 43197, 42271, 42830, 43985, 43724, 42907, 41899, 42394, 44124, 43688, 43404, 42435, 43160, 44619, 44592, 42863, 42835, 42226, 42853, 45058, 44299, 43832, 43195, 44342, 44936, 43899, 41781, 42210, 43102, 43203, 43052, 42121, 42862, 43904, 43408],
      "WindowCenter": [10581.0, 10527.0, 10501.0, 10476.0, 10479.0, 10491.0, 10491.0, 10481.0, 10490.0, 10523.0, 10520.0, 10479.0, 10474.0, 10484.0, 10489.0, 10495.0, 10493.0, 10454.0, 10445.0, 10471.0, 10490.0, 10506.0, 10498.0, 10501.0, 10476.0, 10450.0, 10448.0, 10460.0, 10483.0, 10495.0, 10506.0, 10501.0, 10483.0, 10477.0, 10474.0, 10484.0, 10496.0, 10528.0, 10535.0, 10506.0, 10507.0, 10484.0, 10469.0, 10469.0, 10502.0, 10534.0, 10534.0, 10524.0, 10527.0, 10519.0, 10521.0, 10535.0, 10519.0, 10503.0, 10506.0, 10514.0, 10552.0, 10566.0, 10553.0, 10509.0, 10479.0, 10467.0, 10494.0, 10511.0, 10511.0, 10497.0, 10482.0, 10486.0, 10499.0, 10514.0, 10513.0, 10501.0, 10486.0, 10487.0, 10522.0, 10555.0, 10561.0, 10514.0, 10500.0, 10494.0, 10492.0, 10521.0, 10532.0, 10512.0, 10501.0, 10510.0, 10506.0, 10485.0, 10497.0, 10505.0, 10505.0, 10494.0, 10488.0, 10510.0, 10530.0, 10523.0, 10500.0, 10488.0, 10473.0, 10486.0, 10506.0, 10506.0, 10505.0, 10506.0, 10526.0, 10525.0, 10497.0, 10487.0, 10492.0, 10507.0, 10493.0, 10489.0, 10478.0, 10477.0, 10474.0, 10487.0, 10503.0, 10541.0, 10534.0, 10516.0, 10500.0, 10513.0, 10543.0, 10537.0, 10502.0, 10486.0, 10485.0, 10520.0, 10541.0, 10525.0, 10498.0, 10475.0, 10479.0, 10502.0, 10506.0, 10487.0, 10483.0, 10478.0, 10489.0, 10515.0, 10518.0, 10504.0, 10485.0, 10504.0, 10514.0, 10485.0, 10455.0, 10442.0, 10451.0, 10491.0, 10493.0, 10484.0, 10498.0, 10508.0, 10495.0, 10476.0, 10472.0, 10491.0, 10520.0, 10514.0, 10487.0, 10475.0, 10474.0, 10508.0, 10512.0, 10501.0, 10496.0, 10499.0, 10526.0, 10534.0, 10511.0, 10515.0, 10513.0, 10507.0, 10518.0, 10490.0, 10486.0, 10500.0, 10539.0, 10555.0, 10525.0, 10485.0, 10481.0, 10492.0, 10498.0, 10486.0, 10481.0, 10479.0, 10489.0, 10472.0],
      "WindowWidth": [22528.0, 22387.0, 22326.0, 22267.0, 22259.0, 22280.0, 22284.0, 22262.0, 22282.0, 22355.0, 22344.0, 22258.0, 22248.0, 22270.0, 22277.0, 22290.0, 22280.0, 22193.0, 22172.0, 22238.0, 22277.0, 22313.0, 22296.0, 22298.0, 22245.0, 22187.0, 22181.0, 22214.0, 22270.0, 22287.0, 22311.0, 22297.0, 22255.0, 22248.0, 22240.0, 22266.0, 22297.0, 22361.0, 22375.0, 22315.0, 22313.0, 22260.0, 22225.0, 22230.0, 22303.0, 22380.0, 22378.0, 22357.0, 22367.0, 22353.0, 22348.0, 22380.0, 22342.0, 22305.0, 22313.0, 22332.0, 22415.0, 22448.0, 22418.0, 22317.0, 22252.0, 22226.0, 22282.0, 22321.0, 22322.0, 22289.0, 22257.0, 22273.0, 22304.0, 22331.0, 22323.0, 22294.0, 22264.0, 22276.0, 22359.0, 22427.0, 22435.0, 22335.0, 22303.0, 22292.0, 22286.0, 22347.0, 22369.0, 22328.0, 22298.0, 22318.0, 22315.0, 22273.0, 22292.0, 22309.0, 22310.0, 22291.0, 22275.0, 22325.0, 22365.0, 22345.0, 22298.0, 22274.0, 22239.0, 22265.0, 22310.0, 22312.0, 22316.0, 22317.0, 22355.0, 22351.0, 22289.0, 22270.0, 22275.0, 22312.0, 22288.0, 22278.0, 22254.0, 22245.0, 22246.0, 22273.0, 22310.0, 22390.0, 22373.0, 22335.0, 22305.0, 22334.0, 22406.0, 22388.0, 22308.0, 22274.0, 22273.0, 22342.0, 22391.0, 22352.0, 22290.0, 22249.0, 22255.0, 22304.0, 22308.0, 22268.0, 22263.0, 22253.0, 22276.0, 22326.0, 22332.0, 22316.0, 22268.0, 22309.0, 22331.0, 22263.0, 22194.0, 22169.0, 22183.0, 22273.0, 22285.0, 22267.0, 22292.0, 22314.0, 22289.0, 22248.0, 22240.0, 22280.0, 22346.0, 22331.0, 22268.0, 22244.0, 22243.0, 22313.0, 22322.0, 22302.0, 22294.0, 22296.0, 22356.0, 22371.0, 22326.0, 22341.0, 22335.0, 22319.0, 22336.0, 22275.0, 22265.0, 22302.0, 22389.0, 22423.0, 22353.0, 22268.0, 22254.0, 22280.0, 22294.0, 22268.0, 22256.0, 22251.0, 22272.0, 22232.0]
    },
    "slices": {}
  }
}