{
  "AcquisitionMatrixPE": 104,
  "AcquisitionNumber": 1,
  "AcquisitionTime": "17:40:47.902500",
  "BandwidthPerPixelPhaseEncode": 17.17,
  "BaseResolution": 104,
  "BodyPartExamined": "BRAIN",
  "CoilString": "HC1-7;NC1_2",
  "ConsistencyInfo": "N4_VE11C_LATEST_20160120",
  "ConversionSoftware": "dcm2niix",
  "ConversionSoftwareVersion": "v1.0.20190902",
  "DerivedVendorReportedEchoSpacing": 0.000560011,
  "DeviceSerialNumber": "167006",
  "DwellTime": 2.1e-06,
  "EchoTime": 0.037,
  "EchoTrainLength": 104,
  "EffectiveEchoSpacing": 0.000560011,
  "FlipAngle": 52,
  "ImageComments": "Unaliased_MB4_PE3_LB",
  "ImageOrientationPatientDICOM": [0.997842, 0.0525037, 0.0394391, -0.0365891, 0.943271, -0.330003],
  "ImageType": [
    "ORIGINAL",
    "PRIMARY",
    "P",
    "MB",
    "ND",
    "MOSAIC"
],
  "ImagingFrequency": 123.259,
  "InPlanePhaseEncodingDirectionDICOM": "COL",
  "InstitutionAddress": "Chemin_Queen-Mary_4565_Montreal_District_CA_H3W_1W5",
  "InstitutionName": "IUGM",
  "InstitutionalDepartmentName": "Department",
  "MRAcquisitionType": "2D",
  "MagneticFieldStrength": 3,
  "Manufacturer": "Siemens",
  "ManufacturersModelName": "Prisma_fit",
  "Modality": "MR",
  "MultibandAccelerationFactor": 4,
  "PartialFourier": 1,
  "PatientPosition": "HFS",
  "PercentPhaseFOV": 100,
  "PhaseEncodingDirection": "j",
  "PhaseEncodingSteps": 104,
  "PhaseResolution": 1,
  "PixelBandwidth": 2290,
  "ProcedureStepDescription": "memory_things",
  "ProtocolName": "func_task-things_run-3",
  "PulseSequenceDetails": "%CustomerSeq%_cmrr_mbep2d_bold",
  "ReceiveCoilActiveElements": "HC1-7;NC1,2",
  "ReceiveCoilName": "HeadNeck_64",
  "ReconMatrixPE": 104,
  "RepetitionTime": 1.49,
  "SAR": 0.0566362,
  "ScanOptions": "FS",
  "ScanningSequence": "EP",
  "SequenceName": "epfid2d1_104",
  "SequenceVariant": "SK_SS",
  "SeriesDescription": "func_task-things_run-3",
  "SeriesNumber": 17,
  "ShimSetting": [632, -7175, -8792, 671, 84, 74, -28, -16],
  "SliceThickness": 2,
  "SliceTiming": [0, 0.785, 0.1, 0.8825, 0.1975, 0.98, 0.295, 1.08, 0.3925, 1.1775, 0.49, 1.275, 0.59, 1.3725, 0.6875, 0, 0.785, 0.1, 0.8825, 0.1975, 0.98, 0.295, 1.08, 0.3925, 1.1775, 0.49, 1.275, 0.59, 1.3725, 0.6875, 0, 0.785, 0.1, 0.8825, 0.1975, 0.98, 0.295, 1.08, 0.3925, 1.1775, 0.49, 1.275, 0.59, 1.3725, 0.6875, 0, 0.785, 0.1, 0.8825, 0.1975, 0.98, 0.295, 1.08, 0.3925, 1.1775, 0.49, 1.275, 0.59, 1.3725, 0.6875],
  "SoftwareVersions": "syngo_MR_E11",
  "SpacingBetweenSlices": 2,
  "StationName": "MRC35049",
  "TaskName": "things",
  "TotalReadoutTime": 0.0576811,
  "TxRefAmp": 290.439,
  "WipMemBlock": "500defa4-f685-4c36-b396-3d5062dcb01b||Sequence: R016 ve11c/master r/e634e98; Dec 19 2017 11:00:25 by eja",
  "dcmmeta_affine": [
    [-1.9956833124160767, -0.07317829877138138, 0.10905627906322479, 108.08109283447266],
    [-0.10500742495059967, 1.8865410089492798, -0.6556952595710754, -55.71520233154297],
    [0.0788782387971878, 0.6600058674812317, 1.8863112926483154, -57.94007873535156],
    [0.0, 0.0, 0.0, 1.0]
],
  "dcmmeta_reorient_transform": [
    [0.0, -1.0, 0.0, 103.0],
    [1.0, 0.0, 0.0, 0.0],
    [0.0, 0.0, 1.0, 0.0],
    [0.0, 0.0, 0.0, 1.0]
],
  "dcmmeta_shape": [104, 104, 60, 190],
  "dcmmeta_slice_dim": 2,
  "dcmmeta_version": 0.6,
  "global": {
    "const": {
      "AcquisitionMatrix": [104, 0, 0, 104],
      "AngioFlag": "N",
      "BitsAllocated": 16,
      "BitsStored": 16,
      "BodyPartExamined": "BRAIN",
      "Columns": 832,
      "EchoNumbers": 1,
      "EchoTime": 37.0,
      "EchoTrainLength": 104,
      "FlipAngle": 52.0,
      "HighBit": 15,
      "ImageOrientationPatient": [0.99784162877792, 0.0525037109893, 0.03943912030183, -0.0365891509705, 0.94327053248117, -0.3300029342051],
      "ImagePositionPatient": [-800.33553403559, -863.52217639629, 221.57098113747],
      "ImageType": [
        "ORIGINAL",
        "PRIMARY",
        "P",
        "MB",
        "ND",
        "MOSAIC"
],
      "ImagedNucleus": "1H",
      "ImagingFrequency": 123.258893,
      "InPlanePhaseEncodingDirection": "COL",
      "LargestImagePixelValue": 4095,
      "MRAcquisitionType": "2D",
      "MagneticFieldStrength": 3.0,
      "Manufacturer": "SIEMENS",
      "ManufacturerModelName": "Prisma_fit",
      "Modality": "MR",
      "NumberOfAverages": 1.0,
      "NumberOfPhaseEncodingSteps": 104,
      "PercentPhaseFieldOfView": 100.0,
      "PercentSampling": 100.0,
      "PerformedProcedureStepStartTime": "170453.829000",
      "PhotometricInterpretation": "MONOCHROME2",
      "PixelBandwidth": 2290.0,
      "PixelRepresentation": 0,
      "PixelSpacing": [2.0, 2.0],
      "ProtocolName": "func_task-things_run-3",
      "RepetitionTime": 1490.0,
      "RescaleIntercept": -4096.0,
      "RescaleSlope": 2.0,
      "RescaleType": "US",
      "Rows": 832,
      "SAR": 0.05663615776613,
      "SamplesPerPixel": 1,
      "ScanOptions": "FS",
      "ScanningSequence": "EP",
      "SequenceName": "epfid2d1_104",
      "SequenceVariant": [
        "SK",
        "SS"
],
      "SeriesDescription": "func_task-things_run-3",
      "SeriesNumber": 17,
      "SeriesTime": "174203.590000",
      "SliceLocation": -30.486957268536,
      "SliceThickness": 2.0,
      "SmallestImagePixelValue": 0,
      "SoftwareVersions": "syngo MR E11",
      "SpacingBetweenSlices": 2.0000000095256,
      "SpecificCharacterSet": "ISO_IR 100",
      "StudyID": "1",
      "StudyTime": "170453.736000",
      "TransmitCoilName": "Body",
      "VariableFlipAngleFlag": "N",
      "WindowCenterWidthExplanation": "Algo1",
      "dBdt": 0.0},
    "slices": {}
  },
  "time": {
    "samples": {
      "AcquisitionNumber": [1, 2, 3, 4, 5, 6, 7, 8, 9, 10, 11, 12, 13, 14, 15, 16, 17, 18, 19, 20, 21, 22, 23, 24, 25, 26, 27, 28, 29, 30, 31, 32, 33, 34, 35, 36, 37, 38, 39, 40, 41, 42, 43, 44, 45, 46, 47, 48, 49, 50, 51, 52, 53, 54, 55, 56, 57, 58, 59, 60, 61, 62, 63, 64, 65, 66, 67, 68, 69, 70, 71, 72, 73, 74, 75, 76, 77, 78, 79, 80, 81, 82, 83, 84, 85, 86, 87, 88, 89, 90, 91, 92, 93, 94, 95, 96, 97, 98, 99, 100, 101, 102, 103, 104, 105, 106, 107, 108, 109, 110, 111, 112, 113, 114, 115, 116, 117, 118, 119, 120, 121, 122, 123, 124, 125, 126, 127, 128, 129, 130, 131, 132, 133, 134, 135, 136, 137, 138, 139, 140, 141, 142, 143, 144, 145, 146, 147, 148, 149, 150, 151, 152, 153, 154, 155, 156, 157, 158, 159, 160, 161, 162, 163, 164, 165, 166, 167, 168, 169, 170, 171, 172, 173, 174, 175, 176, 177, 178, 179, 180, 181, 182, 183, 184, 185, 186, 187, 188, 189, 190],
      "AcquisitionTime": ["174047.902500", "174049.392500", "174050.882500", "174052.372500", "174053.862500", "174055.352500", "174056.842500", "174058.332500", "174059.822500", "174101.312500", "174102.802500", "174104.292500", "174105.782500", "174107.272500", "174108.762500", "174110.252500", "174111.742500", "174113.232500", "174114.722500", "174116.212500", "174117.702500", "174119.192500", "174120.682500", "174122.172500", "174123.662500", "174125.152500", "174126.642500", "174128.132500", "174129.622500", "174131.112500", "174132.602500", "174134.092500", "174135.582500", "174137.072500", "174138.562500", "174140.052500", "174141.542500", "174143.032500", "174144.522500", "174146.012500", "174147.502500", "174148.992500", "174150.482500", "174151.972500", "174153.462500", "174154.952500", "174156.442500", "174157.932500", "174159.422500", "174200.912500", "174202.402500", "174203.892500", "174205.382500", "174206.872500", "174208.362500", "174209.852500", "174211.342500", "174212.832500", "174214.322500", "174215.812500", "174217.302500", "174218.792500", "174220.282500", "174221.772500", "174223.262500", "174224.752500", "174226.242500", "174227.732500", "174229.222500", "174230.712500", "174232.202500", "174233.692500", "174235.182500", "174236.672500", "174238.162500", "174239.652500", "174241.142500", "174242.632500", "174244.122500", "174245.612500", "174247.102500", "174248.592500", "174250.082500", "174251.572500", "174253.062500", "174254.552500", "174256.042500", "174257.532500", "174259.022500", "174300.512500", "174302.002500", "174303.492500", "174304.982500", "174306.472500", "174307.962500", "174309.452500", "174310.942500", "174312.432500", "174313.922500", "174315.412500", "174316.902500", "174318.392500", "174319.882500", "174321.372500", "174322.862500", "174324.352500", "174325.842500", "174327.332500", "174328.822500", "174330.312500", "174331.802500", "174333.292500", "174334.782500", "174336.272500", "174337.762500", "174339.252500", "174340.742500", "174342.232500", "174343.722500", "174345.212500", "174346.702500", "174348.192500", "174349.682500", "174351.172500", "174352.662500", "174354.152500", "174355.642500", "174357.132500", "174358.622500", "174400.112500", "174401.602500", "174403.092500", "174404.582500", "174406.072500", "174407.562500", "174409.052500", "174410.542500", "174412.032500", "174413.522500", "174415.012500", "174416.502500", "174417.992500", "174419.482500", "174420.972500", "174422.462500", "174423.952500", "174425.442500", "174426.932500", "174428.422500", "174429.912500", "174431.402500", "174432.892500", "174434.382500", "174435.872500", "174437.362500", "174438.852500", "174440.342500", "174441.832500", "174443.322500", "174444.812500", "174446.302500", "174447.792500", "174449.282500", "174450.772500", "174452.262500", "174453.752500", "174455.242500", "174456.732500", "174458.222500", "174459.712500", "174501.202500", "174502.692500", "174504.182500", "174505.672500", "174507.162500", "174508.652500", "174510.142500", "174511.632500", "174513.122500", "174514.612500", "174516.102500", "174517.592500", "174519.082500", "174520.572500", "174522.062500", "174523.552500", "174525.042500", "174526.532500", "174528.022500", "174529.512500"],
      "ContentTime": ["174203.592000", "174203.594000", "174203.597000", "174203.599000", "174203.602000", "174203.604000", "174203.607000", "174203.609000", "174203.612000", "174203.614000", "174203.617000", "174203.619000", "174203.621000", "174203.624000", "174203.626000", "174203.629000", "174203.631000", "174203.634000", "174203.636000", "174203.639000", "174223.522000", "174223.524000", "174223.527000", "174223.529000", "174223.532000", "174223.534000", "174223.537000", "174223.539000", "174223.542000", "174223.544000", "174223.546000", "174223.549000", "174223.551000", "174223.554000", "174223.556000", "174223.559000", "174223.561000", "174223.564000", "174223.566000", "174223.569000", "174243.532000", "174243.535000", "174243.537000", "174243.539000", "174243.542000", "174243.544000", "174243.547000", "174243.549000", "174243.552000", "174243.555000", "174243.557000", "174243.560000", "174243.562000", "174243.564000", "174243.567000", "174243.569000", "174243.572000", "174243.574000", "174243.577000", "174243.579000", "174303.531000", "174303.533000", "174303.536000", "174303.538000", "174303.541000", "174303.543000", "174303.546000", "174303.548000", "174303.551000", "174303.553000", "174303.556000", "174303.558000", "174303.561000", "174303.563000", "174303.566000", "174303.568000", "174303.571000", "174303.573000", "174303.575000", "174303.578000", "174323.540000", "174323.543000", "174323.546000", "174323.553000", "174323.556000", "174323.558000", "174323.561000", "174323.563000", "174323.565000", "174323.568000", "174323.570000", "174323.573000", "174323.575000", "174323.578000", "174323.580000", "174323.583000", "174323.585000", "174323.588000", "174323.590000", "174323.593000", "174323.595000", "174403.560000", "174403.562000", "174403.565000", "174403.567000", "174403.570000", "174403.572000", "174403.574000", "174403.577000", "174403.579000", "174403.582000", "174403.584000", "174403.587000", "174403.589000", "174403.592000", "174403.601000", "174403.603000", "174403.606000", "174403.608000", "174403.611000", "174403.613000", "174403.616000", "174403.618000", "174403.621000", "174403.623000", "174403.626000", "174403.628000", "174403.631000", "174403.633000", "174403.636000", "174443.562000", "174443.565000", "174443.567000", "174443.570000", "174443.572000", "174443.575000", "174443.577000", "174443.579000", "174443.582000", "174443.584000", "174443.587000", "174443.589000", "174443.592000", "174443.594000", "174443.597000", "174443.599000", "174443.602000", "174443.604000", "174443.606000", "174443.609000", "174443.611000", "174443.614000", "174443.616000", "174443.619000", "174443.621000", "174443.624000", "174443.626000", "174523.564000", "174523.566000", "174523.569000", "174523.571000", "174523.574000", "174523.576000", "174523.579000", "174523.581000", "174523.584000", "174523.586000", "174523.589000", "174523.591000", "174523.594000", "174523.596000", "174523.599000", "174523.601000", "174523.603000", "174523.606000", "174523.608000", "174523.611000", "174523.613000", "174523.616000", "174523.618000", "174523.621000", "174523.623000", "174523.626000", "174523.628000", "174532.113000", "174532.116000", "174532.119000", "174532.121000", "174532.124000", "174532.127000"],
      "InstanceCreationTime": ["174203.592000", "174203.594000", "174203.597000", "174203.599000", "174203.602000", "174203.604000", "174203.607000", "174203.609000", "174203.612000", "174203.614000", "174203.617000", "174203.619000", "174203.621000", "174203.624000", "174203.626000", "174203.629000", "174203.631000", "174203.634000", "174203.636000", "174203.639000", "174223.522000", "174223.524000", "174223.527000", "174223.529000", "174223.532000", "174223.534000", "174223.537000", "174223.539000", "174223.542000", "174223.544000", "174223.546000", "174223.549000", "174223.551000", "174223.554000", "174223.556000", "174223.559000", "174223.561000", "174223.564000", "174223.566000", "174223.569000", "174243.532000", "174243.535000", "174243.537000", "174243.539000", "174243.542000", "174243.544000", "174243.547000", "174243.549000", "174243.552000", "174243.555000", "174243.557000", "174243.560000", "174243.562000", "174243.564000", "174243.567000", "174243.569000", "174243.572000", "174243.574000", "174243.577000", "174243.579000", "174303.531000", "174303.533000", "174303.536000", "174303.538000", "174303.541000", "174303.543000", "174303.546000", "174303.548000", "174303.551000", "174303.553000", "174303.556000", "174303.558000", "174303.561000", "174303.563000", "174303.566000", "174303.568000", "174303.571000", "174303.573000", "174303.575000", "174303.578000", "174323.540000", "174323.543000", "174323.546000", "174323.553000", "174323.556000", "174323.558000", "174323.561000", "174323.563000", "174323.565000", "174323.568000", "174323.570000", "174323.573000", "174323.575000", "174323.578000", "174323.580000", "174323.583000", "174323.585000", "174323.588000", "174323.590000", "174323.593000", "174323.595000", "174403.560000", "174403.562000", "174403.565000", "174403.567000", "174403.570000", "174403.572000", "174403.574000", "174403.577000", "174403.579000", "174403.582000", "174403.584000", "174403.587000", "174403.589000", "174403.592000", "174403.601000", "174403.603000", "174403.606000", "174403.608000", "174403.611000", "174403.613000", "174403.616000", "174403.618000", "174403.621000", "174403.623000", "174403.626000", "174403.628000", "174403.631000", "174403.633000", "174403.636000", "174443.562000", "174443.565000", "174443.567000", "174443.570000", "174443.572000", "174443.575000", "174443.577000", "174443.579000", "174443.582000", "174443.584000", "174443.587000", "174443.589000", "174443.592000", "174443.594000", "174443.597000", "174443.599000", "174443.602000", "174443.604000", "174443.606000", "174443.609000", "174443.611000", "174443.614000", "174443.616000", "174443.619000", "174443.621000", "174443.624000", "174443.626000", "174523.564000", "174523.566000", "174523.569000", "174523.571000", "174523.574000", "174523.576000", "174523.579000", "174523.581000", "174523.584000", "174523.586000", "174523.589000", "174523.591000", "174523.594000", "174523.596000", "174523.599000", "174523.601000", "174523.603000", "174523.606000", "174523.608000", "174523.611000", "174523.613000", "174523.616000", "174523.618000", "174523.621000", "174523.623000", "174523.626000", "174523.628000", "174532.113000", "174532.116000", "174532.119000", "174532.121000", "174532.124000", "174532.127000"],
      "InstanceNumber": [1, 2, 3, 4, 5, 6, 7, 8, 9, 10, 11, 12, 13, 14, 15, 16, 17, 18, 19, 20, 21, 22, 23, 24, 25, 26, 27, 28, 29, 30, 31, 32, 33, 34, 35, 36, 37, 38, 39, 40, 41, 42, 43, 44, 45, 46, 47, 48, 49, 50, 51, 52, 53, 54, 55, 56, 57, 58, 59, 60, 61, 62, 63, 64, 65, 66, 67, 68, 69, 70, 71, 72, 73, 74, 75, 76, 77, 78, 79, 80, 81, 82, 83, 84, 85, 86, 87, 88, 89, 90, 91, 92, 93, 94, 95, 96, 97, 98, 99, 100, 101, 102, 103, 104, 105, 106, 107, 108, 109, 110, 111, 112, 113, 114, 115, 116, 117, 118, 119, 120, 121, 122, 123, 124, 125, 126, 127, 128, 129, 130, 131, 132, 133, 134, 135, 136, 137, 138, 139, 140, 141, 142, 143, 144, 145, 146, 147, 148, 149, 150, 151, 152, 153, 154, 155, 156, 157, 158, 159, 160, 161, 162, 163, 164, 165, 166, 167, 168, 169, 170, 171, 172, 173, 174, 175, 176, 177, 178, 179, 180, 181, 182, 183, 184, 185, 186, 187, 188, 189, 190],
      "WindowCenter": [4830.0, 4834.0, 4810.0, 4830.0, 4832.0, 4830.0, 4830.0, 4832.0, 4832.0, 4834.0, 4832.0, 4836.0, 4836.0, 4830.0, 4830.0, 4806.0, 4832.0, 4834.0, 4832.0, 4830.0, 4830.0, 4836.0, 4834.0, 4834.0, 4832.0, 4832.0, 4832.0, 4832.0, 4828.0, 4834.0, 4830.0, 4834.0, 4832.0, 4832.0, 4830.0, 4812.0, 4832.0, 4830.0, 4830.0, 4832.0, 4830.0, 4834.0, 4834.0, 4830.0, 4812.0, 4830.0, 4830.0, 4832.0, 4834.0, 4830.0, 4830.0, 4832.0, 4808.0, 4832.0, 4832.0, 4832.0, 4808.0, 4830.0, 4808.0, 4832.0, 4832.0, 4830.0, 4832.0, 4832.0, 4812.0, 4836.0, 4832.0, 4830.0, 4832.0, 4832.0, 4812.0, 4808.0, 4828.0, 4832.0, 4832.0, 4832.0, 4834.0, 4834.0, 4832.0, 4808.0, 4832.0, 4830.0, 4832.0, 4832.0, 4830.0, 4832.0, 4830.0, 4810.0, 4834.0, 4834.0, 4832.0, 4830.0, 4804.0, 4832.0, 4832.0, 4806.0, 4834.0, 4808.0, 4804.0, 4832.0, 4832.0, 4832.0, 4812.0, 4810.0, 4808.0, 4830.0, 4832.0, 4834.0, 4828.0, 4812.0, 4830.0, 4832.0, 4806.0, 4830.0, 4834.0, 4832.0, 4828.0, 4830.0, 4832.0, 4834.0, 4808.0, 4832.0, 4808.0, 4810.0, 4832.0, 4828.0, 4832.0, 4834.0, 4834.0, 4832.0, 4830.0, 4810.0, 4836.0, 4836.0, 4832.0, 4834.0, 4832.0, 4806.0, 4808.0, 4830.0, 4832.0, 4832.0, 4832.0, 4830.0, 4834.0, 4810.0, 4834.0, 4832.0, 4806.0, 4832.0, 4832.0, 4832.0, 4832.0, 4814.0, 4814.0, 4834.0, 4808.0, 4810.0, 4830.0, 4810.0, 4834.0, 4832.0, 4834.0, 4832.0, 4832.0, 4814.0, 4834.0, 4830.0, 4832.0, 4806.0, 4836.0, 4832.0, 4830.0, 4830.0, 4808.0, 4814.0, 4834.0, 4828.0, 4808.0, 4832.0, 4832.0, 4830.0, 4828.0, 4810.0, 4808.0, 4836.0, 4808.0, 4834.0, 4830.0, 4830.0],
      "WindowWidth": [18642.0, 18652.0, 18622.0, 18650.0, 18642.0, 18640.0, 18644.0, 18650.0, 18646.0, 18648.0, 18652.0, 18656.0, 18654.0, 18648.0, 18642.0, 18606.0, 18644.0, 18650.0, 18648.0, 18642.0, 18646.0, 18656.0, 18658.0, 18652.0, 18652.0, 18638.0, 18638.0, 18638.0, 18644.0, 18652.0, 18650.0, 18654.0, 18654.0, 18654.0, 18648.0, 18620.0, 18646.0, 18642.0, 18640.0, 18648.0, 18650.0, 18654.0, 18648.0, 18648.0, 18622.0, 18646.0, 18644.0, 18648.0, 18652.0, 18644.0, 18644.0, 18652.0, 18620.0, 18646.0, 18648.0, 18650.0, 18610.0, 18646.0, 18618.0, 18652.0, 18650.0, 18642.0, 18646.0, 18644.0, 18624.0, 18652.0, 18654.0, 18646.0, 18644.0, 18652.0, 18624.0, 18618.0, 18642.0, 18644.0, 18648.0, 18648.0, 18654.0, 18654.0, 18650.0, 18614.0, 18650.0, 18646.0, 18650.0, 18650.0, 18648.0, 18642.0, 18646.0, 18616.0, 18652.0, 18652.0, 18642.0, 18642.0, 18614.0, 18648.0, 18648.0, 18610.0, 18650.0, 18618.0, 18618.0, 18648.0, 18648.0, 18650.0, 18620.0, 18618.0, 18612.0, 18644.0, 18652.0, 18652.0, 18644.0, 18616.0, 18646.0, 18646.0, 18618.0, 18646.0, 18650.0, 18652.0, 18650.0, 18650.0, 18648.0, 18646.0, 18616.0, 18648.0, 18620.0, 18616.0, 18650.0, 18646.0, 18648.0, 18650.0, 18650.0, 18652.0, 18642.0, 18616.0, 18654.0, 18658.0, 18652.0, 18650.0, 18642.0, 18614.0, 18620.0, 18646.0, 18648.0, 18648.0, 18650.0, 18648.0, 18646.0, 18618.0, 18646.0, 18642.0, 18612.0, 18654.0, 18650.0, 18646.0, 18650.0, 18626.0, 18624.0, 18654.0, 18616.0, 18612.0, 18636.0, 18612.0, 18650.0, 18652.0, 18654.0, 18648.0, 18652.0, 18624.0, 18654.0, 18648.0, 18644.0, 18616.0, 18654.0, 18654.0, 18650.0, 18646.0, 18622.0, 18624.0, 18656.0, 18652.0, 18616.0, 18648.0, 18648.0, 18642.0, 18644.0, 18620.0, 18622.0, 18658.0, 18622.0, 18658.0, 18648.0, 18648.0]
    },
    "slices": {}
  }
}