{
  "AcquisitionMatrixPE": 104,
  "AcquisitionNumber": 1,
  "AcquisitionTime": "17:59:3.335000",
  "BandwidthPerPixelPhaseEncode": 17.17,
  "BaseResolution": 104,
  "BodyPartExamined": "BRAIN",
  "CoilString": "HC1-7;NC1_2",
  "ConsistencyInfo": "N4_VE11C_LATEST_20160120",
  "ConversionSoftware": "dcm2niix",
  "ConversionSoftwareVersion": "v1.0.20190902",
  "DerivedVendorReportedEchoSpacing": 0.000560011,
  "DeviceSerialNumber": "167006",
  "DwellTime": 2.1e-06,
  "EchoTime": 0.037,
  "EchoTrainLength": 104,
  "EffectiveEchoSpacing": 0.000560011,
  "FlipAngle": 52,
  "ImageComments": "Unaliased_MB4_PE3_LB",
  "ImageOrientationPatientDICOM": [0.997842, 0.0525037, 0.0394391, -0.0365891, 0.943271, -0.330003],
  "ImageType": [
    "ORIGINAL",
    "PRIMARY",
    "P",
    "MB",
    "ND",
    "MOSAIC"
],
  "ImagingFrequency": 123.259,
  "InPlanePhaseEncodingDirectionDICOM": "COL",
  "InstitutionAddress": "Chemin_Queen-Mary_4565_Montreal_District_CA_H3W_1W5",
  "InstitutionName": "IUGM",
  "InstitutionalDepartmentName": "Department",
  "MRAcquisitionType": "2D",
  "MagneticFieldStrength": 3,
  "Manufacturer": "Siemens",
  "ManufacturersModelName": "Prisma_fit",
  "Modality": "MR",
  "MultibandAccelerationFactor": 4,
  "PartialFourier": 1,
  "PatientPosition": "HFS",
  "PercentPhaseFOV": 100,
  "PhaseEncodingDirection": "j",
  "PhaseEncodingSteps": 104,
  "PhaseResolution": 1,
  "PixelBandwidth": 2290,
  "ProcedureStepDescription": "memory_things",
  "ProtocolName": "func_task-things_run-6",
  "PulseSequenceDetails": "%CustomerSeq%_cmrr_mbep2d_bold",
  "ReceiveCoilActiveElements": "HC1-7;NC1,2",
  "ReceiveCoilName": "HeadNeck_64",
  "ReconMatrixPE": 104,
  "RepetitionTime": 1.49,
  "SAR": 0.0566362,
  "ScanOptions": "FS",
  "ScanningSequence": "EP",
  "SequenceName": "epfid2d1_104",
  "SequenceVariant": "SK_SS",
  "SeriesDescription": "func_task-things_run-6",
  "SeriesNumber": 26,
  "ShimSetting": [632, -7175, -8792, 671, 84, 74, -28, -16],
  "SliceThickness": 2,
  "SliceTiming": [0, 0.785, 0.1, 0.8825, 0.1975, 0.98, 0.295, 1.08, 0.3925, 1.1775, 0.49, 1.275, 0.59, 1.3725, 0.6875, 0, 0.785, 0.1, 0.8825, 0.1975, 0.98, 0.295, 1.08, 0.3925, 1.1775, 0.49, 1.275, 0.59, 1.3725, 0.6875, 0, 0.785, 0.1, 0.8825, 0.1975, 0.98, 0.295, 1.08, 0.3925, 1.1775, 0.49, 1.275, 0.59, 1.3725, 0.6875, 0, 0.785, 0.1, 0.8825, 0.1975, 0.98, 0.295, 1.08, 0.3925, 1.1775, 0.49, 1.275, 0.59, 1.3725, 0.6875],
  "SoftwareVersions": "syngo_MR_E11",
  "SpacingBetweenSlices": 2,
  "StationName": "MRC35049",
  "TaskName": "things",
  "TotalReadoutTime": 0.0576811,
  "TxRefAmp": 290.439,
  "WipMemBlock": "efe55df8-dd4e-4c66-be72-6e888f01ceda||Sequence: R016 ve11c/master r/e634e98; Dec 19 2017 11:00:25 by eja",
  "dcmmeta_affine": [
    [-1.9956833124160767, -0.07317829877138138, 0.10905627906322479, 108.08109283447266],
    [-0.10500742495059967, 1.8865410089492798, -0.6556952595710754, -55.71520233154297],
    [0.0788782387971878, 0.6600058674812317, 1.8863112926483154, -57.94007873535156],
    [0.0, 0.0, 0.0, 1.0]
],
  "dcmmeta_reorient_transform": [
    [0.0, -1.0, 0.0, 103.0],
    [1.0, 0.0, 0.0, 0.0],
    [0.0, 0.0, 1.0, 0.0],
    [0.0, 0.0, 0.0, 1.0]
],
  "dcmmeta_shape": [104, 104, 60, 190],
  "dcmmeta_slice_dim": 2,
  "dcmmeta_version": 0.6,
  "global": {
    "const": {
      "AcquisitionMatrix": [104, 0, 0, 104],
      "AngioFlag": "N",
      "BitsAllocated": 16,
      "BitsStored": 16,
      "BodyPartExamined": "BRAIN",
      "Columns": 832,
      "EchoNumbers": 1,
      "EchoTime": 37.0,
      "EchoTrainLength": 104,
      "FlipAngle": 52.0,
      "HighBit": 15,
      "ImageOrientationPatient": [0.99784162877792, 0.0525037109893, 0.03943912030183, -0.0365891509705, 0.94327053248117, -0.3300029342051],
      "ImagePositionPatient": [-800.33553403559, -863.52217639629, 221.57098113747],
      "ImageType": [
        "ORIGINAL",
        "PRIMARY",
        "P",
        "MB",
        "ND",
        "MOSAIC"
],
      "ImagedNucleus": "1H",
      "ImagingFrequency": 123.258902,
      "InPlanePhaseEncodingDirection": "COL",
      "LargestImagePixelValue": 4095,
      "MRAcquisitionType": "2D",
      "MagneticFieldStrength": 3.0,
      "Manufacturer": "SIEMENS",
      "ManufacturerModelName": "Prisma_fit",
      "Modality": "MR",
      "NumberOfAverages": 1.0,
      "NumberOfPhaseEncodingSteps": 104,
      "PercentPhaseFieldOfView": 100.0,
      "PercentSampling": 100.0,
      "PerformedProcedureStepStartTime": "170453.829000",
      "PhotometricInterpretation": "MONOCHROME2",
      "PixelBandwidth": 2290.0,
      "PixelRepresentation": 0,
      "PixelSpacing": [2.0, 2.0],
      "ProtocolName": "func_task-things_run-6",
      "RepetitionTime": 1490.0,
      "RescaleIntercept": -4096.0,
      "RescaleSlope": 2.0,
      "RescaleType": "US",
      "Rows": 832,
      "SAR": 0.05663615776613,
      "SamplesPerPixel": 1,
      "ScanOptions": "FS",
      "ScanningSequence": "EP",
      "SequenceName": "epfid2d1_104",
      "SequenceVariant": [
        "SK",
        "SS"
],
      "SeriesDescription": "func_task-things_run-6",
      "SeriesNumber": 26,
      "SeriesTime": "180023.618000",
      "SliceLocation": -30.486957268536,
      "SliceThickness": 2.0,
      "SmallestImagePixelValue": 0,
      "SoftwareVersions": "syngo MR E11",
      "SpacingBetweenSlices": 2.0000000095256,
      "SpecificCharacterSet": "ISO_IR 100",
      "StudyID": "1",
      "StudyTime": "170453.736000",
      "TransmitCoilName": "Body",
      "VariableFlipAngleFlag": "N",
      "WindowCenterWidthExplanation": "Algo1",
      "dBdt": 0.0},
    "slices": {}
  },
  "time": {
    "samples": {
      "AcquisitionNumber": [1, 2, 3, 4, 5, 6, 7, 8, 9, 10, 11, 12, 13, 14, 15, 16, 17, 18, 19, 20, 21, 22, 23, 24, 25, 26, 27, 28, 29, 30, 31, 32, 33, 34, 35, 36, 37, 38, 39, 40, 41, 42, 43, 44, 45, 46, 47, 48, 49, 50, 51, 52, 53, 54, 55, 56, 57, 58, 59, 60, 61, 62, 63, 64, 65, 66, 67, 68, 69, 70, 71, 72, 73, 74, 75, 76, 77, 78, 79, 80, 81, 82, 83, 84, 85, 86, 87, 88, 89, 90, 91, 92, 93, 94, 95, 96, 97, 98, 99, 100, 101, 102, 103, 104, 105, 106, 107, 108, 109, 110, 111, 112, 113, 114, 115, 116, 117, 118, 119, 120, 121, 122, 123, 124, 125, 126, 127, 128, 129, 130, 131, 132, 133, 134, 135, 136, 137, 138, 139, 140, 141, 142, 143, 144, 145, 146, 147, 148, 149, 150, 151, 152, 153, 154, 155, 156, 157, 158, 159, 160, 161, 162, 163, 164, 165, 166, 167, 168, 169, 170, 171, 172, 173, 174, 175, 176, 177, 178, 179, 180, 181, 182, 183, 184, 185, 186, 187, 188, 189, 190],
      "AcquisitionTime": ["175903.335000", "175904.825000", "175906.315000", "175907.805000", "175909.295000", "175910.785000", "175912.275000", "175913.765000", "175915.255000", "175916.745000", "175918.235000", "175919.725000", "175921.215000", "175922.705000", "175924.195000", "175925.685000", "175927.175000", "175928.665000", "175930.155000", "175931.645000", "175933.135000", "175934.625000", "175936.115000", "175937.605000", "175939.095000", "175940.585000", "175942.075000", "175943.565000", "175945.055000", "175946.545000", "175948.035000", "175949.525000", "175951.015000", "175952.505000", "175953.995000", "175955.485000", "175956.975000", "175958.465000", "175959.955000", "180001.445000", "180002.935000", "180004.425000", "180005.915000", "180007.405000", "180008.895000", "180010.385000", "180011.875000", "180013.365000", "180014.855000", "180016.345000", "180017.835000", "180019.325000", "180020.815000", "180022.305000", "180023.795000", "180025.285000", "180026.775000", "180028.265000", "180029.755000", "180031.245000", "180032.735000", "180034.225000", "180035.715000", "180037.205000", "180038.695000", "180040.185000", "180041.675000", "180043.165000", "180044.655000", "180046.145000", "180047.635000", "180049.125000", "180050.615000", "180052.105000", "180053.595000", "180055.085000", "180056.575000", "180058.065000", "180059.555000", "180101.045000", "180102.535000", "180104.025000", "180105.515000", "180107.005000", "180108.495000", "180109.985000", "180111.475000", "180112.965000", "180114.455000", "180115.945000", "180117.435000", "180118.925000", "180120.415000", "180121.905000", "180123.395000", "180124.885000", "180126.375000", "180127.865000", "180129.355000", "180130.845000", "180132.335000", "180133.825000", "180135.315000", "180136.805000", "180138.295000", "180139.785000", "180141.275000", "180142.765000", "180144.255000", "180145.745000", "180147.235000", "180148.725000", "180150.215000", "180151.705000", "180153.195000", "180154.685000", "180156.175000", "180157.665000", "180159.155000", "180200.645000", "180202.135000", "180203.625000", "180205.115000", "180206.605000", "180208.095000", "180209.585000", "180211.075000", "180212.565000", "180214.055000", "180215.545000", "180217.035000", "180218.525000", "180220.015000", "180221.505000", "180222.995000", "180224.485000", "180225.975000", "180227.465000", "180228.955000", "180230.445000", "180231.935000", "180233.425000", "180234.915000", "180236.405000", "180237.895000", "180239.385000", "180240.875000", "180242.365000", "180243.855000", "180245.345000", "180246.835000", "180248.325000", "180249.815000", "180251.305000", "180252.795000", "180254.285000", "180255.775000", "180257.265000", "180258.755000", "180300.245000", "180301.735000", "180303.225000", "180304.715000", "180306.205000", "180307.695000", "180309.185000", "180310.675000", "180312.165000", "180313.655000", "180315.145000", "180316.635000", "180318.125000", "180319.615000", "180321.105000", "180322.595000", "180324.085000", "180325.575000", "180327.065000", "180328.555000", "180330.045000", "180331.535000", "180333.025000", "180334.515000", "180336.005000", "180337.495000", "180338.985000", "180340.475000", "180341.965000", "180343.455000", "180344.945000"],
      "ContentTime": ["180023.620000", "180023.622000", "180023.625000", "180023.627000", "180023.630000", "180023.632000", "180023.635000", "180023.637000", "180023.640000", "180023.642000", "180023.645000", "180023.647000", "180023.650000", "180023.652000", "180023.654000", "180023.657000", "180023.659000", "180023.662000", "180023.664000", "180023.667000", "180023.669000", "180023.672000", "180023.674000", "180023.677000", "180023.679000", "180023.682000", "180043.544000", "180043.546000", "180043.559000", "180043.562000", "180043.564000", "180043.567000", "180043.569000", "180043.572000", "180043.574000", "180043.577000", "180043.579000", "180043.582000", "180043.584000", "180043.587000", "180043.589000", "180043.591000", "180043.594000", "180043.596000", "180043.599000", "180043.601000", "180103.538000", "180103.541000", "180103.543000", "180103.546000", "180103.548000", "180103.551000", "180103.555000", "180103.557000", "180103.560000", "180103.563000", "180103.565000", "180103.567000", "180103.570000", "180103.572000", "180103.575000", "180103.577000", "180103.580000", "180103.582000", "180103.585000", "180103.587000", "180123.536000", "180123.539000", "180123.541000", "180123.543000", "180123.546000", "180123.548000", "180123.551000", "180123.553000", "180123.556000", "180123.558000", "180123.561000", "180123.563000", "180123.566000", "180123.568000", "180123.571000", "180123.573000", "180123.576000", "180123.578000", "180123.581000", "180123.583000", "180123.586000", "180203.590000", "180203.593000", "180203.596000", "180203.598000", "180203.601000", "180203.603000", "180203.606000", "180203.608000", "180203.611000", "180203.613000", "180203.616000", "180203.618000", "180203.620000", "180203.623000", "180203.625000", "180203.628000", "180203.630000", "180203.633000", "180203.635000", "180203.638000", "180203.640000", "180203.643000", "180203.645000", "180203.648000", "180203.650000", "180203.653000", "180203.655000", "180203.658000", "180203.660000", "180203.662000", "180203.665000", "180203.667000", "180203.670000", "180243.552000", "180243.554000", "180243.557000", "180243.559000", "180243.562000", "180243.564000", "180243.567000", "180243.569000", "180243.572000", "180243.574000", "180243.577000", "180243.579000", "180243.582000", "180243.584000", "180243.587000", "180243.589000", "180243.592000", "180243.594000", "180243.597000", "180243.599000", "180243.602000", "180243.604000", "180243.606000", "180243.609000", "180243.612000", "180243.614000", "180243.616000", "180323.577000", "180323.580000", "180323.582000", "180323.585000", "180323.587000", "180323.590000", "180323.592000", "180323.595000", "180323.597000", "180323.599000", "180323.602000", "180323.604000", "180323.607000", "180323.609000", "180323.612000", "180323.614000", "180323.617000", "180323.619000", "180323.622000", "180323.624000", "180323.627000", "180323.629000", "180323.632000", "180323.634000", "180323.637000", "180323.639000", "180347.482000", "180347.485000", "180347.487000", "180347.490000", "180347.493000", "180347.495000", "180347.497000", "180347.500000", "180347.502000", "180347.505000", "180347.507000", "180347.510000", "180347.512000", "180347.515000", "180347.517000", "180347.520000", "180347.522000"],
      "InstanceCreationTime": ["180023.620000", "180023.622000", "180023.625000", "180023.627000", "180023.630000", "180023.632000", "180023.635000", "180023.637000", "180023.640000", "180023.642000", "180023.645000", "180023.647000", "180023.650000", "180023.652000", "180023.654000", "180023.657000", "180023.659000", "180023.662000", "180023.664000", "180023.667000", "180023.669000", "180023.672000", "180023.674000", "180023.677000", "180023.679000", "180023.682000", "180043.544000", "180043.546000", "180043.559000", "180043.562000", "180043.564000", "180043.567000", "180043.569000", "180043.572000", "180043.574000", "180043.577000", "180043.579000", "180043.582000", "180043.584000", "180043.587000", "180043.589000", "180043.591000", "180043.594000", "180043.596000", "180043.599000", "180043.601000", "180103.538000", "180103.541000", "180103.543000", "180103.546000", "180103.548000", "180103.551000", "180103.555000", "180103.557000", "180103.560000", "180103.563000", "180103.565000", "180103.567000", "180103.570000", "180103.572000", "180103.575000", "180103.577000", "180103.580000", "180103.582000", "180103.585000", "180103.587000", "180123.536000", "180123.539000", "180123.541000", "180123.543000", "180123.546000", "180123.548000", "180123.551000", "180123.553000", "180123.556000", "180123.558000", "180123.561000", "180123.563000", "180123.566000", "180123.568000", "180123.571000", "180123.573000", "180123.576000", "180123.578000", "180123.581000", "180123.583000", "180123.586000", "180203.590000", "180203.593000", "180203.596000", "180203.598000", "180203.601000", "180203.603000", "180203.606000", "180203.608000", "180203.611000", "180203.613000", "180203.616000", "180203.618000", "180203.620000", "180203.623000", "180203.625000", "180203.628000", "180203.630000", "180203.633000", "180203.635000", "180203.638000", "180203.640000", "180203.643000", "180203.645000", "180203.648000", "180203.650000", "180203.653000", "180203.655000", "180203.658000", "180203.660000", "180203.662000", "180203.665000", "180203.667000", "180203.670000", "180243.552000", "180243.554000", "180243.557000", "180243.559000", "180243.562000", "180243.564000", "180243.567000", "180243.569000", "180243.572000", "180243.574000", "180243.577000", "180243.579000", "180243.582000", "180243.584000", "180243.587000", "180243.589000", "180243.592000", "180243.594000", "180243.597000", "180243.599000", "180243.602000", "180243.604000", "180243.606000", "180243.609000", "180243.612000", "180243.614000", "180243.616000", "180323.577000", "180323.580000", "180323.582000", "180323.585000", "180323.587000", "180323.590000", "180323.592000", "180323.595000", "180323.597000", "180323.599000", "180323.602000", "180323.604000", "180323.607000", "180323.609000", "180323.612000", "180323.614000", "180323.617000", "180323.619000", "180323.622000", "180323.624000", "180323.627000", "180323.629000", "180323.632000", "180323.634000", "180323.637000", "180323.639000", "180347.482000", "180347.485000", "180347.487000", "180347.490000", "180347.493000", "180347.495000", "180347.497000", "180347.500000", "180347.502000", "180347.505000", "180347.507000", "180347.510000", "180347.512000", "180347.515000", "180347.517000", "180347.520000", "180347.522000"],
      "InstanceNumber": [1, 2, 3, 4, 5, 6, 7, 8, 9, 10, 11, 12, 13, 14, 15, 16, 17, 18, 19, 20, 21, 22, 23, 24, 25, 26, 27, 28, 29, 30, 31, 32, 33, 34, 35, 36, 37, 38, 39, 40, 41, 42, 43, 44, 45, 46, 47, 48, 49, 50, 51, 52, 53, 54, 55, 56, 57, 58, 59, 60, 61, 62, 63, 64, 65, 66, 67, 68, 69, 70, 71, 72, 73, 74, 75, 76, 77, 78, 79, 80, 81, 82, 83, 84, 85, 86, 87, 88, 89, 90, 91, 92, 93, 94, 95, 96, 97, 98, 99, 100, 101, 102, 103, 104, 105, 106, 107, 108, 109, 110, 111, 112, 113, 114, 115, 116, 117, 118, 119, 120, 121, 122, 123, 124, 125, 126, 127, 128, 129, 130, 131, 132, 133, 134, 135, 136, 137, 138, 139, 140, 141, 142, 143, 144, 145, 146, 147, 148, 149, 150, 151, 152, 153, 154, 155, 156, 157, 158, 159, 160, 161, 162, 163, 164, 165, 166, 167, 168, 169, 170, 171, 172, 173, 174, 175, 176, 177, 178, 179, 180, 181, 182, 183, 184, 185, 186, 187, 188, 189, 190],
      "WindowCenter": [4808.0, 4834.0, 4836.0, 4838.0, 4834.0, 4834.0, 4838.0, 4836.0, 4834.0, 4832.0, 4830.0, 4810.0, 4832.0, 4830.0, 4830.0, 4832.0, 4836.0, 4838.0, 4834.0, 4834.0, 4832.0, 4830.0, 4832.0, 4830.0, 4834.0, 4832.0, 4830.0, 4838.0, 4836.0, 4832.0, 4810.0, 4830.0, 4832.0, 4836.0, 4832.0, 4836.0, 4836.0, 4832.0, 4834.0, 4832.0, 4834.0, 4834.0, 4836.0, 4810.0, 4810.0, 4808.0, 4834.0, 4832.0, 4808.0, 4814.0, 4816.0, 4834.0, 4808.0, 4832.0, 4836.0, 4832.0, 4834.0, 4832.0, 4810.0, 4836.0, 4832.0, 4830.0, 4832.0, 4832.0, 4832.0, 4834.0, 4834.0, 4832.0, 4834.0, 4810.0, 4812.0, 4812.0, 4832.0, 4832.0, 4836.0, 4838.0, 4832.0, 4830.0, 4832.0, 4808.0, 4832.0, 4810.0, 4842.0, 4814.0, 4808.0, 4814.0, 4812.0, 4810.0, 4836.0, 4840.0, 4846.0, 4844.0, 4816.0, 4806.0, 4834.0, 4838.0, 4842.0, 4836.0, 4832.0, 4838.0, 4814.0, 4816.0, 4834.0, 4806.0, 4804.0, 4808.0, 4810.0, 4836.0, 4810.0, 4834.0, 4830.0, 4832.0, 4836.0, 4836.0, 4832.0, 4832.0, 4832.0, 4832.0, 4810.0, 4808.0, 4808.0, 4808.0, 4832.0, 4832.0, 4834.0, 4834.0, 4836.0, 4832.0, 4834.0, 4810.0, 4834.0, 4808.0, 4832.0, 4832.0, 4834.0, 4834.0, 4832.0, 4834.0, 4836.0, 4832.0, 4832.0, 4836.0, 4832.0, 4830.0, 4830.0, 4836.0, 4834.0, 4832.0, 4836.0, 4836.0, 4832.0, 4832.0, 4832.0, 4830.0, 4834.0, 4834.0, 4834.0, 4834.0, 4834.0, 4834.0, 4832.0, 4830.0, 4834.0, 4832.0, 4838.0, 4834.0, 4836.0, 4830.0, 4836.0, 4834.0, 4834.0, 4834.0, 4836.0, 4832.0, 4836.0, 4832.0, 4832.0, 4832.0, 4830.0, 4834.0, 4832.0, 4834.0, 4836.0, 4834.0, 4836.0, 4836.0, 4834.0, 4834.0, 4836.0, 4834.0],
      "WindowWidth": [18606.0, 18636.0, 18636.0, 18638.0, 18638.0, 18646.0, 18658.0, 18654.0, 18650.0, 18644.0, 18634.0, 18604.0, 18640.0, 18640.0, 18638.0, 18642.0, 18650.0, 18650.0, 18656.0, 18648.0, 18642.0, 18638.0, 18642.0, 18640.0, 18636.0, 18638.0, 18644.0, 18656.0, 18652.0, 18640.0, 18610.0, 18632.0, 18636.0, 18644.0, 18646.0, 18652.0, 18660.0, 18646.0, 18642.0, 18644.0, 18642.0, 18646.0, 18652.0, 18614.0, 18610.0, 18608.0, 18640.0, 18640.0, 18604.0, 18614.0, 18622.0, 18650.0, 18614.0, 18638.0, 18642.0, 18636.0, 18644.0, 18652.0, 18610.0, 18652.0, 18648.0, 18642.0, 18644.0, 18640.0, 18644.0, 18648.0, 18648.0, 18650.0, 18640.0, 18610.0, 18606.0, 18608.0, 18638.0, 18648.0, 18654.0, 18660.0, 18652.0, 18642.0, 18646.0, 18614.0, 18642.0, 18612.0, 18648.0, 18614.0, 18608.0, 18612.0, 18610.0, 18606.0, 18638.0, 18644.0, 18650.0, 18644.0, 18608.0, 18602.0, 18634.0, 18634.0, 18638.0, 18634.0, 18642.0, 18658.0, 18616.0, 18630.0, 18656.0, 18618.0, 18608.0, 18606.0, 18608.0, 18642.0, 18612.0, 18640.0, 18642.0, 18652.0, 18656.0, 18658.0, 18648.0, 18646.0, 18646.0, 18642.0, 18610.0, 18612.0, 18608.0, 18616.0, 18648.0, 18650.0, 18652.0, 18654.0, 18656.0, 18642.0, 18646.0, 18614.0, 18642.0, 18608.0, 18644.0, 18642.0, 18648.0, 18648.0, 18648.0, 18656.0, 18656.0, 18648.0, 18652.0, 18648.0, 18644.0, 18642.0, 18640.0, 18650.0, 18650.0, 18648.0, 18656.0, 18654.0, 18650.0, 18650.0, 18646.0, 18644.0, 18650.0, 18650.0, 18652.0, 18650.0, 18654.0, 18650.0, 18648.0, 18646.0, 18652.0, 18652.0, 18658.0, 18658.0, 18652.0, 18644.0, 18648.0, 18646.0, 18642.0, 18650.0, 18658.0, 18654.0, 18660.0, 18656.0, 18654.0, 18654.0, 18648.0, 18650.0, 18654.0, 18652.0, 18656.0, 18656.0, 18660.0, 18658.0, 18664.0, 18656.0, 18654.0, 18650.0]
    },
    "slices": {}
  }
}