{
  "AcquisitionMatrixPE": 104,
  "AcquisitionNumber": 1,
  "AcquisitionTime": "11:20:19.642500",
  "BandwidthPerPixelPhaseEncode": 17.17,
  "BaseResolution": 104,
  "BodyPartExamined": "BRAIN",
  "CoilString": "HC1-7;NC1_2",
  "ConsistencyInfo": "N4_VE11C_LATEST_20160120",
  "ConversionSoftware": "dcm2niix",
  "ConversionSoftwareVersion": "v1.0.20190902",
  "DerivedVendorReportedEchoSpacing": 0.000560011,
  "DeviceSerialNumber": "167006",
  "DwellTime": 2.1e-06,
  "EchoTime": 0.037,
  "EchoTrainLength": 104,
  "EffectiveEchoSpacing": 0.000560011,
  "FlipAngle": 52,
  "ImageComments": "Unaliased_MB4_PE3_LB",
  "ImageOrientationPatientDICOM": [0.999726, 0.0109049, 0.0207254, 0.000348964, 0.877941, -0.478769],
  "ImageType": [
    "ORIGINAL",
    "PRIMARY",
    "M",
    "MB",
    "ND",
    "MOSAIC"
],
  "ImagingFrequency": 123.259,
  "InPlanePhaseEncodingDirectionDICOM": "COL",
  "InstitutionAddress": "Chemin_Queen-Mary_4565_Montreal_District_CA_H3W_1W5",
  "InstitutionName": "IUGM",
  "InstitutionalDepartmentName": "Department",
  "MRAcquisitionType": "2D",
  "MagneticFieldStrength": 3,
  "Manufacturer": "Siemens",
  "ManufacturersModelName": "Prisma_fit",
  "Modality": "MR",
  "MultibandAccelerationFactor": 4,
  "PartialFourier": 1,
  "PatientPosition": "HFS",
  "PercentPhaseFOV": 100,
  "PhaseEncodingDirection": "j",
  "PhaseEncodingSteps": 104,
  "PhaseResolution": 1,
  "PixelBandwidth": 2290,
  "ProcedureStepDescription": "memory_things",
  "ProtocolName": "func_task-things_run-6",
  "PulseSequenceDetails": "%CustomerSeq%_cmrr_mbep2d_bold",
  "ReceiveCoilActiveElements": "HC1-7;NC1,2",
  "ReceiveCoilName": "HeadNeck_64",
  "ReconMatrixPE": 104,
  "RepetitionTime": 1.49,
  "SAR": 0.0642558,
  "ScanOptions": "FS",
  "ScanningSequence": "EP",
  "SequenceName": "epfid2d1_104",
  "SequenceVariant": "SK_SS",
  "SeriesDescription": "func_task-things_run-6",
  "SeriesNumber": 25,
  "ShimSetting": [619, -7193, -8866, 279, -4, -134, -2, -10],
  "SliceThickness": 2,
  "SliceTiming": [0, 0.785, 0.1, 0.8825, 0.1975, 0.98, 0.295, 1.0775, 0.3925, 1.1775, 0.49, 1.275, 0.59, 1.3725, 0.6875, 0, 0.785, 0.1, 0.8825, 0.1975, 0.98, 0.295, 1.0775, 0.3925, 1.1775, 0.49, 1.275, 0.59, 1.3725, 0.6875, 0, 0.785, 0.1, 0.8825, 0.1975, 0.98, 0.295, 1.0775, 0.3925, 1.1775, 0.49, 1.275, 0.59, 1.3725, 0.6875, 0, 0.785, 0.1, 0.8825, 0.1975, 0.98, 0.295, 1.0775, 0.3925, 1.1775, 0.49, 1.275, 0.59, 1.3725, 0.6875],
  "SoftwareVersions": "syngo_MR_E11",
  "SpacingBetweenSlices": 2,
  "StationName": "MRC35049",
  "TaskName": "things",
  "TotalReadoutTime": 0.0576811,
  "TxRefAmp": 298.644,
  "WipMemBlock": "70b6125c-2102-4427-825a-b945c3ef0997||Sequence: R016 ve11c/master r/e634e98; Dec 19 2017 11:00:25 by eja",
  "dcmmeta_affine": [
    [-1.9994515180587769, 0.0006979276076890528, 0.046833161264657974, 105.63919067382812],
    [-0.02180970087647438, 1.7558815479278564, -0.9572900533676147, -53.31027603149414],
    [0.04145079851150513, 0.9575382471084595, 1.7553924322128296, -91.98103332519531],
    [0.0, 0.0, 0.0, 1.0]
],
  "dcmmeta_reorient_transform": [
    [0.0, -1.0, 0.0, 103.0],
    [1.0, 0.0, 0.0, 0.0],
    [0.0, 0.0, 1.0, 0.0],
    [0.0, 0.0, 0.0, 1.0]
],
  "dcmmeta_shape": [104, 104, 60, 190],
  "dcmmeta_slice_dim": 2,
  "dcmmeta_version": 0.6,
  "global": {
    "const": {
      "AcquisitionMatrix": [104, 0, 0, 104],
      "AngioFlag": "N",
      "BitsAllocated": 16,
      "BitsStored": 16,
      "BodyPartExamined": "BRAIN",
      "Columns": 832,
      "EchoNumbers": 1,
      "EchoTime": 37.0,
      "EchoTrainLength": 104,
      "FlipAngle": 52.0,
      "HighBit": 15,
      "ImageOrientationPatient": [0.99972573339808, 0.01090485083817, 0.0207254001137, 0.00034896380917, 0.87794078225378, -0.478769110407],
      "ImagePositionPatient": [-833.76546047343, -774.62514610872, 340.10122469104],
      "ImageType": [
        "ORIGINAL",
        "PRIMARY",
        "M",
        "MB",
        "ND",
        "MOSAIC"
],
      "ImagedNucleus": "1H",
      "ImagingFrequency": 123.258911,
      "InPlanePhaseEncodingDirection": "COL",
      "MRAcquisitionType": "2D",
      "MagneticFieldStrength": 3.0,
      "Manufacturer": "SIEMENS",
      "ManufacturerModelName": "Prisma_fit",
      "Modality": "MR",
      "NumberOfAverages": 1.0,
      "NumberOfPhaseEncodingSteps": 104,
      "PercentPhaseFieldOfView": 100.0,
      "PercentSampling": 100.0,
      "PerformedProcedureStepStartTime": "103740.940000",
      "PhotometricInterpretation": "MONOCHROME2",
      "PixelBandwidth": 2290.0,
      "PixelRepresentation": 0,
      "PixelSpacing": [2.0, 2.0],
      "ProtocolName": "func_task-things_run-6",
      "RepetitionTime": 1490.0,
      "Rows": 832,
      "SAR": 0.06425578629256,
      "SamplesPerPixel": 1,
      "ScanOptions": "FS",
      "ScanningSequence": "EP",
      "SequenceName": "epfid2d1_104",
      "SequenceVariant": [
        "SK",
        "SS"
],
      "SeriesDescription": "func_task-things_run-6",
      "SeriesNumber": 25,
      "SeriesTime": "112135.552000",
      "SliceLocation": -52.740994703557,
      "SliceThickness": 2.0,
      "SmallestImagePixelValue": 0,
      "SoftwareVersions": "syngo MR E11",
      "SpacingBetweenSlices": 2.000000035068,
      "SpecificCharacterSet": "ISO_IR 100",
      "StudyID": "1",
      "StudyTime": "103740.881000",
      "TransmitCoilName": "Body",
      "VariableFlipAngleFlag": "N",
      "WindowCenterWidthExplanation": "Algo1",
      "dBdt": 0.0},
    "slices": {}
  },
  "time": {
    "samples": {
      "AcquisitionNumber": [1, 2, 3, 4, 5, 6, 7, 8, 9, 10, 11, 12, 13, 14, 15, 16, 17, 18, 19, 20, 21, 22, 23, 24, 25, 26, 27, 28, 29, 30, 31, 32, 33, 34, 35, 36, 37, 38, 39, 40, 41, 42, 43, 44, 45, 46, 47, 48, 49, 50, 51, 52, 53, 54, 55, 56, 57, 58, 59, 60, 61, 62, 63, 64, 65, 66, 67, 68, 69, 70, 71, 72, 73, 74, 75, 76, 77, 78, 79, 80, 81, 82, 83, 84, 85, 86, 87, 88, 89, 90, 91, 92, 93, 94, 95, 96, 97, 98, 99, 100, 101, 102, 103, 104, 105, 106, 107, 108, 109, 110, 111, 112, 113, 114, 115, 116, 117, 118, 119, 120, 121, 122, 123, 124, 125, 126, 127, 128, 129, 130, 131, 132, 133, 134, 135, 136, 137, 138, 139, 140, 141, 142, 143, 144, 145, 146, 147, 148, 149, 150, 151, 152, 153, 154, 155, 156, 157, 158, 159, 160, 161, 162, 163, 164, 165, 166, 167, 168, 169, 170, 171, 172, 173, 174, 175, 176, 177, 178, 179, 180, 181, 182, 183, 184, 185, 186, 187, 188, 189, 190],
      "AcquisitionTime": ["112019.642500", "112021.132500", "112022.622500", "112024.112500", "112025.602500", "112027.092500", "112028.582500", "112030.072500", "112031.562500", "112033.052500", "112034.542500", "112036.032500", "112037.522500", "112039.012500", "112040.502500", "112041.992500", "112043.482500", "112044.972500", "112046.462500", "112047.952500", "112049.442500", "112050.932500", "112052.422500", "112053.912500", "112055.402500", "112056.892500", "112058.382500", "112059.872500", "112101.362500", "112102.852500", "112104.342500", "112105.832500", "112107.322500", "112108.812500", "112110.302500", "112111.792500", "112113.282500", "112114.772500", "112116.262500", "112117.752500", "112119.242500", "112120.732500", "112122.222500", "112123.712500", "112125.202500", "112126.692500", "112128.182500", "112129.672500", "112131.162500", "112132.652500", "112134.142500", "112135.632500", "112137.122500", "112138.612500", "112140.102500", "112141.592500", "112143.082500", "112144.572500", "112146.062500", "112147.552500", "112149.042500", "112150.532500", "112152.022500", "112153.512500", "112155.002500", "112156.492500", "112157.982500", "112159.472500", "112200.962500", "112202.452500", "112203.942500", "112205.432500", "112206.922500", "112208.412500", "112209.902500", "112211.392500", "112212.882500", "112214.372500", "112215.862500", "112217.352500", "112218.842500", "112220.332500", "112221.822500", "112223.312500", "112224.802500", "112226.292500", "112227.782500", "112229.272500", "112230.762500", "112232.252500", "112233.742500", "112235.232500", "112236.722500", "112238.212500", "112239.702500", "112241.192500", "112242.682500", "112244.172500", "112245.662500", "112247.152500", "112248.642500", "112250.132500", "112251.622500", "112253.112500", "112254.602500", "112256.092500", "112257.582500", "112259.072500", "112300.562500", "112302.052500", "112303.542500", "112305.032500", "112306.522500", "112308.012500", "112309.502500", "112310.992500", "112312.482500", "112313.972500", "112315.462500", "112316.952500", "112318.442500", "112319.932500", "112321.422500", "112322.912500", "112324.402500", "112325.892500", "112327.382500", "112328.872500", "112330.362500", "112331.852500", "112333.342500", "112334.832500", "112336.322500", "112337.812500", "112339.302500", "112340.792500", "112342.282500", "112343.772500", "112345.262500", "112346.752500", "112348.242500", "112349.732500", "112351.222500", "112352.712500", "112354.202500", "112355.692500", "112357.182500", "112358.672500", "112400.162500", "112401.652500", "112403.142500", "112404.632500", "112406.122500", "112407.612500", "112409.102500", "112410.592500", "112412.082500", "112413.572500", "112415.062500", "112416.552500", "112418.042500", "112419.532500", "112421.022500", "112422.512500", "112424.002500", "112425.492500", "112426.982500", "112428.472500", "112429.962500", "112431.452500", "112432.942500", "112434.432500", "112435.922500", "112437.412500", "112438.902500", "112440.392500", "112441.882500", "112443.372500", "112444.862500", "112446.352500", "112447.842500", "112449.332500", "112450.822500", "112452.312500", "112453.802500", "112455.292500", "112456.782500", "112458.272500", "112459.762500", "112501.252500"],
      "ContentTime": ["112135.555000", "112135.559000", "112135.563000", "112135.566000", "112135.569000", "112135.573000", "112135.587000", "112135.590000", "112135.593000", "112135.597000", "112135.600000", "112135.603000", "112135.607000", "112135.610000", "112135.614000", "112135.617000", "112135.620000", "112135.623000", "112135.627000", "112135.630000", "112135.633000", "112135.637000", "112155.519000", "112155.523000", "112155.526000", "112155.530000", "112155.533000", "112155.537000", "112155.540000", "112155.544000", "112155.547000", "112155.550000", "112155.554000", "112155.557000", "112155.561000", "112155.564000", "112155.567000", "112155.571000", "112155.574000", "112155.577000", "112155.581000", "112155.584000", "112155.587000", "112215.520000", "112215.524000", "112215.527000", "112215.530000", "112215.534000", "112215.537000", "112215.540000", "112215.544000", "112215.547000", "112215.551000", "112215.554000", "112215.557000", "112215.561000", "112215.564000", "112215.567000", "112215.571000", "112215.574000", "112215.577000", "112215.581000", "112215.584000", "112235.520000", "112235.524000", "112235.527000", "112235.531000", "112235.534000", "112235.537000", "112235.541000", "112235.544000", "112235.559000", "112235.563000", "112235.566000", "112235.569000", "112235.573000", "112235.576000", "112235.579000", "112235.583000", "112235.586000", "112235.590000", "112235.593000", "112235.596000", "112255.520000", "112255.524000", "112255.527000", "112255.531000", "112255.534000", "112255.537000", "112255.541000", "112255.544000", "112255.547000", "112255.551000", "112255.554000", "112255.557000", "112255.561000", "112255.564000", "112255.567000", "112255.571000", "112255.574000", "112255.577000", "112255.581000", "112255.584000", "112255.587000", "112335.521000", "112335.525000", "112335.528000", "112335.532000", "112335.535000", "112335.538000", "112335.542000", "112335.545000", "112335.548000", "112335.552000", "112335.555000", "112335.559000", "112335.562000", "112335.566000", "112335.569000", "112335.572000", "112335.576000", "112335.579000", "112335.582000", "112335.585000", "112335.589000", "112335.592000", "112335.596000", "112335.599000", "112335.608000", "112335.611000", "112335.614000", "112415.519000", "112415.523000", "112415.526000", "112415.530000", "112415.533000", "112415.536000", "112415.540000", "112415.543000", "112415.547000", "112415.550000", "112415.553000", "112415.557000", "112415.560000", "112415.563000", "112415.567000", "112415.570000", "112415.573000", "112415.577000", "112415.580000", "112415.583000", "112415.587000", "112415.590000", "112415.595000", "112415.598000", "112415.602000", "112415.605000", "112455.520000", "112455.524000", "112455.527000", "112455.531000", "112455.534000", "112455.537000", "112455.541000", "112455.544000", "112455.547000", "112455.551000", "112455.554000", "112455.557000", "112455.579000", "112455.583000", "112455.586000", "112455.589000", "112455.593000", "112455.596000", "112455.599000", "112455.603000", "112455.606000", "112455.609000", "112455.613000", "112455.616000", "112455.619000", "112455.623000", "112455.626000", "112503.468000", "112503.472000", "112503.475000", "112503.478000", "112503.482000", "112503.485000"],
      "InstanceCreationTime": ["112135.555000", "112135.559000", "112135.563000", "112135.566000", "112135.569000", "112135.573000", "112135.587000", "112135.590000", "112135.593000", "112135.597000", "112135.600000", "112135.603000", "112135.607000", "112135.610000", "112135.614000", "112135.617000", "112135.620000", "112135.623000", "112135.627000", "112135.630000", "112135.633000", "112135.637000", "112155.519000", "112155.523000", "112155.526000", "112155.530000", "112155.533000", "112155.537000", "112155.540000", "112155.544000", "112155.547000", "112155.550000", "112155.554000", "112155.557000", "112155.561000", "112155.564000", "112155.567000", "112155.571000", "112155.574000", "112155.577000", "112155.581000", "112155.584000", "112155.587000", "112215.520000", "112215.524000", "112215.527000", "112215.530000", "112215.534000", "112215.537000", "112215.540000", "112215.544000", "112215.547000", "112215.551000", "112215.554000", "112215.557000", "112215.561000", "112215.564000", "112215.567000", "112215.571000", "112215.574000", "112215.577000", "112215.581000", "112215.584000", "112235.520000", "112235.524000", "112235.527000", "112235.531000", "112235.534000", "112235.537000", "112235.541000", "112235.544000", "112235.559000", "112235.563000", "112235.566000", "112235.569000", "112235.573000", "112235.576000", "112235.579000", "112235.583000", "112235.586000", "112235.590000", "112235.593000", "112235.596000", "112255.520000", "112255.524000", "112255.527000", "112255.531000", "112255.534000", "112255.537000", "112255.541000", "112255.544000", "112255.547000", "112255.551000", "112255.554000", "112255.557000", "112255.561000", "112255.564000", "112255.567000", "112255.571000", "112255.574000", "112255.577000", "112255.581000", "112255.584000", "112255.587000", "112335.521000", "112335.525000", "112335.528000", "112335.532000", "112335.535000", "112335.538000", "112335.542000", "112335.545000", "112335.548000", "112335.552000", "112335.555000", "112335.559000", "112335.562000", "112335.566000", "112335.569000", "112335.572000", "112335.576000", "112335.579000", "112335.582000", "112335.585000", "112335.589000", "112335.592000", "112335.596000", "112335.599000", "112335.608000", "112335.611000", "112335.614000", "112415.519000", "112415.523000", "112415.526000", "112415.530000", "112415.533000", "112415.536000", "112415.540000", "112415.543000", "112415.547000", "112415.550000", "112415.553000", "112415.557000", "112415.560000", "112415.563000", "112415.567000", "112415.570000", "112415.573000", "112415.577000", "112415.580000", "112415.583000", "112415.587000", "112415.590000", "112415.595000", "112415.598000", "112415.602000", "112415.605000", "112455.520000", "112455.524000", "112455.527000", "112455.531000", "112455.534000", "112455.537000", "112455.541000", "112455.544000", "112455.547000", "112455.551000", "112455.554000", "112455.557000", "112455.579000", "112455.583000", "112455.586000", "112455.589000", "112455.593000", "112455.596000", "112455.599000", "112455.603000", "112455.606000", "112455.609000", "112455.613000", "112455.616000", "112455.619000", "112455.623000", "112455.626000", "112503.468000", "112503.472000", "112503.475000", "112503.478000", "112503.482000", "112503.485000"],
      "InstanceNumber": [1, 2, 3, 4, 5, 6, 7, 8, 9, 10, 11, 12, 13, 14, 15, 16, 17, 18, 19, 20, 21, 22, 23, 24, 25, 26, 27, 28, 29, 30, 31, 32, 33, 34, 35, 36, 37, 38, 39, 40, 41, 42, 43, 44, 45, 46, 47, 48, 49, 50, 51, 52, 53, 54, 55, 56, 57, 58, 59, 60, 61, 62, 63, 64, 65, 66, 67, 68, 69, 70, 71, 72, 73, 74, 75, 76, 77, 78, 79, 80, 81, 82, 83, 84, 85, 86, 87, 88, 89, 90, 91, 92, 93, 94, 95, 96, 97, 98, 99, 100, 101, 102, 103, 104, 105, 106, 107, 108, 109, 110, 111, 112, 113, 114, 115, 116, 117, 118, 119, 120, 121, 122, 123, 124, 125, 126, 127, 128, 129, 130, 131, 132, 133, 134, 135, 136, 137, 138, 139, 140, 141, 142, 143, 144, 145, 146, 147, 148, 149, 150, 151, 152, 153, 154, 155, 156, 157, 158, 159, 160, 161, 162, 163, 164, 165, 166, 167, 168, 169, 170, 171, 172, 173, 174, 175, 176, 177, 178, 179, 180, 181, 182, 183, 184, 185, 186, 187, 188, 189, 190],
      "LargestImagePixelValue": [46076, 45830, 45347, 43308, 44145, 44938, 46669, 45623, 44606, 43912, 43314, 42718, 42526, 43635, 44946, 45943, 45379, 43702, 44532, 44764, 43287, 42907, 44217, 45134, 44584, 44312, 43966, 43754, 42937, 44039, 44772, 43848, 44247, 45211, 43874, 45323, 44780, 43264, 44318, 44557, 44083, 44093, 43818, 42667, 44611, 46107, 44659, 44322, 44896, 43333, 43651, 44101, 43706, 43614, 44358, 43206, 43495, 45834, 46993, 46107, 45111, 43487, 43532, 43255, 43727, 42629, 44743, 44864, 44368, 44242, 45486, 45215, 43433, 43480, 45426, 45930, 44817, 44853, 43779, 42996, 43184, 44149, 43453, 43993, 44339, 43750, 44724, 44752, 43072, 42650, 44257, 43019, 42977, 42138, 41715, 43440, 42088, 42146, 43150, 42575, 42201, 43080, 44421, 43232, 42308, 43009, 44240, 44092, 43526, 42350, 42792, 43625, 43736, 44190, 42843, 42748, 41759, 43047, 43347, 44689, 44473, 45409, 42660, 43454, 43824, 43887, 43465, 44137, 43866, 45237, 45951, 45447, 44097, 43888, 43099, 43388, 42796, 42910, 42555, 43885, 43066, 45426, 46385, 46490, 45261, 43003, 43929, 45595, 44520, 44934, 43802, 45946, 45454, 46289, 44580, 43802, 43512, 43317, 42519, 43012, 42520, 42536, 44486, 42630, 44652, 46880, 44671, 45739, 44895, 44133, 44745, 43404, 44545, 44752, 44336, 44346, 44533, 43350, 45010, 45777, 43041, 42835, 44844, 46595, 44330, 42754, 43720, 46133, 46252, 46213],
      "WindowCenter": [11285.0, 11262.0, 11222.0, 11123.0, 11114.0, 11144.0, 11214.0, 11203.0, 11156.0, 11142.0, 11177.0, 11190.0, 11184.0, 11161.0, 11167.0, 11165.0, 11143.0, 11121.0, 11123.0, 11176.0, 11159.0, 11159.0, 11177.0, 11181.0, 11156.0, 11140.0, 11126.0, 11145.0, 11154.0, 11170.0, 11170.0, 11153.0, 11139.0, 11170.0, 11172.0, 11193.0, 11184.0, 11154.0, 11170.0, 11175.0, 11152.0, 11159.0, 11160.0, 11144.0, 11172.0, 11176.0, 11142.0, 11118.0, 11135.0, 11135.0, 11146.0, 11153.0, 11152.0, 11145.0, 11160.0, 11162.0, 11149.0, 11197.0, 11189.0, 11149.0, 11135.0, 11130.0, 11142.0, 11152.0, 11157.0, 11125.0, 11146.0, 11152.0, 11143.0, 11132.0, 11152.0, 11171.0, 11168.0, 11158.0, 11200.0, 11196.0, 11158.0, 11146.0, 11134.0, 11158.0, 11154.0, 11156.0, 11142.0, 11124.0, 11133.0, 11145.0, 11158.0, 11156.0, 11142.0, 11132.0, 11157.0, 11142.0, 11144.0, 11132.0, 11128.0, 11160.0, 11172.0, 11166.0, 11108.0, 11091.0, 11117.0, 11157.0, 11178.0, 11157.0, 11122.0, 11103.0, 11088.0, 11108.0, 11132.0, 11145.0, 11152.0, 11147.0, 11118.0, 11134.0, 11122.0, 11114.0, 11096.0, 11120.0, 11142.0, 11175.0, 11175.0, 11165.0, 11124.0, 11145.0, 11172.0, 11194.0, 11192.0, 11185.0, 11179.0, 11179.0, 11167.0, 11133.0, 11124.0, 11146.0, 11175.0, 11183.0, 11160.0, 11146.0, 11156.0, 11164.0, 11163.0, 11191.0, 11202.0, 11162.0, 11126.0, 11085.0, 11133.0, 11179.0, 11179.0, 11179.0, 11175.0, 11163.0, 11131.0, 11141.0, 11135.0, 11153.0, 11166.0, 11152.0, 11123.0, 11132.0, 11152.0, 11163.0, 11177.0, 11156.0, 11174.0, 11192.0, 11151.0, 11149.0, 11191.0, 11206.0, 11220.0, 11192.0, 11193.0, 11149.0, 11101.0, 11102.0, 11147.0, 11171.0, 11167.0, 11137.0, 11090.0, 11096.0, 11148.0, 11185.0, 11162.0, 11149.0, 11183.0, 11225.0, 11211.0, 11156.0],
      "WindowWidth": [24309.0, 24218.0, 24103.0, 23871.0, 23837.0, 23902.0, 24064.0, 24044.0, 23936.0, 23902.0, 23983.0, 24016.0, 24004.0, 23944.0, 23952.0, 23949.0, 23904.0, 23850.0, 23847.0, 23976.0, 23943.0, 23950.0, 23980.0, 23987.0, 23930.0, 23902.0, 23863.0, 23908.0, 23932.0, 23961.0, 23963.0, 23925.0, 23891.0, 23959.0, 23969.0, 24011.0, 23997.0, 23932.0, 23962.0, 23973.0, 23922.0, 23936.0, 23937.0, 23904.0, 23960.0, 23968.0, 23896.0, 23838.0, 23880.0, 23885.0, 23910.0, 23921.0, 23918.0, 23899.0, 23932.0, 23952.0, 23913.0, 24018.0, 24001.0, 23910.0, 23881.0, 23871.0, 23896.0, 23919.0, 23932.0, 23858.0, 23895.0, 23916.0, 23898.0, 23870.0, 23915.0, 23959.0, 23967.0, 23933.0, 24027.0, 24021.0, 23940.0, 23908.0, 23881.0, 23940.0, 23929.0, 23929.0, 23902.0, 23857.0, 23875.0, 23909.0, 23931.0, 23925.0, 23898.0, 23877.0, 23927.0, 23902.0, 23912.0, 23879.0, 23875.0, 23934.0, 23970.0, 23963.0, 23820.0, 23782.0, 23843.0, 23929.0, 23974.0, 23933.0, 23854.0, 23810.0, 23776.0, 23817.0, 23875.0, 23910.0, 23921.0, 23904.0, 23830.0, 23861.0, 23850.0, 23833.0, 23796.0, 23842.0, 23906.0, 23973.0, 23971.0, 23942.0, 23864.0, 23904.0, 23974.0, 24017.0, 24010.0, 23990.0, 23980.0, 23975.0, 23948.0, 23872.0, 23855.0, 23902.0, 23976.0, 24000.0, 23940.0, 23903.0, 23930.0, 23941.0, 23935.0, 24000.0, 24030.0, 23937.0, 23862.0, 23768.0, 23875.0, 23976.0, 23979.0, 23970.0, 23969.0, 23938.0, 23868.0, 23886.0, 23881.0, 23918.0, 23954.0, 23922.0, 23856.0, 23875.0, 23921.0, 23946.0, 23976.0, 23932.0, 23966.0, 24010.0, 23924.0, 23908.0, 24011.0, 24044.0, 24073.0, 24014.0, 24009.0, 23904.0, 23801.0, 23799.0, 23903.0, 23963.0, 23947.0, 23880.0, 23777.0, 23790.0, 23903.0, 23987.0, 23945.0, 23923.0, 23997.0, 24089.0, 24062.0, 23934.0]
    },
    "slices": {}
  }
}