{
  "AcquisitionMatrixPE": 104,
  "AcquisitionNumber": 1,
  "AcquisitionTime": "10:53:12.727500",
  "BandwidthPerPixelPhaseEncode": 17.17,
  "BaseResolution": 104,
  "BodyPartExamined": "BRAIN",
  "CoilString": "HC1-7;NC1_2",
  "ConsistencyInfo": "N4_VE11C_LATEST_20160120",
  "ConversionSoftware": "dcm2niix",
  "ConversionSoftwareVersion": "v1.0.20190902",
  "DerivedVendorReportedEchoSpacing": 0.000560011,
  "DeviceSerialNumber": "167006",
  "DwellTime": 2.1e-06,
  "EchoTime": 0.037,
  "EchoTrainLength": 104,
  "EffectiveEchoSpacing": 0.000560011,
  "FlipAngle": 52,
  "ImageComments": "Unaliased_MB4_PE3_LB",
  "ImageOrientationPatientDICOM": [0.999726, 0.0109049, 0.0207254, 0.000348964, 0.877941, -0.478769],
  "ImageType": [
    "ORIGINAL",
    "PRIMARY",
    "M",
    "MB",
    "ND",
    "MOSAIC"
],
  "ImagingFrequency": 123.259,
  "InPlanePhaseEncodingDirectionDICOM": "COL",
  "InstitutionAddress": "Chemin_Queen-Mary_4565_Montreal_District_CA_H3W_1W5",
  "InstitutionName": "IUGM",
  "InstitutionalDepartmentName": "Department",
  "MRAcquisitionType": "2D",
  "MagneticFieldStrength": 3,
  "Manufacturer": "Siemens",
  "ManufacturersModelName": "Prisma_fit",
  "Modality": "MR",
  "MultibandAccelerationFactor": 4,
  "PartialFourier": 1,
  "PatientPosition": "HFS",
  "PercentPhaseFOV": 100,
  "PhaseEncodingDirection": "j",
  "PhaseEncodingSteps": 104,
  "PhaseResolution": 1,
  "PixelBandwidth": 2290,
  "ProcedureStepDescription": "memory_things",
  "ProtocolName": "func_task-things_run-3",
  "PulseSequenceDetails": "%CustomerSeq%_cmrr_mbep2d_bold",
  "ReceiveCoilActiveElements": "HC1-7;NC1,2",
  "ReceiveCoilName": "HeadNeck_64",
  "ReconMatrixPE": 104,
  "RepetitionTime": 1.49,
  "SAR": 0.0642558,
  "ScanOptions": "FS",
  "ScanningSequence": "EP",
  "SequenceName": "epfid2d1_104",
  "SequenceVariant": "SK_SS",
  "SeriesDescription": "func_task-things_run-3",
  "SeriesNumber": 16,
  "ShimSetting": [619, -7193, -8866, 279, -4, -134, -2, -10],
  "SliceThickness": 2,
  "SliceTiming": [0, 0.7825, 0.0975, 0.88, 0.195, 0.98, 0.2925, 1.0775, 0.39, 1.175, 0.49, 1.2725, 0.5875, 1.37, 0.685, 0, 0.7825, 0.0975, 0.88, 0.195, 0.98, 0.2925, 1.0775, 0.39, 1.175, 0.49, 1.2725, 0.5875, 1.37, 0.685, 0, 0.7825, 0.0975, 0.88, 0.195, 0.98, 0.2925, 1.0775, 0.39, 1.175, 0.49, 1.2725, 0.5875, 1.37, 0.685, 0, 0.7825, 0.0975, 0.88, 0.195, 0.98, 0.2925, 1.0775, 0.39, 1.175, 0.49, 1.2725, 0.5875, 1.37, 0.685],
  "SoftwareVersions": "syngo_MR_E11",
  "SpacingBetweenSlices": 2,
  "StationName": "MRC35049",
  "TaskName": "things",
  "TotalReadoutTime": 0.0576811,
  "TxRefAmp": 298.644,
  "WipMemBlock": "5cc2a113-c1a6-4153-b7bb-0de16c47f5d1||Sequence: R016 ve11c/master r/e634e98; Dec 19 2017 11:00:25 by eja",
  "dcmmeta_affine": [
    [-1.9994515180587769, 0.0006979276076890528, 0.046833161264657974, 105.63919067382812],
    [-0.02180970087647438, 1.7558815479278564, -0.9572900533676147, -53.31027603149414],
    [0.04145079851150513, 0.9575382471084595, 1.7553924322128296, -91.98103332519531],
    [0.0, 0.0, 0.0, 1.0]
],
  "dcmmeta_reorient_transform": [
    [0.0, -1.0, 0.0, 103.0],
    [1.0, 0.0, 0.0, 0.0],
    [0.0, 0.0, 1.0, 0.0],
    [0.0, 0.0, 0.0, 1.0]
],
  "dcmmeta_shape": [104, 104, 60, 190],
  "dcmmeta_slice_dim": 2,
  "dcmmeta_version": 0.6,
  "global": {
    "const": {
      "AcquisitionMatrix": [104, 0, 0, 104],
      "AngioFlag": "N",
      "BitsAllocated": 16,
      "BitsStored": 16,
      "BodyPartExamined": "BRAIN",
      "Columns": 832,
      "EchoNumbers": 1,
      "EchoTime": 37.0,
      "EchoTrainLength": 104,
      "FlipAngle": 52.0,
      "HighBit": 15,
      "ImageOrientationPatient": [0.99972573339808, 0.01090485083817, 0.0207254001137, 0.00034896380917, 0.87794078225378, -0.478769110407],
      "ImagePositionPatient": [-833.76546047343, -774.62514610872, 340.10122469104],
      "ImageType": [
        "ORIGINAL",
        "PRIMARY",
        "M",
        "MB",
        "ND",
        "MOSAIC"
],
      "ImagedNucleus": "1H",
      "ImagingFrequency": 123.258904,
      "InPlanePhaseEncodingDirection": "COL",
      "MRAcquisitionType": "2D",
      "MagneticFieldStrength": 3.0,
      "Manufacturer": "SIEMENS",
      "ManufacturerModelName": "Prisma_fit",
      "Modality": "MR",
      "NumberOfAverages": 1.0,
      "NumberOfPhaseEncodingSteps": 104,
      "PercentPhaseFieldOfView": 100.0,
      "PercentSampling": 100.0,
      "PerformedProcedureStepStartTime": "103740.940000",
      "PhotometricInterpretation": "MONOCHROME2",
      "PixelBandwidth": 2290.0,
      "PixelRepresentation": 0,
      "PixelSpacing": [2.0, 2.0],
      "ProtocolName": "func_task-things_run-3",
      "RepetitionTime": 1490.0,
      "Rows": 832,
      "SAR": 0.06425578629256,
      "SamplesPerPixel": 1,
      "ScanOptions": "FS",
      "ScanningSequence": "EP",
      "SequenceName": "epfid2d1_104",
      "SequenceVariant": [
        "SK",
        "SS"
],
      "SeriesDescription": "func_task-things_run-3",
      "SeriesNumber": 16,
      "SeriesTime": "105435.559000",
      "SliceLocation": -52.740994703557,
      "SliceThickness": 2.0,
      "SmallestImagePixelValue": 0,
      "SoftwareVersions": "syngo MR E11",
      "SpacingBetweenSlices": 2.000000035068,
      "SpecificCharacterSet": "ISO_IR 100",
      "StudyID": "1",
      "StudyTime": "103740.881000",
      "TransmitCoilName": "Body",
      "VariableFlipAngleFlag": "N",
      "WindowCenterWidthExplanation": "Algo1",
      "dBdt": 0.0},
    "slices": {}
  },
  "time": {
    "samples": {
      "AcquisitionNumber": [1, 2, 3, 4, 5, 6, 7, 8, 9, 10, 11, 12, 13, 14, 15, 16, 17, 18, 19, 20, 21, 22, 23, 24, 25, 26, 27, 28, 29, 30, 31, 32, 33, 34, 35, 36, 37, 38, 39, 40, 41, 42, 43, 44, 45, 46, 47, 48, 49, 50, 51, 52, 53, 54, 55, 56, 57, 58, 59, 60, 61, 62, 63, 64, 65, 66, 67, 68, 69, 70, 71, 72, 73, 74, 75, 76, 77, 78, 79, 80, 81, 82, 83, 84, 85, 86, 87, 88, 89, 90, 91, 92, 93, 94, 95, 96, 97, 98, 99, 100, 101, 102, 103, 104, 105, 106, 107, 108, 109, 110, 111, 112, 113, 114, 115, 116, 117, 118, 119, 120, 121, 122, 123, 124, 125, 126, 127, 128, 129, 130, 131, 132, 133, 134, 135, 136, 137, 138, 139, 140, 141, 142, 143, 144, 145, 146, 147, 148, 149, 150, 151, 152, 153, 154, 155, 156, 157, 158, 159, 160, 161, 162, 163, 164, 165, 166, 167, 168, 169, 170, 171, 172, 173, 174, 175, 176, 177, 178, 179, 180, 181, 182, 183, 184, 185, 186, 187, 188, 189, 190],
      "AcquisitionTime": ["105312.727500", "105314.217500", "105315.707500", "105317.197500", "105318.687500", "105320.177500", "105321.667500", "105323.157500", "105324.647500", "105326.137500", "105327.627500", "105329.117500", "105330.607500", "105332.097500", "105333.587500", "105335.077500", "105336.567500", "105338.057500", "105339.547500", "105341.037500", "105342.527500", "105344.017500", "105345.507500", "105346.997500", "105348.487500", "105349.977500", "105351.467500", "105352.957500", "105354.447500", "105355.937500", "105357.427500", "105358.917500", "105400.407500", "105401.897500", "105403.387500", "105404.877500", "105406.367500", "105407.857500", "105409.347500", "105410.837500", "105412.327500", "105413.817500", "105415.307500", "105416.797500", "105418.287500", "105419.777500", "105421.267500", "105422.757500", "105424.247500", "105425.737500", "105427.227500", "105428.717500", "105430.207500", "105431.697500", "105433.187500", "105434.677500", "105436.167500", "105437.657500", "105439.147500", "105440.637500", "105442.127500", "105443.617500", "105445.107500", "105446.597500", "105448.087500", "105449.577500", "105451.067500", "105452.557500", "105454.047500", "105455.537500", "105457.027500", "105458.517500", "105500.007500", "105501.497500", "105502.987500", "105504.477500", "105505.967500", "105507.457500", "105508.947500", "105510.437500", "105511.927500", "105513.417500", "105514.907500", "105516.397500", "105517.887500", "105519.377500", "105520.867500", "105522.357500", "105523.847500", "105525.337500", "105526.827500", "105528.317500", "105529.807500", "105531.297500", "105532.787500", "105534.277500", "105535.767500", "105537.257500", "105538.747500", "105540.237500", "105541.727500", "105543.217500", "105544.707500", "105546.197500", "105547.687500", "105549.177500", "105550.667500", "105552.157500", "105553.647500", "105555.137500", "105556.627500", "105558.117500", "105559.607500", "105601.097500", "105602.587500", "105604.077500", "105605.567500", "105607.057500", "105608.547500", "105610.037500", "105611.527500", "105613.017500", "105614.507500", "105615.997500", "105617.487500", "105618.977500", "105620.467500", "105621.957500", "105623.447500", "105624.937500", "105626.427500", "105627.917500", "105629.407500", "105630.897500", "105632.387500", "105633.877500", "105635.367500", "105636.857500", "105638.347500", "105639.837500", "105641.327500", "105642.817500", "105644.307500", "105645.797500", "105647.287500", "105648.777500", "105650.267500", "105651.757500", "105653.247500", "105654.737500", "105656.227500", "105657.717500", "105659.207500", "105700.697500", "105702.187500", "105703.677500", "105705.167500", "105706.657500", "105708.147500", "105709.637500", "105711.127500", "105712.617500", "105714.107500", "105715.597500", "105717.087500", "105718.577500", "105720.067500", "105721.557500", "105723.047500", "105724.537500", "105726.027500", "105727.517500", "105729.007500", "105730.497500", "105731.987500", "105733.477500", "105734.967500", "105736.457500", "105737.947500", "105739.437500", "105740.927500", "105742.417500", "105743.907500", "105745.397500", "105746.887500", "105748.377500", "105749.867500", "105751.357500", "105752.847500", "105754.337500"],
      "ContentTime": ["105435.562000", "105435.566000", "105435.570000", "105435.573000", "105435.576000", "105435.580000", "105435.590000", "105435.594000", "105435.597000", "105435.601000", "105435.604000", "105435.607000", "105435.610000", "105435.614000", "105435.617000", "105435.620000", "105435.624000", "105435.627000", "105435.630000", "105435.634000", "105435.637000", "105435.641000", "105435.644000", "105435.647000", "105435.651000", "105435.654000", "105435.657000", "105435.660000", "105435.664000", "105435.667000", "105455.520000", "105455.524000", "105455.527000", "105455.531000", "105455.534000", "105455.537000", "105455.541000", "105455.544000", "105455.547000", "105455.551000", "105455.554000", "105455.557000", "105455.561000", "105455.564000", "105455.567000", "105455.571000", "105455.574000", "105455.578000", "105455.581000", "105455.584000", "105515.520000", "105515.524000", "105515.527000", "105515.530000", "105515.534000", "105515.537000", "105515.540000", "105515.544000", "105515.547000", "105515.550000", "105515.554000", "105515.564000", "105515.567000", "105515.570000", "105515.574000", "105515.577000", "105515.580000", "105515.584000", "105515.587000", "105515.590000", "105535.520000", "105535.524000", "105535.527000", "105535.531000", "105535.534000", "105535.537000", "105535.541000", "105535.554000", "105535.558000", "105535.561000", "105535.564000", "105535.568000", "105535.580000", "105535.583000", "105535.586000", "105535.590000", "105535.593000", "105535.596000", "105535.600000", "105535.603000", "105535.606000", "105615.519000", "105615.523000", "105615.526000", "105615.530000", "105615.533000", "105615.536000", "105615.540000", "105615.543000", "105615.546000", "105615.550000", "105615.553000", "105615.556000", "105615.560000", "105615.563000", "105615.567000", "105615.570000", "105615.573000", "105615.577000", "105615.580000", "105615.583000", "105615.587000", "105615.590000", "105615.593000", "105615.597000", "105615.600000", "105615.604000", "105615.607000", "105615.610000", "105615.614000", "105615.617000", "105615.620000", "105655.520000", "105655.524000", "105655.527000", "105655.531000", "105655.534000", "105655.537000", "105655.541000", "105655.544000", "105655.547000", "105655.551000", "105655.554000", "105655.557000", "105655.561000", "105655.564000", "105655.568000", "105655.571000", "105655.575000", "105655.578000", "105655.581000", "105655.585000", "105655.588000", "105655.591000", "105655.595000", "105655.598000", "105655.602000", "105655.605000", "105655.608000", "105735.520000", "105735.524000", "105735.527000", "105735.531000", "105735.534000", "105735.537000", "105735.541000", "105735.544000", "105735.548000", "105735.551000", "105735.554000", "105735.558000", "105735.561000", "105735.564000", "105735.568000", "105735.571000", "105735.575000", "105735.578000", "105735.581000", "105735.585000", "105735.588000", "105735.592000", "105735.595000", "105735.598000", "105735.602000", "105735.605000", "105735.608000", "105756.392000", "105756.396000", "105756.400000", "105756.403000", "105756.407000", "105756.411000", "105756.414000", "105756.418000", "105756.421000", "105756.425000", "105756.429000", "105756.432000", "105756.436000", "105756.439000"],
      "InstanceCreationTime": ["105435.562000", "105435.566000", "105435.570000", "105435.573000", "105435.576000", "105435.580000", "105435.590000", "105435.594000", "105435.597000", "105435.601000", "105435.604000", "105435.607000", "105435.610000", "105435.614000", "105435.617000", "105435.620000", "105435.624000", "105435.627000", "105435.630000", "105435.634000", "105435.637000", "105435.641000", "105435.644000", "105435.647000", "105435.651000", "105435.654000", "105435.657000", "105435.660000", "105435.664000", "105435.667000", "105455.520000", "105455.524000", "105455.527000", "105455.531000", "105455.534000", "105455.537000", "105455.541000", "105455.544000", "105455.547000", "105455.551000", "105455.554000", "105455.557000", "105455.561000", "105455.564000", "105455.567000", "105455.571000", "105455.574000", "105455.578000", "105455.581000", "105455.584000", "105515.520000", "105515.524000", "105515.527000", "105515.530000", "105515.534000", "105515.537000", "105515.540000", "105515.544000", "105515.547000", "105515.550000", "105515.554000", "105515.564000", "105515.567000", "105515.570000", "105515.574000", "105515.577000", "105515.580000", "105515.584000", "105515.587000", "105515.590000", "105535.520000", "105535.524000", "105535.527000", "105535.531000", "105535.534000", "105535.537000", "105535.541000", "105535.554000", "105535.558000", "105535.561000", "105535.564000", "105535.568000", "105535.580000", "105535.583000", "105535.586000", "105535.590000", "105535.593000", "105535.596000", "105535.600000", "105535.603000", "105535.606000", "105615.519000", "105615.523000", "105615.526000", "105615.530000", "105615.533000", "105615.536000", "105615.540000", "105615.543000", "105615.546000", "105615.550000", "105615.553000", "105615.556000", "105615.560000", "105615.563000", "105615.567000", "105615.570000", "105615.573000", "105615.577000", "105615.580000", "105615.583000", "105615.587000", "105615.590000", "105615.593000", "105615.597000", "105615.600000", "105615.604000", "105615.607000", "105615.610000", "105615.614000", "105615.617000", "105615.620000", "105655.520000", "105655.524000", "105655.527000", "105655.531000", "105655.534000", "105655.537000", "105655.541000", "105655.544000", "105655.547000", "105655.551000", "105655.554000", "105655.557000", "105655.561000", "105655.564000", "105655.568000", "105655.571000", "105655.575000", "105655.578000", "105655.581000", "105655.585000", "105655.588000", "105655.591000", "105655.595000", "105655.598000", "105655.602000", "105655.605000", "105655.608000", "105735.520000", "105735.524000", "105735.527000", "105735.531000", "105735.534000", "105735.537000", "105735.541000", "105735.544000", "105735.548000", "105735.551000", "105735.554000", "105735.558000", "105735.561000", "105735.564000", "105735.568000", "105735.571000", "105735.575000", "105735.578000", "105735.581000", "105735.585000", "105735.588000", "105735.592000", "105735.595000", "105735.598000", "105735.602000", "105735.605000", "105735.608000", "105756.392000", "105756.396000", "105756.400000", "105756.403000", "105756.407000", "105756.411000", "105756.414000", "105756.418000", "105756.421000", "105756.425000", "105756.429000", "105756.432000", "105756.436000", "105756.439000"],
      "InstanceNumber": [1, 2, 3, 4, 5, 6, 7, 8, 9, 10, 11, 12, 13, 14, 15, 16, 17, 18, 19, 20, 21, 22, 23, 24, 25, 26, 27, 28, 29, 30, 31, 32, 33, 34, 35, 36, 37, 38, 39, 40, 41, 42, 43, 44, 45, 46, 47, 48, 49, 50, 51, 52, 53, 54, 55, 56, 57, 58, 59, 60, 61, 62, 63, 64, 65, 66, 67, 68, 69, 70, 71, 72, 73, 74, 75, 76, 77, 78, 79, 80, 81, 82, 83, 84, 85, 86, 87, 88, 89, 90, 91, 92, 93, 94, 95, 96, 97, 98, 99, 100, 101, 102, 103, 104, 105, 106, 107, 108, 109, 110, 111, 112, 113, 114, 115, 116, 117, 118, 119, 120, 121, 122, 123, 124, 125, 126, 127, 128, 129, 130, 131, 132, 133, 134, 135, 136, 137, 138, 139, 140, 141, 142, 143, 144, 145, 146, 147, 148, 149, 150, 151, 152, 153, 154, 155, 156, 157, 158, 159, 160, 161, 162, 163, 164, 165, 166, 167, 168, 169, 170, 171, 172, 173, 174, 175, 176, 177, 178, 179, 180, 181, 182, 183, 184, 185, 186, 187, 188, 189, 190],
      "LargestImagePixelValue": [44619, 44370, 43902, 43234, 43048, 42573, 43107, 42597, 42578, 42912, 43118, 43034, 42546, 43012, 42278, 42553, 43059, 42569, 43051, 43480, 43166, 43004, 43297, 42990, 42908, 43061, 42767, 42722, 42950, 42901, 42980, 42973, 42218, 43236, 43411, 42704, 42889, 43013, 43179, 43284, 43418, 42464, 43398, 42309, 43156, 42860, 43372, 42257, 42706, 42768, 43087, 42747, 43135, 42447, 43821, 42468, 42804, 43028, 43402, 42893, 43539, 42678, 43147, 42709, 42819, 43516, 43091, 43706, 43001, 43764, 43550, 43549, 43772, 43008, 43325, 42489, 43449, 42706, 43797, 44421, 43269, 44211, 44142, 44081, 43209, 43958, 43622, 44379, 43180, 44747, 43262, 43292, 44509, 44566, 44121, 44858, 43606, 44208, 42668, 44951, 43023, 44448, 43260, 45090, 43375, 44583, 44046, 43586, 43766, 44450, 43734, 43709, 44557, 42816, 44253, 43122, 44827, 42819, 44639, 42867, 44772, 43616, 43482, 45274, 43376, 43019, 42543, 44663, 43346, 44000, 44221, 42796, 44700, 43312, 44119, 42868, 45134, 43294, 43414, 45199, 43310, 44364, 44541, 43032, 42266, 43197, 42551, 44291, 43099, 43491, 43233, 44156, 42700, 43057, 42746, 42452, 45090, 42393, 42218, 42652, 42822, 43311, 44588, 44152, 42979, 43550, 43321, 43206, 42124, 43797, 42307, 43282, 42626, 43101, 43350, 43907, 43270, 43226, 44329, 42868, 42290, 43656, 42445, 42608, 44984, 42631, 42579, 43011, 42081, 44506],
      "WindowCenter": [11069.0, 11007.0, 10978.0, 10942.0, 10947.0, 10932.0, 10943.0, 10917.0, 10912.0, 10930.0, 10936.0, 10939.0, 10914.0, 10926.0, 10929.0, 10950.0, 10938.0, 10924.0, 10943.0, 10959.0, 10955.0, 10950.0, 10934.0, 10929.0, 10919.0, 10931.0, 10918.0, 10925.0, 10918.0, 10934.0, 10942.0, 10945.0, 10933.0, 10935.0, 10930.0, 10920.0, 10920.0, 10925.0, 10927.0, 10968.0, 10945.0, 10942.0, 10941.0, 10897.0, 10912.0, 10926.0, 10942.0, 10941.0, 10943.0, 10929.0, 10940.0, 10947.0, 10948.0, 10943.0, 10980.0, 10923.0, 10936.0, 10939.0, 10954.0, 10950.0, 10962.0, 10944.0, 10963.0, 10955.0, 10957.0, 10954.0, 10943.0, 10945.0, 10927.0, 10939.0, 10938.0, 10938.0, 10943.0, 10937.0, 10945.0, 10927.0, 10935.0, 10922.0, 10937.0, 10943.0, 10932.0, 10943.0, 10936.0, 10954.0, 10926.0, 10929.0, 10954.0, 10993.0, 10962.0, 10970.0, 10931.0, 10917.0, 10925.0, 10936.0, 10932.0, 10943.0, 10917.0, 10929.0, 10906.0, 10938.0, 10916.0, 10946.0, 10949.0, 10951.0, 10930.0, 10950.0, 10934.0, 10924.0, 10936.0, 10938.0, 10930.0, 10919.0, 10934.0, 10935.0, 10953.0, 10918.0, 10946.0, 10941.0, 10963.0, 10949.0, 10960.0, 10933.0, 10933.0, 10944.0, 10923.0, 10917.0, 10922.0, 10937.0, 10916.0, 10927.0, 10920.0, 10917.0, 10940.0, 10926.0, 10954.0, 10931.0, 10954.0, 10933.0, 10932.0, 10940.0, 10917.0, 10941.0, 10943.0, 10928.0, 10932.0, 10915.0, 10908.0, 10926.0, 10915.0, 10929.0, 10915.0, 10922.0, 10904.0, 10915.0, 10903.0, 10900.0, 10945.0, 10931.0, 10944.0, 10936.0, 10918.0, 10922.0, 10961.0, 10935.0, 10927.0, 10925.0, 10915.0, 10908.0, 10917.0, 10926.0, 10907.0, 10927.0, 10905.0, 10911.0, 10933.0, 10957.0, 10958.0, 10973.0, 10947.0, 10931.0, 10911.0, 10924.0, 10905.0, 10906.0, 10941.0, 10925.0, 10924.0, 10913.0, 10886.0, 10910.0],
      "WindowWidth": [23879.0, 23697.0, 23607.0, 23516.0, 23520.0, 23486.0, 23508.0, 23452.0, 23436.0, 23477.0, 23490.0, 23496.0, 23444.0, 23467.0, 23473.0, 23528.0, 23496.0, 23466.0, 23505.0, 23539.0, 23533.0, 23525.0, 23485.0, 23474.0, 23454.0, 23475.0, 23449.0, 23464.0, 23449.0, 23482.0, 23499.0, 23507.0, 23483.0, 23483.0, 23468.0, 23451.0, 23452.0, 23465.0, 23466.0, 23562.0, 23507.0, 23501.0, 23496.0, 23403.0, 23429.0, 23462.0, 23497.0, 23499.0, 23506.0, 23466.0, 23490.0, 23506.0, 23511.0, 23500.0, 23582.0, 23455.0, 23483.0, 23491.0, 23523.0, 23516.0, 23540.0, 23504.0, 23542.0, 23528.0, 23533.0, 23522.0, 23500.0, 23503.0, 23464.0, 23486.0, 23484.0, 23483.0, 23494.0, 23483.0, 23499.0, 23464.0, 23477.0, 23450.0, 23480.0, 23492.0, 23471.0, 23491.0, 23477.0, 23516.0, 23459.0, 23463.0, 23518.0, 23610.0, 23541.0, 23551.0, 23468.0, 23438.0, 23449.0, 23477.0, 23467.0, 23491.0, 23435.0, 23460.0, 23417.0, 23477.0, 23435.0, 23496.0, 23509.0, 23508.0, 23465.0, 23506.0, 23472.0, 23452.0, 23473.0, 23475.0, 23462.0, 23438.0, 23470.0, 23479.0, 23519.0, 23445.0, 23495.0, 23496.0, 23540.0, 23511.0, 23530.0, 23471.0, 23471.0, 23490.0, 23449.0, 23437.0, 23452.0, 23475.0, 23434.0, 23458.0, 23438.0, 23435.0, 23481.0, 23459.0, 23516.0, 23470.0, 23509.0, 23468.0, 23468.0, 23480.0, 23434.0, 23483.0, 23488.0, 23462.0, 23473.0, 23434.0, 23418.0, 23452.0, 23428.0, 23457.0, 23424.0, 23439.0, 23407.0, 23426.0, 23404.0, 23397.0, 23493.0, 23471.0, 23501.0, 23479.0, 23438.0, 23443.0, 23526.0, 23471.0, 23453.0, 23447.0, 23430.0, 23411.0, 23440.0, 23448.0, 23417.0, 23455.0, 23410.0, 23416.0, 23467.0, 23519.0, 23526.0, 23565.0, 23498.0, 23465.0, 23427.0, 23453.0, 23411.0, 23413.0, 23483.0, 23455.0, 23451.0, 23430.0, 23367.0, 23419.0]
    },
    "slices": {}
  }
}