{
  "AcquisitionMatrixPE": 104,
  "AcquisitionNumber": 1,
  "AcquisitionTime": "11:15:5.370000",
  "BandwidthPerPixelPhaseEncode": 17.17,
  "BaseResolution": 104,
  "BodyPartExamined": "BRAIN",
  "CoilString": "HC1-7;NC1_2",
  "ConsistencyInfo": "N4_VE11C_LATEST_20160120",
  "ConversionSoftware": "dcm2niix",
  "ConversionSoftwareVersion": "v1.0.20190902",
  "DerivedVendorReportedEchoSpacing": 0.000560011,
  "DeviceSerialNumber": "167006",
  "DwellTime": 2.1e-06,
  "EchoTime": 0.037,
  "EchoTrainLength": 104,
  "EffectiveEchoSpacing": 0.000560011,
  "FlipAngle": 52,
  "ImageComments": "Unaliased_MB4_PE3_LB",
  "ImageOrientationPatientDICOM": [0.999726, 0.0109049, 0.0207254, 0.000348964, 0.877941, -0.478769],
  "ImageType": [
    "ORIGINAL",
    "PRIMARY",
    "P",
    "MB",
    "ND",
    "MOSAIC"
],
  "ImagingFrequency": 123.259,
  "InPlanePhaseEncodingDirectionDICOM": "COL",
  "InstitutionAddress": "Chemin_Queen-Mary_4565_Montreal_District_CA_H3W_1W5",
  "InstitutionName": "IUGM",
  "InstitutionalDepartmentName": "Department",
  "MRAcquisitionType": "2D",
  "MagneticFieldStrength": 3,
  "Manufacturer": "Siemens",
  "ManufacturersModelName": "Prisma_fit",
  "Modality": "MR",
  "MultibandAccelerationFactor": 4,
  "PartialFourier": 1,
  "PatientPosition": "HFS",
  "PercentPhaseFOV": 100,
  "PhaseEncodingDirection": "j",
  "PhaseEncodingSteps": 104,
  "PhaseResolution": 1,
  "PixelBandwidth": 2290,
  "ProcedureStepDescription": "memory_things",
  "ProtocolName": "func_task-things_run-5",
  "PulseSequenceDetails": "%CustomerSeq%_cmrr_mbep2d_bold",
  "ReceiveCoilActiveElements": "HC1-7;NC1,2",
  "ReceiveCoilName": "HeadNeck_64",
  "ReconMatrixPE": 104,
  "RepetitionTime": 1.49,
  "SAR": 0.0642558,
  "ScanOptions": "FS",
  "ScanningSequence": "EP",
  "SequenceName": "epfid2d1_104",
  "SequenceVariant": "SK_SS",
  "SeriesDescription": "func_task-things_run-5",
  "SeriesNumber": 23,
  "ShimSetting": [619, -7193, -8866, 279, -4, -134, -2, -10],
  "SliceThickness": 2,
  "SliceTiming": [0, 0.785, 0.0975, 0.8825, 0.1975, 0.98, 0.295, 1.0775, 0.3925, 1.1775, 0.49, 1.275, 0.5875, 1.3725, 0.6875, 0, 0.785, 0.0975, 0.8825, 0.1975, 0.98, 0.295, 1.0775, 0.3925, 1.1775, 0.49, 1.275, 0.5875, 1.3725, 0.6875, 0, 0.785, 0.0975, 0.8825, 0.1975, 0.98, 0.295, 1.0775, 0.3925, 1.1775, 0.49, 1.275, 0.5875, 1.3725, 0.6875, 0, 0.785, 0.0975, 0.8825, 0.1975, 0.98, 0.295, 1.0775, 0.3925, 1.1775, 0.49, 1.275, 0.5875, 1.3725, 0.6875],
  "SoftwareVersions": "syngo_MR_E11",
  "SpacingBetweenSlices": 2,
  "StationName": "MRC35049",
  "TaskName": "things",
  "TotalReadoutTime": 0.0576811,
  "TxRefAmp": 298.644,
  "WipMemBlock": "35eb75d4-ad52-4605-8ee2-a5ef01934906||Sequence: R016 ve11c/master r/e634e98; Dec 19 2017 11:00:25 by eja",
  "dcmmeta_affine": [
    [-1.9994515180587769, 0.0006979276076890528, 0.046833161264657974, 105.63919067382812],
    [-0.02180970087647438, 1.7558815479278564, -0.9572900533676147, -53.31027603149414],
    [0.04145079851150513, 0.9575382471084595, 1.7553924322128296, -91.98103332519531],
    [0.0, 0.0, 0.0, 1.0]
],
  "dcmmeta_reorient_transform": [
    [0.0, -1.0, 0.0, 103.0],
    [1.0, 0.0, 0.0, 0.0],
    [0.0, 0.0, 1.0, 0.0],
    [0.0, 0.0, 0.0, 1.0]
],
  "dcmmeta_shape": [104, 104, 60, 190],
  "dcmmeta_slice_dim": 2,
  "dcmmeta_version": 0.6,
  "global": {
    "const": {
      "AcquisitionMatrix": [104, 0, 0, 104],
      "AngioFlag": "N",
      "BitsAllocated": 16,
      "BitsStored": 16,
      "BodyPartExamined": "BRAIN",
      "Columns": 832,
      "EchoNumbers": 1,
      "EchoTime": 37.0,
      "EchoTrainLength": 104,
      "FlipAngle": 52.0,
      "HighBit": 15,
      "ImageOrientationPatient": [0.99972573339808, 0.01090485083817, 0.0207254001137, 0.00034896380917, 0.87794078225378, -0.478769110407],
      "ImagePositionPatient": [-833.76546047343, -774.62514610872, 340.10122469104],
      "ImageType": [
        "ORIGINAL",
        "PRIMARY",
        "P",
        "MB",
        "ND",
        "MOSAIC"
],
      "ImagedNucleus": "1H",
      "ImagingFrequency": 123.258907,
      "InPlanePhaseEncodingDirection": "COL",
      "LargestImagePixelValue": 4095,
      "MRAcquisitionType": "2D",
      "MagneticFieldStrength": 3.0,
      "Manufacturer": "SIEMENS",
      "ManufacturerModelName": "Prisma_fit",
      "Modality": "MR",
      "NumberOfAverages": 1.0,
      "NumberOfPhaseEncodingSteps": 104,
      "PercentPhaseFieldOfView": 100.0,
      "PercentSampling": 100.0,
      "PerformedProcedureStepStartTime": "103740.940000",
      "PhotometricInterpretation": "MONOCHROME2",
      "PixelBandwidth": 2290.0,
      "PixelRepresentation": 0,
      "PixelSpacing": [2.0, 2.0],
      "ProtocolName": "func_task-things_run-5",
      "RepetitionTime": 1490.0,
      "RescaleIntercept": -4096.0,
      "RescaleSlope": 2.0,
      "RescaleType": "US",
      "Rows": 832,
      "SAR": 0.06425578629256,
      "SamplesPerPixel": 1,
      "ScanOptions": "FS",
      "ScanningSequence": "EP",
      "SequenceName": "epfid2d1_104",
      "SequenceVariant": [
        "SK",
        "SS"
],
      "SeriesDescription": "func_task-things_run-5",
      "SeriesNumber": 23,
      "SeriesTime": "111615.718000",
      "SliceLocation": -52.740994703557,
      "SliceThickness": 2.0,
      "SmallestImagePixelValue": 0,
      "SoftwareVersions": "syngo MR E11",
      "SpacingBetweenSlices": 2.000000035068,
      "SpecificCharacterSet": "ISO_IR 100",
      "StudyID": "1",
      "StudyTime": "103740.881000",
      "TransmitCoilName": "Body",
      "VariableFlipAngleFlag": "N",
      "WindowCenterWidthExplanation": "Algo1",
      "dBdt": 0.0},
    "slices": {}
  },
  "time": {
    "samples": {
      "AcquisitionNumber": [1, 2, 3, 4, 5, 6, 7, 8, 9, 10, 11, 12, 13, 14, 15, 16, 17, 18, 19, 20, 21, 22, 23, 24, 25, 26, 27, 28, 29, 30, 31, 32, 33, 34, 35, 36, 37, 38, 39, 40, 41, 42, 43, 44, 45, 46, 47, 48, 49, 50, 51, 52, 53, 54, 55, 56, 57, 58, 59, 60, 61, 62, 63, 64, 65, 66, 67, 68, 69, 70, 71, 72, 73, 74, 75, 76, 77, 78, 79, 80, 81, 82, 83, 84, 85, 86, 87, 88, 89, 90, 91, 92, 93, 94, 95, 96, 97, 98, 99, 100, 101, 102, 103, 104, 105, 106, 107, 108, 109, 110, 111, 112, 113, 114, 115, 116, 117, 118, 119, 120, 121, 122, 123, 124, 125, 126, 127, 128, 129, 130, 131, 132, 133, 134, 135, 136, 137, 138, 139, 140, 141, 142, 143, 144, 145, 146, 147, 148, 149, 150, 151, 152, 153, 154, 155, 156, 157, 158, 159, 160, 161, 162, 163, 164, 165, 166, 167, 168, 169, 170, 171, 172, 173, 174, 175, 176, 177, 178, 179, 180, 181, 182, 183, 184, 185, 186, 187, 188, 189, 190],
      "AcquisitionTime": ["111505.370000", "111506.860000", "111508.350000", "111509.840000", "111511.330000", "111512.820000", "111514.310000", "111515.800000", "111517.290000", "111518.780000", "111520.270000", "111521.760000", "111523.250000", "111524.740000", "111526.230000", "111527.720000", "111529.210000", "111530.700000", "111532.190000", "111533.680000", "111535.170000", "111536.660000", "111538.150000", "111539.640000", "111541.130000", "111542.620000", "111544.110000", "111545.600000", "111547.090000", "111548.580000", "111550.070000", "111551.560000", "111553.050000", "111554.540000", "111556.030000", "111557.520000", "111559.010000", "111600.500000", "111601.990000", "111603.480000", "111604.970000", "111606.460000", "111607.950000", "111609.440000", "111610.930000", "111612.420000", "111613.910000", "111615.400000", "111616.890000", "111618.380000", "111619.870000", "111621.360000", "111622.850000", "111624.340000", "111625.830000", "111627.320000", "111628.810000", "111630.300000", "111631.790000", "111633.280000", "111634.770000", "111636.260000", "111637.750000", "111639.240000", "111640.730000", "111642.220000", "111643.710000", "111645.200000", "111646.690000", "111648.180000", "111649.670000", "111651.160000", "111652.650000", "111654.140000", "111655.630000", "111657.120000", "111658.610000", "111700.100000", "111701.590000", "111703.080000", "111704.570000", "111706.060000", "111707.550000", "111709.040000", "111710.530000", "111712.020000", "111713.510000", "111715.000000", "111716.490000", "111717.980000", "111719.470000", "111720.960000", "111722.450000", "111723.940000", "111725.430000", "111726.920000", "111728.410000", "111729.900000", "111731.390000", "111732.880000", "111734.370000", "111735.860000", "111737.350000", "111738.840000", "111740.330000", "111741.820000", "111743.310000", "111744.800000", "111746.290000", "111747.780000", "111749.270000", "111750.760000", "111752.250000", "111753.740000", "111755.230000", "111756.720000", "111758.210000", "111759.700000", "111801.190000", "111802.680000", "111804.170000", "111805.660000", "111807.150000", "111808.640000", "111810.130000", "111811.620000", "111813.110000", "111814.600000", "111816.090000", "111817.580000", "111819.070000", "111820.560000", "111822.050000", "111823.540000", "111825.030000", "111826.520000", "111828.010000", "111829.500000", "111830.990000", "111832.480000", "111833.970000", "111835.460000", "111836.950000", "111838.440000", "111839.930000", "111841.420000", "111842.910000", "111844.400000", "111845.890000", "111847.380000", "111848.870000", "111850.360000", "111851.850000", "111853.340000", "111854.830000", "111856.320000", "111857.810000", "111859.300000", "111900.790000", "111902.280000", "111903.770000", "111905.260000", "111906.750000", "111908.240000", "111909.730000", "111911.220000", "111912.710000", "111914.200000", "111915.690000", "111917.180000", "111918.670000", "111920.160000", "111921.650000", "111923.140000", "111924.630000", "111926.120000", "111927.610000", "111929.100000", "111930.590000", "111932.080000", "111933.570000", "111935.060000", "111936.550000", "111938.040000", "111939.530000", "111941.020000", "111942.510000", "111944.000000", "111945.490000", "111946.980000"],
      "ContentTime": ["111615.720000", "111615.722000", "111615.725000", "111615.728000", "111615.730000", "111615.733000", "111615.735000", "111615.738000", "111615.748000", "111615.751000", "111615.753000", "111615.756000", "111615.758000", "111615.761000", "111615.763000", "111635.719000", "111635.722000", "111635.724000", "111635.727000", "111635.729000", "111635.732000", "111635.734000", "111635.737000", "111635.739000", "111635.742000", "111635.744000", "111635.747000", "111635.749000", "111635.752000", "111635.754000", "111635.757000", "111635.759000", "111635.762000", "111635.764000", "111635.767000", "111635.769000", "111655.700000", "111655.703000", "111655.706000", "111655.708000", "111655.711000", "111655.713000", "111655.716000", "111655.718000", "111655.721000", "111655.729000", "111655.731000", "111655.734000", "111655.736000", "111655.739000", "111655.741000", "111655.744000", "111655.746000", "111655.749000", "111655.751000", "111655.754000", "111715.722000", "111715.725000", "111715.728000", "111715.730000", "111715.733000", "111715.735000", "111715.738000", "111715.740000", "111715.743000", "111715.745000", "111715.748000", "111715.750000", "111715.753000", "111715.755000", "111715.758000", "111715.760000", "111715.763000", "111715.765000", "111715.768000", "111715.770000", "111735.716000", "111735.719000", "111735.722000", "111735.724000", "111735.727000", "111735.729000", "111735.732000", "111735.734000", "111735.737000", "111735.739000", "111735.742000", "111735.745000", "111735.747000", "111735.750000", "111735.752000", "111735.755000", "111735.757000", "111735.760000", "111735.762000", "111735.765000", "111816.261000", "111816.264000", "111816.266000", "111816.269000", "111816.271000", "111816.274000", "111816.276000", "111816.279000", "111816.281000", "111816.284000", "111816.286000", "111816.289000", "111816.291000", "111816.294000", "111816.296000", "111816.299000", "111816.302000", "111816.304000", "111816.307000", "111816.309000", "111816.312000", "111816.314000", "111816.317000", "111816.319000", "111816.322000", "111816.324000", "111816.327000", "111816.329000", "111816.332000", "111816.334000", "111855.738000", "111855.741000", "111855.743000", "111855.746000", "111855.748000", "111855.751000", "111855.753000", "111855.756000", "111855.759000", "111855.761000", "111855.764000", "111855.767000", "111855.770000", "111855.772000", "111855.775000", "111855.777000", "111855.780000", "111855.782000", "111855.785000", "111855.787000", "111855.790000", "111855.792000", "111855.795000", "111855.797000", "111855.800000", "111855.802000", "111855.805000", "111935.751000", "111935.754000", "111935.756000", "111935.759000", "111935.761000", "111935.764000", "111935.766000", "111935.769000", "111935.771000", "111935.774000", "111935.776000", "111935.779000", "111935.781000", "111935.784000", "111935.786000", "111935.789000", "111935.791000", "111935.794000", "111935.796000", "111935.799000", "111935.801000", "111935.804000", "111935.806000", "111935.809000", "111935.811000", "111935.814000", "111935.817000", "111949.606000", "111949.609000", "111949.612000", "111949.614000", "111949.617000", "111949.619000", "111949.622000", "111949.624000", "111949.627000", "111949.630000"],
      "InstanceCreationTime": ["111615.720000", "111615.722000", "111615.725000", "111615.728000", "111615.730000", "111615.733000", "111615.735000", "111615.738000", "111615.748000", "111615.751000", "111615.753000", "111615.756000", "111615.758000", "111615.761000", "111615.763000", "111635.719000", "111635.722000", "111635.724000", "111635.727000", "111635.729000", "111635.732000", "111635.734000", "111635.737000", "111635.739000", "111635.742000", "111635.744000", "111635.747000", "111635.749000", "111635.752000", "111635.754000", "111635.757000", "111635.759000", "111635.762000", "111635.764000", "111635.767000", "111635.769000", "111655.700000", "111655.703000", "111655.706000", "111655.708000", "111655.711000", "111655.713000", "111655.716000", "111655.718000", "111655.721000", "111655.729000", "111655.731000", "111655.734000", "111655.736000", "111655.739000", "111655.741000", "111655.744000", "111655.746000", "111655.749000", "111655.751000", "111655.754000", "111715.722000", "111715.725000", "111715.728000", "111715.730000", "111715.733000", "111715.735000", "111715.738000", "111715.740000", "111715.743000", "111715.745000", "111715.748000", "111715.750000", "111715.753000", "111715.755000", "111715.758000", "111715.760000", "111715.763000", "111715.765000", "111715.768000", "111715.770000", "111735.716000", "111735.719000", "111735.722000", "111735.724000", "111735.727000", "111735.729000", "111735.732000", "111735.734000", "111735.737000", "111735.739000", "111735.742000", "111735.745000", "111735.747000", "111735.750000", "111735.752000", "111735.755000", "111735.757000", "111735.760000", "111735.762000", "111735.765000", "111816.261000", "111816.264000", "111816.266000", "111816.269000", "111816.271000", "111816.274000", "111816.276000", "111816.279000", "111816.281000", "111816.284000", "111816.286000", "111816.289000", "111816.291000", "111816.294000", "111816.296000", "111816.299000", "111816.302000", "111816.304000", "111816.307000", "111816.309000", "111816.312000", "111816.314000", "111816.317000", "111816.319000", "111816.322000", "111816.324000", "111816.327000", "111816.329000", "111816.332000", "111816.334000", "111855.738000", "111855.741000", "111855.743000", "111855.746000", "111855.748000", "111855.751000", "111855.753000", "111855.756000", "111855.759000", "111855.761000", "111855.764000", "111855.767000", "111855.770000", "111855.772000", "111855.775000", "111855.777000", "111855.780000", "111855.782000", "111855.785000", "111855.787000", "111855.790000", "111855.792000", "111855.795000", "111855.797000", "111855.800000", "111855.802000", "111855.805000", "111935.751000", "111935.754000", "111935.756000", "111935.759000", "111935.761000", "111935.764000", "111935.766000", "111935.769000", "111935.771000", "111935.774000", "111935.776000", "111935.779000", "111935.781000", "111935.784000", "111935.786000", "111935.789000", "111935.791000", "111935.794000", "111935.796000", "111935.799000", "111935.801000", "111935.804000", "111935.806000", "111935.809000", "111935.811000", "111935.814000", "111935.817000", "111949.606000", "111949.609000", "111949.612000", "111949.614000", "111949.617000", "111949.619000", "111949.622000", "111949.624000", "111949.627000", "111949.630000"],
      "InstanceNumber": [1, 2, 3, 4, 5, 6, 7, 8, 9, 10, 11, 12, 13, 14, 15, 16, 17, 18, 19, 20, 21, 22, 23, 24, 25, 26, 27, 28, 29, 30, 31, 32, 33, 34, 35, 36, 37, 38, 39, 40, 41, 42, 43, 44, 45, 46, 47, 48, 49, 50, 51, 52, 53, 54, 55, 56, 57, 58, 59, 60, 61, 62, 63, 64, 65, 66, 67, 68, 69, 70, 71, 72, 73, 74, 75, 76, 77, 78, 79, 80, 81, 82, 83, 84, 85, 86, 87, 88, 89, 90, 91, 92, 93, 94, 95, 96, 97, 98, 99, 100, 101, 102, 103, 104, 105, 106, 107, 108, 109, 110, 111, 112, 113, 114, 115, 116, 117, 118, 119, 120, 121, 122, 123, 124, 125, 126, 127, 128, 129, 130, 131, 132, 133, 134, 135, 136, 137, 138, 139, 140, 141, 142, 143, 144, 145, 146, 147, 148, 149, 150, 151, 152, 153, 154, 155, 156, 157, 158, 159, 160, 161, 162, 163, 164, 165, 166, 167, 168, 169, 170, 171, 172, 173, 174, 175, 176, 177, 178, 179, 180, 181, 182, 183, 184, 185, 186, 187, 188, 189, 190],
      "WindowCenter": [4772.0, 4772.0, 4774.0, 4772.0, 4774.0, 4774.0, 4772.0, 4776.0, 4812.0, 4782.0, 4780.0, 4774.0, 4772.0, 4770.0, 4768.0, 4770.0, 4772.0, 4770.0, 4808.0, 4804.0, 4810.0, 4808.0, 4778.0, 4774.0, 4772.0, 4772.0, 4770.0, 4796.0, 4774.0, 4770.0, 4774.0, 4780.0, 4772.0, 4800.0, 4774.0, 4770.0, 4774.0, 4774.0, 4772.0, 4776.0, 4776.0, 4770.0, 4780.0, 4824.0, 4782.0, 4768.0, 4796.0, 4800.0, 4772.0, 4772.0, 4776.0, 4776.0, 4814.0, 4806.0, 4802.0, 4776.0, 4768.0, 4772.0, 4770.0, 4774.0, 4772.0, 4776.0, 4782.0, 4768.0, 4782.0, 4782.0, 4768.0, 4772.0, 4770.0, 4772.0, 4772.0, 4770.0, 4774.0, 4774.0, 4806.0, 4802.0, 4782.0, 4778.0, 4774.0, 4772.0, 4772.0, 4770.0, 4770.0, 4774.0, 4768.0, 4768.0, 4774.0, 4780.0, 4778.0, 4808.0, 4774.0, 4790.0, 4788.0, 4772.0, 4772.0, 4796.0, 4798.0, 4770.0, 4772.0, 4786.0, 4824.0, 4816.0, 4780.0, 4770.0, 4802.0, 4828.0, 4766.0, 4770.0, 4772.0, 4776.0, 4780.0, 4800.0, 4802.0, 4778.0, 4770.0, 4774.0, 4772.0, 4770.0, 4772.0, 4774.0, 4770.0, 4778.0, 4776.0, 4772.0, 4780.0, 4772.0, 4772.0, 4774.0, 4774.0, 4772.0, 4776.0, 4776.0, 4800.0, 4812.0, 4780.0, 4774.0, 4772.0, 4770.0, 4772.0, 4770.0, 4772.0, 4776.0, 4776.0, 4776.0, 4800.0, 4776.0, 4778.0, 4772.0, 4778.0, 4772.0, 4774.0, 4784.0, 4774.0, 4770.0, 4774.0, 4772.0, 4776.0, 4776.0, 4780.0, 4798.0, 4776.0, 4774.0, 4784.0, 4812.0, 4772.0, 4776.0, 4768.0, 4798.0, 4772.0, 4772.0, 4770.0, 4772.0, 4772.0, 4776.0, 4808.0, 4818.0, 4776.0, 4780.0, 4774.0, 4794.0, 4772.0, 4772.0, 4774.0, 4774.0, 4774.0, 4774.0, 4812.0, 4832.0, 4828.0, 4776.0],
      "WindowWidth": [18574.0, 18574.0, 18572.0, 18570.0, 18570.0, 18574.0, 18570.0, 18580.0, 18616.0, 18580.0, 18574.0, 18570.0, 18568.0, 18564.0, 18562.0, 18566.0, 18568.0, 18566.0, 18616.0, 18610.0, 18618.0, 18614.0, 18578.0, 18568.0, 18572.0, 18570.0, 18568.0, 18598.0, 18570.0, 18566.0, 18574.0, 18582.0, 18574.0, 18606.0, 18574.0, 18566.0, 18572.0, 18568.0, 18568.0, 18570.0, 18574.0, 18568.0, 18580.0, 18618.0, 18580.0, 18562.0, 18598.0, 18606.0, 18564.0, 18568.0, 18576.0, 18574.0, 18624.0, 18610.0, 18606.0, 18570.0, 18564.0, 18566.0, 18564.0, 18568.0, 18570.0, 18578.0, 18582.0, 18570.0, 18580.0, 18576.0, 18564.0, 18566.0, 18574.0, 18568.0, 18568.0, 18568.0, 18574.0, 18574.0, 18618.0, 18614.0, 18584.0, 18578.0, 18572.0, 18572.0, 18574.0, 18570.0, 18568.0, 18568.0, 18566.0, 18564.0, 18570.0, 18578.0, 18578.0, 18616.0, 18570.0, 18580.0, 18574.0, 18566.0, 18568.0, 18606.0, 18606.0, 18564.0, 18570.0, 18584.0, 18618.0, 18622.0, 18576.0, 18564.0, 18610.0, 18636.0, 18564.0, 18570.0, 18570.0, 18574.0, 18580.0, 18608.0, 18612.0, 18580.0, 18566.0, 18574.0, 18570.0, 18568.0, 18568.0, 18574.0, 18564.0, 18576.0, 18574.0, 18568.0, 18578.0, 18572.0, 18572.0, 18570.0, 18574.0, 18568.0, 18580.0, 18574.0, 18612.0, 18616.0, 18578.0, 18570.0, 18574.0, 18570.0, 18566.0, 18564.0, 18568.0, 18578.0, 18576.0, 18576.0, 18608.0, 18574.0, 18578.0, 18572.0, 18574.0, 18572.0, 18570.0, 18580.0, 18574.0, 18572.0, 18572.0, 18574.0, 18574.0, 18574.0, 18580.0, 18608.0, 18570.0, 18572.0, 18588.0, 18620.0, 18574.0, 18574.0, 18566.0, 18600.0, 18568.0, 18574.0, 18572.0, 18570.0, 18568.0, 18574.0, 18616.0, 18622.0, 18576.0, 18582.0, 18570.0, 18600.0, 18570.0, 18568.0, 18574.0, 18574.0, 18574.0, 18570.0, 18618.0, 18606.0, 18614.0, 18576.0]
    },
    "slices": {}
  }
}