{
  "AcquisitionMatrixPE": 104,
  "AcquisitionNumber": 1,
  "AcquisitionTime": "11:20:19.642500",
  "BandwidthPerPixelPhaseEncode": 17.17,
  "BaseResolution": 104,
  "BodyPartExamined": "BRAIN",
  "CoilString": "HC1-7;NC1_2",
  "ConsistencyInfo": "N4_VE11C_LATEST_20160120",
  "ConversionSoftware": "dcm2niix",
  "ConversionSoftwareVersion": "v1.0.20190902",
  "DerivedVendorReportedEchoSpacing": 0.000560011,
  "DeviceSerialNumber": "167006",
  "DwellTime": 2.1e-06,
  "EchoTime": 0.037,
  "EchoTrainLength": 104,
  "EffectiveEchoSpacing": 0.000560011,
  "FlipAngle": 52,
  "ImageComments": "Unaliased_MB4_PE3_LB",
  "ImageOrientationPatientDICOM": [0.999726, 0.0109049, 0.0207254, 0.000348964, 0.877941, -0.478769],
  "ImageType": [
    "ORIGINAL",
    "PRIMARY",
    "P",
    "MB",
    "ND",
    "MOSAIC"
],
  "ImagingFrequency": 123.259,
  "InPlanePhaseEncodingDirectionDICOM": "COL",
  "InstitutionAddress": "Chemin_Queen-Mary_4565_Montreal_District_CA_H3W_1W5",
  "InstitutionName": "IUGM",
  "InstitutionalDepartmentName": "Department",
  "MRAcquisitionType": "2D",
  "MagneticFieldStrength": 3,
  "Manufacturer": "Siemens",
  "ManufacturersModelName": "Prisma_fit",
  "Modality": "MR",
  "MultibandAccelerationFactor": 4,
  "PartialFourier": 1,
  "PatientPosition": "HFS",
  "PercentPhaseFOV": 100,
  "PhaseEncodingDirection": "j",
  "PhaseEncodingSteps": 104,
  "PhaseResolution": 1,
  "PixelBandwidth": 2290,
  "ProcedureStepDescription": "memory_things",
  "ProtocolName": "func_task-things_run-6",
  "PulseSequenceDetails": "%CustomerSeq%_cmrr_mbep2d_bold",
  "ReceiveCoilActiveElements": "HC1-7;NC1,2",
  "ReceiveCoilName": "HeadNeck_64",
  "ReconMatrixPE": 104,
  "RepetitionTime": 1.49,
  "SAR": 0.0642558,
  "ScanOptions": "FS",
  "ScanningSequence": "EP",
  "SequenceName": "epfid2d1_104",
  "SequenceVariant": "SK_SS",
  "SeriesDescription": "func_task-things_run-6",
  "SeriesNumber": 26,
  "ShimSetting": [619, -7193, -8866, 279, -4, -134, -2, -10],
  "SliceThickness": 2,
  "SliceTiming": [0, 0.785, 0.1, 0.8825, 0.1975, 0.98, 0.295, 1.0775, 0.3925, 1.1775, 0.49, 1.275, 0.59, 1.3725, 0.6875, 0, 0.785, 0.1, 0.8825, 0.1975, 0.98, 0.295, 1.0775, 0.3925, 1.1775, 0.49, 1.275, 0.59, 1.3725, 0.6875, 0, 0.785, 0.1, 0.8825, 0.1975, 0.98, 0.295, 1.0775, 0.3925, 1.1775, 0.49, 1.275, 0.59, 1.3725, 0.6875, 0, 0.785, 0.1, 0.8825, 0.1975, 0.98, 0.295, 1.0775, 0.3925, 1.1775, 0.49, 1.275, 0.59, 1.3725, 0.6875],
  "SoftwareVersions": "syngo_MR_E11",
  "SpacingBetweenSlices": 2,
  "StationName": "MRC35049",
  "TaskName": "things",
  "TotalReadoutTime": 0.0576811,
  "TxRefAmp": 298.644,
  "WipMemBlock": "70b6125c-2102-4427-825a-b945c3ef0997||Sequence: R016 ve11c/master r/e634e98; Dec 19 2017 11:00:25 by eja",
  "dcmmeta_affine": [
    [-1.9994515180587769, 0.0006979276076890528, 0.046833161264657974, 105.63919067382812],
    [-0.02180970087647438, 1.7558815479278564, -0.9572900533676147, -53.31027603149414],
    [0.04145079851150513, 0.9575382471084595, 1.7553924322128296, -91.98103332519531],
    [0.0, 0.0, 0.0, 1.0]
],
  "dcmmeta_reorient_transform": [
    [0.0, -1.0, 0.0, 103.0],
    [1.0, 0.0, 0.0, 0.0],
    [0.0, 0.0, 1.0, 0.0],
    [0.0, 0.0, 0.0, 1.0]
],
  "dcmmeta_shape": [104, 104, 60, 190],
  "dcmmeta_slice_dim": 2,
  "dcmmeta_version": 0.6,
  "global": {
    "const": {
      "AcquisitionMatrix": [104, 0, 0, 104],
      "AngioFlag": "N",
      "BitsAllocated": 16,
      "BitsStored": 16,
      "BodyPartExamined": "BRAIN",
      "Columns": 832,
      "EchoNumbers": 1,
      "EchoTime": 37.0,
      "EchoTrainLength": 104,
      "FlipAngle": 52.0,
      "HighBit": 15,
      "ImageOrientationPatient": [0.99972573339808, 0.01090485083817, 0.0207254001137, 0.00034896380917, 0.87794078225378, -0.478769110407],
      "ImagePositionPatient": [-833.76546047343, -774.62514610872, 340.10122469104],
      "ImageType": [
        "ORIGINAL",
        "PRIMARY",
        "P",
        "MB",
        "ND",
        "MOSAIC"
],
      "ImagedNucleus": "1H",
      "ImagingFrequency": 123.258911,
      "InPlanePhaseEncodingDirection": "COL",
      "LargestImagePixelValue": 4095,
      "MRAcquisitionType": "2D",
      "MagneticFieldStrength": 3.0,
      "Manufacturer": "SIEMENS",
      "ManufacturerModelName": "Prisma_fit",
      "Modality": "MR",
      "NumberOfAverages": 1.0,
      "NumberOfPhaseEncodingSteps": 104,
      "PercentPhaseFieldOfView": 100.0,
      "PercentSampling": 100.0,
      "PerformedProcedureStepStartTime": "103740.940000",
      "PhotometricInterpretation": "MONOCHROME2",
      "PixelBandwidth": 2290.0,
      "PixelRepresentation": 0,
      "PixelSpacing": [2.0, 2.0],
      "ProtocolName": "func_task-things_run-6",
      "RepetitionTime": 1490.0,
      "RescaleIntercept": -4096.0,
      "RescaleSlope": 2.0,
      "RescaleType": "US",
      "Rows": 832,
      "SAR": 0.06425578629256,
      "SamplesPerPixel": 1,
      "ScanOptions": "FS",
      "ScanningSequence": "EP",
      "SequenceName": "epfid2d1_104",
      "SequenceVariant": [
        "SK",
        "SS"
],
      "SeriesDescription": "func_task-things_run-6",
      "SeriesNumber": 26,
      "SeriesTime": "112135.686000",
      "SliceLocation": -52.740994703557,
      "SliceThickness": 2.0,
      "SmallestImagePixelValue": 0,
      "SoftwareVersions": "syngo MR E11",
      "SpacingBetweenSlices": 2.000000035068,
      "SpecificCharacterSet": "ISO_IR 100",
      "StudyID": "1",
      "StudyTime": "103740.881000",
      "TransmitCoilName": "Body",
      "VariableFlipAngleFlag": "N",
      "WindowCenterWidthExplanation": "Algo1",
      "dBdt": 0.0},
    "slices": {}
  },
  "time": {
    "samples": {
      "AcquisitionNumber": [1, 2, 3, 4, 5, 6, 7, 8, 9, 10, 11, 12, 13, 14, 15, 16, 17, 18, 19, 20, 21, 22, 23, 24, 25, 26, 27, 28, 29, 30, 31, 32, 33, 34, 35, 36, 37, 38, 39, 40, 41, 42, 43, 44, 45, 46, 47, 48, 49, 50, 51, 52, 53, 54, 55, 56, 57, 58, 59, 60, 61, 62, 63, 64, 65, 66, 67, 68, 69, 70, 71, 72, 73, 74, 75, 76, 77, 78, 79, 80, 81, 82, 83, 84, 85, 86, 87, 88, 89, 90, 91, 92, 93, 94, 95, 96, 97, 98, 99, 100, 101, 102, 103, 104, 105, 106, 107, 108, 109, 110, 111, 112, 113, 114, 115, 116, 117, 118, 119, 120, 121, 122, 123, 124, 125, 126, 127, 128, 129, 130, 131, 132, 133, 134, 135, 136, 137, 138, 139, 140, 141, 142, 143, 144, 145, 146, 147, 148, 149, 150, 151, 152, 153, 154, 155, 156, 157, 158, 159, 160, 161, 162, 163, 164, 165, 166, 167, 168, 169, 170, 171, 172, 173, 174, 175, 176, 177, 178, 179, 180, 181, 182, 183, 184, 185, 186, 187, 188, 189, 190],
      "AcquisitionTime": ["112019.642500", "112021.132500", "112022.622500", "112024.112500", "112025.602500", "112027.092500", "112028.582500", "112030.072500", "112031.562500", "112033.052500", "112034.542500", "112036.032500", "112037.522500", "112039.012500", "112040.502500", "112041.992500", "112043.482500", "112044.972500", "112046.462500", "112047.952500", "112049.442500", "112050.932500", "112052.422500", "112053.912500", "112055.402500", "112056.892500", "112058.382500", "112059.872500", "112101.362500", "112102.852500", "112104.342500", "112105.832500", "112107.322500", "112108.812500", "112110.302500", "112111.792500", "112113.282500", "112114.772500", "112116.262500", "112117.752500", "112119.242500", "112120.732500", "112122.222500", "112123.712500", "112125.202500", "112126.692500", "112128.182500", "112129.672500", "112131.162500", "112132.652500", "112134.142500", "112135.632500", "112137.122500", "112138.612500", "112140.102500", "112141.592500", "112143.082500", "112144.572500", "112146.062500", "112147.552500", "112149.042500", "112150.532500", "112152.022500", "112153.512500", "112155.002500", "112156.492500", "112157.982500", "112159.472500", "112200.962500", "112202.452500", "112203.942500", "112205.432500", "112206.922500", "112208.412500", "112209.902500", "112211.392500", "112212.882500", "112214.372500", "112215.862500", "112217.352500", "112218.842500", "112220.332500", "112221.822500", "112223.312500", "112224.802500", "112226.292500", "112227.782500", "112229.272500", "112230.762500", "112232.252500", "112233.742500", "112235.232500", "112236.722500", "112238.212500", "112239.702500", "112241.192500", "112242.682500", "112244.172500", "112245.662500", "112247.152500", "112248.642500", "112250.132500", "112251.622500", "112253.112500", "112254.602500", "112256.092500", "112257.582500", "112259.072500", "112300.562500", "112302.052500", "112303.542500", "112305.032500", "112306.522500", "112308.012500", "112309.502500", "112310.992500", "112312.482500", "112313.972500", "112315.462500", "112316.952500", "112318.442500", "112319.932500", "112321.422500", "112322.912500", "112324.402500", "112325.892500", "112327.382500", "112328.872500", "112330.362500", "112331.852500", "112333.342500", "112334.832500", "112336.322500", "112337.812500", "112339.302500", "112340.792500", "112342.282500", "112343.772500", "112345.262500", "112346.752500", "112348.242500", "112349.732500", "112351.222500", "112352.712500", "112354.202500", "112355.692500", "112357.182500", "112358.672500", "112400.162500", "112401.652500", "112403.142500", "112404.632500", "112406.122500", "112407.612500", "112409.102500", "112410.592500", "112412.082500", "112413.572500", "112415.062500", "112416.552500", "112418.042500", "112419.532500", "112421.022500", "112422.512500", "112424.002500", "112425.492500", "112426.982500", "112428.472500", "112429.962500", "112431.452500", "112432.942500", "112434.432500", "112435.922500", "112437.412500", "112438.902500", "112440.392500", "112441.882500", "112443.372500", "112444.862500", "112446.352500", "112447.842500", "112449.332500", "112450.822500", "112452.312500", "112453.802500", "112455.292500", "112456.782500", "112458.272500", "112459.762500", "112501.252500"],
      "ContentTime": ["112135.688000", "112135.691000", "112135.694000", "112135.696000", "112135.699000", "112135.701000", "112135.704000", "112135.706000", "112135.709000", "112135.711000", "112135.714000", "112135.716000", "112135.719000", "112135.721000", "112135.724000", "112135.726000", "112135.729000", "112135.732000", "112135.734000", "112135.737000", "112135.739000", "112135.742000", "112155.635000", "112155.638000", "112155.640000", "112155.642000", "112155.645000", "112155.647000", "112155.650000", "112155.652000", "112155.655000", "112155.657000", "112155.660000", "112155.662000", "112155.665000", "112155.667000", "112155.670000", "112155.672000", "112155.675000", "112155.677000", "112155.680000", "112155.682000", "112155.685000", "112215.635000", "112215.637000", "112215.640000", "112215.642000", "112215.645000", "112215.647000", "112215.650000", "112215.652000", "112215.655000", "112215.657000", "112215.660000", "112215.662000", "112215.665000", "112215.667000", "112215.670000", "112215.672000", "112215.675000", "112215.677000", "112215.680000", "112215.682000", "112235.645000", "112235.648000", "112235.650000", "112235.653000", "112235.655000", "112235.658000", "112235.661000", "112235.663000", "112235.666000", "112235.668000", "112235.671000", "112235.674000", "112235.677000", "112235.680000", "112235.682000", "112235.685000", "112235.688000", "112235.691000", "112235.694000", "112235.696000", "112255.639000", "112255.642000", "112255.644000", "112255.647000", "112255.649000", "112255.652000", "112255.654000", "112255.657000", "112255.659000", "112255.662000", "112255.664000", "112255.667000", "112255.670000", "112255.672000", "112255.675000", "112255.677000", "112255.680000", "112255.691000", "112255.694000", "112255.696000", "112255.699000", "112335.663000", "112335.666000", "112335.668000", "112335.671000", "112335.673000", "112335.676000", "112335.679000", "112335.681000", "112335.684000", "112335.686000", "112335.689000", "112335.691000", "112335.694000", "112335.696000", "112335.699000", "112335.701000", "112335.704000", "112335.706000", "112335.709000", "112335.711000", "112335.714000", "112335.716000", "112335.719000", "112335.721000", "112335.724000", "112335.727000", "112415.652000", "112415.655000", "112415.658000", "112415.660000", "112415.663000", "112415.665000", "112415.668000", "112415.670000", "112415.673000", "112415.675000", "112415.678000", "112415.680000", "112415.683000", "112415.685000", "112415.688000", "112415.690000", "112415.693000", "112415.695000", "112415.698000", "112415.700000", "112415.703000", "112415.705000", "112415.708000", "112415.711000", "112415.714000", "112415.716000", "112415.719000", "112455.689000", "112455.692000", "112455.695000", "112455.697000", "112455.700000", "112455.702000", "112455.705000", "112455.707000", "112455.710000", "112455.712000", "112455.715000", "112455.717000", "112455.720000", "112455.722000", "112455.725000", "112455.727000", "112455.730000", "112455.732000", "112455.735000", "112455.737000", "112455.740000", "112455.742000", "112455.745000", "112455.747000", "112455.750000", "112455.752000", "112455.755000", "112503.520000", "112503.522000", "112503.525000", "112503.527000", "112503.530000", "112503.533000"],
      "InstanceCreationTime": ["112135.688000", "112135.691000", "112135.694000", "112135.696000", "112135.699000", "112135.701000", "112135.704000", "112135.706000", "112135.709000", "112135.711000", "112135.714000", "112135.716000", "112135.719000", "112135.721000", "112135.724000", "112135.726000", "112135.729000", "112135.732000", "112135.734000", "112135.737000", "112135.739000", "112135.742000", "112155.635000", "112155.638000", "112155.640000", "112155.642000", "112155.645000", "112155.647000", "112155.650000", "112155.652000", "112155.655000", "112155.657000", "112155.660000", "112155.662000", "112155.665000", "112155.667000", "112155.670000", "112155.672000", "112155.675000", "112155.677000", "112155.680000", "112155.682000", "112155.685000", "112215.635000", "112215.637000", "112215.640000", "112215.642000", "112215.645000", "112215.647000", "112215.650000", "112215.652000", "112215.655000", "112215.657000", "112215.660000", "112215.662000", "112215.665000", "112215.667000", "112215.670000", "112215.672000", "112215.675000", "112215.677000", "112215.680000", "112215.682000", "112235.645000", "112235.648000", "112235.650000", "112235.653000", "112235.655000", "112235.658000", "112235.661000", "112235.663000", "112235.666000", "112235.668000", "112235.671000", "112235.674000", "112235.677000", "112235.680000", "112235.682000", "112235.685000", "112235.688000", "112235.691000", "112235.694000", "112235.696000", "112255.639000", "112255.642000", "112255.644000", "112255.647000", "112255.649000", "112255.652000", "112255.654000", "112255.657000", "112255.659000", "112255.662000", "112255.664000", "112255.667000", "112255.670000", "112255.672000", "112255.675000", "112255.677000", "112255.680000", "112255.691000", "112255.694000", "112255.696000", "112255.699000", "112335.663000", "112335.666000", "112335.668000", "112335.671000", "112335.673000", "112335.676000", "112335.679000", "112335.681000", "112335.684000", "112335.686000", "112335.689000", "112335.691000", "112335.694000", "112335.696000", "112335.699000", "112335.701000", "112335.704000", "112335.706000", "112335.709000", "112335.711000", "112335.714000", "112335.716000", "112335.719000", "112335.721000", "112335.724000", "112335.727000", "112415.652000", "112415.655000", "112415.658000", "112415.660000", "112415.663000", "112415.665000", "112415.668000", "112415.670000", "112415.673000", "112415.675000", "112415.678000", "112415.680000", "112415.683000", "112415.685000", "112415.688000", "112415.690000", "112415.693000", "112415.695000", "112415.698000", "112415.700000", "112415.703000", "112415.705000", "112415.708000", "112415.711000", "112415.714000", "112415.716000", "112415.719000", "112455.689000", "112455.692000", "112455.695000", "112455.697000", "112455.700000", "112455.702000", "112455.705000", "112455.707000", "112455.710000", "112455.712000", "112455.715000", "112455.717000", "112455.720000", "112455.722000", "112455.725000", "112455.727000", "112455.730000", "112455.732000", "112455.735000", "112455.737000", "112455.740000", "112455.742000", "112455.745000", "112455.747000", "112455.750000", "112455.752000", "112455.755000", "112503.520000", "112503.522000", "112503.525000", "112503.527000", "112503.530000", "112503.533000"],
      "InstanceNumber": [1, 2, 3, 4, 5, 6, 7, 8, 9, 10, 11, 12, 13, 14, 15, 16, 17, 18, 19, 20, 21, 22, 23, 24, 25, 26, 27, 28, 29, 30, 31, 32, 33, 34, 35, 36, 37, 38, 39, 40, 41, 42, 43, 44, 45, 46, 47, 48, 49, 50, 51, 52, 53, 54, 55, 56, 57, 58, 59, 60, 61, 62, 63, 64, 65, 66, 67, 68, 69, 70, 71, 72, 73, 74, 75, 76, 77, 78, 79, 80, 81, 82, 83, 84, 85, 86, 87, 88, 89, 90, 91, 92, 93, 94, 95, 96, 97, 98, 99, 100, 101, 102, 103, 104, 105, 106, 107, 108, 109, 110, 111, 112, 113, 114, 115, 116, 117, 118, 119, 120, 121, 122, 123, 124, 125, 126, 127, 128, 129, 130, 131, 132, 133, 134, 135, 136, 137, 138, 139, 140, 141, 142, 143, 144, 145, 146, 147, 148, 149, 150, 151, 152, 153, 154, 155, 156, 157, 158, 159, 160, 161, 162, 163, 164, 165, 166, 167, 168, 169, 170, 171, 172, 173, 174, 175, 176, 177, 178, 179, 180, 181, 182, 183, 184, 185, 186, 187, 188, 189, 190],
      "WindowCenter": [4772.0, 4774.0, 4798.0, 4776.0, 4786.0, 4782.0, 4768.0, 4828.0, 4862.0, 4862.0, 4830.0, 4802.0, 4772.0, 4814.0, 4812.0, 4748.0, 4774.0, 4770.0, 4768.0, 4832.0, 4806.0, 4746.0, 4742.0, 4766.0, 4800.0, 4800.0, 4798.0, 4798.0, 4772.0, 4754.0, 4768.0, 4768.0, 4746.0, 4766.0, 4772.0, 4794.0, 4830.0, 4742.0, 4740.0, 4772.0, 4770.0, 4774.0, 4772.0, 4780.0, 4780.0, 4748.0, 4770.0, 4766.0, 4828.0, 4802.0, 4792.0, 4798.0, 4772.0, 4748.0, 4768.0, 4776.0, 4790.0, 4756.0, 4740.0, 4826.0, 4890.0, 4862.0, 4796.0, 4770.0, 4768.0, 4778.0, 4778.0, 4772.0, 4768.0, 4744.0, 4802.0, 4834.0, 4804.0, 4748.0, 4746.0, 4768.0, 4794.0, 4830.0, 4832.0, 4772.0, 4748.0, 4770.0, 4772.0, 4770.0, 4768.0, 4768.0, 4770.0, 4802.0, 4796.0, 4782.0, 4754.0, 4766.0, 4794.0, 4838.0, 4798.0, 4744.0, 4748.0, 4768.0, 4768.0, 4832.0, 4860.0, 4800.0, 4776.0, 4824.0, 4798.0, 4752.0, 4738.0, 4862.0, 4900.0, 4898.0, 4888.0, 4800.0, 4766.0, 4778.0, 4806.0, 4802.0, 4780.0, 4792.0, 4758.0, 4736.0, 4860.0, 4904.0, 4908.0, 4898.0, 4828.0, 4766.0, 4780.0, 4822.0, 4824.0, 4810.0, 4770.0, 4860.0, 4860.0, 4864.0, 4860.0, 4834.0, 4798.0, 4768.0, 4768.0, 4824.0, 4836.0, 4826.0, 4740.0, 4894.0, 4880.0, 4880.0, 4896.0, 4830.0, 4776.0, 4824.0, 4822.0, 4820.0, 4768.0, 4832.0, 4892.0, 4890.0, 4892.0, 4838.0, 4794.0, 4768.0, 4774.0, 4808.0, 4780.0, 4812.0, 4780.0, 4768.0, 4766.0, 4826.0, 4868.0, 4822.0, 4828.0, 4768.0, 4770.0, 4772.0, 4772.0, 4768.0, 4796.0, 4770.0, 4768.0, 4794.0, 4770.0, 4752.0, 4744.0, 4792.0, 4796.0, 4742.0, 4750.0, 4720.0, 4738.0, 4826.0],
      "WindowWidth": [18572.0, 18570.0, 18604.0, 18572.0, 18578.0, 18572.0, 18562.0, 18644.0, 18682.0, 18686.0, 18644.0, 18606.0, 18564.0, 18616.0, 18616.0, 18534.0, 18570.0, 18566.0, 18570.0, 18648.0, 18614.0, 18532.0, 18526.0, 18566.0, 18606.0, 18608.0, 18608.0, 18602.0, 18566.0, 18536.0, 18566.0, 18560.0, 18534.0, 18566.0, 18568.0, 18600.0, 18646.0, 18530.0, 18532.0, 18570.0, 18566.0, 18574.0, 18566.0, 18570.0, 18572.0, 18538.0, 18570.0, 18568.0, 18652.0, 18610.0, 18602.0, 18606.0, 18570.0, 18534.0, 18564.0, 18572.0, 18572.0, 18536.0, 18534.0, 18652.0, 18718.0, 18682.0, 18610.0, 18566.0, 18564.0, 18576.0, 18572.0, 18566.0, 18564.0, 18536.0, 18614.0, 18650.0, 18610.0, 18530.0, 18534.0, 18566.0, 18606.0, 18644.0, 18650.0, 18570.0, 18532.0, 18562.0, 18564.0, 18562.0, 18562.0, 18564.0, 18570.0, 18608.0, 18604.0, 18570.0, 18536.0, 18566.0, 18602.0, 18652.0, 18606.0, 18530.0, 18538.0, 18568.0, 18568.0, 18650.0, 18682.0, 18606.0, 18576.0, 18610.0, 18584.0, 18534.0, 18528.0, 18690.0, 18714.0, 18712.0, 18714.0, 18610.0, 18562.0, 18582.0, 18620.0, 18612.0, 18584.0, 18586.0, 18538.0, 18530.0, 18694.0, 18718.0, 18706.0, 18716.0, 18650.0, 18564.0, 18582.0, 18610.0, 18610.0, 18616.0, 18564.0, 18688.0, 18694.0, 18696.0, 18690.0, 18658.0, 18602.0, 18562.0, 18566.0, 18620.0, 18602.0, 18616.0, 18532.0, 18720.0, 18668.0, 18670.0, 18712.0, 18648.0, 18576.0, 18606.0, 18590.0, 18624.0, 18562.0, 18652.0, 18714.0, 18718.0, 18720.0, 18656.0, 18604.0, 18562.0, 18568.0, 18614.0, 18578.0, 18610.0, 18576.0, 18572.0, 18568.0, 18646.0, 18694.0, 18648.0, 18650.0, 18570.0, 18570.0, 18568.0, 18566.0, 18564.0, 18604.0, 18572.0, 18566.0, 18600.0, 18566.0, 18540.0, 18534.0, 18600.0, 18602.0, 18532.0, 18530.0, 18498.0, 18536.0, 18646.0]
    },
    "slices": {}
  }
}