{
  "AcquisitionMatrixPE": 104,
  "AcquisitionNumber": 1,
  "AcquisitionTime": "10:47:10.760000",
  "BandwidthPerPixelPhaseEncode": 17.17,
  "BaseResolution": 104,
  "BodyPartExamined": "BRAIN",
  "CoilString": "HC1-7;NC1_2",
  "ConsistencyInfo": "N4_VE11C_LATEST_20160120",
  "ConversionSoftware": "dcm2niix",
  "ConversionSoftwareVersion": "v1.0.20190902",
  "DerivedVendorReportedEchoSpacing": 0.000560011,
  "DeviceSerialNumber": "167006",
  "DwellTime": 2.1e-06,
  "EchoTime": 0.037,
  "EchoTrainLength": 104,
  "EffectiveEchoSpacing": 0.000560011,
  "FlipAngle": 52,
  "ImageComments": "Unaliased_MB4_PE3_LB",
  "ImageOrientationPatientDICOM": [0.999726, 0.0109049, 0.0207254, 0.000348964, 0.877941, -0.478769],
  "ImageType": [
    "ORIGINAL",
    "PRIMARY",
    "P",
    "MB",
    "ND",
    "MOSAIC"
],
  "ImagingFrequency": 123.259,
  "InPlanePhaseEncodingDirectionDICOM": "COL",
  "InstitutionAddress": "Chemin_Queen-Mary_4565_Montreal_District_CA_H3W_1W5",
  "InstitutionName": "IUGM",
  "InstitutionalDepartmentName": "Department",
  "MRAcquisitionType": "2D",
  "MagneticFieldStrength": 3,
  "Manufacturer": "Siemens",
  "ManufacturersModelName": "Prisma_fit",
  "Modality": "MR",
  "MultibandAccelerationFactor": 4,
  "PartialFourier": 1,
  "PatientPosition": "HFS",
  "PercentPhaseFOV": 100,
  "PhaseEncodingDirection": "j",
  "PhaseEncodingSteps": 104,
  "PhaseResolution": 1,
  "PixelBandwidth": 2290,
  "ProcedureStepDescription": "memory_things",
  "ProtocolName": "func_task-things_run-2",
  "PulseSequenceDetails": "%CustomerSeq%_cmrr_mbep2d_bold",
  "ReceiveCoilActiveElements": "HC1-7;NC1,2",
  "ReceiveCoilName": "HeadNeck_64",
  "ReconMatrixPE": 104,
  "RepetitionTime": 1.49,
  "SAR": 0.0642558,
  "ScanOptions": "FS",
  "ScanningSequence": "EP",
  "SequenceName": "epfid2d1_104",
  "SequenceVariant": "SK_SS",
  "SeriesDescription": "func_task-things_run-2",
  "SeriesNumber": 14,
  "ShimSetting": [619, -7193, -8866, 279, -4, -134, -2, -10],
  "SliceThickness": 2,
  "SliceTiming": [0, 0.7825, 0.0975, 0.8825, 0.195, 0.98, 0.2925, 1.0775, 0.3925, 1.175, 0.49, 1.2725, 0.5875, 1.3725, 0.685, 0, 0.7825, 0.0975, 0.8825, 0.195, 0.98, 0.2925, 1.0775, 0.3925, 1.175, 0.49, 1.2725, 0.5875, 1.3725, 0.685, 0, 0.7825, 0.0975, 0.8825, 0.195, 0.98, 0.2925, 1.0775, 0.3925, 1.175, 0.49, 1.2725, 0.5875, 1.3725, 0.685, 0, 0.7825, 0.0975, 0.8825, 0.195, 0.98, 0.2925, 1.0775, 0.3925, 1.175, 0.49, 1.2725, 0.5875, 1.3725, 0.685],
  "SoftwareVersions": "syngo_MR_E11",
  "SpacingBetweenSlices": 2,
  "StationName": "MRC35049",
  "TaskName": "things",
  "TotalReadoutTime": 0.0576811,
  "TxRefAmp": 298.644,
  "WipMemBlock": "445b821c-e674-43ae-aa14-33704e47bb8a||Sequence: R016 ve11c/master r/e634e98; Dec 19 2017 11:00:25 by eja",
  "dcmmeta_affine": [
    [-1.9994515180587769, 0.0006979276076890528, 0.046833161264657974, 105.63919067382812],
    [-0.02180970087647438, 1.7558815479278564, -0.9572900533676147, -53.31027603149414],
    [0.04145079851150513, 0.9575382471084595, 1.7553924322128296, -91.98103332519531],
    [0.0, 0.0, 0.0, 1.0]
],
  "dcmmeta_reorient_transform": [
    [0.0, -1.0, 0.0, 103.0],
    [1.0, 0.0, 0.0, 0.0],
    [0.0, 0.0, 1.0, 0.0],
    [0.0, 0.0, 0.0, 1.0]
],
  "dcmmeta_shape": [104, 104, 60, 190],
  "dcmmeta_slice_dim": 2,
  "dcmmeta_version": 0.6,
  "global": {
    "const": {
      "AcquisitionMatrix": [104, 0, 0, 104],
      "AngioFlag": "N",
      "BitsAllocated": 16,
      "BitsStored": 16,
      "BodyPartExamined": "BRAIN",
      "Columns": 832,
      "EchoNumbers": 1,
      "EchoTime": 37.0,
      "EchoTrainLength": 104,
      "FlipAngle": 52.0,
      "HighBit": 15,
      "ImageOrientationPatient": [0.99972573339808, 0.01090485083817, 0.0207254001137, 0.00034896380917, 0.87794078225378, -0.478769110407],
      "ImagePositionPatient": [-833.76546047343, -774.62514610872, 340.10122469104],
      "ImageType": [
        "ORIGINAL",
        "PRIMARY",
        "P",
        "MB",
        "ND",
        "MOSAIC"
],
      "ImagedNucleus": "1H",
      "ImagingFrequency": 123.258903,
      "InPlanePhaseEncodingDirection": "COL",
      "LargestImagePixelValue": 4095,
      "MRAcquisitionType": "2D",
      "MagneticFieldStrength": 3.0,
      "Manufacturer": "SIEMENS",
      "ManufacturerModelName": "Prisma_fit",
      "Modality": "MR",
      "NumberOfAverages": 1.0,
      "NumberOfPhaseEncodingSteps": 104,
      "PercentPhaseFieldOfView": 100.0,
      "PercentSampling": 100.0,
      "PerformedProcedureStepStartTime": "103740.940000",
      "PhotometricInterpretation": "MONOCHROME2",
      "PixelBandwidth": 2290.0,
      "PixelRepresentation": 0,
      "PixelSpacing": [2.0, 2.0],
      "ProtocolName": "func_task-things_run-2",
      "RepetitionTime": 1490.0,
      "RescaleIntercept": -4096.0,
      "RescaleSlope": 2.0,
      "RescaleType": "US",
      "Rows": 832,
      "SAR": 0.06425578629256,
      "SamplesPerPixel": 1,
      "ScanOptions": "FS",
      "ScanningSequence": "EP",
      "SequenceName": "epfid2d1_104",
      "SequenceVariant": [
        "SK",
        "SS"
],
      "SeriesDescription": "func_task-things_run-2",
      "SeriesNumber": 14,
      "SeriesTime": "104835.781000",
      "SliceLocation": -52.740994703557,
      "SliceThickness": 2.0,
      "SmallestImagePixelValue": 0,
      "SoftwareVersions": "syngo MR E11",
      "SpacingBetweenSlices": 2.000000035068,
      "SpecificCharacterSet": "ISO_IR 100",
      "StudyID": "1",
      "StudyTime": "103740.881000",
      "TransmitCoilName": "Body",
      "VariableFlipAngleFlag": "N",
      "WindowCenterWidthExplanation": "Algo1",
      "dBdt": 0.0},
    "slices": {}
  },
  "time": {
    "samples": {
      "AcquisitionNumber": [1, 2, 3, 4, 5, 6, 7, 8, 9, 10, 11, 12, 13, 14, 15, 16, 17, 18, 19, 20, 21, 22, 23, 24, 25, 26, 27, 28, 29, 30, 31, 32, 33, 34, 35, 36, 37, 38, 39, 40, 41, 42, 43, 44, 45, 46, 47, 48, 49, 50, 51, 52, 53, 54, 55, 56, 57, 58, 59, 60, 61, 62, 63, 64, 65, 66, 67, 68, 69, 70, 71, 72, 73, 74, 75, 76, 77, 78, 79, 80, 81, 82, 83, 84, 85, 86, 87, 88, 89, 90, 91, 92, 93, 94, 95, 96, 97, 98, 99, 100, 101, 102, 103, 104, 105, 106, 107, 108, 109, 110, 111, 112, 113, 114, 115, 116, 117, 118, 119, 120, 121, 122, 123, 124, 125, 126, 127, 128, 129, 130, 131, 132, 133, 134, 135, 136, 137, 138, 139, 140, 141, 142, 143, 144, 145, 146, 147, 148, 149, 150, 151, 152, 153, 154, 155, 156, 157, 158, 159, 160, 161, 162, 163, 164, 165, 166, 167, 168, 169, 170, 171, 172, 173, 174, 175, 176, 177, 178, 179, 180, 181, 182, 183, 184, 185, 186, 187, 188, 189, 190],
      "AcquisitionTime": ["104710.760000", "104712.250000", "104713.740000", "104715.230000", "104716.720000", "104718.210000", "104719.700000", "104721.190000", "104722.680000", "104724.170000", "104725.660000", "104727.150000", "104728.640000", "104730.130000", "104731.620000", "104733.110000", "104734.600000", "104736.090000", "104737.580000", "104739.070000", "104740.560000", "104742.050000", "104743.540000", "104745.030000", "104746.520000", "104748.010000", "104749.500000", "104750.990000", "104752.480000", "104753.970000", "104755.460000", "104756.950000", "104758.440000", "104759.930000", "104801.420000", "104802.910000", "104804.400000", "104805.890000", "104807.380000", "104808.870000", "104810.360000", "104811.850000", "104813.340000", "104814.830000", "104816.320000", "104817.810000", "104819.300000", "104820.790000", "104822.280000", "104823.770000", "104825.260000", "104826.750000", "104828.240000", "104829.730000", "104831.220000", "104832.710000", "104834.200000", "104835.690000", "104837.180000", "104838.670000", "104840.160000", "104841.650000", "104843.140000", "104844.630000", "104846.120000", "104847.610000", "104849.100000", "104850.590000", "104852.080000", "104853.570000", "104855.060000", "104856.550000", "104858.040000", "104859.530000", "104901.020000", "104902.510000", "104904.000000", "104905.490000", "104906.980000", "104908.470000", "104909.960000", "104911.450000", "104912.940000", "104914.430000", "104915.920000", "104917.410000", "104918.900000", "104920.390000", "104921.880000", "104923.370000", "104924.860000", "104926.350000", "104927.840000", "104929.330000", "104930.820000", "104932.310000", "104933.800000", "104935.290000", "104936.780000", "104938.270000", "104939.760000", "104941.250000", "104942.740000", "104944.230000", "104945.720000", "104947.210000", "104948.700000", "104950.190000", "104951.680000", "104953.170000", "104954.660000", "104956.150000", "104957.640000", "104959.130000", "105000.620000", "105002.110000", "105003.600000", "105005.090000", "105006.580000", "105008.070000", "105009.560000", "105011.050000", "105012.540000", "105014.030000", "105015.520000", "105017.010000", "105018.500000", "105019.990000", "105021.480000", "105022.970000", "105024.460000", "105025.950000", "105027.440000", "105028.930000", "105030.420000", "105031.910000", "105033.400000", "105034.890000", "105036.380000", "105037.870000", "105039.360000", "105040.850000", "105042.340000", "105043.830000", "105045.320000", "105046.810000", "105048.300000", "105049.790000", "105051.280000", "105052.770000", "105054.260000", "105055.750000", "105057.240000", "105058.730000", "105100.220000", "105101.710000", "105103.200000", "105104.690000", "105106.180000", "105107.670000", "105109.160000", "105110.650000", "105112.140000", "105113.630000", "105115.120000", "105116.610000", "105118.100000", "105119.590000", "105121.080000", "105122.570000", "105124.060000", "105125.550000", "105127.040000", "105128.530000", "105130.020000", "105131.510000", "105133.000000", "105134.490000", "105135.980000", "105137.470000", "105138.960000", "105140.450000", "105141.940000", "105143.430000", "105144.920000", "105146.410000", "105147.900000", "105149.390000", "105150.880000", "105152.370000"],
      "ContentTime": ["104835.783000", "104835.786000", "104835.789000", "104835.791000", "104835.794000", "104835.796000", "104835.799000", "104835.801000", "104835.804000", "104835.806000", "104835.809000", "104835.811000", "104835.814000", "104835.816000", "104835.819000", "104835.821000", "104835.824000", "104835.826000", "104835.829000", "104835.831000", "104835.834000", "104835.836000", "104835.839000", "104835.842000", "104835.844000", "104835.846000", "104835.855000", "104835.857000", "104835.860000", "104835.862000", "104855.706000", "104855.709000", "104855.711000", "104855.714000", "104855.717000", "104855.719000", "104855.722000", "104855.724000", "104855.727000", "104855.729000", "104855.732000", "104855.734000", "104855.737000", "104855.739000", "104855.742000", "104855.744000", "104855.747000", "104855.749000", "104855.752000", "104855.754000", "104915.717000", "104915.720000", "104915.722000", "104915.725000", "104915.727000", "104915.730000", "104915.732000", "104915.735000", "104915.737000", "104915.740000", "104915.742000", "104915.745000", "104915.747000", "104915.750000", "104915.752000", "104915.755000", "104915.765000", "104915.768000", "104915.770000", "104915.773000", "104915.775000", "104935.710000", "104935.713000", "104935.715000", "104935.718000", "104935.720000", "104935.723000", "104935.725000", "104935.728000", "104935.730000", "104935.733000", "104935.735000", "104935.738000", "104935.741000", "104935.743000", "104935.746000", "104935.748000", "104935.752000", "104935.754000", "104935.757000", "104935.759000", "105015.765000", "105015.768000", "105015.771000", "105015.773000", "105015.776000", "105015.778000", "105015.781000", "105015.783000", "105015.786000", "105015.788000", "105015.791000", "105015.793000", "105015.796000", "105015.798000", "105015.801000", "105015.803000", "105015.806000", "105015.808000", "105015.811000", "105015.813000", "105015.816000", "105015.819000", "105015.821000", "105015.824000", "105015.826000", "105015.829000", "105015.831000", "105015.834000", "105015.836000", "105015.839000", "105015.841000", "105015.844000", "105055.732000", "105055.735000", "105055.738000", "105055.740000", "105055.743000", "105055.745000", "105055.748000", "105055.750000", "105055.753000", "105055.755000", "105055.758000", "105055.760000", "105055.763000", "105055.765000", "105055.768000", "105055.770000", "105055.773000", "105055.776000", "105055.778000", "105055.781000", "105055.783000", "105055.786000", "105055.789000", "105055.791000", "105055.794000", "105055.796000", "105055.799000", "105135.757000", "105135.760000", "105135.762000", "105135.765000", "105135.767000", "105135.770000", "105135.772000", "105135.775000", "105135.794000", "105135.796000", "105135.799000", "105135.802000", "105135.804000", "105135.807000", "105135.809000", "105135.812000", "105135.814000", "105135.817000", "105135.819000", "105135.822000", "105135.824000", "105135.827000", "105135.829000", "105135.832000", "105135.834000", "105135.837000", "105135.839000", "105154.626000", "105154.629000", "105154.631000", "105154.634000", "105154.637000", "105154.639000", "105154.642000", "105154.644000", "105154.647000", "105154.650000", "105154.652000", "105154.655000", "105154.658000"],
      "InstanceCreationTime": ["104835.783000", "104835.786000", "104835.789000", "104835.791000", "104835.794000", "104835.796000", "104835.799000", "104835.801000", "104835.804000", "104835.806000", "104835.809000", "104835.811000", "104835.814000", "104835.816000", "104835.819000", "104835.821000", "104835.824000", "104835.826000", "104835.829000", "104835.831000", "104835.834000", "104835.836000", "104835.839000", "104835.842000", "104835.844000", "104835.846000", "104835.855000", "104835.857000", "104835.860000", "104835.862000", "104855.706000", "104855.709000", "104855.711000", "104855.714000", "104855.717000", "104855.719000", "104855.722000", "104855.724000", "104855.727000", "104855.729000", "104855.732000", "104855.734000", "104855.737000", "104855.739000", "104855.742000", "104855.744000", "104855.747000", "104855.749000", "104855.752000", "104855.754000", "104915.717000", "104915.720000", "104915.722000", "104915.725000", "104915.727000", "104915.730000", "104915.732000", "104915.735000", "104915.737000", "104915.740000", "104915.742000", "104915.745000", "104915.747000", "104915.750000", "104915.752000", "104915.755000", "104915.765000", "104915.768000", "104915.770000", "104915.773000", "104915.775000", "104935.710000", "104935.713000", "104935.715000", "104935.718000", "104935.720000", "104935.723000", "104935.725000", "104935.728000", "104935.730000", "104935.733000", "104935.735000", "104935.738000", "104935.741000", "104935.743000", "104935.746000", "104935.748000", "104935.752000", "104935.754000", "104935.757000", "104935.759000", "105015.765000", "105015.768000", "105015.771000", "105015.773000", "105015.776000", "105015.778000", "105015.781000", "105015.783000", "105015.786000", "105015.788000", "105015.791000", "105015.793000", "105015.796000", "105015.798000", "105015.801000", "105015.803000", "105015.806000", "105015.808000", "105015.811000", "105015.813000", "105015.816000", "105015.819000", "105015.821000", "105015.824000", "105015.826000", "105015.829000", "105015.831000", "105015.834000", "105015.836000", "105015.839000", "105015.841000", "105015.844000", "105055.732000", "105055.735000", "105055.738000", "105055.740000", "105055.743000", "105055.745000", "105055.748000", "105055.750000", "105055.753000", "105055.755000", "105055.758000", "105055.760000", "105055.763000", "105055.765000", "105055.768000", "105055.770000", "105055.773000", "105055.776000", "105055.778000", "105055.781000", "105055.783000", "105055.786000", "105055.789000", "105055.791000", "105055.794000", "105055.796000", "105055.799000", "105135.757000", "105135.760000", "105135.762000", "105135.765000", "105135.767000", "105135.770000", "105135.772000", "105135.775000", "105135.794000", "105135.796000", "105135.799000", "105135.802000", "105135.804000", "105135.807000", "105135.809000", "105135.812000", "105135.814000", "105135.817000", "105135.819000", "105135.822000", "105135.824000", "105135.827000", "105135.829000", "105135.832000", "105135.834000", "105135.837000", "105135.839000", "105154.626000", "105154.629000", "105154.631000", "105154.634000", "105154.637000", "105154.639000", "105154.642000", "105154.644000", "105154.647000", "105154.650000", "105154.652000", "105154.655000", "105154.658000"],
      "InstanceNumber": [1, 2, 3, 4, 5, 6, 7, 8, 9, 10, 11, 12, 13, 14, 15, 16, 17, 18, 19, 20, 21, 22, 23, 24, 25, 26, 27, 28, 29, 30, 31, 32, 33, 34, 35, 36, 37, 38, 39, 40, 41, 42, 43, 44, 45, 46, 47, 48, 49, 50, 51, 52, 53, 54, 55, 56, 57, 58, 59, 60, 61, 62, 63, 64, 65, 66, 67, 68, 69, 70, 71, 72, 73, 74, 75, 76, 77, 78, 79, 80, 81, 82, 83, 84, 85, 86, 87, 88, 89, 90, 91, 92, 93, 94, 95, 96, 97, 98, 99, 100, 101, 102, 103, 104, 105, 106, 107, 108, 109, 110, 111, 112, 113, 114, 115, 116, 117, 118, 119, 120, 121, 122, 123, 124, 125, 126, 127, 128, 129, 130, 131, 132, 133, 134, 135, 136, 137, 138, 139, 140, 141, 142, 143, 144, 145, 146, 147, 148, 149, 150, 151, 152, 153, 154, 155, 156, 157, 158, 159, 160, 161, 162, 163, 164, 165, 166, 167, 168, 169, 170, 171, 172, 173, 174, 175, 176, 177, 178, 179, 180, 181, 182, 183, 184, 185, 186, 187, 188, 189, 190],
      "WindowCenter": [4774.0, 4802.0, 4836.0, 4836.0, 4828.0, 4802.0, 4800.0, 4800.0, 4802.0, 4800.0, 4800.0, 4804.0, 4802.0, 4800.0, 4804.0, 4802.0, 4804.0, 4802.0, 4798.0, 4800.0, 4796.0, 4800.0, 4798.0, 4798.0, 4800.0, 4800.0, 4804.0, 4822.0, 4800.0, 4800.0, 4798.0, 4818.0, 4798.0, 4800.0, 4802.0, 4796.0, 4798.0, 4798.0, 4800.0, 4798.0, 4802.0, 4794.0, 4822.0, 4800.0, 4800.0, 4802.0, 4804.0, 4800.0, 4806.0, 4798.0, 4802.0, 4800.0, 4800.0, 4824.0, 4800.0, 4800.0, 4798.0, 4798.0, 4806.0, 4800.0, 4798.0, 4800.0, 4798.0, 4824.0, 4796.0, 4822.0, 4800.0, 4800.0, 4798.0, 4798.0, 4800.0, 4798.0, 4798.0, 4822.0, 4796.0, 4798.0, 4802.0, 4804.0, 4824.0, 4798.0, 4826.0, 4798.0, 4800.0, 4826.0, 4800.0, 4802.0, 4808.0, 4802.0, 4808.0, 4804.0, 4802.0, 4802.0, 4834.0, 4806.0, 4828.0, 4800.0, 4802.0, 4804.0, 4800.0, 4804.0, 4800.0, 4800.0, 4826.0, 4796.0, 4800.0, 4802.0, 4800.0, 4802.0, 4800.0, 4804.0, 4802.0, 4804.0, 4802.0, 4802.0, 4802.0, 4802.0, 4800.0, 4800.0, 4798.0, 4802.0, 4800.0, 4804.0, 4800.0, 4802.0, 4796.0, 4824.0, 4826.0, 4828.0, 4828.0, 4800.0, 4798.0, 4800.0, 4810.0, 4800.0, 4804.0, 4800.0, 4802.0, 4830.0, 4806.0, 4800.0, 4800.0, 4798.0, 4796.0, 4802.0, 4798.0, 4798.0, 4800.0, 4804.0, 4800.0, 4800.0, 4824.0, 4800.0, 4800.0, 4802.0, 4800.0, 4800.0, 4798.0, 4804.0, 4800.0, 4798.0, 4798.0, 4826.0, 4802.0, 4822.0, 4800.0, 4796.0, 4800.0, 4800.0, 4798.0, 4800.0, 4802.0, 4800.0, 4802.0, 4798.0, 4798.0, 4800.0, 4802.0, 4812.0, 4808.0, 4800.0, 4800.0, 4802.0, 4796.0, 4826.0, 4808.0, 4824.0, 4814.0, 4796.0, 4838.0, 4868.0],
      "WindowWidth": [18574.0, 18614.0, 18652.0, 18650.0, 18642.0, 18614.0, 18612.0, 18616.0, 18616.0, 18616.0, 18608.0, 18618.0, 18608.0, 18614.0, 18612.0, 18608.0, 18610.0, 18604.0, 18610.0, 18612.0, 18610.0, 18612.0, 18610.0, 18610.0, 18612.0, 18614.0, 18614.0, 18640.0, 18614.0, 18612.0, 18610.0, 18644.0, 18616.0, 18616.0, 18618.0, 18612.0, 18612.0, 18610.0, 18612.0, 18610.0, 18612.0, 18606.0, 18644.0, 18612.0, 18614.0, 18616.0, 18622.0, 18614.0, 18622.0, 18610.0, 18614.0, 18614.0, 18610.0, 18642.0, 18610.0, 18612.0, 18614.0, 18608.0, 18624.0, 18610.0, 18614.0, 18610.0, 18610.0, 18640.0, 18608.0, 18638.0, 18612.0, 18612.0, 18612.0, 18614.0, 18622.0, 18610.0, 18612.0, 18646.0, 18606.0, 18606.0, 18620.0, 18620.0, 18640.0, 18610.0, 18644.0, 18614.0, 18612.0, 18644.0, 18614.0, 18618.0, 18626.0, 18618.0, 18618.0, 18622.0, 18612.0, 18608.0, 18648.0, 18612.0, 18648.0, 18610.0, 18618.0, 18622.0, 18614.0, 18620.0, 18612.0, 18612.0, 18644.0, 18608.0, 18612.0, 18616.0, 18612.0, 18616.0, 18614.0, 18620.0, 18614.0, 18614.0, 18610.0, 18610.0, 18612.0, 18610.0, 18610.0, 18612.0, 18614.0, 18614.0, 18612.0, 18620.0, 18616.0, 18616.0, 18606.0, 18640.0, 18646.0, 18644.0, 18648.0, 18614.0, 18614.0, 18616.0, 18630.0, 18618.0, 18620.0, 18610.0, 18610.0, 18646.0, 18612.0, 18612.0, 18614.0, 18612.0, 18614.0, 18622.0, 18616.0, 18616.0, 18614.0, 18618.0, 18610.0, 18614.0, 18642.0, 18612.0, 18610.0, 18620.0, 18614.0, 18612.0, 18612.0, 18620.0, 18616.0, 18612.0, 18612.0, 18644.0, 18614.0, 18642.0, 18616.0, 18608.0, 18614.0, 18608.0, 18610.0, 18612.0, 18612.0, 18614.0, 18614.0, 18612.0, 18610.0, 18610.0, 18614.0, 18622.0, 18622.0, 18610.0, 18610.0, 18610.0, 18608.0, 18644.0, 18616.0, 18616.0, 18618.0, 18610.0, 18644.0, 18678.0]
    },
    "slices": {}
  }
}