{
  "AcquisitionMatrixPE": 104,
  "AcquisitionNumber": 1,
  "AcquisitionTime": "10:47:10.760000",
  "BandwidthPerPixelPhaseEncode": 17.17,
  "BaseResolution": 104,
  "BodyPartExamined": "BRAIN",
  "CoilString": "HC1-7;NC1_2",
  "ConsistencyInfo": "N4_VE11C_LATEST_20160120",
  "ConversionSoftware": "dcm2niix",
  "ConversionSoftwareVersion": "v1.0.20190902",
  "DerivedVendorReportedEchoSpacing": 0.000560011,
  "DeviceSerialNumber": "167006",
  "DwellTime": 2.1e-06,
  "EchoTime": 0.037,
  "EchoTrainLength": 104,
  "EffectiveEchoSpacing": 0.000560011,
  "FlipAngle": 52,
  "ImageComments": "Unaliased_MB4_PE3_LB",
  "ImageOrientationPatientDICOM": [0.999726, 0.0109049, 0.0207254, 0.000348964, 0.877941, -0.478769],
  "ImageType": [
    "ORIGINAL",
    "PRIMARY",
    "M",
    "MB",
    "ND",
    "MOSAIC"
],
  "ImagingFrequency": 123.259,
  "InPlanePhaseEncodingDirectionDICOM": "COL",
  "InstitutionAddress": "Chemin_Queen-Mary_4565_Montreal_District_CA_H3W_1W5",
  "InstitutionName": "IUGM",
  "InstitutionalDepartmentName": "Department",
  "MRAcquisitionType": "2D",
  "MagneticFieldStrength": 3,
  "Manufacturer": "Siemens",
  "ManufacturersModelName": "Prisma_fit",
  "Modality": "MR",
  "MultibandAccelerationFactor": 4,
  "PartialFourier": 1,
  "PatientPosition": "HFS",
  "PercentPhaseFOV": 100,
  "PhaseEncodingDirection": "j",
  "PhaseEncodingSteps": 104,
  "PhaseResolution": 1,
  "PixelBandwidth": 2290,
  "ProcedureStepDescription": "memory_things",
  "ProtocolName": "func_task-things_run-2",
  "PulseSequenceDetails": "%CustomerSeq%_cmrr_mbep2d_bold",
  "ReceiveCoilActiveElements": "HC1-7;NC1,2",
  "ReceiveCoilName": "HeadNeck_64",
  "ReconMatrixPE": 104,
  "RepetitionTime": 1.49,
  "SAR": 0.0642558,
  "ScanOptions": "FS",
  "ScanningSequence": "EP",
  "SequenceName": "epfid2d1_104",
  "SequenceVariant": "SK_SS",
  "SeriesDescription": "func_task-things_run-2",
  "SeriesNumber": 13,
  "ShimSetting": [619, -7193, -8866, 279, -4, -134, -2, -10],
  "SliceThickness": 2,
  "SliceTiming": [0, 0.7825, 0.0975, 0.8825, 0.195, 0.98, 0.2925, 1.0775, 0.3925, 1.175, 0.49, 1.2725, 0.5875, 1.3725, 0.685, 0, 0.7825, 0.0975, 0.8825, 0.195, 0.98, 0.2925, 1.0775, 0.3925, 1.175, 0.49, 1.2725, 0.5875, 1.3725, 0.685, 0, 0.7825, 0.0975, 0.8825, 0.195, 0.98, 0.2925, 1.0775, 0.3925, 1.175, 0.49, 1.2725, 0.5875, 1.3725, 0.685, 0, 0.7825, 0.0975, 0.8825, 0.195, 0.98, 0.2925, 1.0775, 0.3925, 1.175, 0.49, 1.2725, 0.5875, 1.3725, 0.685],
  "SoftwareVersions": "syngo_MR_E11",
  "SpacingBetweenSlices": 2,
  "StationName": "MRC35049",
  "TaskName": "things",
  "TotalReadoutTime": 0.0576811,
  "TxRefAmp": 298.644,
  "WipMemBlock": "445b821c-e674-43ae-aa14-33704e47bb8a||Sequence: R016 ve11c/master r/e634e98; Dec 19 2017 11:00:25 by eja",
  "dcmmeta_affine": [
    [-1.9994515180587769, 0.0006979276076890528, 0.046833161264657974, 105.63919067382812],
    [-0.02180970087647438, 1.7558815479278564, -0.9572900533676147, -53.31027603149414],
    [0.04145079851150513, 0.9575382471084595, 1.7553924322128296, -91.98103332519531],
    [0.0, 0.0, 0.0, 1.0]
],
  "dcmmeta_reorient_transform": [
    [0.0, -1.0, 0.0, 103.0],
    [1.0, 0.0, 0.0, 0.0],
    [0.0, 0.0, 1.0, 0.0],
    [0.0, 0.0, 0.0, 1.0]
],
  "dcmmeta_shape": [104, 104, 60, 190],
  "dcmmeta_slice_dim": 2,
  "dcmmeta_version": 0.6,
  "global": {
    "const": {
      "AcquisitionMatrix": [104, 0, 0, 104],
      "AngioFlag": "N",
      "BitsAllocated": 16,
      "BitsStored": 16,
      "BodyPartExamined": "BRAIN",
      "Columns": 832,
      "EchoNumbers": 1,
      "EchoTime": 37.0,
      "EchoTrainLength": 104,
      "FlipAngle": 52.0,
      "HighBit": 15,
      "ImageOrientationPatient": [0.99972573339808, 0.01090485083817, 0.0207254001137, 0.00034896380917, 0.87794078225378, -0.478769110407],
      "ImagePositionPatient": [-833.76546047343, -774.62514610872, 340.10122469104],
      "ImageType": [
        "ORIGINAL",
        "PRIMARY",
        "M",
        "MB",
        "ND",
        "MOSAIC"
],
      "ImagedNucleus": "1H",
      "ImagingFrequency": 123.258903,
      "InPlanePhaseEncodingDirection": "COL",
      "MRAcquisitionType": "2D",
      "MagneticFieldStrength": 3.0,
      "Manufacturer": "SIEMENS",
      "ManufacturerModelName": "Prisma_fit",
      "Modality": "MR",
      "NumberOfAverages": 1.0,
      "NumberOfPhaseEncodingSteps": 104,
      "PercentPhaseFieldOfView": 100.0,
      "PercentSampling": 100.0,
      "PerformedProcedureStepStartTime": "103740.940000",
      "PhotometricInterpretation": "MONOCHROME2",
      "PixelBandwidth": 2290.0,
      "PixelRepresentation": 0,
      "PixelSpacing": [2.0, 2.0],
      "ProtocolName": "func_task-things_run-2",
      "RepetitionTime": 1490.0,
      "Rows": 832,
      "SAR": 0.06425578629256,
      "SamplesPerPixel": 1,
      "ScanOptions": "FS",
      "ScanningSequence": "EP",
      "SequenceName": "epfid2d1_104",
      "SequenceVariant": [
        "SK",
        "SS"
],
      "SeriesDescription": "func_task-things_run-2",
      "SeriesNumber": 13,
      "SeriesTime": "104835.628000",
      "SliceLocation": -52.740994703557,
      "SliceThickness": 2.0,
      "SmallestImagePixelValue": 0,
      "SoftwareVersions": "syngo MR E11",
      "SpacingBetweenSlices": 2.000000035068,
      "SpecificCharacterSet": "ISO_IR 100",
      "StudyID": "1",
      "StudyTime": "103740.881000",
      "TransmitCoilName": "Body",
      "VariableFlipAngleFlag": "N",
      "WindowCenterWidthExplanation": "Algo1",
      "dBdt": 0.0},
    "slices": {}
  },
  "time": {
    "samples": {
      "AcquisitionNumber": [1, 2, 3, 4, 5, 6, 7, 8, 9, 10, 11, 12, 13, 14, 15, 16, 17, 18, 19, 20, 21, 22, 23, 24, 25, 26, 27, 28, 29, 30, 31, 32, 33, 34, 35, 36, 37, 38, 39, 40, 41, 42, 43, 44, 45, 46, 47, 48, 49, 50, 51, 52, 53, 54, 55, 56, 57, 58, 59, 60, 61, 62, 63, 64, 65, 66, 67, 68, 69, 70, 71, 72, 73, 74, 75, 76, 77, 78, 79, 80, 81, 82, 83, 84, 85, 86, 87, 88, 89, 90, 91, 92, 93, 94, 95, 96, 97, 98, 99, 100, 101, 102, 103, 104, 105, 106, 107, 108, 109, 110, 111, 112, 113, 114, 115, 116, 117, 118, 119, 120, 121, 122, 123, 124, 125, 126, 127, 128, 129, 130, 131, 132, 133, 134, 135, 136, 137, 138, 139, 140, 141, 142, 143, 144, 145, 146, 147, 148, 149, 150, 151, 152, 153, 154, 155, 156, 157, 158, 159, 160, 161, 162, 163, 164, 165, 166, 167, 168, 169, 170, 171, 172, 173, 174, 175, 176, 177, 178, 179, 180, 181, 182, 183, 184, 185, 186, 187, 188, 189, 190],
      "AcquisitionTime": ["104710.760000", "104712.250000", "104713.740000", "104715.230000", "104716.720000", "104718.210000", "104719.700000", "104721.190000", "104722.680000", "104724.170000", "104725.660000", "104727.150000", "104728.640000", "104730.130000", "104731.620000", "104733.110000", "104734.600000", "104736.090000", "104737.580000", "104739.070000", "104740.560000", "104742.050000", "104743.540000", "104745.030000", "104746.520000", "104748.010000", "104749.500000", "104750.990000", "104752.480000", "104753.970000", "104755.460000", "104756.950000", "104758.440000", "104759.930000", "104801.420000", "104802.910000", "104804.400000", "104805.890000", "104807.380000", "104808.870000", "104810.360000", "104811.850000", "104813.340000", "104814.830000", "104816.320000", "104817.810000", "104819.300000", "104820.790000", "104822.280000", "104823.770000", "104825.260000", "104826.750000", "104828.240000", "104829.730000", "104831.220000", "104832.710000", "104834.200000", "104835.690000", "104837.180000", "104838.670000", "104840.160000", "104841.650000", "104843.140000", "104844.630000", "104846.120000", "104847.610000", "104849.100000", "104850.590000", "104852.080000", "104853.570000", "104855.060000", "104856.550000", "104858.040000", "104859.530000", "104901.020000", "104902.510000", "104904.000000", "104905.490000", "104906.980000", "104908.470000", "104909.960000", "104911.450000", "104912.940000", "104914.430000", "104915.920000", "104917.410000", "104918.900000", "104920.390000", "104921.880000", "104923.370000", "104924.860000", "104926.350000", "104927.840000", "104929.330000", "104930.820000", "104932.310000", "104933.800000", "104935.290000", "104936.780000", "104938.270000", "104939.760000", "104941.250000", "104942.740000", "104944.230000", "104945.720000", "104947.210000", "104948.700000", "104950.190000", "104951.680000", "104953.170000", "104954.660000", "104956.150000", "104957.640000", "104959.130000", "105000.620000", "105002.110000", "105003.600000", "105005.090000", "105006.580000", "105008.070000", "105009.560000", "105011.050000", "105012.540000", "105014.030000", "105015.520000", "105017.010000", "105018.500000", "105019.990000", "105021.480000", "105022.970000", "105024.460000", "105025.950000", "105027.440000", "105028.930000", "105030.420000", "105031.910000", "105033.400000", "105034.890000", "105036.380000", "105037.870000", "105039.360000", "105040.850000", "105042.340000", "105043.830000", "105045.320000", "105046.810000", "105048.300000", "105049.790000", "105051.280000", "105052.770000", "105054.260000", "105055.750000", "105057.240000", "105058.730000", "105100.220000", "105101.710000", "105103.200000", "105104.690000", "105106.180000", "105107.670000", "105109.160000", "105110.650000", "105112.140000", "105113.630000", "105115.120000", "105116.610000", "105118.100000", "105119.590000", "105121.080000", "105122.570000", "105124.060000", "105125.550000", "105127.040000", "105128.530000", "105130.020000", "105131.510000", "105133.000000", "105134.490000", "105135.980000", "105137.470000", "105138.960000", "105140.450000", "105141.940000", "105143.430000", "105144.920000", "105146.410000", "105147.900000", "105149.390000", "105150.880000", "105152.370000"],
      "ContentTime": ["104835.631000", "104835.635000", "104835.639000", "104835.642000", "104835.654000", "104835.657000", "104835.660000", "104835.664000", "104835.667000", "104835.670000", "104835.673000", "104835.677000", "104835.680000", "104835.683000", "104835.687000", "104835.690000", "104835.693000", "104835.697000", "104835.700000", "104835.703000", "104835.707000", "104835.710000", "104835.713000", "104835.717000", "104835.720000", "104835.724000", "104835.727000", "104835.730000", "104835.734000", "104835.737000", "104855.599000", "104855.603000", "104855.606000", "104855.610000", "104855.613000", "104855.616000", "104855.619000", "104855.623000", "104855.626000", "104855.630000", "104855.633000", "104855.636000", "104855.639000", "104855.643000", "104855.646000", "104855.649000", "104855.653000", "104855.656000", "104855.659000", "104855.663000", "104915.599000", "104915.603000", "104915.606000", "104915.609000", "104915.613000", "104915.616000", "104915.619000", "104915.623000", "104915.626000", "104915.629000", "104915.633000", "104915.636000", "104915.639000", "104915.643000", "104915.646000", "104915.649000", "104915.653000", "104915.656000", "104915.659000", "104915.663000", "104915.666000", "104935.598000", "104935.602000", "104935.605000", "104935.609000", "104935.612000", "104935.615000", "104935.619000", "104935.622000", "104935.625000", "104935.628000", "104935.632000", "104935.635000", "104935.638000", "104935.642000", "104935.645000", "104935.648000", "104935.652000", "104935.655000", "104935.658000", "104935.662000", "105015.599000", "105015.603000", "105015.606000", "105015.609000", "105015.613000", "105015.616000", "105015.620000", "105015.623000", "105015.626000", "105015.630000", "105015.633000", "105015.636000", "105015.640000", "105015.643000", "105015.647000", "105015.650000", "105015.653000", "105015.657000", "105015.660000", "105015.663000", "105015.667000", "105015.670000", "105015.673000", "105015.677000", "105015.680000", "105015.683000", "105015.687000", "105015.690000", "105015.693000", "105015.697000", "105015.700000", "105015.703000", "105055.599000", "105055.603000", "105055.606000", "105055.610000", "105055.613000", "105055.616000", "105055.620000", "105055.623000", "105055.626000", "105055.630000", "105055.633000", "105055.637000", "105055.640000", "105055.643000", "105055.647000", "105055.650000", "105055.653000", "105055.657000", "105055.660000", "105055.663000", "105055.667000", "105055.670000", "105055.673000", "105055.677000", "105055.680000", "105055.683000", "105055.687000", "105135.599000", "105135.603000", "105135.606000", "105135.610000", "105135.613000", "105135.616000", "105135.620000", "105135.623000", "105135.626000", "105135.630000", "105135.633000", "105135.636000", "105135.640000", "105135.643000", "105135.646000", "105135.650000", "105135.653000", "105135.656000", "105135.660000", "105135.663000", "105135.666000", "105135.670000", "105135.673000", "105135.676000", "105135.680000", "105135.683000", "105135.686000", "105154.545000", "105154.549000", "105154.552000", "105154.556000", "105154.559000", "105154.563000", "105154.566000", "105154.569000", "105154.573000", "105154.576000", "105154.580000", "105154.583000", "105154.587000"],
      "InstanceCreationTime": ["104835.631000", "104835.635000", "104835.639000", "104835.642000", "104835.654000", "104835.657000", "104835.660000", "104835.664000", "104835.667000", "104835.670000", "104835.673000", "104835.677000", "104835.680000", "104835.683000", "104835.687000", "104835.690000", "104835.693000", "104835.697000", "104835.700000", "104835.703000", "104835.707000", "104835.710000", "104835.713000", "104835.717000", "104835.720000", "104835.724000", "104835.727000", "104835.730000", "104835.734000", "104835.737000", "104855.599000", "104855.603000", "104855.606000", "104855.610000", "104855.613000", "104855.616000", "104855.619000", "104855.623000", "104855.626000", "104855.630000", "104855.633000", "104855.636000", "104855.639000", "104855.643000", "104855.646000", "104855.649000", "104855.653000", "104855.656000", "104855.659000", "104855.663000", "104915.599000", "104915.603000", "104915.606000", "104915.609000", "104915.613000", "104915.616000", "104915.619000", "104915.623000", "104915.626000", "104915.629000", "104915.633000", "104915.636000", "104915.639000", "104915.643000", "104915.646000", "104915.649000", "104915.653000", "104915.656000", "104915.659000", "104915.663000", "104915.666000", "104935.598000", "104935.602000", "104935.605000", "104935.609000", "104935.612000", "104935.615000", "104935.619000", "104935.622000", "104935.625000", "104935.628000", "104935.632000", "104935.635000", "104935.638000", "104935.642000", "104935.645000", "104935.648000", "104935.652000", "104935.655000", "104935.658000", "104935.662000", "105015.599000", "105015.603000", "105015.606000", "105015.609000", "105015.613000", "105015.616000", "105015.620000", "105015.623000", "105015.626000", "105015.630000", "105015.633000", "105015.636000", "105015.640000", "105015.643000", "105015.647000", "105015.650000", "105015.653000", "105015.657000", "105015.660000", "105015.663000", "105015.667000", "105015.670000", "105015.673000", "105015.677000", "105015.680000", "105015.683000", "105015.687000", "105015.690000", "105015.693000", "105015.697000", "105015.700000", "105015.703000", "105055.599000", "105055.603000", "105055.606000", "105055.610000", "105055.613000", "105055.616000", "105055.620000", "105055.623000", "105055.626000", "105055.630000", "105055.633000", "105055.637000", "105055.640000", "105055.643000", "105055.647000", "105055.650000", "105055.653000", "105055.657000", "105055.660000", "105055.663000", "105055.667000", "105055.670000", "105055.673000", "105055.677000", "105055.680000", "105055.683000", "105055.687000", "105135.599000", "105135.603000", "105135.606000", "105135.610000", "105135.613000", "105135.616000", "105135.620000", "105135.623000", "105135.626000", "105135.630000", "105135.633000", "105135.636000", "105135.640000", "105135.643000", "105135.646000", "105135.650000", "105135.653000", "105135.656000", "105135.660000", "105135.663000", "105135.666000", "105135.670000", "105135.673000", "105135.676000", "105135.680000", "105135.683000", "105135.686000", "105154.545000", "105154.549000", "105154.552000", "105154.556000", "105154.559000", "105154.563000", "105154.566000", "105154.569000", "105154.573000", "105154.576000", "105154.580000", "105154.583000", "105154.587000"],
      "InstanceNumber": [1, 2, 3, 4, 5, 6, 7, 8, 9, 10, 11, 12, 13, 14, 15, 16, 17, 18, 19, 20, 21, 22, 23, 24, 25, 26, 27, 28, 29, 30, 31, 32, 33, 34, 35, 36, 37, 38, 39, 40, 41, 42, 43, 44, 45, 46, 47, 48, 49, 50, 51, 52, 53, 54, 55, 56, 57, 58, 59, 60, 61, 62, 63, 64, 65, 66, 67, 68, 69, 70, 71, 72, 73, 74, 75, 76, 77, 78, 79, 80, 81, 82, 83, 84, 85, 86, 87, 88, 89, 90, 91, 92, 93, 94, 95, 96, 97, 98, 99, 100, 101, 102, 103, 104, 105, 106, 107, 108, 109, 110, 111, 112, 113, 114, 115, 116, 117, 118, 119, 120, 121, 122, 123, 124, 125, 126, 127, 128, 129, 130, 131, 132, 133, 134, 135, 136, 137, 138, 139, 140, 141, 142, 143, 144, 145, 146, 147, 148, 149, 150, 151, 152, 153, 154, 155, 156, 157, 158, 159, 160, 161, 162, 163, 164, 165, 166, 167, 168, 169, 170, 171, 172, 173, 174, 175, 176, 177, 178, 179, 180, 181, 182, 183, 184, 185, 186, 187, 188, 189, 190],
      "LargestImagePixelValue": [45754, 45355, 44091, 45083, 46596, 46049, 45059, 44822, 43196, 44582, 43070, 44572, 43506, 45183, 43422, 43970, 42769, 44789, 42607, 44667, 42834, 44979, 42881, 44659, 44268, 45868, 43756, 44130, 43669, 44367, 44685, 45297, 45294, 44450, 46130, 43845, 46638, 43875, 44228, 44673, 43854, 45774, 43643, 44117, 44664, 47113, 44959, 45107, 46025, 44336, 45161, 44141, 44209, 44677, 44794, 46105, 45727, 45147, 46101, 44031, 46406, 43565, 45464, 43667, 45429, 44333, 46428, 45207, 46294, 45448, 46608, 43544, 45946, 44442, 45586, 44872, 47936, 43836, 44974, 44637, 45680, 45308, 44574, 45081, 46176, 45307, 46480, 43876, 47215, 43077, 43064, 42775, 43032, 45173, 45600, 45456, 45666, 45200, 43304, 44494, 42845, 44003, 43130, 44820, 42904, 45312, 43248, 45348, 42907, 45271, 42842, 44000, 42760, 43428, 43150, 44563, 42970, 43981, 43288, 45127, 42988, 45626, 42894, 44498, 43091, 42906, 43501, 44148, 44131, 46610, 45189, 45549, 45823, 42647, 44306, 42714, 44666, 42711, 44887, 43250, 43480, 44458, 45538, 44830, 44219, 45352, 43178, 45677, 42849, 44286, 43640, 45818, 43507, 45512, 43548, 43462, 42986, 44629, 43542, 43619, 43607, 43373, 44602, 43278, 44257, 42786, 42772, 43345, 43156, 43448, 43119, 43435, 43050, 43662, 43453, 43037, 42638, 44596, 43251, 42882, 43622, 42564, 43513, 42937, 44733, 43669, 45289, 45987, 44153, 43073],
      "WindowCenter": [11114.0, 11059.0, 10991.0, 10977.0, 10990.0, 11012.0, 11025.0, 11021.0, 10976.0, 11008.0, 10985.0, 10998.0, 11003.0, 11009.0, 11000.0, 11029.0, 11016.0, 11044.0, 11008.0, 11031.0, 10995.0, 11011.0, 10971.0, 10998.0, 10977.0, 10988.0, 10978.0, 10981.0, 10952.0, 10967.0, 10993.0, 10995.0, 10991.0, 10980.0, 10983.0, 10963.0, 11004.0, 10983.0, 10989.0, 10996.0, 10965.0, 10988.0, 10989.0, 10989.0, 11003.0, 11024.0, 10996.0, 10996.0, 10977.0, 10957.0, 10975.0, 10961.0, 10965.0, 10983.0, 10977.0, 10989.0, 10986.0, 11004.0, 10984.0, 10979.0, 10992.0, 10960.0, 10987.0, 10967.0, 10988.0, 10985.0, 11007.0, 10974.0, 10991.0, 10990.0, 10997.0, 10968.0, 10986.0, 10970.0, 10987.0, 10985.0, 11015.0, 10973.0, 10999.0, 10971.0, 10994.0, 10992.0, 10975.0, 10982.0, 11005.0, 10981.0, 10993.0, 10968.0, 11004.0, 10971.0, 10987.0, 10959.0, 10972.0, 10994.0, 11004.0, 10991.0, 10985.0, 10974.0, 10953.0, 10982.0, 10935.0, 10957.0, 10975.0, 10977.0, 10958.0, 10984.0, 10963.0, 10992.0, 10975.0, 11002.0, 10976.0, 10993.0, 10968.0, 10977.0, 10964.0, 10979.0, 10959.0, 10985.0, 10956.0, 10975.0, 10957.0, 10996.0, 10967.0, 10979.0, 10953.0, 10954.0, 10964.0, 10963.0, 10972.0, 11019.0, 10982.0, 10981.0, 11000.0, 10941.0, 10970.0, 10941.0, 10974.0, 10953.0, 10988.0, 10972.0, 10972.0, 10967.0, 10972.0, 10968.0, 10975.0, 10965.0, 10947.0, 10971.0, 10947.0, 10973.0, 10968.0, 10994.0, 10973.0, 10983.0, 10962.0, 10969.0, 10951.0, 10969.0, 10960.0, 10952.0, 10958.0, 10959.0, 10951.0, 10936.0, 10947.0, 10938.0, 10954.0, 10944.0, 10941.0, 10950.0, 10943.0, 10959.0, 10948.0, 10950.0, 10949.0, 10936.0, 10940.0, 10987.0, 10972.0, 10959.0, 10942.0, 10918.0, 10944.0, 10960.0, 10992.0, 11009.0, 11015.0, 10982.0, 10910.0, 10879.0],
      "WindowWidth": [23980.0, 23819.0, 23643.0, 23592.0, 23603.0, 23649.0, 23685.0, 23680.0, 23580.0, 23645.0, 23603.0, 23626.0, 23647.0, 23650.0, 23638.0, 23699.0, 23679.0, 23731.0, 23657.0, 23697.0, 23624.0, 23651.0, 23569.0, 23625.0, 23577.0, 23596.0, 23581.0, 23586.0, 23525.0, 23550.0, 23609.0, 23613.0, 23604.0, 23584.0, 23584.0, 23547.0, 23629.0, 23595.0, 23607.0, 23620.0, 23561.0, 23596.0, 23608.0, 23606.0, 23633.0, 23675.0, 23618.0, 23619.0, 23570.0, 23529.0, 23572.0, 23543.0, 23552.0, 23592.0, 23577.0, 23597.0, 23593.0, 23641.0, 23587.0, 23584.0, 23607.0, 23544.0, 23599.0, 23559.0, 23601.0, 23594.0, 23639.0, 23567.0, 23600.0, 23602.0, 23611.0, 23560.0, 23591.0, 23561.0, 23595.0, 23595.0, 23652.0, 23571.0, 23626.0, 23564.0, 23610.0, 23605.0, 23573.0, 23581.0, 23631.0, 23578.0, 23601.0, 23557.0, 23628.0, 23567.0, 23612.0, 23546.0, 23572.0, 23611.0, 23633.0, 23601.0, 23586.0, 23562.0, 23521.0, 23584.0, 23485.0, 23529.0, 23575.0, 23573.0, 23537.0, 23587.0, 23545.0, 23601.0, 23575.0, 23630.0, 23580.0, 23620.0, 23564.0, 23580.0, 23552.0, 23578.0, 23541.0, 23596.0, 23534.0, 23566.0, 23537.0, 23612.0, 23558.0, 23580.0, 23525.0, 23530.0, 23551.0, 23548.0, 23564.0, 23663.0, 23580.0, 23577.0, 23621.0, 23501.0, 23558.0, 23504.0, 23568.0, 23531.0, 23604.0, 23572.0, 23571.0, 23551.0, 23555.0, 23550.0, 23570.0, 23544.0, 23510.0, 23557.0, 23512.0, 23567.0, 23556.0, 23608.0, 23571.0, 23586.0, 23544.0, 23560.0, 23522.0, 23555.0, 23541.0, 23523.0, 23533.0, 23535.0, 23514.0, 23485.0, 23506.0, 23490.0, 23533.0, 23503.0, 23496.0, 23524.0, 23501.0, 23535.0, 23513.0, 23518.0, 23518.0, 23489.0, 23499.0, 23597.0, 23573.0, 23545.0, 23502.0, 23451.0, 23500.0, 23544.0, 23607.0, 23660.0, 23665.0, 23584.0, 23428.0, 23362.0]
    },
    "slices": {}
  }
}