{
  "AcquisitionMatrixPE": 104,
  "AcquisitionNumber": 1,
  "AcquisitionTime": "10:41:9.095000",
  "BandwidthPerPixelPhaseEncode": 17.17,
  "BaseResolution": 104,
  "BodyPartExamined": "BRAIN",
  "CoilString": "HC1-7;NC1_2",
  "ConsistencyInfo": "N4_VE11C_LATEST_20160120",
  "ConversionSoftware": "dcm2niix",
  "ConversionSoftwareVersion": "v1.0.20190902",
  "DerivedVendorReportedEchoSpacing": 0.000560011,
  "DeviceSerialNumber": "167006",
  "DwellTime": 2.1e-06,
  "EchoTime": 0.037,
  "EchoTrainLength": 104,
  "EffectiveEchoSpacing": 0.000560011,
  "FlipAngle": 52,
  "ImageComments": "Unaliased_MB4_PE3_LB",
  "ImageOrientationPatientDICOM": [0.999726, 0.0109049, 0.0207254, 0.000348964, 0.877941, -0.478769],
  "ImageType": [
    "ORIGINAL",
    "PRIMARY",
    "P",
    "MB",
    "ND",
    "MOSAIC"
],
  "ImagingFrequency": 123.259,
  "InPlanePhaseEncodingDirectionDICOM": "COL",
  "InstitutionAddress": "Chemin_Queen-Mary_4565_Montreal_District_CA_H3W_1W5",
  "InstitutionName": "IUGM",
  "InstitutionalDepartmentName": "Department",
  "MRAcquisitionType": "2D",
  "MagneticFieldStrength": 3,
  "Manufacturer": "Siemens",
  "ManufacturersModelName": "Prisma_fit",
  "Modality": "MR",
  "MultibandAccelerationFactor": 4,
  "PartialFourier": 1,
  "PatientPosition": "HFS",
  "PercentPhaseFOV": 100,
  "PhaseEncodingDirection": "j",
  "PhaseEncodingSteps": 104,
  "PhaseResolution": 1,
  "PixelBandwidth": 2290,
  "ProcedureStepDescription": "memory_things",
  "ProtocolName": "func_task-things_run-1",
  "PulseSequenceDetails": "%CustomerSeq%_cmrr_mbep2d_bold",
  "ReceiveCoilActiveElements": "HC1-7;NC1,2",
  "ReceiveCoilName": "HeadNeck_64",
  "ReconMatrixPE": 104,
  "RepetitionTime": 1.49,
  "SAR": 0.0642558,
  "ScanOptions": "FS",
  "ScanningSequence": "EP",
  "SequenceName": "epfid2d1_104",
  "SequenceVariant": "SK_SS",
  "SeriesDescription": "func_task-things_run-1",
  "SeriesNumber": 11,
  "ShimSetting": [619, -7193, -8866, 279, -4, -134, -2, -10],
  "SliceThickness": 2,
  "SliceTiming": [0, 0.7825, 0.0975, 0.88, 0.195, 0.98, 0.2925, 1.0775, 0.39, 1.175, 0.49, 1.2725, 0.5875, 1.37, 0.685, 0, 0.7825, 0.0975, 0.88, 0.195, 0.98, 0.2925, 1.0775, 0.39, 1.175, 0.49, 1.2725, 0.5875, 1.37, 0.685, 0, 0.7825, 0.0975, 0.88, 0.195, 0.98, 0.2925, 1.0775, 0.39, 1.175, 0.49, 1.2725, 0.5875, 1.37, 0.685, 0, 0.7825, 0.0975, 0.88, 0.195, 0.98, 0.2925, 1.0775, 0.39, 1.175, 0.49, 1.2725, 0.5875, 1.37, 0.685],
  "SoftwareVersions": "syngo_MR_E11",
  "SpacingBetweenSlices": 2,
  "StationName": "MRC35049",
  "TaskName": "things",
  "TotalReadoutTime": 0.0576811,
  "TxRefAmp": 298.644,
  "WipMemBlock": "80bb7aae-4cbc-4eda-ab1c-8ebffbae3e3c||Sequence: R016 ve11c/master r/e634e98; Dec 19 2017 11:00:25 by eja",
  "dcmmeta_affine": [
    [-1.9994515180587769, 0.0006979276076890528, 0.046833161264657974, 105.63919067382812],
    [-0.02180970087647438, 1.7558815479278564, -0.9572900533676147, -53.31027603149414],
    [0.04145079851150513, 0.9575382471084595, 1.7553924322128296, -91.98103332519531],
    [0.0, 0.0, 0.0, 1.0]
],
  "dcmmeta_reorient_transform": [
    [0.0, -1.0, 0.0, 103.0],
    [1.0, 0.0, 0.0, 0.0],
    [0.0, 0.0, 1.0, 0.0],
    [0.0, 0.0, 0.0, 1.0]
],
  "dcmmeta_shape": [104, 104, 60, 190],
  "dcmmeta_slice_dim": 2,
  "dcmmeta_version": 0.6,
  "global": {
    "const": {
      "AcquisitionMatrix": [104, 0, 0, 104],
      "AngioFlag": "N",
      "BitsAllocated": 16,
      "BitsStored": 16,
      "BodyPartExamined": "BRAIN",
      "Columns": 832,
      "EchoNumbers": 1,
      "EchoTime": 37.0,
      "EchoTrainLength": 104,
      "FlipAngle": 52.0,
      "HighBit": 15,
      "ImageOrientationPatient": [0.99972573339808, 0.01090485083817, 0.0207254001137, 0.00034896380917, 0.87794078225378, -0.478769110407],
      "ImagePositionPatient": [-833.76546047343, -774.62514610872, 340.10122469104],
      "ImageType": [
        "ORIGINAL",
        "PRIMARY",
        "P",
        "MB",
        "ND",
        "MOSAIC"
],
      "ImagedNucleus": "1H",
      "ImagingFrequency": 123.258896,
      "InPlanePhaseEncodingDirection": "COL",
      "LargestImagePixelValue": 4095,
      "MRAcquisitionType": "2D",
      "MagneticFieldStrength": 3.0,
      "Manufacturer": "SIEMENS",
      "ManufacturerModelName": "Prisma_fit",
      "Modality": "MR",
      "NumberOfAverages": 1.0,
      "NumberOfPhaseEncodingSteps": 104,
      "PercentPhaseFieldOfView": 100.0,
      "PercentSampling": 100.0,
      "PerformedProcedureStepStartTime": "103740.940000",
      "PhotometricInterpretation": "MONOCHROME2",
      "PixelBandwidth": 2290.0,
      "PixelRepresentation": 0,
      "PixelSpacing": [2.0, 2.0],
      "ProtocolName": "func_task-things_run-1",
      "RepetitionTime": 1490.0,
      "RescaleIntercept": -4096.0,
      "RescaleSlope": 2.0,
      "RescaleType": "US",
      "Rows": 832,
      "SAR": 0.06425578629256,
      "SamplesPerPixel": 1,
      "ScanOptions": "FS",
      "ScanningSequence": "EP",
      "SequenceName": "epfid2d1_104",
      "SequenceVariant": [
        "SK",
        "SS"
],
      "SeriesDescription": "func_task-things_run-1",
      "SeriesNumber": 11,
      "SeriesTime": "104226.680000",
      "SliceLocation": -52.740994703557,
      "SliceThickness": 2.0,
      "SmallestImagePixelValue": 0,
      "SoftwareVersions": "syngo MR E11",
      "SpacingBetweenSlices": 2.000000035068,
      "SpecificCharacterSet": "ISO_IR 100",
      "StudyID": "1",
      "StudyTime": "103740.881000",
      "TransmitCoilName": "Body",
      "VariableFlipAngleFlag": "N",
      "WindowCenterWidthExplanation": "Algo1",
      "dBdt": 0.0},
    "slices": {}
  },
  "time": {
    "samples": {
      "AcquisitionNumber": [1, 2, 3, 4, 5, 6, 7, 8, 9, 10, 11, 12, 13, 14, 15, 16, 17, 18, 19, 20, 21, 22, 23, 24, 25, 26, 27, 28, 29, 30, 31, 32, 33, 34, 35, 36, 37, 38, 39, 40, 41, 42, 43, 44, 45, 46, 47, 48, 49, 50, 51, 52, 53, 54, 55, 56, 57, 58, 59, 60, 61, 62, 63, 64, 65, 66, 67, 68, 69, 70, 71, 72, 73, 74, 75, 76, 77, 78, 79, 80, 81, 82, 83, 84, 85, 86, 87, 88, 89, 90, 91, 92, 93, 94, 95, 96, 97, 98, 99, 100, 101, 102, 103, 104, 105, 106, 107, 108, 109, 110, 111, 112, 113, 114, 115, 116, 117, 118, 119, 120, 121, 122, 123, 124, 125, 126, 127, 128, 129, 130, 131, 132, 133, 134, 135, 136, 137, 138, 139, 140, 141, 142, 143, 144, 145, 146, 147, 148, 149, 150, 151, 152, 153, 154, 155, 156, 157, 158, 159, 160, 161, 162, 163, 164, 165, 166, 167, 168, 169, 170, 171, 172, 173, 174, 175, 176, 177, 178, 179, 180, 181, 182, 183, 184, 185, 186, 187, 188, 189, 190],
      "AcquisitionTime": ["104109.095000", "104110.585000", "104112.075000", "104113.565000", "104115.055000", "104116.545000", "104118.035000", "104119.525000", "104121.015000", "104122.505000", "104123.995000", "104125.485000", "104126.975000", "104128.465000", "104129.955000", "104131.445000", "104132.935000", "104134.425000", "104135.915000", "104137.405000", "104138.895000", "104140.385000", "104141.875000", "104143.365000", "104144.855000", "104146.345000", "104147.835000", "104149.325000", "104150.815000", "104152.305000", "104153.795000", "104155.285000", "104156.775000", "104158.265000", "104159.755000", "104201.245000", "104202.735000", "104204.225000", "104205.715000", "104207.205000", "104208.695000", "104210.185000", "104211.675000", "104213.165000", "104214.655000", "104216.145000", "104217.635000", "104219.125000", "104220.615000", "104222.105000", "104223.595000", "104225.085000", "104226.575000", "104228.065000", "104229.555000", "104231.045000", "104232.535000", "104234.025000", "104235.515000", "104237.005000", "104238.495000", "104239.985000", "104241.475000", "104242.965000", "104244.455000", "104245.945000", "104247.435000", "104248.925000", "104250.415000", "104251.905000", "104253.395000", "104254.885000", "104256.375000", "104257.865000", "104259.355000", "104300.845000", "104302.335000", "104303.825000", "104305.315000", "104306.805000", "104308.295000", "104309.785000", "104311.275000", "104312.765000", "104314.255000", "104315.745000", "104317.235000", "104318.725000", "104320.215000", "104321.705000", "104323.195000", "104324.685000", "104326.175000", "104327.665000", "104329.155000", "104330.645000", "104332.135000", "104333.625000", "104335.115000", "104336.605000", "104338.095000", "104339.585000", "104341.075000", "104342.565000", "104344.055000", "104345.545000", "104347.035000", "104348.525000", "104350.015000", "104351.505000", "104352.995000", "104354.485000", "104355.975000", "104357.465000", "104358.955000", "104400.445000", "104401.935000", "104403.425000", "104404.915000", "104406.405000", "104407.895000", "104409.385000", "104410.875000", "104412.365000", "104413.855000", "104415.345000", "104416.835000", "104418.325000", "104419.815000", "104421.305000", "104422.795000", "104424.285000", "104425.775000", "104427.265000", "104428.755000", "104430.245000", "104431.735000", "104433.225000", "104434.715000", "104436.205000", "104437.695000", "104439.185000", "104440.675000", "104442.165000", "104443.655000", "104445.145000", "104446.635000", "104448.125000", "104449.615000", "104451.105000", "104452.595000", "104454.085000", "104455.575000", "104457.065000", "104458.555000", "104500.045000", "104501.535000", "104503.025000", "104504.515000", "104506.005000", "104507.495000", "104508.985000", "104510.475000", "104511.965000", "104513.455000", "104514.945000", "104516.435000", "104517.925000", "104519.415000", "104520.905000", "104522.395000", "104523.885000", "104525.375000", "104526.865000", "104528.355000", "104529.845000", "104531.335000", "104532.825000", "104534.315000", "104535.805000", "104537.295000", "104538.785000", "104540.275000", "104541.765000", "104543.255000", "104544.745000", "104546.235000", "104547.725000", "104549.215000", "104550.705000"],
      "ContentTime": ["104226.682000", "104226.685000", "104226.688000", "104226.690000", "104226.693000", "104226.695000", "104226.698000", "104226.700000", "104226.703000", "104226.711000", "104226.714000", "104226.716000", "104226.719000", "104226.721000", "104226.724000", "104226.726000", "104226.729000", "104226.731000", "104226.734000", "104226.738000", "104226.740000", "104226.743000", "104226.746000", "104246.640000", "104246.643000", "104246.645000", "104246.648000", "104246.650000", "104246.653000", "104246.655000", "104246.658000", "104246.660000", "104246.663000", "104246.665000", "104246.668000", "104246.670000", "104246.673000", "104246.675000", "104246.678000", "104246.680000", "104246.683000", "104246.685000", "104246.688000", "104306.650000", "104306.653000", "104306.655000", "104306.658000", "104306.660000", "104306.663000", "104306.665000", "104306.668000", "104306.670000", "104306.673000", "104306.675000", "104306.678000", "104306.680000", "104306.683000", "104306.685000", "104306.688000", "104306.690000", "104306.693000", "104306.695000", "104306.698000", "104326.655000", "104326.658000", "104326.660000", "104326.663000", "104326.665000", "104326.668000", "104326.670000", "104326.673000", "104326.675000", "104326.678000", "104326.680000", "104326.683000", "104326.685000", "104326.688000", "104326.690000", "104326.693000", "104326.695000", "104326.698000", "104326.700000", "104326.703000", "104346.644000", "104346.646000", "104346.649000", "104346.652000", "104346.654000", "104346.657000", "104346.659000", "104346.662000", "104346.664000", "104346.667000", "104346.669000", "104346.672000", "104346.674000", "104346.677000", "104346.679000", "104346.682000", "104346.684000", "104346.687000", "104346.689000", "104346.692000", "104346.694000", "104426.686000", "104426.689000", "104426.691000", "104426.694000", "104426.696000", "104426.699000", "104426.701000", "104426.704000", "104426.706000", "104426.709000", "104426.711000", "104426.714000", "104426.717000", "104426.719000", "104426.722000", "104426.724000", "104426.727000", "104426.729000", "104426.732000", "104426.734000", "104426.737000", "104426.739000", "104426.742000", "104426.744000", "104426.747000", "104426.749000", "104426.752000", "104426.754000", "104506.670000", "104506.672000", "104506.675000", "104506.677000", "104506.680000", "104506.683000", "104506.685000", "104506.688000", "104506.690000", "104506.693000", "104506.695000", "104506.698000", "104506.700000", "104506.703000", "104506.705000", "104506.708000", "104506.710000", "104506.713000", "104506.715000", "104506.718000", "104506.720000", "104506.723000", "104506.725000", "104506.728000", "104506.731000", "104506.733000", "104506.736000", "104546.676000", "104546.679000", "104546.682000", "104546.684000", "104546.687000", "104546.689000", "104546.692000", "104546.694000", "104546.697000", "104546.699000", "104546.702000", "104546.704000", "104546.707000", "104546.709000", "104546.712000", "104546.714000", "104546.717000", "104546.719000", "104546.722000", "104546.724000", "104546.727000", "104546.729000", "104546.732000", "104546.734000", "104546.737000", "104546.739000", "104552.604000", "104552.606000", "104552.609000", "104552.612000", "104552.614000"],
      "InstanceCreationTime": ["104226.682000", "104226.685000", "104226.688000", "104226.690000", "104226.693000", "104226.695000", "104226.698000", "104226.700000", "104226.703000", "104226.711000", "104226.714000", "104226.716000", "104226.719000", "104226.721000", "104226.724000", "104226.726000", "104226.729000", "104226.731000", "104226.734000", "104226.738000", "104226.740000", "104226.743000", "104226.746000", "104246.640000", "104246.643000", "104246.645000", "104246.648000", "104246.650000", "104246.653000", "104246.655000", "104246.658000", "104246.660000", "104246.663000", "104246.665000", "104246.668000", "104246.670000", "104246.673000", "104246.675000", "104246.678000", "104246.680000", "104246.683000", "104246.685000", "104246.688000", "104306.650000", "104306.653000", "104306.655000", "104306.658000", "104306.660000", "104306.663000", "104306.665000", "104306.668000", "104306.670000", "104306.673000", "104306.675000", "104306.678000", "104306.680000", "104306.683000", "104306.685000", "104306.688000", "104306.690000", "104306.693000", "104306.695000", "104306.698000", "104326.655000", "104326.658000", "104326.660000", "104326.663000", "104326.665000", "104326.668000", "104326.670000", "104326.673000", "104326.675000", "104326.678000", "104326.680000", "104326.683000", "104326.685000", "104326.688000", "104326.690000", "104326.693000", "104326.695000", "104326.698000", "104326.700000", "104326.703000", "104346.644000", "104346.646000", "104346.649000", "104346.652000", "104346.654000", "104346.657000", "104346.659000", "104346.662000", "104346.664000", "104346.667000", "104346.669000", "104346.672000", "104346.674000", "104346.677000", "104346.679000", "104346.682000", "104346.684000", "104346.687000", "104346.689000", "104346.692000", "104346.694000", "104426.686000", "104426.689000", "104426.691000", "104426.694000", "104426.696000", "104426.699000", "104426.701000", "104426.704000", "104426.706000", "104426.709000", "104426.711000", "104426.714000", "104426.717000", "104426.719000", "104426.722000", "104426.724000", "104426.727000", "104426.729000", "104426.732000", "104426.734000", "104426.737000", "104426.739000", "104426.742000", "104426.744000", "104426.747000", "104426.749000", "104426.752000", "104426.754000", "104506.670000", "104506.672000", "104506.675000", "104506.677000", "104506.680000", "104506.683000", "104506.685000", "104506.688000", "104506.690000", "104506.693000", "104506.695000", "104506.698000", "104506.700000", "104506.703000", "104506.705000", "104506.708000", "104506.710000", "104506.713000", "104506.715000", "104506.718000", "104506.720000", "104506.723000", "104506.725000", "104506.728000", "104506.731000", "104506.733000", "104506.736000", "104546.676000", "104546.679000", "104546.682000", "104546.684000", "104546.687000", "104546.689000", "104546.692000", "104546.694000", "104546.697000", "104546.699000", "104546.702000", "104546.704000", "104546.707000", "104546.709000", "104546.712000", "104546.714000", "104546.717000", "104546.719000", "104546.722000", "104546.724000", "104546.727000", "104546.729000", "104546.732000", "104546.734000", "104546.737000", "104546.739000", "104552.604000", "104552.606000", "104552.609000", "104552.612000", "104552.614000"],
      "InstanceNumber": [1, 2, 3, 4, 5, 6, 7, 8, 9, 10, 11, 12, 13, 14, 15, 16, 17, 18, 19, 20, 21, 22, 23, 24, 25, 26, 27, 28, 29, 30, 31, 32, 33, 34, 35, 36, 37, 38, 39, 40, 41, 42, 43, 44, 45, 46, 47, 48, 49, 50, 51, 52, 53, 54, 55, 56, 57, 58, 59, 60, 61, 62, 63, 64, 65, 66, 67, 68, 69, 70, 71, 72, 73, 74, 75, 76, 77, 78, 79, 80, 81, 82, 83, 84, 85, 86, 87, 88, 89, 90, 91, 92, 93, 94, 95, 96, 97, 98, 99, 100, 101, 102, 103, 104, 105, 106, 107, 108, 109, 110, 111, 112, 113, 114, 115, 116, 117, 118, 119, 120, 121, 122, 123, 124, 125, 126, 127, 128, 129, 130, 131, 132, 133, 134, 135, 136, 137, 138, 139, 140, 141, 142, 143, 144, 145, 146, 147, 148, 149, 150, 151, 152, 153, 154, 155, 156, 157, 158, 159, 160, 161, 162, 163, 164, 165, 166, 167, 168, 169, 170, 171, 172, 173, 174, 175, 176, 177, 178, 179, 180, 181, 182, 183, 184, 185, 186, 187, 188, 189, 190],
      "WindowCenter": [4800.0, 4800.0, 4800.0, 4800.0, 4830.0, 4800.0, 4826.0, 4800.0, 4826.0, 4800.0, 4804.0, 4804.0, 4798.0, 4824.0, 4798.0, 4800.0, 4800.0, 4822.0, 4804.0, 4800.0, 4804.0, 4822.0, 4800.0, 4824.0, 4802.0, 4798.0, 4802.0, 4826.0, 4802.0, 4802.0, 4826.0, 4798.0, 4822.0, 4822.0, 4804.0, 4824.0, 4800.0, 4800.0, 4824.0, 4828.0, 4826.0, 4798.0, 4798.0, 4800.0, 4822.0, 4824.0, 4802.0, 4802.0, 4800.0, 4828.0, 4800.0, 4798.0, 4800.0, 4800.0, 4820.0, 4800.0, 4822.0, 4822.0, 4828.0, 4796.0, 4798.0, 4806.0, 4798.0, 4800.0, 4802.0, 4822.0, 4824.0, 4826.0, 4832.0, 4832.0, 4802.0, 4800.0, 4804.0, 4800.0, 4798.0, 4800.0, 4802.0, 4802.0, 4824.0, 4798.0, 4826.0, 4822.0, 4828.0, 4798.0, 4800.0, 4802.0, 4798.0, 4800.0, 4798.0, 4822.0, 4824.0, 4800.0, 4802.0, 4824.0, 4824.0, 4800.0, 4824.0, 4800.0, 4806.0, 4802.0, 4798.0, 4796.0, 4826.0, 4824.0, 4830.0, 4826.0, 4824.0, 4798.0, 4798.0, 4802.0, 4800.0, 4800.0, 4798.0, 4826.0, 4830.0, 4828.0, 4798.0, 4820.0, 4800.0, 4800.0, 4820.0, 4800.0, 4824.0, 4798.0, 4798.0, 4822.0, 4822.0, 4802.0, 4802.0, 4822.0, 4798.0, 4822.0, 4828.0, 4832.0, 4800.0, 4822.0, 4798.0, 4802.0, 4800.0, 4800.0, 4822.0, 4826.0, 4800.0, 4826.0, 4800.0, 4822.0, 4800.0, 4822.0, 4798.0, 4800.0, 4802.0, 4800.0, 4796.0, 4822.0, 4824.0, 4800.0, 4822.0, 4822.0, 4828.0, 4822.0, 4798.0, 4824.0, 4796.0, 4794.0, 4798.0, 4796.0, 4798.0, 4796.0, 4800.0, 4800.0, 4824.0, 4822.0, 4798.0, 4798.0, 4822.0, 4800.0, 4822.0, 4800.0, 4796.0, 4800.0, 4822.0, 4800.0, 4822.0, 4802.0, 4800.0, 4822.0, 4800.0, 4824.0, 4796.0, 4820.0],
      "WindowWidth": [18616.0, 18612.0, 18614.0, 18610.0, 18644.0, 18610.0, 18642.0, 18614.0, 18640.0, 18616.0, 18614.0, 18614.0, 18608.0, 18644.0, 18612.0, 18608.0, 18616.0, 18640.0, 18618.0, 18610.0, 18616.0, 18642.0, 18618.0, 18646.0, 18616.0, 18612.0, 18616.0, 18642.0, 18616.0, 18616.0, 18646.0, 18616.0, 18640.0, 18642.0, 18614.0, 18644.0, 18612.0, 18614.0, 18640.0, 18648.0, 18646.0, 18610.0, 18618.0, 18618.0, 18642.0, 18644.0, 18620.0, 18618.0, 18616.0, 18642.0, 18614.0, 18610.0, 18612.0, 18614.0, 18642.0, 18614.0, 18640.0, 18644.0, 18648.0, 18616.0, 18614.0, 18622.0, 18616.0, 18616.0, 18618.0, 18646.0, 18644.0, 18644.0, 18652.0, 18654.0, 18618.0, 18612.0, 18620.0, 18618.0, 18616.0, 18618.0, 18620.0, 18618.0, 18644.0, 18612.0, 18648.0, 18642.0, 18650.0, 18614.0, 18616.0, 18620.0, 18614.0, 18614.0, 18614.0, 18648.0, 18648.0, 18614.0, 18616.0, 18646.0, 18642.0, 18614.0, 18646.0, 18616.0, 18624.0, 18622.0, 18614.0, 18612.0, 18646.0, 18642.0, 18652.0, 18644.0, 18648.0, 18614.0, 18616.0, 18624.0, 18620.0, 18620.0, 18614.0, 18644.0, 18652.0, 18646.0, 18618.0, 18646.0, 18618.0, 18614.0, 18648.0, 18620.0, 18648.0, 18618.0, 18616.0, 18644.0, 18646.0, 18622.0, 18622.0, 18646.0, 18616.0, 18642.0, 18650.0, 18652.0, 18618.0, 18644.0, 18614.0, 18624.0, 18616.0, 18620.0, 18646.0, 18648.0, 18616.0, 18646.0, 18614.0, 18644.0, 18614.0, 18642.0, 18618.0, 18618.0, 18622.0, 18620.0, 18614.0, 18646.0, 18644.0, 18618.0, 18652.0, 18644.0, 18648.0, 18646.0, 18618.0, 18644.0, 18618.0, 18618.0, 18620.0, 18612.0, 18618.0, 18610.0, 18616.0, 18610.0, 18648.0, 18646.0, 18612.0, 18616.0, 18646.0, 18618.0, 18644.0, 18618.0, 18612.0, 18616.0, 18642.0, 18618.0, 18646.0, 18618.0, 18620.0, 18644.0, 18616.0, 18644.0, 18616.0, 18640.0]
    },
    "slices": {}
  }
}