{
  "AcquisitionMatrixPE": 104,
  "AcquisitionNumber": 1,
  "AcquisitionTime": "10:41:9.095000",
  "BandwidthPerPixelPhaseEncode": 17.17,
  "BaseResolution": 104,
  "BodyPartExamined": "BRAIN",
  "CoilString": "HC1-7;NC1_2",
  "ConsistencyInfo": "N4_VE11C_LATEST_20160120",
  "ConversionSoftware": "dcm2niix",
  "ConversionSoftwareVersion": "v1.0.20190902",
  "DerivedVendorReportedEchoSpacing": 0.000560011,
  "DeviceSerialNumber": "167006",
  "DwellTime": 2.1e-06,
  "EchoTime": 0.037,
  "EchoTrainLength": 104,
  "EffectiveEchoSpacing": 0.000560011,
  "FlipAngle": 52,
  "ImageComments": "Unaliased_MB4_PE3_LB",
  "ImageOrientationPatientDICOM": [0.999726, 0.0109049, 0.0207254, 0.000348964, 0.877941, -0.478769],
  "ImageType": [
    "ORIGINAL",
    "PRIMARY",
    "M",
    "MB",
    "ND",
    "MOSAIC"
],
  "ImagingFrequency": 123.259,
  "InPlanePhaseEncodingDirectionDICOM": "COL",
  "InstitutionAddress": "Chemin_Queen-Mary_4565_Montreal_District_CA_H3W_1W5",
  "InstitutionName": "IUGM",
  "InstitutionalDepartmentName": "Department",
  "MRAcquisitionType": "2D",
  "MagneticFieldStrength": 3,
  "Manufacturer": "Siemens",
  "ManufacturersModelName": "Prisma_fit",
  "Modality": "MR",
  "MultibandAccelerationFactor": 4,
  "PartialFourier": 1,
  "PatientPosition": "HFS",
  "PercentPhaseFOV": 100,
  "PhaseEncodingDirection": "j",
  "PhaseEncodingSteps": 104,
  "PhaseResolution": 1,
  "PixelBandwidth": 2290,
  "ProcedureStepDescription": "memory_things",
  "ProtocolName": "func_task-things_run-1",
  "PulseSequenceDetails": "%CustomerSeq%_cmrr_mbep2d_bold",
  "ReceiveCoilActiveElements": "HC1-7;NC1,2",
  "ReceiveCoilName": "HeadNeck_64",
  "ReconMatrixPE": 104,
  "RepetitionTime": 1.49,
  "SAR": 0.0642558,
  "ScanOptions": "FS",
  "ScanningSequence": "EP",
  "SequenceName": "epfid2d1_104",
  "SequenceVariant": "SK_SS",
  "SeriesDescription": "func_task-things_run-1",
  "SeriesNumber": 10,
  "ShimSetting": [619, -7193, -8866, 279, -4, -134, -2, -10],
  "SliceThickness": 2,
  "SliceTiming": [0, 0.7825, 0.0975, 0.88, 0.195, 0.98, 0.2925, 1.0775, 0.39, 1.175, 0.49, 1.2725, 0.5875, 1.37, 0.685, 0, 0.7825, 0.0975, 0.88, 0.195, 0.98, 0.2925, 1.0775, 0.39, 1.175, 0.49, 1.2725, 0.5875, 1.37, 0.685, 0, 0.7825, 0.0975, 0.88, 0.195, 0.98, 0.2925, 1.0775, 0.39, 1.175, 0.49, 1.2725, 0.5875, 1.37, 0.685, 0, 0.7825, 0.0975, 0.88, 0.195, 0.98, 0.2925, 1.0775, 0.39, 1.175, 0.49, 1.2725, 0.5875, 1.37, 0.685],
  "SoftwareVersions": "syngo_MR_E11",
  "SpacingBetweenSlices": 2,
  "StationName": "MRC35049",
  "TaskName": "things",
  "TotalReadoutTime": 0.0576811,
  "TxRefAmp": 298.644,
  "WipMemBlock": "80bb7aae-4cbc-4eda-ab1c-8ebffbae3e3c||Sequence: R016 ve11c/master r/e634e98; Dec 19 2017 11:00:25 by eja",
  "dcmmeta_affine": [
    [-1.9994515180587769, 0.0006979276076890528, 0.046833161264657974, 105.63919067382812],
    [-0.02180970087647438, 1.7558815479278564, -0.9572900533676147, -53.31027603149414],
    [0.04145079851150513, 0.9575382471084595, 1.7553924322128296, -91.98103332519531],
    [0.0, 0.0, 0.0, 1.0]
],
  "dcmmeta_reorient_transform": [
    [0.0, -1.0, 0.0, 103.0],
    [1.0, 0.0, 0.0, 0.0],
    [0.0, 0.0, 1.0, 0.0],
    [0.0, 0.0, 0.0, 1.0]
],
  "dcmmeta_shape": [104, 104, 60, 190],
  "dcmmeta_slice_dim": 2,
  "dcmmeta_version": 0.6,
  "global": {
    "const": {
      "AcquisitionMatrix": [104, 0, 0, 104],
      "AngioFlag": "N",
      "BitsAllocated": 16,
      "BitsStored": 16,
      "BodyPartExamined": "BRAIN",
      "Columns": 832,
      "EchoNumbers": 1,
      "EchoTime": 37.0,
      "EchoTrainLength": 104,
      "FlipAngle": 52.0,
      "HighBit": 15,
      "ImageOrientationPatient": [0.99972573339808, 0.01090485083817, 0.0207254001137, 0.00034896380917, 0.87794078225378, -0.478769110407],
      "ImagePositionPatient": [-833.76546047343, -774.62514610872, 340.10122469104],
      "ImageType": [
        "ORIGINAL",
        "PRIMARY",
        "M",
        "MB",
        "ND",
        "MOSAIC"
],
      "ImagedNucleus": "1H",
      "ImagingFrequency": 123.258896,
      "InPlanePhaseEncodingDirection": "COL",
      "MRAcquisitionType": "2D",
      "MagneticFieldStrength": 3.0,
      "Manufacturer": "SIEMENS",
      "ManufacturerModelName": "Prisma_fit",
      "Modality": "MR",
      "NumberOfAverages": 1.0,
      "NumberOfPhaseEncodingSteps": 104,
      "PercentPhaseFieldOfView": 100.0,
      "PercentSampling": 100.0,
      "PerformedProcedureStepStartTime": "103740.940000",
      "PhotometricInterpretation": "MONOCHROME2",
      "PixelBandwidth": 2290.0,
      "PixelRepresentation": 0,
      "PixelSpacing": [2.0, 2.0],
      "ProtocolName": "func_task-things_run-1",
      "RepetitionTime": 1490.0,
      "Rows": 832,
      "SAR": 0.06425578629256,
      "SamplesPerPixel": 1,
      "ScanOptions": "FS",
      "ScanningSequence": "EP",
      "SequenceName": "epfid2d1_104",
      "SequenceVariant": [
        "SK",
        "SS"
],
      "SeriesDescription": "func_task-things_run-1",
      "SeriesNumber": 10,
      "SeriesTime": "104226.569000",
      "SliceLocation": -52.740994703557,
      "SliceThickness": 2.0,
      "SmallestImagePixelValue": 0,
      "SoftwareVersions": "syngo MR E11",
      "SpacingBetweenSlices": 2.000000035068,
      "SpecificCharacterSet": "ISO_IR 100",
      "StudyID": "1",
      "StudyTime": "103740.881000",
      "TransmitCoilName": "Body",
      "VariableFlipAngleFlag": "N",
      "WindowCenterWidthExplanation": "Algo1",
      "dBdt": 0.0},
    "slices": {}
  },
  "time": {
    "samples": {
      "AcquisitionNumber": [1, 2, 3, 4, 5, 6, 7, 8, 9, 10, 11, 12, 13, 14, 15, 16, 17, 18, 19, 20, 21, 22, 23, 24, 25, 26, 27, 28, 29, 30, 31, 32, 33, 34, 35, 36, 37, 38, 39, 40, 41, 42, 43, 44, 45, 46, 47, 48, 49, 50, 51, 52, 53, 54, 55, 56, 57, 58, 59, 60, 61, 62, 63, 64, 65, 66, 67, 68, 69, 70, 71, 72, 73, 74, 75, 76, 77, 78, 79, 80, 81, 82, 83, 84, 85, 86, 87, 88, 89, 90, 91, 92, 93, 94, 95, 96, 97, 98, 99, 100, 101, 102, 103, 104, 105, 106, 107, 108, 109, 110, 111, 112, 113, 114, 115, 116, 117, 118, 119, 120, 121, 122, 123, 124, 125, 126, 127, 128, 129, 130, 131, 132, 133, 134, 135, 136, 137, 138, 139, 140, 141, 142, 143, 144, 145, 146, 147, 148, 149, 150, 151, 152, 153, 154, 155, 156, 157, 158, 159, 160, 161, 162, 163, 164, 165, 166, 167, 168, 169, 170, 171, 172, 173, 174, 175, 176, 177, 178, 179, 180, 181, 182, 183, 184, 185, 186, 187, 188, 189, 190],
      "AcquisitionTime": ["104109.095000", "104110.585000", "104112.075000", "104113.565000", "104115.055000", "104116.545000", "104118.035000", "104119.525000", "104121.015000", "104122.505000", "104123.995000", "104125.485000", "104126.975000", "104128.465000", "104129.955000", "104131.445000", "104132.935000", "104134.425000", "104135.915000", "104137.405000", "104138.895000", "104140.385000", "104141.875000", "104143.365000", "104144.855000", "104146.345000", "104147.835000", "104149.325000", "104150.815000", "104152.305000", "104153.795000", "104155.285000", "104156.775000", "104158.265000", "104159.755000", "104201.245000", "104202.735000", "104204.225000", "104205.715000", "104207.205000", "104208.695000", "104210.185000", "104211.675000", "104213.165000", "104214.655000", "104216.145000", "104217.635000", "104219.125000", "104220.615000", "104222.105000", "104223.595000", "104225.085000", "104226.575000", "104228.065000", "104229.555000", "104231.045000", "104232.535000", "104234.025000", "104235.515000", "104237.005000", "104238.495000", "104239.985000", "104241.475000", "104242.965000", "104244.455000", "104245.945000", "104247.435000", "104248.925000", "104250.415000", "104251.905000", "104253.395000", "104254.885000", "104256.375000", "104257.865000", "104259.355000", "104300.845000", "104302.335000", "104303.825000", "104305.315000", "104306.805000", "104308.295000", "104309.785000", "104311.275000", "104312.765000", "104314.255000", "104315.745000", "104317.235000", "104318.725000", "104320.215000", "104321.705000", "104323.195000", "104324.685000", "104326.175000", "104327.665000", "104329.155000", "104330.645000", "104332.135000", "104333.625000", "104335.115000", "104336.605000", "104338.095000", "104339.585000", "104341.075000", "104342.565000", "104344.055000", "104345.545000", "104347.035000", "104348.525000", "104350.015000", "104351.505000", "104352.995000", "104354.485000", "104355.975000", "104357.465000", "104358.955000", "104400.445000", "104401.935000", "104403.425000", "104404.915000", "104406.405000", "104407.895000", "104409.385000", "104410.875000", "104412.365000", "104413.855000", "104415.345000", "104416.835000", "104418.325000", "104419.815000", "104421.305000", "104422.795000", "104424.285000", "104425.775000", "104427.265000", "104428.755000", "104430.245000", "104431.735000", "104433.225000", "104434.715000", "104436.205000", "104437.695000", "104439.185000", "104440.675000", "104442.165000", "104443.655000", "104445.145000", "104446.635000", "104448.125000", "104449.615000", "104451.105000", "104452.595000", "104454.085000", "104455.575000", "104457.065000", "104458.555000", "104500.045000", "104501.535000", "104503.025000", "104504.515000", "104506.005000", "104507.495000", "104508.985000", "104510.475000", "104511.965000", "104513.455000", "104514.945000", "104516.435000", "104517.925000", "104519.415000", "104520.905000", "104522.395000", "104523.885000", "104525.375000", "104526.865000", "104528.355000", "104529.845000", "104531.335000", "104532.825000", "104534.315000", "104535.805000", "104537.295000", "104538.785000", "104540.275000", "104541.765000", "104543.255000", "104544.745000", "104546.235000", "104547.725000", "104549.215000", "104550.705000"],
      "ContentTime": ["104226.572000", "104226.576000", "104226.579000", "104226.583000", "104226.586000", "104226.589000", "104226.593000", "104226.596000", "104226.600000", "104226.603000", "104226.606000", "104226.609000", "104226.613000", "104226.616000", "104226.620000", "104226.623000", "104226.626000", "104226.629000", "104226.633000", "104226.636000", "104226.639000", "104226.643000", "104226.646000", "104246.529000", "104246.533000", "104246.536000", "104246.539000", "104246.543000", "104246.546000", "104246.549000", "104246.553000", "104246.556000", "104246.559000", "104246.563000", "104246.566000", "104246.569000", "104246.573000", "104246.576000", "104246.579000", "104246.583000", "104246.586000", "104246.589000", "104246.593000", "104306.530000", "104306.534000", "104306.537000", "104306.540000", "104306.544000", "104306.547000", "104306.564000", "104306.567000", "104306.571000", "104306.574000", "104306.578000", "104306.581000", "104306.584000", "104306.587000", "104306.591000", "104306.594000", "104306.598000", "104306.601000", "104306.604000", "104306.607000", "104326.528000", "104326.532000", "104326.535000", "104326.538000", "104326.542000", "104326.545000", "104326.548000", "104326.552000", "104326.569000", "104326.572000", "104326.576000", "104326.579000", "104326.583000", "104326.586000", "104326.589000", "104326.593000", "104326.596000", "104326.600000", "104326.603000", "104326.606000", "104346.529000", "104346.533000", "104346.536000", "104346.539000", "104346.543000", "104346.546000", "104346.549000", "104346.553000", "104346.556000", "104346.560000", "104346.563000", "104346.566000", "104346.570000", "104346.573000", "104346.576000", "104346.580000", "104346.583000", "104346.586000", "104346.590000", "104346.593000", "104346.596000", "104426.529000", "104426.533000", "104426.536000", "104426.540000", "104426.543000", "104426.546000", "104426.550000", "104426.553000", "104426.557000", "104426.560000", "104426.563000", "104426.567000", "104426.570000", "104426.574000", "104426.577000", "104426.580000", "104426.584000", "104426.587000", "104426.590000", "104426.594000", "104426.597000", "104426.600000", "104426.604000", "104426.616000", "104426.619000", "104426.623000", "104426.626000", "104426.629000", "104506.529000", "104506.533000", "104506.536000", "104506.540000", "104506.543000", "104506.546000", "104506.550000", "104506.553000", "104506.556000", "104506.560000", "104506.563000", "104506.567000", "104506.570000", "104506.573000", "104506.577000", "104506.580000", "104506.583000", "104506.587000", "104506.590000", "104506.594000", "104506.597000", "104506.600000", "104506.604000", "104506.607000", "104506.610000", "104506.614000", "104506.617000", "104546.528000", "104546.532000", "104546.540000", "104546.543000", "104546.547000", "104546.550000", "104546.554000", "104546.557000", "104546.560000", "104546.564000", "104546.578000", "104546.581000", "104546.585000", "104546.588000", "104546.591000", "104546.595000", "104546.598000", "104546.601000", "104546.605000", "104546.608000", "104546.611000", "104546.615000", "104546.618000", "104546.621000", "104546.625000", "104546.628000", "104552.563000", "104552.567000", "104552.571000", "104552.574000", "104552.578000"],
      "InstanceCreationTime": ["104226.572000", "104226.576000", "104226.579000", "104226.583000", "104226.586000", "104226.589000", "104226.593000", "104226.596000", "104226.600000", "104226.603000", "104226.606000", "104226.609000", "104226.613000", "104226.616000", "104226.620000", "104226.623000", "104226.626000", "104226.629000", "104226.633000", "104226.636000", "104226.639000", "104226.643000", "104226.646000", "104246.529000", "104246.533000", "104246.536000", "104246.539000", "104246.543000", "104246.546000", "104246.549000", "104246.553000", "104246.556000", "104246.559000", "104246.563000", "104246.566000", "104246.569000", "104246.573000", "104246.576000", "104246.579000", "104246.583000", "104246.586000", "104246.589000", "104246.593000", "104306.530000", "104306.534000", "104306.537000", "104306.540000", "104306.544000", "104306.547000", "104306.564000", "104306.567000", "104306.571000", "104306.574000", "104306.578000", "104306.581000", "104306.584000", "104306.587000", "104306.591000", "104306.594000", "104306.598000", "104306.601000", "104306.604000", "104306.607000", "104326.528000", "104326.532000", "104326.535000", "104326.538000", "104326.542000", "104326.545000", "104326.548000", "104326.552000", "104326.569000", "104326.572000", "104326.576000", "104326.579000", "104326.583000", "104326.586000", "104326.589000", "104326.593000", "104326.596000", "104326.600000", "104326.603000", "104326.606000", "104346.529000", "104346.533000", "104346.536000", "104346.539000", "104346.543000", "104346.546000", "104346.549000", "104346.553000", "104346.556000", "104346.560000", "104346.563000", "104346.566000", "104346.570000", "104346.573000", "104346.576000", "104346.580000", "104346.583000", "104346.586000", "104346.590000", "104346.593000", "104346.596000", "104426.529000", "104426.533000", "104426.536000", "104426.540000", "104426.543000", "104426.546000", "104426.550000", "104426.553000", "104426.557000", "104426.560000", "104426.563000", "104426.567000", "104426.570000", "104426.574000", "104426.577000", "104426.580000", "104426.584000", "104426.587000", "104426.590000", "104426.594000", "104426.597000", "104426.600000", "104426.604000", "104426.616000", "104426.619000", "104426.623000", "104426.626000", "104426.629000", "104506.529000", "104506.533000", "104506.536000", "104506.540000", "104506.543000", "104506.546000", "104506.550000", "104506.553000", "104506.556000", "104506.560000", "104506.563000", "104506.567000", "104506.570000", "104506.573000", "104506.577000", "104506.580000", "104506.583000", "104506.587000", "104506.590000", "104506.594000", "104506.597000", "104506.600000", "104506.604000", "104506.607000", "104506.610000", "104506.614000", "104506.617000", "104546.528000", "104546.532000", "104546.540000", "104546.543000", "104546.547000", "104546.550000", "104546.554000", "104546.557000", "104546.560000", "104546.564000", "104546.578000", "104546.581000", "104546.585000", "104546.588000", "104546.591000", "104546.595000", "104546.598000", "104546.601000", "104546.605000", "104546.608000", "104546.611000", "104546.615000", "104546.618000", "104546.621000", "104546.625000", "104546.628000", "104552.563000", "104552.567000", "104552.571000", "104552.574000", "104552.578000"],
      "InstanceNumber": [1, 2, 3, 4, 5, 6, 7, 8, 9, 10, 11, 12, 13, 14, 15, 16, 17, 18, 19, 20, 21, 22, 23, 24, 25, 26, 27, 28, 29, 30, 31, 32, 33, 34, 35, 36, 37, 38, 39, 40, 41, 42, 43, 44, 45, 46, 47, 48, 49, 50, 51, 52, 53, 54, 55, 56, 57, 58, 59, 60, 61, 62, 63, 64, 65, 66, 67, 68, 69, 70, 71, 72, 73, 74, 75, 76, 77, 78, 79, 80, 81, 82, 83, 84, 85, 86, 87, 88, 89, 90, 91, 92, 93, 94, 95, 96, 97, 98, 99, 100, 101, 102, 103, 104, 105, 106, 107, 108, 109, 110, 111, 112, 113, 114, 115, 116, 117, 118, 119, 120, 121, 122, 123, 124, 125, 126, 127, 128, 129, 130, 131, 132, 133, 134, 135, 136, 137, 138, 139, 140, 141, 142, 143, 144, 145, 146, 147, 148, 149, 150, 151, 152, 153, 154, 155, 156, 157, 158, 159, 160, 161, 162, 163, 164, 165, 166, 167, 168, 169, 170, 171, 172, 173, 174, 175, 176, 177, 178, 179, 180, 181, 182, 183, 184, 185, 186, 187, 188, 189, 190],
      "LargestImagePixelValue": [50549, 49022, 48394, 48202, 48195, 47686, 47757, 47934, 46690, 48651, 47842, 47907, 47704, 48058, 48072, 47257, 48147, 46802, 48523, 47157, 48070, 47310, 48184, 47316, 48823, 47990, 48111, 47246, 48397, 47419, 47578, 47280, 47266, 47430, 48240, 47616, 48226, 47571, 47611, 47982, 48155, 48251, 47749, 47557, 47594, 47046, 47491, 47653, 47496, 46918, 47386, 47058, 47416, 47483, 47006, 47636, 47003, 47453, 47384, 47805, 47803, 47382, 47522, 47812, 48034, 46101, 47367, 47072, 47414, 47686, 47100, 47134, 47536, 47497, 47767, 46831, 48593, 47769, 47938, 47728, 46567, 47707, 47920, 48081, 46731, 47325, 47042, 47662, 46625, 47256, 47036, 47713, 47296, 47417, 46786, 47243, 46864, 47320, 47339, 46033, 46916, 47374, 47171, 47622, 47038, 47689, 47551, 47457, 47486, 47368, 47186, 47849, 46829, 47066, 47119, 47754, 46701, 46430, 47370, 46389, 47453, 47013, 46819, 46746, 46023, 47304, 46903, 47706, 47640, 46268, 47293, 47056, 47418, 47054, 47477, 47392, 47875, 47060, 47154, 47256, 46715, 47725, 46828, 47016, 47406, 46437, 47299, 46475, 47157, 46908, 46927, 46713, 46438, 46548, 47192, 47479, 45731, 45264, 46103, 46863, 46929, 46937, 47397, 46831, 47638, 45872, 47989, 45840, 47319, 46128, 47051, 45557, 46741, 46459, 46873, 47096, 46376, 47463, 45237, 46687, 45543, 47004, 45665, 47964, 46384, 47050, 46860, 46049, 47110, 44425],
      "WindowCenter": [11166.0, 11104.0, 11083.0, 11078.0, 11074.0, 11070.0, 11077.0, 11078.0, 11073.0, 11098.0, 11057.0, 11062.0, 11068.0, 11064.0, 11080.0, 11091.0, 11085.0, 11067.0, 11077.0, 11031.0, 11042.0, 11044.0, 11077.0, 11054.0, 11076.0, 11048.0, 11067.0, 11069.0, 11068.0, 11061.0, 11051.0, 11041.0, 11048.0, 11077.0, 11051.0, 11047.0, 11059.0, 11047.0, 11046.0, 11044.0, 11043.0, 11051.0, 11045.0, 11046.0, 11044.0, 11041.0, 11040.0, 11063.0, 11076.0, 11035.0, 11024.0, 11056.0, 11089.0, 11103.0, 11064.0, 11046.0, 11043.0, 11076.0, 11069.0, 11046.0, 11055.0, 11028.0, 11047.0, 11059.0, 11042.0, 11022.0, 11049.0, 11036.0, 11029.0, 11020.0, 11010.0, 11007.0, 11015.0, 10993.0, 11008.0, 11014.0, 11036.0, 11042.0, 11051.0, 11048.0, 11036.0, 11031.0, 11028.0, 11035.0, 11021.0, 11032.0, 11030.0, 11029.0, 11027.0, 11040.0, 11046.0, 11036.0, 11040.0, 11040.0, 11026.0, 11025.0, 11047.0, 11042.0, 11053.0, 11055.0, 11034.0, 11016.0, 11016.0, 11035.0, 11027.0, 11035.0, 11013.0, 11017.0, 11024.0, 11025.0, 11021.0, 11029.0, 11019.0, 11035.0, 11032.0, 11030.0, 11046.0, 11055.0, 11059.0, 11035.0, 11031.0, 11018.0, 11016.0, 11022.0, 11025.0, 11054.0, 11032.0, 11040.0, 11041.0, 11027.0, 11027.0, 11021.0, 11037.0, 11011.0, 11023.0, 11063.0, 11056.0, 11043.0, 11034.0, 11032.0, 11023.0, 11044.0, 11016.0, 11038.0, 11051.0, 11035.0, 11047.0, 11049.0, 11029.0, 11030.0, 11028.0, 11022.0, 11017.0, 11038.0, 11003.0, 11032.0, 11061.0, 11037.0, 11035.0, 11041.0, 11030.0, 11014.0, 11028.0, 11025.0, 11052.0, 11055.0, 11040.0, 11016.0, 11024.0, 11001.0, 11021.0, 11041.0, 11053.0, 11040.0, 11018.0, 11009.0, 11018.0, 11038.0, 11008.0, 11023.0, 10997.0, 11012.0, 11003.0, 11022.0, 11001.0, 11001.0, 10989.0, 10999.0, 11016.0, 11001.0],
      "WindowWidth": [24078.0, 23902.0, 23835.0, 23811.0, 23794.0, 23787.0, 23798.0, 23796.0, 23789.0, 23845.0, 23750.0, 23759.0, 23778.0, 23763.0, 23799.0, 23830.0, 23813.0, 23776.0, 23789.0, 23692.0, 23707.0, 23718.0, 23788.0, 23743.0, 23790.0, 23720.0, 23768.0, 23776.0, 23772.0, 23758.0, 23735.0, 23712.0, 23725.0, 23794.0, 23731.0, 23723.0, 23748.0, 23722.0, 23722.0, 23713.0, 23711.0, 23730.0, 23717.0, 23719.0, 23716.0, 23709.0, 23707.0, 23758.0, 23794.0, 23701.0, 23674.0, 23744.0, 23821.0, 23855.0, 23766.0, 23722.0, 23717.0, 23791.0, 23778.0, 23720.0, 23738.0, 23678.0, 23722.0, 23754.0, 23710.0, 23672.0, 23731.0, 23697.0, 23682.0, 23660.0, 23642.0, 23627.0, 23647.0, 23592.0, 23627.0, 23647.0, 23691.0, 23707.0, 23729.0, 23725.0, 23699.0, 23683.0, 23675.0, 23691.0, 23666.0, 23689.0, 23686.0, 23682.0, 23679.0, 23709.0, 23724.0, 23698.0, 23706.0, 23707.0, 23675.0, 23674.0, 23729.0, 23712.0, 23737.0, 23747.0, 23697.0, 23653.0, 23655.0, 23695.0, 23681.0, 23696.0, 23641.0, 23650.0, 23665.0, 23668.0, 23662.0, 23677.0, 23658.0, 23695.0, 23692.0, 23683.0, 23722.0, 23745.0, 23755.0, 23700.0, 23688.0, 23657.0, 23657.0, 23671.0, 23678.0, 23741.0, 23691.0, 23704.0, 23707.0, 23684.0, 23678.0, 23664.0, 23701.0, 23644.0, 23666.0, 23760.0, 23742.0, 23716.0, 23695.0, 23687.0, 23668.0, 23718.0, 23656.0, 23703.0, 23739.0, 23700.0, 23725.0, 23734.0, 23683.0, 23685.0, 23680.0, 23668.0, 23657.0, 23708.0, 23626.0, 23684.0, 23761.0, 23708.0, 23704.0, 23711.0, 23682.0, 23646.0, 23678.0, 23673.0, 23732.0, 23749.0, 23705.0, 23658.0, 23673.0, 23621.0, 23662.0, 23717.0, 23738.0, 23713.0, 23659.0, 23638.0, 23659.0, 23706.0, 23641.0, 23670.0, 23617.0, 23645.0, 23630.0, 23666.0, 23620.0, 23617.0, 23594.0, 23624.0, 23654.0, 23632.0]
    },
    "slices": {}
  }
}