{
  "AcquisitionMatrixPE": 104,
  "AcquisitionNumber": 1,
  "AcquisitionTime": "10:53:12.727500",
  "BandwidthPerPixelPhaseEncode": 17.17,
  "BaseResolution": 104,
  "BodyPartExamined": "BRAIN",
  "CoilString": "HC1-7;NC1_2",
  "ConsistencyInfo": "N4_VE11C_LATEST_20160120",
  "ConversionSoftware": "dcm2niix",
  "ConversionSoftwareVersion": "v1.0.20190902",
  "DerivedVendorReportedEchoSpacing": 0.000560011,
  "DeviceSerialNumber": "167006",
  "DwellTime": 2.1e-06,
  "EchoTime": 0.037,
  "EchoTrainLength": 104,
  "EffectiveEchoSpacing": 0.000560011,
  "FlipAngle": 52,
  "ImageComments": "Unaliased_MB4_PE3_LB",
  "ImageOrientationPatientDICOM": [0.999726, 0.0109049, 0.0207254, 0.000348964, 0.877941, -0.478769],
  "ImageType": [
    "ORIGINAL",
    "PRIMARY",
    "P",
    "MB",
    "ND",
    "MOSAIC"
],
  "ImagingFrequency": 123.259,
  "InPlanePhaseEncodingDirectionDICOM": "COL",
  "InstitutionAddress": "Chemin_Queen-Mary_4565_Montreal_District_CA_H3W_1W5",
  "InstitutionName": "IUGM",
  "InstitutionalDepartmentName": "Department",
  "MRAcquisitionType": "2D",
  "MagneticFieldStrength": 3,
  "Manufacturer": "Siemens",
  "ManufacturersModelName": "Prisma_fit",
  "Modality": "MR",
  "MultibandAccelerationFactor": 4,
  "PartialFourier": 1,
  "PatientPosition": "HFS",
  "PercentPhaseFOV": 100,
  "PhaseEncodingDirection": "j",
  "PhaseEncodingSteps": 104,
  "PhaseResolution": 1,
  "PixelBandwidth": 2290,
  "ProcedureStepDescription": "memory_things",
  "ProtocolName": "func_task-things_run-3",
  "PulseSequenceDetails": "%CustomerSeq%_cmrr_mbep2d_bold",
  "ReceiveCoilActiveElements": "HC1-7;NC1,2",
  "ReceiveCoilName": "HeadNeck_64",
  "ReconMatrixPE": 104,
  "RepetitionTime": 1.49,
  "SAR": 0.0642558,
  "ScanOptions": "FS",
  "ScanningSequence": "EP",
  "SequenceName": "epfid2d1_104",
  "SequenceVariant": "SK_SS",
  "SeriesDescription": "func_task-things_run-3",
  "SeriesNumber": 17,
  "ShimSetting": [619, -7193, -8866, 279, -4, -134, -2, -10],
  "SliceThickness": 2,
  "SliceTiming": [0, 0.7825, 0.0975, 0.88, 0.195, 0.98, 0.2925, 1.0775, 0.39, 1.175, 0.49, 1.2725, 0.5875, 1.37, 0.685, 0, 0.7825, 0.0975, 0.88, 0.195, 0.98, 0.2925, 1.0775, 0.39, 1.175, 0.49, 1.2725, 0.5875, 1.37, 0.685, 0, 0.7825, 0.0975, 0.88, 0.195, 0.98, 0.2925, 1.0775, 0.39, 1.175, 0.49, 1.2725, 0.5875, 1.37, 0.685, 0, 0.7825, 0.0975, 0.88, 0.195, 0.98, 0.2925, 1.0775, 0.39, 1.175, 0.49, 1.2725, 0.5875, 1.37, 0.685],
  "SoftwareVersions": "syngo_MR_E11",
  "SpacingBetweenSlices": 2,
  "StationName": "MRC35049",
  "TaskName": "things",
  "TotalReadoutTime": 0.0576811,
  "TxRefAmp": 298.644,
  "WipMemBlock": "5cc2a113-c1a6-4153-b7bb-0de16c47f5d1||Sequence: R016 ve11c/master r/e634e98; Dec 19 2017 11:00:25 by eja",
  "dcmmeta_affine": [
    [-1.9994515180587769, 0.0006979276076890528, 0.046833161264657974, 105.63919067382812],
    [-0.02180970087647438, 1.7558815479278564, -0.9572900533676147, -53.31027603149414],
    [0.04145079851150513, 0.9575382471084595, 1.7553924322128296, -91.98103332519531],
    [0.0, 0.0, 0.0, 1.0]
],
  "dcmmeta_reorient_transform": [
    [0.0, -1.0, 0.0, 103.0],
    [1.0, 0.0, 0.0, 0.0],
    [0.0, 0.0, 1.0, 0.0],
    [0.0, 0.0, 0.0, 1.0]
],
  "dcmmeta_shape": [104, 104, 60, 190],
  "dcmmeta_slice_dim": 2,
  "dcmmeta_version": 0.6,
  "global": {
    "const": {
      "AcquisitionMatrix": [104, 0, 0, 104],
      "AngioFlag": "N",
      "BitsAllocated": 16,
      "BitsStored": 16,
      "BodyPartExamined": "BRAIN",
      "Columns": 832,
      "EchoNumbers": 1,
      "EchoTime": 37.0,
      "EchoTrainLength": 104,
      "FlipAngle": 52.0,
      "HighBit": 15,
      "ImageOrientationPatient": [0.99972573339808, 0.01090485083817, 0.0207254001137, 0.00034896380917, 0.87794078225378, -0.478769110407],
      "ImagePositionPatient": [-833.76546047343, -774.62514610872, 340.10122469104],
      "ImageType": [
        "ORIGINAL",
        "PRIMARY",
        "P",
        "MB",
        "ND",
        "MOSAIC"
],
      "ImagedNucleus": "1H",
      "ImagingFrequency": 123.258904,
      "InPlanePhaseEncodingDirection": "COL",
      "LargestImagePixelValue": 4095,
      "MRAcquisitionType": "2D",
      "MagneticFieldStrength": 3.0,
      "Manufacturer": "SIEMENS",
      "ManufacturerModelName": "Prisma_fit",
      "Modality": "MR",
      "NumberOfAverages": 1.0,
      "NumberOfPhaseEncodingSteps": 104,
      "PercentPhaseFieldOfView": 100.0,
      "PercentSampling": 100.0,
      "PerformedProcedureStepStartTime": "103740.940000",
      "PhotometricInterpretation": "MONOCHROME2",
      "PixelBandwidth": 2290.0,
      "PixelRepresentation": 0,
      "PixelSpacing": [2.0, 2.0],
      "ProtocolName": "func_task-things_run-3",
      "RepetitionTime": 1490.0,
      "RescaleIntercept": -4096.0,
      "RescaleSlope": 2.0,
      "RescaleType": "US",
      "Rows": 832,
      "SAR": 0.06425578629256,
      "SamplesPerPixel": 1,
      "ScanOptions": "FS",
      "ScanningSequence": "EP",
      "SequenceName": "epfid2d1_104",
      "SequenceVariant": [
        "SK",
        "SS"
],
      "SeriesDescription": "func_task-things_run-3",
      "SeriesNumber": 17,
      "SeriesTime": "105435.712000",
      "SliceLocation": -52.740994703557,
      "SliceThickness": 2.0,
      "SmallestImagePixelValue": 0,
      "SoftwareVersions": "syngo MR E11",
      "SpacingBetweenSlices": 2.000000035068,
      "SpecificCharacterSet": "ISO_IR 100",
      "StudyID": "1",
      "StudyTime": "103740.881000",
      "TransmitCoilName": "Body",
      "VariableFlipAngleFlag": "N",
      "WindowCenterWidthExplanation": "Algo1",
      "dBdt": 0.0},
    "slices": {}
  },
  "time": {
    "samples": {
      "AcquisitionNumber": [1, 2, 3, 4, 5, 6, 7, 8, 9, 10, 11, 12, 13, 14, 15, 16, 17, 18, 19, 20, 21, 22, 23, 24, 25, 26, 27, 28, 29, 30, 31, 32, 33, 34, 35, 36, 37, 38, 39, 40, 41, 42, 43, 44, 45, 46, 47, 48, 49, 50, 51, 52, 53, 54, 55, 56, 57, 58, 59, 60, 61, 62, 63, 64, 65, 66, 67, 68, 69, 70, 71, 72, 73, 74, 75, 76, 77, 78, 79, 80, 81, 82, 83, 84, 85, 86, 87, 88, 89, 90, 91, 92, 93, 94, 95, 96, 97, 98, 99, 100, 101, 102, 103, 104, 105, 106, 107, 108, 109, 110, 111, 112, 113, 114, 115, 116, 117, 118, 119, 120, 121, 122, 123, 124, 125, 126, 127, 128, 129, 130, 131, 132, 133, 134, 135, 136, 137, 138, 139, 140, 141, 142, 143, 144, 145, 146, 147, 148, 149, 150, 151, 152, 153, 154, 155, 156, 157, 158, 159, 160, 161, 162, 163, 164, 165, 166, 167, 168, 169, 170, 171, 172, 173, 174, 175, 176, 177, 178, 179, 180, 181, 182, 183, 184, 185, 186, 187, 188, 189, 190],
      "AcquisitionTime": ["105312.727500", "105314.217500", "105315.707500", "105317.197500", "105318.687500", "105320.177500", "105321.667500", "105323.157500", "105324.647500", "105326.137500", "105327.627500", "105329.117500", "105330.607500", "105332.097500", "105333.587500", "105335.077500", "105336.567500", "105338.057500", "105339.547500", "105341.037500", "105342.527500", "105344.017500", "105345.507500", "105346.997500", "105348.487500", "105349.977500", "105351.467500", "105352.957500", "105354.447500", "105355.937500", "105357.427500", "105358.917500", "105400.407500", "105401.897500", "105403.387500", "105404.877500", "105406.367500", "105407.857500", "105409.347500", "105410.837500", "105412.327500", "105413.817500", "105415.307500", "105416.797500", "105418.287500", "105419.777500", "105421.267500", "105422.757500", "105424.247500", "105425.737500", "105427.227500", "105428.717500", "105430.207500", "105431.697500", "105433.187500", "105434.677500", "105436.167500", "105437.657500", "105439.147500", "105440.637500", "105442.127500", "105443.617500", "105445.107500", "105446.597500", "105448.087500", "105449.577500", "105451.067500", "105452.557500", "105454.047500", "105455.537500", "105457.027500", "105458.517500", "105500.007500", "105501.497500", "105502.987500", "105504.477500", "105505.967500", "105507.457500", "105508.947500", "105510.437500", "105511.927500", "105513.417500", "105514.907500", "105516.397500", "105517.887500", "105519.377500", "105520.867500", "105522.357500", "105523.847500", "105525.337500", "105526.827500", "105528.317500", "105529.807500", "105531.297500", "105532.787500", "105534.277500", "105535.767500", "105537.257500", "105538.747500", "105540.237500", "105541.727500", "105543.217500", "105544.707500", "105546.197500", "105547.687500", "105549.177500", "105550.667500", "105552.157500", "105553.647500", "105555.137500", "105556.627500", "105558.117500", "105559.607500", "105601.097500", "105602.587500", "105604.077500", "105605.567500", "105607.057500", "105608.547500", "105610.037500", "105611.527500", "105613.017500", "105614.507500", "105615.997500", "105617.487500", "105618.977500", "105620.467500", "105621.957500", "105623.447500", "105624.937500", "105626.427500", "105627.917500", "105629.407500", "105630.897500", "105632.387500", "105633.877500", "105635.367500", "105636.857500", "105638.347500", "105639.837500", "105641.327500", "105642.817500", "105644.307500", "105645.797500", "105647.287500", "105648.777500", "105650.267500", "105651.757500", "105653.247500", "105654.737500", "105656.227500", "105657.717500", "105659.207500", "105700.697500", "105702.187500", "105703.677500", "105705.167500", "105706.657500", "105708.147500", "105709.637500", "105711.127500", "105712.617500", "105714.107500", "105715.597500", "105717.087500", "105718.577500", "105720.067500", "105721.557500", "105723.047500", "105724.537500", "105726.027500", "105727.517500", "105729.007500", "105730.497500", "105731.987500", "105733.477500", "105734.967500", "105736.457500", "105737.947500", "105739.437500", "105740.927500", "105742.417500", "105743.907500", "105745.397500", "105746.887500", "105748.377500", "105749.867500", "105751.357500", "105752.847500", "105754.337500"],
      "ContentTime": ["105435.714000", "105435.717000", "105435.719000", "105435.722000", "105435.724000", "105435.727000", "105435.729000", "105435.732000", "105435.734000", "105435.737000", "105435.739000", "105435.742000", "105435.744000", "105435.747000", "105435.750000", "105435.752000", "105435.755000", "105435.757000", "105435.760000", "105435.762000", "105435.765000", "105435.767000", "105435.770000", "105435.772000", "105435.784000", "105435.786000", "105435.789000", "105435.791000", "105435.794000", "105435.796000", "105456.321000", "105456.324000", "105456.327000", "105456.329000", "105456.332000", "105456.334000", "105456.337000", "105456.339000", "105456.342000", "105456.344000", "105456.347000", "105456.349000", "105456.352000", "105456.354000", "105456.357000", "105456.359000", "105456.362000", "105456.364000", "105456.367000", "105456.369000", "105515.630000", "105515.633000", "105515.635000", "105515.638000", "105515.640000", "105515.643000", "105515.645000", "105515.648000", "105515.650000", "105515.653000", "105515.655000", "105515.658000", "105515.660000", "105515.663000", "105515.665000", "105515.668000", "105515.670000", "105515.673000", "105515.675000", "105515.678000", "105535.641000", "105535.643000", "105535.646000", "105535.648000", "105535.651000", "105535.653000", "105535.656000", "105535.658000", "105535.661000", "105535.663000", "105535.666000", "105535.668000", "105535.671000", "105535.674000", "105535.677000", "105535.679000", "105535.682000", "105535.684000", "105535.687000", "105535.689000", "105535.692000", "105615.672000", "105615.674000", "105615.677000", "105615.679000", "105615.682000", "105615.684000", "105615.687000", "105615.689000", "105615.692000", "105615.694000", "105615.697000", "105615.699000", "105615.702000", "105615.704000", "105615.707000", "105615.709000", "105615.712000", "105615.715000", "105615.717000", "105615.720000", "105615.722000", "105615.725000", "105615.727000", "105615.730000", "105615.732000", "105615.735000", "105615.737000", "105615.740000", "105615.742000", "105615.745000", "105615.747000", "105655.657000", "105655.660000", "105655.663000", "105655.665000", "105655.668000", "105655.670000", "105655.673000", "105655.675000", "105655.678000", "105655.680000", "105655.683000", "105655.685000", "105655.688000", "105655.690000", "105655.693000", "105655.695000", "105655.698000", "105655.701000", "105655.703000", "105655.706000", "105655.708000", "105655.711000", "105655.713000", "105655.716000", "105655.718000", "105655.721000", "105655.723000", "105735.659000", "105735.662000", "105735.665000", "105735.667000", "105735.670000", "105735.672000", "105735.675000", "105735.677000", "105735.680000", "105735.682000", "105735.685000", "105735.687000", "105735.690000", "105735.692000", "105735.695000", "105735.697000", "105735.707000", "105735.710000", "105735.712000", "105735.715000", "105735.717000", "105735.720000", "105735.723000", "105735.725000", "105735.728000", "105735.730000", "105735.733000", "105756.479000", "105756.482000", "105756.485000", "105756.488000", "105756.491000", "105756.494000", "105756.497000", "105756.499000", "105756.502000", "105756.505000", "105756.507000", "105756.510000", "105756.513000", "105756.516000"],
      "InstanceCreationTime": ["105435.714000", "105435.717000", "105435.719000", "105435.722000", "105435.724000", "105435.727000", "105435.729000", "105435.732000", "105435.734000", "105435.737000", "105435.739000", "105435.742000", "105435.744000", "105435.747000", "105435.750000", "105435.752000", "105435.755000", "105435.757000", "105435.760000", "105435.762000", "105435.765000", "105435.767000", "105435.770000", "105435.772000", "105435.784000", "105435.786000", "105435.789000", "105435.791000", "105435.794000", "105435.796000", "105456.321000", "105456.324000", "105456.327000", "105456.329000", "105456.332000", "105456.334000", "105456.337000", "105456.339000", "105456.342000", "105456.344000", "105456.347000", "105456.349000", "105456.352000", "105456.354000", "105456.357000", "105456.359000", "105456.362000", "105456.364000", "105456.367000", "105456.369000", "105515.630000", "105515.633000", "105515.635000", "105515.638000", "105515.640000", "105515.643000", "105515.645000", "105515.648000", "105515.650000", "105515.653000", "105515.655000", "105515.658000", "105515.660000", "105515.663000", "105515.665000", "105515.668000", "105515.670000", "105515.673000", "105515.675000", "105515.678000", "105535.641000", "105535.643000", "105535.646000", "105535.648000", "105535.651000", "105535.653000", "105535.656000", "105535.658000", "105535.661000", "105535.663000", "105535.666000", "105535.668000", "105535.671000", "105535.674000", "105535.677000", "105535.679000", "105535.682000", "105535.684000", "105535.687000", "105535.689000", "105535.692000", "105615.672000", "105615.674000", "105615.677000", "105615.679000", "105615.682000", "105615.684000", "105615.687000", "105615.689000", "105615.692000", "105615.694000", "105615.697000", "105615.699000", "105615.702000", "105615.704000", "105615.707000", "105615.709000", "105615.712000", "105615.715000", "105615.717000", "105615.720000", "105615.722000", "105615.725000", "105615.727000", "105615.730000", "105615.732000", "105615.735000", "105615.737000", "105615.740000", "105615.742000", "105615.745000", "105615.747000", "105655.657000", "105655.660000", "105655.663000", "105655.665000", "105655.668000", "105655.670000", "105655.673000", "105655.675000", "105655.678000", "105655.680000", "105655.683000", "105655.685000", "105655.688000", "105655.690000", "105655.693000", "105655.695000", "105655.698000", "105655.701000", "105655.703000", "105655.706000", "105655.708000", "105655.711000", "105655.713000", "105655.716000", "105655.718000", "105655.721000", "105655.723000", "105735.659000", "105735.662000", "105735.665000", "105735.667000", "105735.670000", "105735.672000", "105735.675000", "105735.677000", "105735.680000", "105735.682000", "105735.685000", "105735.687000", "105735.690000", "105735.692000", "105735.695000", "105735.697000", "105735.707000", "105735.710000", "105735.712000", "105735.715000", "105735.717000", "105735.720000", "105735.723000", "105735.725000", "105735.728000", "105735.730000", "105735.733000", "105756.479000", "105756.482000", "105756.485000", "105756.488000", "105756.491000", "105756.494000", "105756.497000", "105756.499000", "105756.502000", "105756.505000", "105756.507000", "105756.510000", "105756.513000", "105756.516000"],
      "InstanceNumber": [1, 2, 3, 4, 5, 6, 7, 8, 9, 10, 11, 12, 13, 14, 15, 16, 17, 18, 19, 20, 21, 22, 23, 24, 25, 26, 27, 28, 29, 30, 31, 32, 33, 34, 35, 36, 37, 38, 39, 40, 41, 42, 43, 44, 45, 46, 47, 48, 49, 50, 51, 52, 53, 54, 55, 56, 57, 58, 59, 60, 61, 62, 63, 64, 65, 66, 67, 68, 69, 70, 71, 72, 73, 74, 75, 76, 77, 78, 79, 80, 81, 82, 83, 84, 85, 86, 87, 88, 89, 90, 91, 92, 93, 94, 95, 96, 97, 98, 99, 100, 101, 102, 103, 104, 105, 106, 107, 108, 109, 110, 111, 112, 113, 114, 115, 116, 117, 118, 119, 120, 121, 122, 123, 124, 125, 126, 127, 128, 129, 130, 131, 132, 133, 134, 135, 136, 137, 138, 139, 140, 141, 142, 143, 144, 145, 146, 147, 148, 149, 150, 151, 152, 153, 154, 155, 156, 157, 158, 159, 160, 161, 162, 163, 164, 165, 166, 167, 168, 169, 170, 171, 172, 173, 174, 175, 176, 177, 178, 179, 180, 181, 182, 183, 184, 185, 186, 187, 188, 189, 190],
      "WindowCenter": [4798.0, 4798.0, 4798.0, 4796.0, 4798.0, 4798.0, 4798.0, 4794.0, 4798.0, 4798.0, 4796.0, 4800.0, 4800.0, 4802.0, 4800.0, 4802.0, 4794.0, 4798.0, 4800.0, 4778.0, 4796.0, 4776.0, 4774.0, 4800.0, 4798.0, 4798.0, 4800.0, 4800.0, 4798.0, 4794.0, 4794.0, 4802.0, 4796.0, 4794.0, 4774.0, 4800.0, 4796.0, 4800.0, 4796.0, 4800.0, 4810.0, 4798.0, 4794.0, 4798.0, 4802.0, 4802.0, 4772.0, 4794.0, 4798.0, 4796.0, 4802.0, 4796.0, 4806.0, 4798.0, 4798.0, 4794.0, 4794.0, 4774.0, 4774.0, 4798.0, 4800.0, 4774.0, 4800.0, 4802.0, 4796.0, 4802.0, 4796.0, 4798.0, 4796.0, 4800.0, 4798.0, 4798.0, 4800.0, 4798.0, 4804.0, 4798.0, 4802.0, 4798.0, 4798.0, 4796.0, 4802.0, 4798.0, 4800.0, 4776.0, 4796.0, 4802.0, 4800.0, 4800.0, 4774.0, 4794.0, 4798.0, 4796.0, 4802.0, 4800.0, 4796.0, 4804.0, 4800.0, 4806.0, 4798.0, 4800.0, 4800.0, 4798.0, 4798.0, 4798.0, 4796.0, 4802.0, 4798.0, 4800.0, 4796.0, 4800.0, 4800.0, 4798.0, 4804.0, 4796.0, 4800.0, 4798.0, 4796.0, 4798.0, 4776.0, 4794.0, 4800.0, 4798.0, 4802.0, 4804.0, 4800.0, 4776.0, 4802.0, 4798.0, 4800.0, 4800.0, 4800.0, 4798.0, 4806.0, 4798.0, 4798.0, 4796.0, 4800.0, 4776.0, 4798.0, 4802.0, 4774.0, 4800.0, 4810.0, 4774.0, 4802.0, 4798.0, 4802.0, 4800.0, 4798.0, 4802.0, 4800.0, 4802.0, 4800.0, 4802.0, 4798.0, 4800.0, 4804.0, 4798.0, 4800.0, 4798.0, 4802.0, 4800.0, 4800.0, 4800.0, 4802.0, 4802.0, 4804.0, 4798.0, 4796.0, 4776.0, 4800.0, 4800.0, 4798.0, 4798.0, 4800.0, 4800.0, 4804.0, 4798.0, 4810.0, 4800.0, 4798.0, 4774.0, 4796.0, 4804.0, 4802.0, 4780.0, 4774.0, 4774.0, 4802.0, 4776.0],
      "WindowWidth": [18606.0, 18604.0, 18604.0, 18602.0, 18600.0, 18604.0, 18608.0, 18604.0, 18602.0, 18604.0, 18600.0, 18606.0, 18606.0, 18610.0, 18608.0, 18614.0, 18602.0, 18604.0, 18604.0, 18576.0, 18606.0, 18578.0, 18576.0, 18608.0, 18604.0, 18604.0, 18606.0, 18608.0, 18604.0, 18598.0, 18602.0, 18610.0, 18602.0, 18604.0, 18578.0, 18606.0, 18604.0, 18604.0, 18606.0, 18604.0, 18618.0, 18608.0, 18604.0, 18602.0, 18606.0, 18606.0, 18572.0, 18604.0, 18606.0, 18604.0, 18616.0, 18606.0, 18616.0, 18608.0, 18602.0, 18600.0, 18604.0, 18574.0, 18570.0, 18604.0, 18610.0, 18576.0, 18612.0, 18616.0, 18602.0, 18614.0, 18602.0, 18608.0, 18604.0, 18608.0, 18600.0, 18606.0, 18612.0, 18606.0, 18616.0, 18606.0, 18618.0, 18608.0, 18602.0, 18604.0, 18608.0, 18606.0, 18608.0, 18576.0, 18606.0, 18614.0, 18604.0, 18610.0, 18578.0, 18604.0, 18604.0, 18600.0, 18608.0, 18606.0, 18602.0, 18616.0, 18610.0, 18614.0, 18606.0, 18612.0, 18604.0, 18604.0, 18604.0, 18604.0, 18598.0, 18606.0, 18610.0, 18608.0, 18612.0, 18614.0, 18610.0, 18612.0, 18612.0, 18606.0, 18612.0, 18604.0, 18610.0, 18606.0, 18576.0, 18604.0, 18608.0, 18604.0, 18608.0, 18618.0, 18608.0, 18572.0, 18606.0, 18604.0, 18604.0, 18610.0, 18610.0, 18606.0, 18618.0, 18606.0, 18606.0, 18602.0, 18610.0, 18576.0, 18602.0, 18608.0, 18576.0, 18610.0, 18616.0, 18574.0, 18608.0, 18602.0, 18606.0, 18606.0, 18610.0, 18612.0, 18610.0, 18612.0, 18610.0, 18612.0, 18604.0, 18606.0, 18612.0, 18604.0, 18606.0, 18604.0, 18608.0, 18602.0, 18612.0, 18608.0, 18614.0, 18614.0, 18614.0, 18608.0, 18604.0, 18578.0, 18606.0, 18606.0, 18606.0, 18606.0, 18608.0, 18606.0, 18612.0, 18608.0, 18618.0, 18608.0, 18604.0, 18574.0, 18604.0, 18606.0, 18608.0, 18582.0, 18568.0, 18576.0, 18606.0, 18570.0]
    },
    "slices": {}
  }
}