{
  "AcquisitionMatrixPE": 104,
  "AcquisitionNumber": 1,
  "AcquisitionTime": "17:56:32.267500",
  "BandwidthPerPixelPhaseEncode": 17.17,
  "BaseResolution": 104,
  "BodyPartExamined": "BRAIN",
  "CoilString": "HC1-7;NC1_2",
  "ConsistencyInfo": "N4_VE11C_LATEST_20160120",
  "ConversionSoftware": "dcm2niix",
  "ConversionSoftwareVersion": "v1.0.20190902",
  "DerivedVendorReportedEchoSpacing": 0.000560011,
  "DeviceSerialNumber": "167006",
  "DwellTime": 2.1e-06,
  "EchoTime": 0.037,
  "EchoTrainLength": 104,
  "EffectiveEchoSpacing": 0.000560011,
  "FlipAngle": 52,
  "HeudiconvVersion": "0.10.0",
  "ImageComments": "Unaliased_MB4_PE3_LB",
  "ImageOrientationPatientDICOM": [0.996791, 0.0577804, 0.0553963, -0.0337636, 0.930979, -0.363509],
  "ImageType": [
    "ORIGINAL",
    "PRIMARY",
    "M",
    "MB",
    "ND",
    "MOSAIC"
],
  "ImagingFrequency": 123.259,
  "InPlanePhaseEncodingDirectionDICOM": "COL",
  "InstitutionAddress": "Chemin_Queen-Mary_4565_Montreal_District_CA_H3W_1W5",
  "InstitutionName": "IUGM",
  "InstitutionalDepartmentName": "Department",
  "MRAcquisitionType": "2D",
  "MagneticFieldStrength": 3,
  "Manufacturer": "Siemens",
  "ManufacturersModelName": "Prisma_fit",
  "Modality": "MR",
  "MultibandAccelerationFactor": 4,
  "PartialFourier": 1,
  "PatientPosition": "HFS",
  "PercentPhaseFOV": 100,
  "PhaseEncodingDirection": "j",
  "PhaseEncodingSteps": 104,
  "PhaseResolution": 1,
  "PixelBandwidth": 2290,
  "ProcedureStepDescription": "memory_things",
  "ProtocolName": "func_task-things_run-4",
  "PulseSequenceDetails": "%CustomerSeq%_cmrr_mbep2d_bold",
  "ReceiveCoilActiveElements": "HC1-7;NC1,2",
  "ReceiveCoilName": "HeadNeck_64",
  "ReconMatrixPE": 104,
  "RepetitionTime": 1.49,
  "SAR": 0.0467431,
  "ScanOptions": "FS",
  "ScanningSequence": "EP",
  "SequenceName": "epfid2d1_104",
  "SequenceVariant": "SK_SS",
  "SeriesDescription": "func_task-things_run-4",
  "SeriesNumber": 19,
  "ShimSetting": [645, -7175, -8823, 631, 110, 61, -49, -25],
  "SliceThickness": 2,
  "SliceTiming": [0, 0.785, 0.0975, 0.8825, 0.1975, 0.98, 0.295, 1.0775, 0.3925, 1.1775, 0.49, 1.275, 0.5875, 1.3725, 0.6875, 0, 0.785, 0.0975, 0.8825, 0.1975, 0.98, 0.295, 1.0775, 0.3925, 1.1775, 0.49, 1.275, 0.5875, 1.3725, 0.6875, 0, 0.785, 0.0975, 0.8825, 0.1975, 0.98, 0.295, 1.0775, 0.3925, 1.1775, 0.49, 1.275, 0.5875, 1.3725, 0.6875, 0, 0.785, 0.0975, 0.8825, 0.1975, 0.98, 0.295, 1.0775, 0.3925, 1.1775, 0.49, 1.275, 0.5875, 1.3725, 0.6875],
  "SoftwareVersions": "syngo_MR_E11",
  "SpacingBetweenSlices": 2,
  "StationName": "MRC35049",
  "TaskName": "things",
  "TotalReadoutTime": 0.0576811,
  "TxRefAmp": 267.434,
  "WipMemBlock": "7e325d65-1c6b-4444-b841-cddaa4ce4826||Sequence: R016 ve11c/master r/e634e98; Dec 19 2017 11:00:25 by eja",
  "dcmmeta_affine": [
    [-1.9935823678970337, -0.06752724200487137, 0.14515304565429688, 107.15097045898438],
    [-0.1155608743429184, 1.8619571924209595, -0.7209445238113403, -53.555816650390625],
    [0.11079267412424088, 0.7270181179046631, 1.8598843812942505, -67.55842590332031],
    [0.0, 0.0, 0.0, 1.0]
],
  "dcmmeta_reorient_transform": [
    [0.0, -1.0, 0.0, 103.0],
    [1.0, 0.0, 0.0, 0.0],
    [0.0, 0.0, 1.0, 0.0],
    [0.0, 0.0, 0.0, 1.0]
],
  "dcmmeta_shape": [104, 104, 60, 190],
  "dcmmeta_slice_dim": 2,
  "dcmmeta_version": 0.6,
  "global": {
    "const": {
      "AcquisitionMatrix": [104, 0, 0, 104],
      "AngioFlag": "N",
      "BitsAllocated": 16,
      "BitsStored": 16,
      "BodyPartExamined": "BRAIN",
      "Columns": 832,
      "EchoNumbers": 1,
      "EchoTime": 37.0,
      "EchoTrainLength": 104,
      "FlipAngle": 52.0,
      "HighBit": 15,
      "ImageOrientationPatient": [0.99679118510973, 0.05778043742514, 0.0553963386741, -0.0337636207676, 0.93097860959326, -0.3635090733289],
      "ImagePositionPatient": [-801.27973373531, -858.04236354509, 231.63051308256],
      "ImageType": [
        "ORIGINAL",
        "PRIMARY",
        "M",
        "MB",
        "ND",
        "MOSAIC"
],
      "ImagedNucleus": "1H",
      "ImagingFrequency": 123.25891,
      "InPlanePhaseEncodingDirection": "COL",
      "MRAcquisitionType": "2D",
      "MagneticFieldStrength": 3.0,
      "Manufacturer": "SIEMENS",
      "ManufacturerModelName": "Prisma_fit",
      "Modality": "MR",
      "NumberOfAverages": 1.0,
      "NumberOfPhaseEncodingSteps": 104,
      "PercentPhaseFieldOfView": 100.0,
      "PercentSampling": 100.0,
      "PerformedProcedureStepStartTime": "170515.315000",
      "PhotometricInterpretation": "MONOCHROME2",
      "PixelBandwidth": 2290.0,
      "PixelRepresentation": 0,
      "PixelSpacing": [2.0, 2.0],
      "ProtocolName": "func_task-things_run-4",
      "RepetitionTime": 1490.0,
      "Rows": 832,
      "SAR": 0.04674310554192,
      "SamplesPerPixel": 1,
      "ScanOptions": "FS",
      "ScanningSequence": "EP",
      "SequenceName": "epfid2d1_104",
      "SequenceVariant": [
        "SK",
        "SS"
],
      "SeriesDescription": "func_task-things_run-4",
      "SeriesNumber": 19,
      "SeriesTime": "175727.303000",
      "SliceLocation": -35.743397856093,
      "SliceThickness": 2.0,
      "SmallestImagePixelValue": 0,
      "SoftwareVersions": "syngo MR E11",
      "SpacingBetweenSlices": 2.000000035165,
      "SpecificCharacterSet": "ISO_IR 100",
      "StudyID": "1",
      "StudyTime": "170515.169000",
      "TransmitCoilName": "Body",
      "VariableFlipAngleFlag": "N",
      "WindowCenterWidthExplanation": "Algo1",
      "dBdt": 0.0},
    "slices": {}
  },
  "time": {
    "samples": {
      "AcquisitionNumber": [1, 2, 3, 4, 5, 6, 7, 8, 9, 10, 11, 12, 13, 14, 15, 16, 17, 18, 19, 20, 21, 22, 23, 24, 25, 26, 27, 28, 29, 30, 31, 32, 33, 34, 35, 36, 37, 38, 39, 40, 41, 42, 43, 44, 45, 46, 47, 48, 49, 50, 51, 52, 53, 54, 55, 56, 57, 58, 59, 60, 61, 62, 63, 64, 65, 66, 67, 68, 69, 70, 71, 72, 73, 74, 75, 76, 77, 78, 79, 80, 81, 82, 83, 84, 85, 86, 87, 88, 89, 90, 91, 92, 93, 94, 95, 96, 97, 98, 99, 100, 101, 102, 103, 104, 105, 106, 107, 108, 109, 110, 111, 112, 113, 114, 115, 116, 117, 118, 119, 120, 121, 122, 123, 124, 125, 126, 127, 128, 129, 130, 131, 132, 133, 134, 135, 136, 137, 138, 139, 140, 141, 142, 143, 144, 145, 146, 147, 148, 149, 150, 151, 152, 153, 154, 155, 156, 157, 158, 159, 160, 161, 162, 163, 164, 165, 166, 167, 168, 169, 170, 171, 172, 173, 174, 175, 176, 177, 178, 179, 180, 181, 182, 183, 184, 185, 186, 187, 188, 189, 190],
      "AcquisitionTime": ["175632.267500", "175633.757500", "175635.247500", "175636.737500", "175638.227500", "175639.717500", "175641.207500", "175642.697500", "175644.187500", "175645.677500", "175647.167500", "175648.657500", "175650.147500", "175651.637500", "175653.127500", "175654.617500", "175656.107500", "175657.597500", "175659.087500", "175700.577500", "175702.067500", "175703.557500", "175705.047500", "175706.537500", "175708.027500", "175709.517500", "175711.007500", "175712.497500", "175713.987500", "175715.477500", "175716.967500", "175718.457500", "175719.947500", "175721.437500", "175722.927500", "175724.417500", "175725.907500", "175727.397500", "175728.887500", "175730.377500", "175731.867500", "175733.357500", "175734.847500", "175736.337500", "175737.827500", "175739.317500", "175740.807500", "175742.297500", "175743.787500", "175745.277500", "175746.767500", "175748.257500", "175749.747500", "175751.237500", "175752.727500", "175754.217500", "175755.707500", "175757.197500", "175758.687500", "175800.177500", "175801.667500", "175803.157500", "175804.647500", "175806.137500", "175807.627500", "175809.117500", "175810.607500", "175812.097500", "175813.587500", "175815.077500", "175816.567500", "175818.057500", "175819.547500", "175821.037500", "175822.527500", "175824.017500", "175825.507500", "175826.997500", "175828.487500", "175829.977500", "175831.467500", "175832.957500", "175834.447500", "175835.937500", "175837.427500", "175838.917500", "175840.407500", "175841.897500", "175843.387500", "175844.877500", "175846.367500", "175847.857500", "175849.347500", "175850.837500", "175852.327500", "175853.817500", "175855.307500", "175856.797500", "175858.287500", "175859.777500", "175901.267500", "175902.757500", "175904.247500", "175905.737500", "175907.227500", "175908.717500", "175910.207500", "175911.697500", "175913.187500", "175914.677500", "175916.167500", "175917.657500", "175919.147500", "175920.637500", "175922.127500", "175923.617500", "175925.107500", "175926.597500", "175928.087500", "175929.577500", "175931.067500", "175932.557500", "175934.047500", "175935.537500", "175937.027500", "175938.517500", "175940.007500", "175941.497500", "175942.987500", "175944.477500", "175945.967500", "175947.457500", "175948.947500", "175950.437500", "175951.927500", "175953.417500", "175954.907500", "175956.397500", "175957.887500", "175959.377500", "180000.867500", "180002.357500", "180003.847500", "180005.337500", "180006.827500", "180008.317500", "180009.807500", "180011.297500", "180012.787500", "180014.277500", "180015.767500", "180017.257500", "180018.747500", "180020.237500", "180021.727500", "180023.217500", "180024.707500", "180026.197500", "180027.687500", "180029.177500", "180030.667500", "180032.157500", "180033.647500", "180035.137500", "180036.627500", "180038.117500", "180039.607500", "180041.097500", "180042.587500", "180044.077500", "180045.567500", "180047.057500", "180048.547500", "180050.037500", "180051.527500", "180053.017500", "180054.507500", "180055.997500", "180057.487500", "180058.977500", "180100.467500", "180101.957500", "180103.447500", "180104.937500", "180106.427500", "180107.917500", "180109.407500", "180110.897500", "180112.387500", "180113.877500"],
      "ContentTime": ["175727.306000", "175747.266000", "175747.270000", "175747.273000", "175747.277000", "175747.280000", "175747.283000", "175747.287000", "175747.299000", "175747.302000", "175747.305000", "175747.309000", "175747.312000", "175747.315000", "175747.319000", "175747.322000", "175747.325000", "175747.329000", "175747.332000", "175747.335000", "175747.339000", "175807.266000", "175807.270000", "175807.273000", "175807.276000", "175807.280000", "175807.283000", "175807.286000", "175807.290000", "175807.293000", "175807.296000", "175807.300000", "175807.303000", "175807.306000", "175807.309000", "175807.313000", "175807.316000", "175807.319000", "175807.322000", "175807.326000", "175807.329000", "175827.266000", "175827.270000", "175827.273000", "175827.276000", "175827.280000", "175827.283000", "175827.287000", "175827.290000", "175827.293000", "175827.296000", "175827.300000", "175827.303000", "175827.307000", "175827.310000", "175827.313000", "175827.320000", "175827.324000", "175827.327000", "175827.330000", "175827.334000", "175847.266000", "175847.270000", "175847.273000", "175847.276000", "175847.280000", "175847.283000", "175847.286000", "175847.290000", "175847.293000", "175847.296000", "175847.300000", "175847.303000", "175847.306000", "175847.310000", "175847.313000", "175847.316000", "175847.320000", "175847.323000", "175847.326000", "175847.329000", "175847.333000", "175907.266000", "175907.270000", "175907.273000", "175907.276000", "175907.280000", "175907.283000", "175907.286000", "175907.290000", "175907.293000", "175907.296000", "175907.300000", "175907.303000", "175907.306000", "175907.310000", "175907.313000", "175907.316000", "175907.320000", "175907.323000", "175907.326000", "175907.330000", "175947.265000", "175947.269000", "175947.272000", "175947.275000", "175947.279000", "175947.282000", "175947.285000", "175947.289000", "175947.292000", "175947.295000", "175947.299000", "175947.302000", "175947.305000", "175947.309000", "175947.312000", "175947.315000", "175947.319000", "175947.322000", "175947.325000", "175947.329000", "175947.332000", "175947.335000", "175947.339000", "175947.342000", "175947.353000", "175947.356000", "175947.359000", "175947.363000", "180027.266000", "180027.270000", "180027.273000", "180027.277000", "180027.280000", "180027.283000", "180027.286000", "180027.290000", "180027.293000", "180027.296000", "180027.300000", "180027.303000", "180027.306000", "180027.310000", "180027.313000", "180027.316000", "180027.320000", "180027.323000", "180027.326000", "180027.330000", "180027.333000", "180027.336000", "180027.340000", "180027.343000", "180027.346000", "180027.350000", "180027.353000", "180107.266000", "180107.270000", "180107.281000", "180107.284000", "180107.288000", "180107.291000", "180107.295000", "180107.298000", "180107.302000", "180107.305000", "180107.308000", "180107.312000", "180107.315000", "180107.319000", "180107.322000", "180107.325000", "180107.329000", "180107.332000", "180107.336000", "180107.339000", "180107.342000", "180107.346000", "180107.350000", "180107.353000", "180107.357000", "180107.360000", "180116.367000", "180116.371000", "180116.374000", "180116.377000", "180116.381000", "180116.384000", "180116.388000"],
      "InstanceCreationTime": ["175727.306000", "175747.266000", "175747.270000", "175747.273000", "175747.277000", "175747.280000", "175747.283000", "175747.287000", "175747.299000", "175747.302000", "175747.305000", "175747.309000", "175747.312000", "175747.315000", "175747.319000", "175747.322000", "175747.325000", "175747.329000", "175747.332000", "175747.335000", "175747.339000", "175807.266000", "175807.270000", "175807.273000", "175807.276000", "175807.280000", "175807.283000", "175807.286000", "175807.290000", "175807.293000", "175807.296000", "175807.300000", "175807.303000", "175807.306000", "175807.309000", "175807.313000", "175807.316000", "175807.319000", "175807.322000", "175807.326000", "175807.329000", "175827.266000", "175827.270000", "175827.273000", "175827.276000", "175827.280000", "175827.283000", "175827.287000", "175827.290000", "175827.293000", "175827.296000", "175827.300000", "175827.303000", "175827.307000", "175827.310000", "175827.313000", "175827.320000", "175827.324000", "175827.327000", "175827.330000", "175827.334000", "175847.266000", "175847.270000", "175847.273000", "175847.276000", "175847.280000", "175847.283000", "175847.286000", "175847.290000", "175847.293000", "175847.296000", "175847.300000", "175847.303000", "175847.306000", "175847.310000", "175847.313000", "175847.316000", "175847.320000", "175847.323000", "175847.326000", "175847.329000", "175847.333000", "175907.266000", "175907.270000", "175907.273000", "175907.276000", "175907.280000", "175907.283000", "175907.286000", "175907.290000", "175907.293000", "175907.296000", "175907.300000", "175907.303000", "175907.306000", "175907.310000", "175907.313000", "175907.316000", "175907.320000", "175907.323000", "175907.326000", "175907.330000", "175947.265000", "175947.269000", "175947.272000", "175947.275000", "175947.279000", "175947.282000", "175947.285000", "175947.289000", "175947.292000", "175947.295000", "175947.299000", "175947.302000", "175947.305000", "175947.309000", "175947.312000", "175947.315000", "175947.319000", "175947.322000", "175947.325000", "175947.329000", "175947.332000", "175947.335000", "175947.339000", "175947.342000", "175947.353000", "175947.356000", "175947.359000", "175947.363000", "180027.266000", "180027.270000", "180027.273000", "180027.277000", "180027.280000", "180027.283000", "180027.286000", "180027.290000", "180027.293000", "180027.296000", "180027.300000", "180027.303000", "180027.306000", "180027.310000", "180027.313000", "180027.316000", "180027.320000", "180027.323000", "180027.326000", "180027.330000", "180027.333000", "180027.336000", "180027.340000", "180027.343000", "180027.346000", "180027.350000", "180027.353000", "180107.266000", "180107.270000", "180107.281000", "180107.284000", "180107.288000", "180107.291000", "180107.295000", "180107.298000", "180107.302000", "180107.305000", "180107.308000", "180107.312000", "180107.315000", "180107.319000", "180107.322000", "180107.325000", "180107.329000", "180107.332000", "180107.336000", "180107.339000", "180107.342000", "180107.346000", "180107.350000", "180107.353000", "180107.357000", "180107.360000", "180116.367000", "180116.371000", "180116.374000", "180116.377000", "180116.381000", "180116.384000", "180116.388000"],
      "InstanceNumber": [1, 2, 3, 4, 5, 6, 7, 8, 9, 10, 11, 12, 13, 14, 15, 16, 17, 18, 19, 20, 21, 22, 23, 24, 25, 26, 27, 28, 29, 30, 31, 32, 33, 34, 35, 36, 37, 38, 39, 40, 41, 42, 43, 44, 45, 46, 47, 48, 49, 50, 51, 52, 53, 54, 55, 56, 57, 58, 59, 60, 61, 62, 63, 64, 65, 66, 67, 68, 69, 70, 71, 72, 73, 74, 75, 76, 77, 78, 79, 80, 81, 82, 83, 84, 85, 86, 87, 88, 89, 90, 91, 92, 93, 94, 95, 96, 97, 98, 99, 100, 101, 102, 103, 104, 105, 106, 107, 108, 109, 110, 111, 112, 113, 114, 115, 116, 117, 118, 119, 120, 121, 122, 123, 124, 125, 126, 127, 128, 129, 130, 131, 132, 133, 134, 135, 136, 137, 138, 139, 140, 141, 142, 143, 144, 145, 146, 147, 148, 149, 150, 151, 152, 153, 154, 155, 156, 157, 158, 159, 160, 161, 162, 163, 164, 165, 166, 167, 168, 169, 170, 171, 172, 173, 174, 175, 176, 177, 178, 179, 180, 181, 182, 183, 184, 185, 186, 187, 188, 189, 190],
      "LargestImagePixelValue": [46608, 45219, 45072, 43480, 42799, 42969, 43018, 43522, 44714, 42195, 41064, 42584, 42248, 42873, 42819, 42519, 41514, 41965, 41929, 43326, 41827, 41990, 42057, 42346, 42926, 42781, 43071, 43129, 42413, 42846, 43174, 43159, 43544, 42750, 42609, 43011, 42792, 43473, 43563, 43453, 44057, 43196, 44346, 44385, 44146, 44092, 44652, 44750, 43904, 43745, 43743, 43952, 44426, 44047, 43631, 42116, 42081, 42289, 42174, 42955, 43892, 43534, 42563, 42886, 43122, 42522, 43902, 44110, 44315, 43933, 43208, 42709, 42735, 42879, 43440, 42746, 43080, 43637, 43196, 43449, 42919, 42901, 42399, 42538, 42404, 41897, 42627, 40512, 40252, 41312, 40923, 41640, 42472, 42039, 41599, 42611, 41325, 41361, 41992, 41362, 40787, 41631, 41599, 41335, 41244, 41090, 40568, 41520, 41128, 41924, 41808, 41084, 41120, 41240, 41491, 41490, 41320, 41431, 41969, 41406, 40658, 41578, 40785, 41200, 41551, 41244, 41824, 41198, 40561, 40267, 41921, 41552, 41918, 42883, 41996, 41538, 42061, 41388, 42455, 42102, 42184, 41668, 41803, 41424, 41198, 41800, 40495, 41305, 41801, 41100, 41252, 41311, 41122, 41740, 41852, 41867, 40615, 41818, 42557, 41931, 42279, 41890, 41648, 41652, 42901, 42145, 42283, 42607, 42129, 42147, 43076, 42647, 42747, 42800, 41848, 41581, 42099, 40797, 41160, 41267, 40772, 41146, 43276, 43428, 41849, 41377, 42276, 42105, 41839, 42634],
      "WindowCenter": [10533.0, 10477.0, 10445.0, 10423.0, 10423.0, 10425.0, 10414.0, 10419.0, 10438.0, 10427.0, 10435.0, 10453.0, 10437.0, 10432.0, 10425.0, 10439.0, 10451.0, 10451.0, 10431.0, 10422.0, 10400.0, 10400.0, 10426.0, 10444.0, 10450.0, 10450.0, 10448.0, 10431.0, 10433.0, 10452.0, 10452.0, 10447.0, 10442.0, 10424.0, 10421.0, 10428.0, 10436.0, 10461.0, 10463.0, 10457.0, 10448.0, 10438.0, 10465.0, 10483.0, 10487.0, 10495.0, 10479.0, 10450.0, 10418.0, 10423.0, 10426.0, 10435.0, 10458.0, 10452.0, 10432.0, 10405.0, 10404.0, 10404.0, 10409.0, 10428.0, 10433.0, 10435.0, 10440.0, 10441.0, 10435.0, 10423.0, 10433.0, 10444.0, 10452.0, 10443.0, 10436.0, 10424.0, 10431.0, 10428.0, 10427.0, 10439.0, 10456.0, 10456.0, 10449.0, 10457.0, 10448.0, 10439.0, 10445.0, 10460.0, 10462.0, 10440.0, 10465.0, 10460.0, 10436.0, 10428.0, 10426.0, 10450.0, 10462.0, 10451.0, 10454.0, 10450.0, 10429.0, 10426.0, 10430.0, 10426.0, 10427.0, 10425.0, 10415.0, 10417.0, 10417.0, 10409.0, 10412.0, 10442.0, 10441.0, 10436.0, 10418.0, 10403.0, 10408.0, 10405.0, 10397.0, 10409.0, 10433.0, 10437.0, 10434.0, 10410.0, 10401.0, 10405.0, 10399.0, 10430.0, 10440.0, 10432.0, 10431.0, 10423.0, 10416.0, 10419.0, 10450.0, 10452.0, 10467.0, 10454.0, 10416.0, 10406.0, 10404.0, 10406.0, 10442.0, 10446.0, 10432.0, 10425.0, 10414.0, 10407.0, 10412.0, 10409.0, 10391.0, 10405.0, 10409.0, 10404.0, 10413.0, 10421.0, 10430.0, 10439.0, 10437.0, 10427.0, 10410.0, 10446.0, 10461.0, 10452.0, 10449.0, 10432.0, 10414.0, 10407.0, 10423.0, 10418.0, 10429.0, 10436.0, 10430.0, 10438.0, 10437.0, 10420.0, 10424.0, 10424.0, 10408.0, 10411.0, 10415.0, 10390.0, 10403.0, 10410.0, 10408.0, 10424.0, 10439.0, 10455.0, 10467.0, 10456.0, 10434.0, 10412.0, 10387.0, 10382.0],
      "WindowWidth": [22376.0, 22236.0, 22145.0, 22092.0, 22094.0, 22098.0, 22069.0, 22076.0, 22116.0, 22103.0, 22127.0, 22157.0, 22121.0, 22105.0, 22092.0, 22127.0, 22162.0, 22158.0, 22106.0, 22079.0, 22032.0, 22038.0, 22099.0, 22138.0, 22149.0, 22149.0, 22145.0, 22107.0, 22114.0, 22160.0, 22158.0, 22142.0, 22128.0, 22090.0, 22083.0, 22097.0, 22115.0, 22174.0, 22178.0, 22167.0, 22141.0, 22125.0, 22184.0, 22223.0, 22231.0, 22252.0, 22212.0, 22142.0, 22072.0, 22086.0, 22096.0, 22117.0, 22167.0, 22151.0, 22108.0, 22043.0, 22042.0, 22043.0, 22053.0, 22100.0, 22108.0, 22113.0, 22129.0, 22130.0, 22113.0, 22089.0, 22106.0, 22140.0, 22150.0, 22127.0, 22116.0, 22092.0, 22109.0, 22099.0, 22095.0, 22129.0, 22168.0, 22163.0, 22149.0, 22168.0, 22145.0, 22122.0, 22141.0, 22175.0, 22182.0, 22135.0, 22190.0, 22189.0, 22135.0, 22110.0, 22105.0, 22160.0, 22182.0, 22161.0, 22169.0, 22154.0, 22109.0, 22101.0, 22107.0, 22105.0, 22104.0, 22094.0, 22072.0, 22078.0, 22076.0, 22056.0, 22068.0, 22134.0, 22138.0, 22118.0, 22076.0, 22049.0, 22060.0, 22050.0, 22030.0, 22058.0, 22116.0, 22126.0, 22117.0, 22058.0, 22041.0, 22047.0, 22039.0, 22110.0, 22134.0, 22117.0, 22111.0, 22092.0, 22074.0, 22085.0, 22150.0, 22155.0, 22190.0, 22157.0, 22074.0, 22052.0, 22048.0, 22056.0, 22134.0, 22144.0, 22111.0, 22104.0, 22069.0, 22053.0, 22065.0, 22056.0, 22018.0, 22047.0, 22054.0, 22044.0, 22064.0, 22083.0, 22106.0, 22128.0, 22119.0, 22092.0, 22062.0, 22143.0, 22173.0, 22157.0, 22148.0, 22109.0, 22067.0, 22056.0, 22085.0, 22077.0, 22104.0, 22119.0, 22107.0, 22124.0, 22119.0, 22082.0, 22089.0, 22086.0, 22051.0, 22061.0, 22064.0, 22014.0, 22042.0, 22055.0, 22055.0, 22092.0, 22118.0, 22154.0, 22193.0, 22171.0, 22112.0, 22059.0, 22006.0, 21992.0]
    },
    "slices": {}
  }
}