{
  "AcquisitionMatrixPE": 104,
  "AcquisitionNumber": 1,
  "AcquisitionTime": "17:50:25.792500",
  "BandwidthPerPixelPhaseEncode": 17.17,
  "BaseResolution": 104,
  "BodyPartExamined": "BRAIN",
  "CoilString": "HC1-7;NC1_2",
  "ConsistencyInfo": "N4_VE11C_LATEST_20160120",
  "ConversionSoftware": "dcm2niix",
  "ConversionSoftwareVersion": "v1.0.20190902",
  "DerivedVendorReportedEchoSpacing": 0.000560011,
  "DeviceSerialNumber": "167006",
  "DwellTime": 2.1e-06,
  "EchoTime": 0.037,
  "EchoTrainLength": 104,
  "EffectiveEchoSpacing": 0.000560011,
  "FlipAngle": 52,
  "HeudiconvVersion": "0.10.0",
  "ImageComments": "Unaliased_MB4_PE3_LB",
  "ImageOrientationPatientDICOM": [0.996791, 0.0577804, 0.0553963, -0.0337636, 0.930979, -0.363509],
  "ImageType": [
    "ORIGINAL",
    "PRIMARY",
    "M",
    "MB",
    "ND",
    "MOSAIC"
],
  "ImagingFrequency": 123.259,
  "InPlanePhaseEncodingDirectionDICOM": "COL",
  "InstitutionAddress": "Chemin_Queen-Mary_4565_Montreal_District_CA_H3W_1W5",
  "InstitutionName": "IUGM",
  "InstitutionalDepartmentName": "Department",
  "MRAcquisitionType": "2D",
  "MagneticFieldStrength": 3,
  "Manufacturer": "Siemens",
  "ManufacturersModelName": "Prisma_fit",
  "Modality": "MR",
  "MultibandAccelerationFactor": 4,
  "PartialFourier": 1,
  "PatientPosition": "HFS",
  "PercentPhaseFOV": 100,
  "PhaseEncodingDirection": "j",
  "PhaseEncodingSteps": 104,
  "PhaseResolution": 1,
  "PixelBandwidth": 2290,
  "ProcedureStepDescription": "memory_things",
  "ProtocolName": "func_task-things_run-3",
  "PulseSequenceDetails": "%CustomerSeq%_cmrr_mbep2d_bold",
  "ReceiveCoilActiveElements": "HC1-7;NC1,2",
  "ReceiveCoilName": "HeadNeck_64",
  "ReconMatrixPE": 104,
  "RepetitionTime": 1.49,
  "SAR": 0.0467431,
  "ScanOptions": "FS",
  "ScanningSequence": "EP",
  "SequenceName": "epfid2d1_104",
  "SequenceVariant": "SK_SS",
  "SeriesDescription": "func_task-things_run-3",
  "SeriesNumber": 16,
  "ShimSetting": [645, -7175, -8823, 631, 110, 61, -49, -25],
  "SliceThickness": 2,
  "SliceTiming": [0, 0.7825, 0.0975, 0.8825, 0.195, 0.98, 0.295, 1.0775, 0.3925, 1.175, 0.49, 1.2725, 0.5875, 1.3725, 0.685, 0, 0.7825, 0.0975, 0.8825, 0.195, 0.98, 0.295, 1.0775, 0.3925, 1.175, 0.49, 1.2725, 0.5875, 1.3725, 0.685, 0, 0.7825, 0.0975, 0.8825, 0.195, 0.98, 0.295, 1.0775, 0.3925, 1.175, 0.49, 1.2725, 0.5875, 1.3725, 0.685, 0, 0.7825, 0.0975, 0.8825, 0.195, 0.98, 0.295, 1.0775, 0.3925, 1.175, 0.49, 1.2725, 0.5875, 1.3725, 0.685],
  "SoftwareVersions": "syngo_MR_E11",
  "SpacingBetweenSlices": 2,
  "StationName": "MRC35049",
  "TaskName": "things",
  "TotalReadoutTime": 0.0576811,
  "TxRefAmp": 267.434,
  "WipMemBlock": "0fed2cf2-f4df-4c38-90e5-563a50e93788||Sequence: R016 ve11c/master r/e634e98; Dec 19 2017 11:00:25 by eja",
  "dcmmeta_affine": [
    [-1.9935823678970337, -0.06752724200487137, 0.14515304565429688, 107.15097045898438],
    [-0.1155608743429184, 1.8619571924209595, -0.7209445238113403, -53.555816650390625],
    [0.11079267412424088, 0.7270181179046631, 1.8598843812942505, -67.55842590332031],
    [0.0, 0.0, 0.0, 1.0]
],
  "dcmmeta_reorient_transform": [
    [0.0, -1.0, 0.0, 103.0],
    [1.0, 0.0, 0.0, 0.0],
    [0.0, 0.0, 1.0, 0.0],
    [0.0, 0.0, 0.0, 1.0]
],
  "dcmmeta_shape": [104, 104, 60, 190],
  "dcmmeta_slice_dim": 2,
  "dcmmeta_version": 0.6,
  "global": {
    "const": {
      "AcquisitionMatrix": [104, 0, 0, 104],
      "AngioFlag": "N",
      "BitsAllocated": 16,
      "BitsStored": 16,
      "BodyPartExamined": "BRAIN",
      "Columns": 832,
      "EchoNumbers": 1,
      "EchoTime": 37.0,
      "EchoTrainLength": 104,
      "FlipAngle": 52.0,
      "HighBit": 15,
      "ImageOrientationPatient": [0.99679118510973, 0.05778043742514, 0.0553963386741, -0.0337636207676, 0.93097860959326, -0.3635090733289],
      "ImagePositionPatient": [-801.27973373531, -858.04236354509, 231.63051308256],
      "ImageType": [
        "ORIGINAL",
        "PRIMARY",
        "M",
        "MB",
        "ND",
        "MOSAIC"
],
      "ImagedNucleus": "1H",
      "ImagingFrequency": 123.258906,
      "InPlanePhaseEncodingDirection": "COL",
      "MRAcquisitionType": "2D",
      "MagneticFieldStrength": 3.0,
      "Manufacturer": "SIEMENS",
      "ManufacturerModelName": "Prisma_fit",
      "Modality": "MR",
      "NumberOfAverages": 1.0,
      "NumberOfPhaseEncodingSteps": 104,
      "PercentPhaseFieldOfView": 100.0,
      "PercentSampling": 100.0,
      "PerformedProcedureStepStartTime": "170515.315000",
      "PhotometricInterpretation": "MONOCHROME2",
      "PixelBandwidth": 2290.0,
      "PixelRepresentation": 0,
      "PixelSpacing": [2.0, 2.0],
      "ProtocolName": "func_task-things_run-3",
      "RepetitionTime": 1490.0,
      "Rows": 832,
      "SAR": 0.04674310554192,
      "SamplesPerPixel": 1,
      "ScanOptions": "FS",
      "ScanningSequence": "EP",
      "SequenceName": "epfid2d1_104",
      "SequenceVariant": [
        "SK",
        "SS"
],
      "SeriesDescription": "func_task-things_run-3",
      "SeriesNumber": 16,
      "SeriesTime": "175152.811000",
      "SliceLocation": -35.743397856093,
      "SliceThickness": 2.0,
      "SmallestImagePixelValue": 0,
      "SoftwareVersions": "syngo MR E11",
      "SpacingBetweenSlices": 2.000000035165,
      "SpecificCharacterSet": "ISO_IR 100",
      "StudyID": "1",
      "StudyTime": "170515.169000",
      "TransmitCoilName": "Body",
      "VariableFlipAngleFlag": "N",
      "WindowCenterWidthExplanation": "Algo1",
      "dBdt": 0.0},
    "slices": {}
  },
  "time": {
    "samples": {
      "AcquisitionNumber": [1, 2, 3, 4, 5, 6, 7, 8, 9, 10, 11, 12, 13, 14, 15, 16, 17, 18, 19, 20, 21, 22, 23, 24, 25, 26, 27, 28, 29, 30, 31, 32, 33, 34, 35, 36, 37, 38, 39, 40, 41, 42, 43, 44, 45, 46, 47, 48, 49, 50, 51, 52, 53, 54, 55, 56, 57, 58, 59, 60, 61, 62, 63, 64, 65, 66, 67, 68, 69, 70, 71, 72, 73, 74, 75, 76, 77, 78, 79, 80, 81, 82, 83, 84, 85, 86, 87, 88, 89, 90, 91, 92, 93, 94, 95, 96, 97, 98, 99, 100, 101, 102, 103, 104, 105, 106, 107, 108, 109, 110, 111, 112, 113, 114, 115, 116, 117, 118, 119, 120, 121, 122, 123, 124, 125, 126, 127, 128, 129, 130, 131, 132, 133, 134, 135, 136, 137, 138, 139, 140, 141, 142, 143, 144, 145, 146, 147, 148, 149, 150, 151, 152, 153, 154, 155, 156, 157, 158, 159, 160, 161, 162, 163, 164, 165, 166, 167, 168, 169, 170, 171, 172, 173, 174, 175, 176, 177, 178, 179, 180, 181, 182, 183, 184, 185, 186, 187, 188, 189, 190],
      "AcquisitionTime": ["175025.792500", "175027.282500", "175028.772500", "175030.262500", "175031.752500", "175033.242500", "175034.732500", "175036.222500", "175037.712500", "175039.202500", "175040.692500", "175042.182500", "175043.672500", "175045.162500", "175046.652500", "175048.142500", "175049.632500", "175051.122500", "175052.612500", "175054.102500", "175055.592500", "175057.082500", "175058.572500", "175100.062500", "175101.552500", "175103.042500", "175104.532500", "175106.022500", "175107.512500", "175109.002500", "175110.492500", "175111.982500", "175113.472500", "175114.962500", "175116.452500", "175117.942500", "175119.432500", "175120.922500", "175122.412500", "175123.902500", "175125.392500", "175126.882500", "175128.372500", "175129.862500", "175131.352500", "175132.842500", "175134.332500", "175135.822500", "175137.312500", "175138.802500", "175140.292500", "175141.782500", "175143.272500", "175144.762500", "175146.252500", "175147.742500", "175149.232500", "175150.722500", "175152.212500", "175153.702500", "175155.192500", "175156.682500", "175158.172500", "175159.662500", "175201.152500", "175202.642500", "175204.132500", "175205.622500", "175207.112500", "175208.602500", "175210.092500", "175211.582500", "175213.072500", "175214.562500", "175216.052500", "175217.542500", "175219.032500", "175220.522500", "175222.012500", "175223.502500", "175224.992500", "175226.482500", "175227.972500", "175229.462500", "175230.952500", "175232.442500", "175233.932500", "175235.422500", "175236.912500", "175238.402500", "175239.892500", "175241.382500", "175242.872500", "175244.362500", "175245.852500", "175247.342500", "175248.832500", "175250.322500", "175251.812500", "175253.302500", "175254.792500", "175256.282500", "175257.772500", "175259.262500", "175300.752500", "175302.242500", "175303.732500", "175305.222500", "175306.712500", "175308.202500", "175309.692500", "175311.182500", "175312.672500", "175314.162500", "175315.652500", "175317.142500", "175318.632500", "175320.122500", "175321.612500", "175323.102500", "175324.592500", "175326.082500", "175327.572500", "175329.062500", "175330.552500", "175332.042500", "175333.532500", "175335.022500", "175336.512500", "175338.002500", "175339.492500", "175340.982500", "175342.472500", "175343.962500", "175345.452500", "175346.942500", "175348.432500", "175349.922500", "175351.412500", "175352.902500", "175354.392500", "175355.882500", "175357.372500", "175358.862500", "175400.352500", "175401.842500", "175403.332500", "175404.822500", "175406.312500", "175407.802500", "175409.292500", "175410.782500", "175412.272500", "175413.762500", "175415.252500", "175416.742500", "175418.232500", "175419.722500", "175421.212500", "175422.702500", "175424.192500", "175425.682500", "175427.172500", "175428.662500", "175430.152500", "175431.642500", "175433.132500", "175434.622500", "175436.112500", "175437.602500", "175439.092500", "175440.582500", "175442.072500", "175443.562500", "175445.052500", "175446.542500", "175448.032500", "175449.522500", "175451.012500", "175452.502500", "175453.992500", "175455.482500", "175456.972500", "175458.462500", "175459.952500", "175501.442500", "175502.932500", "175504.422500", "175505.912500", "175507.402500"],
      "ContentTime": ["175152.814000", "175152.818000", "175152.821000", "175152.828000", "175152.831000", "175152.834000", "175152.838000", "175152.841000", "175152.845000", "175152.848000", "175152.851000", "175152.855000", "175152.858000", "175152.861000", "175152.864000", "175152.868000", "175152.871000", "175152.874000", "175152.878000", "175152.881000", "175152.884000", "175152.887000", "175152.891000", "175152.894000", "175152.897000", "175152.901000", "175152.904000", "175152.907000", "175152.910000", "175152.914000", "175152.917000", "175152.927000", "175152.930000", "175212.782000", "175212.786000", "175212.789000", "175212.793000", "175212.796000", "175212.799000", "175212.802000", "175212.806000", "175212.809000", "175212.813000", "175212.816000", "175212.819000", "175212.824000", "175212.827000", "175212.830000", "175212.834000", "175212.837000", "175212.840000", "175212.844000", "175212.847000", "175232.783000", "175232.787000", "175232.790000", "175232.794000", "175232.797000", "175232.800000", "175232.820000", "175232.823000", "175232.826000", "175232.830000", "175232.833000", "175232.836000", "175232.840000", "175232.843000", "175232.846000", "175232.850000", "175232.853000", "175232.856000", "175232.860000", "175232.863000", "175252.783000", "175252.787000", "175252.790000", "175252.793000", "175252.797000", "175252.800000", "175252.803000", "175252.807000", "175252.810000", "175252.813000", "175252.817000", "175252.828000", "175252.831000", "175252.835000", "175252.838000", "175252.842000", "175252.845000", "175252.848000", "175252.852000", "175252.855000", "175332.782000", "175332.786000", "175332.789000", "175332.799000", "175332.802000", "175332.805000", "175332.808000", "175332.812000", "175332.815000", "175332.819000", "175332.822000", "175332.825000", "175332.829000", "175332.832000", "175332.835000", "175332.839000", "175332.842000", "175332.845000", "175332.849000", "175332.852000", "175332.855000", "175332.858000", "175332.862000", "175332.865000", "175332.868000", "175332.872000", "175332.875000", "175332.878000", "175332.881000", "175332.885000", "175332.888000", "175332.891000", "175412.782000", "175412.786000", "175412.789000", "175412.793000", "175412.796000", "175412.799000", "175412.803000", "175412.807000", "175412.811000", "175412.814000", "175412.817000", "175412.821000", "175412.824000", "175412.828000", "175412.831000", "175412.834000", "175412.838000", "175412.841000", "175412.844000", "175412.848000", "175412.851000", "175412.854000", "175412.858000", "175412.861000", "175412.865000", "175412.868000", "175452.783000", "175452.787000", "175452.790000", "175452.794000", "175452.797000", "175452.801000", "175452.804000", "175452.807000", "175452.811000", "175452.825000", "175452.828000", "175452.842000", "175452.845000", "175452.849000", "175452.852000", "175452.855000", "175452.858000", "175452.862000", "175452.865000", "175452.868000", "175452.872000", "175452.875000", "175452.878000", "175452.882000", "175452.885000", "175452.888000", "175452.892000", "175509.616000", "175509.620000", "175509.623000", "175509.626000", "175509.630000", "175509.633000", "175509.636000", "175509.640000", "175509.643000", "175509.646000", "175509.650000", "175509.653000"],
      "InstanceCreationTime": ["175152.814000", "175152.818000", "175152.821000", "175152.828000", "175152.831000", "175152.834000", "175152.838000", "175152.841000", "175152.845000", "175152.848000", "175152.851000", "175152.855000", "175152.858000", "175152.861000", "175152.864000", "175152.868000", "175152.871000", "175152.874000", "175152.878000", "175152.881000", "175152.884000", "175152.887000", "175152.891000", "175152.894000", "175152.897000", "175152.901000", "175152.904000", "175152.907000", "175152.910000", "175152.914000", "175152.917000", "175152.927000", "175152.930000", "175212.782000", "175212.786000", "175212.789000", "175212.793000", "175212.796000", "175212.799000", "175212.802000", "175212.806000", "175212.809000", "175212.813000", "175212.816000", "175212.819000", "175212.824000", "175212.827000", "175212.830000", "175212.834000", "175212.837000", "175212.840000", "175212.844000", "175212.847000", "175232.783000", "175232.787000", "175232.790000", "175232.794000", "175232.797000", "175232.800000", "175232.820000", "175232.823000", "175232.826000", "175232.830000", "175232.833000", "175232.836000", "175232.840000", "175232.843000", "175232.846000", "175232.850000", "175232.853000", "175232.856000", "175232.860000", "175232.863000", "175252.783000", "175252.787000", "175252.790000", "175252.793000", "175252.797000", "175252.800000", "175252.803000", "175252.807000", "175252.810000", "175252.813000", "175252.817000", "175252.828000", "175252.831000", "175252.835000", "175252.838000", "175252.842000", "175252.845000", "175252.848000", "175252.852000", "175252.855000", "175332.782000", "175332.786000", "175332.789000", "175332.799000", "175332.802000", "175332.805000", "175332.808000", "175332.812000", "175332.815000", "175332.819000", "175332.822000", "175332.825000", "175332.829000", "175332.832000", "175332.835000", "175332.839000", "175332.842000", "175332.845000", "175332.849000", "175332.852000", "175332.855000", "175332.858000", "175332.862000", "175332.865000", "175332.868000", "175332.872000", "175332.875000", "175332.878000", "175332.881000", "175332.885000", "175332.888000", "175332.891000", "175412.782000", "175412.786000", "175412.789000", "175412.793000", "175412.796000", "175412.799000", "175412.803000", "175412.807000", "175412.811000", "175412.814000", "175412.817000", "175412.821000", "175412.824000", "175412.828000", "175412.831000", "175412.834000", "175412.838000", "175412.841000", "175412.844000", "175412.848000", "175412.851000", "175412.854000", "175412.858000", "175412.861000", "175412.865000", "175412.868000", "175452.783000", "175452.787000", "175452.790000", "175452.794000", "175452.797000", "175452.801000", "175452.804000", "175452.807000", "175452.811000", "175452.825000", "175452.828000", "175452.842000", "175452.845000", "175452.849000", "175452.852000", "175452.855000", "175452.858000", "175452.862000", "175452.865000", "175452.868000", "175452.872000", "175452.875000", "175452.878000", "175452.882000", "175452.885000", "175452.888000", "175452.892000", "175509.616000", "175509.620000", "175509.623000", "175509.626000", "175509.630000", "175509.633000", "175509.636000", "175509.640000", "175509.643000", "175509.646000", "175509.650000", "175509.653000"],
      "InstanceNumber": [1, 2, 3, 4, 5, 6, 7, 8, 9, 10, 11, 12, 13, 14, 15, 16, 17, 18, 19, 20, 21, 22, 23, 24, 25, 26, 27, 28, 29, 30, 31, 32, 33, 34, 35, 36, 37, 38, 39, 40, 41, 42, 43, 44, 45, 46, 47, 48, 49, 50, 51, 52, 53, 54, 55, 56, 57, 58, 59, 60, 61, 62, 63, 64, 65, 66, 67, 68, 69, 70, 71, 72, 73, 74, 75, 76, 77, 78, 79, 80, 81, 82, 83, 84, 85, 86, 87, 88, 89, 90, 91, 92, 93, 94, 95, 96, 97, 98, 99, 100, 101, 102, 103, 104, 105, 106, 107, 108, 109, 110, 111, 112, 113, 114, 115, 116, 117, 118, 119, 120, 121, 122, 123, 124, 125, 126, 127, 128, 129, 130, 131, 132, 133, 134, 135, 136, 137, 138, 139, 140, 141, 142, 143, 144, 145, 146, 147, 148, 149, 150, 151, 152, 153, 154, 155, 156, 157, 158, 159, 160, 161, 162, 163, 164, 165, 166, 167, 168, 169, 170, 171, 172, 173, 174, 175, 176, 177, 178, 179, 180, 181, 182, 183, 184, 185, 186, 187, 188, 189, 190],
      "LargestImagePixelValue": [45964, 44920, 44033, 43498, 42840, 42939, 43138, 43029, 42879, 43151, 42680, 42594, 42787, 42543, 43195, 43757, 42734, 43067, 43725, 43387, 43394, 43664, 43615, 43791, 42145, 43590, 43443, 42873, 42624, 43058, 43607, 43463, 43380, 43098, 42856, 42955, 42923, 43271, 43202, 43238, 43725, 43998, 44003, 43635, 43334, 43498, 44092, 44217, 43871, 44059, 44233, 44676, 45507, 44373, 44723, 44103, 44309, 43457, 43379, 43782, 43755, 43619, 43554, 43520, 43741, 43840, 44251, 44313, 44188, 43924, 43860, 43969, 44256, 43906, 43164, 43270, 43858, 43680, 43644, 42958, 42400, 41837, 42070, 43052, 43020, 43160, 42678, 42740, 41458, 39664, 44014, 44098, 43283, 42738, 41614, 41999, 43075, 43097, 42993, 42806, 42931, 42956, 43157, 42461, 44240, 43923, 44667, 43568, 43725, 44048, 44342, 43903, 44112, 43102, 43284, 43735, 43911, 44333, 43650, 43157, 42891, 43238, 43123, 42667, 42732, 43162, 42961, 42952, 43604, 43510, 43946, 43645, 43248, 42970, 42330, 42059, 42547, 42717, 43177, 41925, 40901, 39965, 40149, 41048, 41548, 41354, 41234, 40867, 40648, 41119, 40487, 39939, 39864, 39832, 39954, 40017, 39625, 39273, 40162, 39540, 39717, 39751, 39942, 39994, 39994, 39822, 39680, 39693, 39729, 39259, 39499, 40667, 40322, 40129, 39696, 39481, 39785, 39869, 39743, 39491, 39015, 38810, 39205, 39124, 38629, 39324, 39087, 39098, 39714, 39307],
      "WindowCenter": [10554.0, 10521.0, 10500.0, 10491.0, 10502.0, 10504.0, 10492.0, 10467.0, 10445.0, 10427.0, 10418.0, 10442.0, 10454.0, 10462.0, 10470.0, 10475.0, 10480.0, 10487.0, 10484.0, 10475.0, 10466.0, 10476.0, 10486.0, 10494.0, 10475.0, 10493.0, 10485.0, 10463.0, 10462.0, 10496.0, 10503.0, 10496.0, 10479.0, 10478.0, 10488.0, 10471.0, 10472.0, 10485.0, 10479.0, 10478.0, 10489.0, 10485.0, 10479.0, 10464.0, 10457.0, 10463.0, 10486.0, 10488.0, 10467.0, 10489.0, 10510.0, 10508.0, 10500.0, 10490.0, 10482.0, 10470.0, 10457.0, 10459.0, 10485.0, 10502.0, 10489.0, 10475.0, 10467.0, 10459.0, 10480.0, 10502.0, 10504.0, 10501.0, 10493.0, 10485.0, 10495.0, 10496.0, 10480.0, 10467.0, 10455.0, 10464.0, 10490.0, 10494.0, 10480.0, 10457.0, 10440.0, 10432.0, 10441.0, 10451.0, 10445.0, 10443.0, 10438.0, 10436.0, 10451.0, 10461.0, 10507.0, 10490.0, 10442.0, 10414.0, 10399.0, 10416.0, 10469.0, 10501.0, 10505.0, 10480.0, 10459.0, 10447.0, 10446.0, 10453.0, 10490.0, 10515.0, 10522.0, 10490.0, 10475.0, 10467.0, 10476.0, 10471.0, 10472.0, 10462.0, 10479.0, 10515.0, 10509.0, 10498.0, 10473.0, 10456.0, 10460.0, 10478.0, 10478.0, 10464.0, 10462.0, 10470.0, 10472.0, 10500.0, 10518.0, 10507.0, 10489.0, 10488.0, 10482.0, 10463.0, 10442.0, 10442.0, 10446.0, 10460.0, 10492.0, 10476.0, 10455.0, 10424.0, 10394.0, 10388.0, 10408.0, 10426.0, 10464.0, 10474.0, 10465.0, 10447.0, 10430.0, 10415.0, 10418.0, 10443.0, 10460.0, 10441.0, 10422.0, 10416.0, 10424.0, 10430.0, 10438.0, 10431.0, 10430.0, 10427.0, 10445.0, 10457.0, 10451.0, 10444.0, 10441.0, 10450.0, 10445.0, 10451.0, 10443.0, 10455.0, 10455.0, 10441.0, 10430.0, 10436.0, 10442.0, 10435.0, 10418.0, 10413.0, 10421.0, 10416.0, 10415.0, 10445.0, 10444.0, 10437.0, 10442.0, 10428.0],
      "WindowWidth": [22418.0, 22331.0, 22270.0, 22247.0, 22273.0, 22277.0, 22242.0, 22182.0, 22126.0, 22082.0, 22068.0, 22124.0, 22154.0, 22171.0, 22189.0, 22198.0, 22215.0, 22228.0, 22217.0, 22197.0, 22177.0, 22202.0, 22228.0, 22242.0, 22202.0, 22241.0, 22218.0, 22168.0, 22170.0, 22252.0, 22267.0, 22250.0, 22210.0, 22208.0, 22240.0, 22192.0, 22198.0, 22227.0, 22210.0, 22210.0, 22233.0, 22225.0, 22203.0, 22170.0, 22156.0, 22173.0, 22225.0, 22229.0, 22178.0, 22231.0, 22283.0, 22279.0, 22255.0, 22235.0, 22215.0, 22183.0, 22152.0, 22162.0, 22224.0, 22262.0, 22234.0, 22195.0, 22179.0, 22164.0, 22211.0, 22265.0, 22270.0, 22258.0, 22238.0, 22219.0, 22247.0, 22253.0, 22216.0, 22181.0, 22153.0, 22184.0, 22237.0, 22245.0, 22213.0, 22161.0, 22119.0, 22104.0, 22124.0, 22138.0, 22130.0, 22124.0, 22111.0, 22110.0, 22158.0, 22193.0, 22280.0, 22235.0, 22125.0, 22057.0, 22029.0, 22070.0, 22191.0, 22267.0, 22274.0, 22213.0, 22164.0, 22134.0, 22132.0, 22151.0, 22237.0, 22295.0, 22304.0, 22239.0, 22200.0, 22181.0, 22205.0, 22196.0, 22194.0, 22175.0, 22213.0, 22297.0, 22283.0, 22254.0, 22195.0, 22155.0, 22165.0, 22209.0, 22206.0, 22177.0, 22173.0, 22190.0, 22199.0, 22267.0, 22305.0, 22281.0, 22231.0, 22233.0, 22222.0, 22176.0, 22131.0, 22130.0, 22135.0, 22173.0, 22253.0, 22217.0, 22172.0, 22102.0, 22028.0, 22015.0, 22057.0, 22102.0, 22193.0, 22223.0, 22200.0, 22159.0, 22121.0, 22084.0, 22090.0, 22154.0, 22189.0, 22138.0, 22094.0, 22083.0, 22096.0, 22119.0, 22135.0, 22117.0, 22114.0, 22107.0, 22150.0, 22178.0, 22165.0, 22150.0, 22142.0, 22166.0, 22153.0, 22159.0, 22143.0, 22173.0, 22174.0, 22141.0, 22114.0, 22129.0, 22146.0, 22129.0, 22090.0, 22074.0, 22093.0, 22087.0, 22082.0, 22149.0, 22154.0, 22137.0, 22147.0, 22116.0]
    },
    "slices": {}
  }
}