{
  "AcquisitionMatrixPE": 104,
  "AcquisitionNumber": 1,
  "AcquisitionTime": "18:08:51.615000",
  "BandwidthPerPixelPhaseEncode": 17.17,
  "BaseResolution": 104,
  "BodyPartExamined": "BRAIN",
  "CoilString": "HC1-7;NC1_2",
  "ConsistencyInfo": "N4_VE11C_LATEST_20160120",
  "ConversionSoftware": "dcm2niix",
  "ConversionSoftwareVersion": "v1.0.20190902",
  "DerivedVendorReportedEchoSpacing": 0.000560011,
  "DeviceSerialNumber": "167006",
  "DwellTime": 2.1e-06,
  "EchoTime": 0.037,
  "EchoTrainLength": 104,
  "EffectiveEchoSpacing": 0.000560011,
  "FlipAngle": 52,
  "HeudiconvVersion": "0.10.0",
  "ImageComments": "Unaliased_MB4_PE3_LB",
  "ImageOrientationPatientDICOM": [0.996791, 0.0577804, 0.0553963, -0.0337636, 0.930979, -0.363509],
  "ImageType": [
    "ORIGINAL",
    "PRIMARY",
    "M",
    "MB",
    "ND",
    "MOSAIC"
],
  "ImagingFrequency": 123.259,
  "InPlanePhaseEncodingDirectionDICOM": "COL",
  "InstitutionAddress": "Chemin_Queen-Mary_4565_Montreal_District_CA_H3W_1W5",
  "InstitutionName": "IUGM",
  "InstitutionalDepartmentName": "Department",
  "MRAcquisitionType": "2D",
  "MagneticFieldStrength": 3,
  "Manufacturer": "Siemens",
  "ManufacturersModelName": "Prisma_fit",
  "Modality": "MR",
  "MultibandAccelerationFactor": 4,
  "PartialFourier": 1,
  "PatientPosition": "HFS",
  "PercentPhaseFOV": 100,
  "PhaseEncodingDirection": "j",
  "PhaseEncodingSteps": 104,
  "PhaseResolution": 1,
  "PixelBandwidth": 2290,
  "ProcedureStepDescription": "memory_things",
  "ProtocolName": "func_task-things_run-6",
  "PulseSequenceDetails": "%CustomerSeq%_cmrr_mbep2d_bold",
  "ReceiveCoilActiveElements": "HC1-7;NC1,2",
  "ReceiveCoilName": "HeadNeck_64",
  "ReconMatrixPE": 104,
  "RepetitionTime": 1.49,
  "SAR": 0.0467431,
  "ScanOptions": "FS",
  "ScanningSequence": "EP",
  "SequenceName": "epfid2d1_104",
  "SequenceVariant": "SK_SS",
  "SeriesDescription": "func_task-things_run-6",
  "SeriesNumber": 25,
  "ShimSetting": [645, -7175, -8823, 631, 110, 61, -49, -25],
  "SliceThickness": 2,
  "SliceTiming": [0, 0.785, 0.0975, 0.8825, 0.195, 0.98, 0.295, 1.0775, 0.3925, 1.175, 0.49, 1.275, 0.5875, 1.3725, 0.685, 0, 0.785, 0.0975, 0.8825, 0.195, 0.98, 0.295, 1.0775, 0.3925, 1.175, 0.49, 1.275, 0.5875, 1.3725, 0.685, 0, 0.785, 0.0975, 0.8825, 0.195, 0.98, 0.295, 1.0775, 0.3925, 1.175, 0.49, 1.275, 0.5875, 1.3725, 0.685, 0, 0.785, 0.0975, 0.8825, 0.195, 0.98, 0.295, 1.0775, 0.3925, 1.175, 0.49, 1.275, 0.5875, 1.3725, 0.685],
  "SoftwareVersions": "syngo_MR_E11",
  "SpacingBetweenSlices": 2,
  "StationName": "MRC35049",
  "TaskName": "things",
  "TotalReadoutTime": 0.0576811,
  "TxRefAmp": 267.434,
  "WipMemBlock": "eaeb39fd-2702-4aa2-aade-5c632829dd0a||Sequence: R016 ve11c/master r/e634e98; Dec 19 2017 11:00:25 by eja",
  "dcmmeta_affine": [
    [-1.9935823678970337, -0.06752724200487137, 0.14515304565429688, 107.15097045898438],
    [-0.1155608743429184, 1.8619571924209595, -0.7209445238113403, -53.555816650390625],
    [0.11079267412424088, 0.7270181179046631, 1.8598843812942505, -67.55842590332031],
    [0.0, 0.0, 0.0, 1.0]
],
  "dcmmeta_reorient_transform": [
    [0.0, -1.0, 0.0, 103.0],
    [1.0, 0.0, 0.0, 0.0],
    [0.0, 0.0, 1.0, 0.0],
    [0.0, 0.0, 0.0, 1.0]
],
  "dcmmeta_shape": [104, 104, 60, 190],
  "dcmmeta_slice_dim": 2,
  "dcmmeta_version": 0.6,
  "global": {
    "const": {
      "AcquisitionMatrix": [104, 0, 0, 104],
      "AngioFlag": "N",
      "BitsAllocated": 16,
      "BitsStored": 16,
      "BodyPartExamined": "BRAIN",
      "Columns": 832,
      "EchoNumbers": 1,
      "EchoTime": 37.0,
      "EchoTrainLength": 104,
      "FlipAngle": 52.0,
      "HighBit": 15,
      "ImageOrientationPatient": [0.99679118510973, 0.05778043742514, 0.0553963386741, -0.0337636207676, 0.93097860959326, -0.3635090733289],
      "ImagePositionPatient": [-801.27973373531, -858.04236354509, 231.63051308256],
      "ImageType": [
        "ORIGINAL",
        "PRIMARY",
        "M",
        "MB",
        "ND",
        "MOSAIC"
],
      "ImagedNucleus": "1H",
      "ImagingFrequency": 123.258915,
      "InPlanePhaseEncodingDirection": "COL",
      "MRAcquisitionType": "2D",
      "MagneticFieldStrength": 3.0,
      "Manufacturer": "SIEMENS",
      "ManufacturerModelName": "Prisma_fit",
      "Modality": "MR",
      "NumberOfAverages": 1.0,
      "NumberOfPhaseEncodingSteps": 104,
      "PercentPhaseFieldOfView": 100.0,
      "PercentSampling": 100.0,
      "PerformedProcedureStepStartTime": "170515.315000",
      "PhotometricInterpretation": "MONOCHROME2",
      "PixelBandwidth": 2290.0,
      "PixelRepresentation": 0,
      "PixelSpacing": [2.0, 2.0],
      "ProtocolName": "func_task-things_run-6",
      "RepetitionTime": 1490.0,
      "Rows": 832,
      "SAR": 0.04674310554192,
      "SamplesPerPixel": 1,
      "ScanOptions": "FS",
      "ScanningSequence": "EP",
      "SequenceName": "epfid2d1_104",
      "SequenceVariant": [
        "SK",
        "SS"
],
      "SeriesDescription": "func_task-things_run-6",
      "SeriesNumber": 25,
      "SeriesTime": "181012.816000",
      "SliceLocation": -35.743397856093,
      "SliceThickness": 2.0,
      "SmallestImagePixelValue": 0,
      "SoftwareVersions": "syngo MR E11",
      "SpacingBetweenSlices": 2.000000035165,
      "SpecificCharacterSet": "ISO_IR 100",
      "StudyID": "1",
      "StudyTime": "170515.169000",
      "TransmitCoilName": "Body",
      "VariableFlipAngleFlag": "N",
      "WindowCenterWidthExplanation": "Algo1",
      "dBdt": 0.0},
    "slices": {}
  },
  "time": {
    "samples": {
      "AcquisitionNumber": [1, 2, 3, 4, 5, 6, 7, 8, 9, 10, 11, 12, 13, 14, 15, 16, 17, 18, 19, 20, 21, 22, 23, 24, 25, 26, 27, 28, 29, 30, 31, 32, 33, 34, 35, 36, 37, 38, 39, 40, 41, 42, 43, 44, 45, 46, 47, 48, 49, 50, 51, 52, 53, 54, 55, 56, 57, 58, 59, 60, 61, 62, 63, 64, 65, 66, 67, 68, 69, 70, 71, 72, 73, 74, 75, 76, 77, 78, 79, 80, 81, 82, 83, 84, 85, 86, 87, 88, 89, 90, 91, 92, 93, 94, 95, 96, 97, 98, 99, 100, 101, 102, 103, 104, 105, 106, 107, 108, 109, 110, 111, 112, 113, 114, 115, 116, 117, 118, 119, 120, 121, 122, 123, 124, 125, 126, 127, 128, 129, 130, 131, 132, 133, 134, 135, 136, 137, 138, 139, 140, 141, 142, 143, 144, 145, 146, 147, 148, 149, 150, 151, 152, 153, 154, 155, 156, 157, 158, 159, 160, 161, 162, 163, 164, 165, 166, 167, 168, 169, 170, 171, 172, 173, 174, 175, 176, 177, 178, 179, 180, 181, 182, 183, 184, 185, 186, 187, 188, 189, 190],
      "AcquisitionTime": ["180851.615000", "180853.105000", "180854.595000", "180856.085000", "180857.575000", "180859.065000", "180900.555000", "180902.045000", "180903.535000", "180905.025000", "180906.515000", "180908.005000", "180909.495000", "180910.985000", "180912.475000", "180913.965000", "180915.455000", "180916.945000", "180918.435000", "180919.925000", "180921.415000", "180922.905000", "180924.395000", "180925.885000", "180927.375000", "180928.865000", "180930.355000", "180931.845000", "180933.335000", "180934.825000", "180936.315000", "180937.805000", "180939.295000", "180940.785000", "180942.275000", "180943.765000", "180945.255000", "180946.745000", "180948.235000", "180949.725000", "180951.215000", "180952.705000", "180954.195000", "180955.685000", "180957.175000", "180958.665000", "181000.155000", "181001.645000", "181003.135000", "181004.625000", "181006.115000", "181007.605000", "181009.095000", "181010.585000", "181012.075000", "181013.565000", "181015.055000", "181016.545000", "181018.035000", "181019.525000", "181021.015000", "181022.505000", "181023.995000", "181025.485000", "181026.975000", "181028.465000", "181029.955000", "181031.445000", "181032.935000", "181034.425000", "181035.915000", "181037.405000", "181038.895000", "181040.385000", "181041.875000", "181043.365000", "181044.855000", "181046.345000", "181047.835000", "181049.325000", "181050.815000", "181052.305000", "181053.795000", "181055.285000", "181056.775000", "181058.265000", "181059.755000", "181101.245000", "181102.735000", "181104.225000", "181105.715000", "181107.205000", "181108.695000", "181110.185000", "181111.675000", "181113.165000", "181114.655000", "181116.145000", "181117.635000", "181119.125000", "181120.615000", "181122.105000", "181123.595000", "181125.085000", "181126.575000", "181128.065000", "181129.555000", "181131.045000", "181132.535000", "181134.025000", "181135.515000", "181137.005000", "181138.495000", "181139.985000", "181141.475000", "181142.965000", "181144.455000", "181145.945000", "181147.435000", "181148.925000", "181150.415000", "181151.905000", "181153.395000", "181154.885000", "181156.375000", "181157.865000", "181159.355000", "181200.845000", "181202.335000", "181203.825000", "181205.315000", "181206.805000", "181208.295000", "181209.785000", "181211.275000", "181212.765000", "181214.255000", "181215.745000", "181217.235000", "181218.725000", "181220.215000", "181221.705000", "181223.195000", "181224.685000", "181226.175000", "181227.665000", "181229.155000", "181230.645000", "181232.135000", "181233.625000", "181235.115000", "181236.605000", "181238.095000", "181239.585000", "181241.075000", "181242.565000", "181244.055000", "181245.545000", "181247.035000", "181248.525000", "181250.015000", "181251.505000", "181252.995000", "181254.485000", "181255.975000", "181257.465000", "181258.955000", "181300.445000", "181301.935000", "181303.425000", "181304.915000", "181306.405000", "181307.895000", "181309.385000", "181310.875000", "181312.365000", "181313.855000", "181315.345000", "181316.835000", "181318.325000", "181319.815000", "181321.305000", "181322.795000", "181324.285000", "181325.775000", "181327.265000", "181328.755000", "181330.245000", "181331.735000", "181333.225000"],
      "ContentTime": ["181012.819000", "181012.823000", "181012.826000", "181012.829000", "181012.833000", "181012.836000", "181012.839000", "181012.843000", "181012.846000", "181012.849000", "181012.853000", "181012.863000", "181012.867000", "181012.870000", "181012.873000", "181012.876000", "181012.880000", "181012.892000", "181012.895000", "181012.898000", "181012.902000", "181012.905000", "181012.908000", "181012.911000", "181012.915000", "181012.918000", "181012.921000", "181032.782000", "181032.786000", "181032.789000", "181032.792000", "181032.796000", "181032.799000", "181032.802000", "181032.806000", "181032.809000", "181032.812000", "181032.815000", "181032.819000", "181032.822000", "181032.825000", "181032.829000", "181032.832000", "181032.835000", "181032.838000", "181032.842000", "181032.845000", "181052.782000", "181052.786000", "181052.789000", "181052.792000", "181052.796000", "181052.799000", "181052.803000", "181052.806000", "181052.809000", "181052.812000", "181052.816000", "181052.819000", "181052.822000", "181052.833000", "181052.836000", "181052.839000", "181052.842000", "181052.846000", "181052.849000", "181052.852000", "181112.783000", "181112.787000", "181112.790000", "181112.794000", "181112.797000", "181112.800000", "181112.804000", "181112.807000", "181112.810000", "181112.814000", "181112.817000", "181112.820000", "181112.823000", "181112.827000", "181112.830000", "181112.833000", "181112.837000", "181112.840000", "181112.843000", "181112.847000", "181132.783000", "181132.787000", "181132.796000", "181132.799000", "181132.803000", "181132.806000", "181132.810000", "181132.813000", "181132.816000", "181132.827000", "181132.831000", "181132.834000", "181132.837000", "181132.841000", "181132.844000", "181132.847000", "181132.851000", "181132.854000", "181132.857000", "181132.861000", "181212.782000", "181212.786000", "181212.789000", "181212.793000", "181212.796000", "181212.799000", "181212.803000", "181212.806000", "181212.809000", "181212.813000", "181212.816000", "181212.819000", "181212.822000", "181212.826000", "181212.829000", "181212.832000", "181212.836000", "181212.839000", "181212.842000", "181212.846000", "181212.849000", "181212.852000", "181212.856000", "181212.859000", "181212.862000", "181212.866000", "181212.869000", "181252.782000", "181252.786000", "181252.789000", "181252.793000", "181252.796000", "181252.799000", "181252.803000", "181252.806000", "181252.809000", "181252.812000", "181252.816000", "181252.819000", "181252.822000", "181252.826000", "181252.829000", "181252.832000", "181252.836000", "181252.839000", "181252.842000", "181252.846000", "181252.849000", "181252.852000", "181252.856000", "181252.859000", "181252.862000", "181252.866000", "181252.869000", "181332.783000", "181332.787000", "181332.790000", "181332.794000", "181332.797000", "181332.816000", "181332.819000", "181332.822000", "181332.826000", "181332.829000", "181332.832000", "181332.836000", "181332.839000", "181332.843000", "181332.846000", "181332.849000", "181332.852000", "181332.856000", "181332.859000", "181332.862000", "181332.866000", "181332.869000", "181332.872000", "181332.876000", "181332.879000", "181332.882000", "181332.885000", "181335.486000", "181335.490000"],
      "InstanceCreationTime": ["181012.819000", "181012.823000", "181012.826000", "181012.829000", "181012.833000", "181012.836000", "181012.839000", "181012.843000", "181012.846000", "181012.849000", "181012.853000", "181012.863000", "181012.867000", "181012.870000", "181012.873000", "181012.876000", "181012.880000", "181012.892000", "181012.895000", "181012.898000", "181012.902000", "181012.905000", "181012.908000", "181012.911000", "181012.915000", "181012.918000", "181012.921000", "181032.782000", "181032.786000", "181032.789000", "181032.792000", "181032.796000", "181032.799000", "181032.802000", "181032.806000", "181032.809000", "181032.812000", "181032.815000", "181032.819000", "181032.822000", "181032.825000", "181032.829000", "181032.832000", "181032.835000", "181032.838000", "181032.842000", "181032.845000", "181052.782000", "181052.786000", "181052.789000", "181052.792000", "181052.796000", "181052.799000", "181052.803000", "181052.806000", "181052.809000", "181052.812000", "181052.816000", "181052.819000", "181052.822000", "181052.833000", "181052.836000", "181052.839000", "181052.842000", "181052.846000", "181052.849000", "181052.852000", "181112.783000", "181112.787000", "181112.790000", "181112.794000", "181112.797000", "181112.800000", "181112.804000", "181112.807000", "181112.810000", "181112.814000", "181112.817000", "181112.820000", "181112.823000", "181112.827000", "181112.830000", "181112.833000", "181112.837000", "181112.840000", "181112.843000", "181112.847000", "181132.783000", "181132.787000", "181132.796000", "181132.799000", "181132.803000", "181132.806000", "181132.810000", "181132.813000", "181132.816000", "181132.827000", "181132.831000", "181132.834000", "181132.837000", "181132.841000", "181132.844000", "181132.847000", "181132.851000", "181132.854000", "181132.857000", "181132.861000", "181212.782000", "181212.786000", "181212.789000", "181212.793000", "181212.796000", "181212.799000", "181212.803000", "181212.806000", "181212.809000", "181212.813000", "181212.816000", "181212.819000", "181212.822000", "181212.826000", "181212.829000", "181212.832000", "181212.836000", "181212.839000", "181212.842000", "181212.846000", "181212.849000", "181212.852000", "181212.856000", "181212.859000", "181212.862000", "181212.866000", "181212.869000", "181252.782000", "181252.786000", "181252.789000", "181252.793000", "181252.796000", "181252.799000", "181252.803000", "181252.806000", "181252.809000", "181252.812000", "181252.816000", "181252.819000", "181252.822000", "181252.826000", "181252.829000", "181252.832000", "181252.836000", "181252.839000", "181252.842000", "181252.846000", "181252.849000", "181252.852000", "181252.856000", "181252.859000", "181252.862000", "181252.866000", "181252.869000", "181332.783000", "181332.787000", "181332.790000", "181332.794000", "181332.797000", "181332.816000", "181332.819000", "181332.822000", "181332.826000", "181332.829000", "181332.832000", "181332.836000", "181332.839000", "181332.843000", "181332.846000", "181332.849000", "181332.852000", "181332.856000", "181332.859000", "181332.862000", "181332.866000", "181332.869000", "181332.872000", "181332.876000", "181332.879000", "181332.882000", "181332.885000", "181335.486000", "181335.490000"],
      "InstanceNumber": [1, 2, 3, 4, 5, 6, 7, 8, 9, 10, 11, 12, 13, 14, 15, 16, 17, 18, 19, 20, 21, 22, 23, 24, 25, 26, 27, 28, 29, 30, 31, 32, 33, 34, 35, 36, 37, 38, 39, 40, 41, 42, 43, 44, 45, 46, 47, 48, 49, 50, 51, 52, 53, 54, 55, 56, 57, 58, 59, 60, 61, 62, 63, 64, 65, 66, 67, 68, 69, 70, 71, 72, 73, 74, 75, 76, 77, 78, 79, 80, 81, 82, 83, 84, 85, 86, 87, 88, 89, 90, 91, 92, 93, 94, 95, 96, 97, 98, 99, 100, 101, 102, 103, 104, 105, 106, 107, 108, 109, 110, 111, 112, 113, 114, 115, 116, 117, 118, 119, 120, 121, 122, 123, 124, 125, 126, 127, 128, 129, 130, 131, 132, 133, 134, 135, 136, 137, 138, 139, 140, 141, 142, 143, 144, 145, 146, 147, 148, 149, 150, 151, 152, 153, 154, 155, 156, 157, 158, 159, 160, 161, 162, 163, 164, 165, 166, 167, 168, 169, 170, 171, 172, 173, 174, 175, 176, 177, 178, 179, 180, 181, 182, 183, 184, 185, 186, 187, 188, 189, 190],
      "LargestImagePixelValue": [43210, 42065, 43219, 45344, 46940, 46136, 45396, 44249, 43961, 43891, 43716, 43536, 44794, 44941, 44413, 44264, 44911, 44012, 43540, 43211, 43206, 43163, 42544, 43043, 44006, 43998, 43687, 42997, 43943, 43697, 43359, 43418, 43287, 43189, 42941, 43967, 44511, 43755, 43264, 43466, 43609, 44224, 44161, 43756, 43930, 43212, 43875, 43826, 43285, 43598, 42624, 42626, 42645, 41660, 42667, 41745, 41989, 42418, 42202, 42345, 42528, 42372, 42716, 42135, 43168, 43360, 42227, 42500, 42919, 42638, 42587, 42280, 42378, 42093, 41549, 41961, 42445, 43058, 42935, 43157, 42370, 42501, 44112, 44292, 43090, 43640, 43426, 43536, 43136, 43508, 42993, 42493, 42083, 42562, 43115, 42392, 42236, 43091, 43037, 42986, 42644, 42810, 42780, 42208, 42167, 42357, 41406, 42528, 41835, 41544, 42169, 42182, 41866, 41713, 42432, 42098, 41898, 42605, 41952, 41880, 41952, 41431, 41453, 41669, 40696, 41793, 41376, 41811, 42478, 42076, 41604, 41431, 41240, 41221, 41237, 41389, 41662, 40612, 41349, 41979, 41415, 42115, 42477, 41997, 42458, 42550, 41878, 41473, 42405, 41462, 41448, 41272, 41695, 41684, 41714, 42015, 41668, 41129, 40605, 41546, 42596, 42170, 41820, 42106, 39956, 39210, 39193, 39976, 39315, 39032, 39480, 39287, 38819, 40482, 41364, 41600, 41513, 42130, 42031, 41988, 42338, 42440, 41387, 40757, 40563, 41718, 40928, 40860, 40644, 40669],
      "WindowCenter": [10342.0, 10293.0, 10311.0, 10364.0, 10394.0, 10395.0, 10379.0, 10337.0, 10318.0, 10301.0, 10306.0, 10301.0, 10328.0, 10360.0, 10363.0, 10345.0, 10332.0, 10318.0, 10310.0, 10329.0, 10348.0, 10343.0, 10336.0, 10340.0, 10360.0, 10372.0, 10365.0, 10351.0, 10353.0, 10371.0, 10368.0, 10373.0, 10377.0, 10377.0, 10364.0, 10374.0, 10392.0, 10382.0, 10357.0, 10339.0, 10335.0, 10357.0, 10359.0, 10344.0, 10333.0, 10319.0, 10324.0, 10350.0, 10365.0, 10358.0, 10342.0, 10341.0, 10339.0, 10329.0, 10342.0, 10349.0, 10358.0, 10363.0, 10354.0, 10346.0, 10361.0, 10365.0, 10369.0, 10363.0, 10377.0, 10392.0, 10370.0, 10355.0, 10351.0, 10361.0, 10363.0, 10354.0, 10364.0, 10363.0, 10357.0, 10357.0, 10353.0, 10341.0, 10340.0, 10341.0, 10331.0, 10331.0, 10367.0, 10378.0, 10359.0, 10346.0, 10335.0, 10352.0, 10363.0, 10365.0, 10360.0, 10359.0, 10352.0, 10369.0, 10373.0, 10355.0, 10337.0, 10342.0, 10340.0, 10347.0, 10334.0, 10339.0, 10357.0, 10353.0, 10346.0, 10344.0, 10350.0, 10367.0, 10364.0, 10358.0, 10353.0, 10352.0, 10328.0, 10330.0, 10358.0, 10371.0, 10373.0, 10387.0, 10368.0, 10351.0, 10345.0, 10342.0, 10365.0, 10377.0, 10366.0, 10373.0, 10368.0, 10364.0, 10378.0, 10377.0, 10363.0, 10350.0, 10341.0, 10347.0, 10365.0, 10376.0, 10384.0, 10384.0, 10369.0, 10363.0, 10357.0, 10363.0, 10378.0, 10373.0, 10363.0, 10372.0, 10367.0, 10360.0, 10372.0, 10370.0, 10376.0, 10373.0, 10367.0, 10361.0, 10355.0, 10352.0, 10364.0, 10376.0, 10375.0, 10394.0, 10397.0, 10381.0, 10375.0, 10365.0, 10340.0, 10342.0, 10353.0, 10374.0, 10372.0, 10360.0, 10348.0, 10337.0, 10331.0, 10357.0, 10376.0, 10393.0, 10393.0, 10392.0, 10375.0, 10365.0, 10364.0, 10359.0, 10350.0, 10353.0, 10345.0, 10374.0, 10374.0, 10366.0, 10365.0, 10347.0],
      "WindowWidth": [21945.0, 21818.0, 21844.0, 21958.0, 22022.0, 22020.0, 21991.0, 21889.0, 21840.0, 21803.0, 21813.0, 21801.0, 21859.0, 21937.0, 21947.0, 21903.0, 21870.0, 21843.0, 21827.0, 21873.0, 21918.0, 21907.0, 21892.0, 21894.0, 21939.0, 21970.0, 21953.0, 21922.0, 21925.0, 21969.0, 21965.0, 21972.0, 21985.0, 21984.0, 21954.0, 21974.0, 22014.0, 21993.0, 21933.0, 21888.0, 21878.0, 21931.0, 21936.0, 21899.0, 21875.0, 21845.0, 21855.0, 21919.0, 21956.0, 21940.0, 21903.0, 21904.0, 21898.0, 21879.0, 21905.0, 21927.0, 21947.0, 21956.0, 21935.0, 21916.0, 21951.0, 21961.0, 21967.0, 21953.0, 21984.0, 22015.0, 21980.0, 21937.0, 21922.0, 21953.0, 21961.0, 21932.0, 21960.0, 21958.0, 21943.0, 21940.0, 21926.0, 21896.0, 21896.0, 21902.0, 21874.0, 21874.0, 21955.0, 21981.0, 21943.0, 21909.0, 21880.0, 21922.0, 21949.0, 21954.0, 21943.0, 21943.0, 21926.0, 21964.0, 21970.0, 21932.0, 21887.0, 21889.0, 21894.0, 21906.0, 21881.0, 21889.0, 21935.0, 21927.0, 21913.0, 21908.0, 21928.0, 21959.0, 21956.0, 21940.0, 21926.0, 21922.0, 21868.0, 21877.0, 21939.0, 21972.0, 21976.0, 22005.0, 21967.0, 21924.0, 21911.0, 21909.0, 21959.0, 21989.0, 21962.0, 21972.0, 21967.0, 21949.0, 21980.0, 21983.0, 21955.0, 21919.0, 21899.0, 21917.0, 21956.0, 21978.0, 21997.0, 22001.0, 21963.0, 21945.0, 21932.0, 21943.0, 21978.0, 21968.0, 21944.0, 21965.0, 21958.0, 21942.0, 21967.0, 21970.0, 21980.0, 21975.0, 21955.0, 21944.0, 21925.0, 21918.0, 21950.0, 21976.0, 21974.0, 22019.0, 22018.0, 21980.0, 21974.0, 21948.0, 21895.0, 21903.0, 21931.0, 21972.0, 21971.0, 21947.0, 21918.0, 21891.0, 21882.0, 21931.0, 21978.0, 22016.0, 22017.0, 22014.0, 21973.0, 21948.0, 21949.0, 21932.0, 21918.0, 21929.0, 21908.0, 21971.0, 21978.0, 21956.0, 21953.0, 21912.0]
    },
    "slices": {}
  }
}