{
  "AcquisitionMatrixPE": 104,
  "AcquisitionNumber": 1,
  "AcquisitionTime": "18:08:51.615000",
  "BandwidthPerPixelPhaseEncode": 17.17,
  "BaseResolution": 104,
  "BodyPartExamined": "BRAIN",
  "CoilString": "HC1-7;NC1_2",
  "ConsistencyInfo": "N4_VE11C_LATEST_20160120",
  "ConversionSoftware": "dcm2niix",
  "ConversionSoftwareVersion": "v1.0.20190902",
  "DerivedVendorReportedEchoSpacing": 0.000560011,
  "DeviceSerialNumber": "167006",
  "DwellTime": 2.1e-06,
  "EchoTime": 0.037,
  "EchoTrainLength": 104,
  "EffectiveEchoSpacing": 0.000560011,
  "FlipAngle": 52,
  "HeudiconvVersion": "0.10.0",
  "ImageComments": "Unaliased_MB4_PE3_LB",
  "ImageOrientationPatientDICOM": [0.996791, 0.0577804, 0.0553963, -0.0337636, 0.930979, -0.363509],
  "ImageType": [
    "ORIGINAL",
    "PRIMARY",
    "P",
    "MB",
    "ND",
    "MOSAIC"
],
  "ImagingFrequency": 123.259,
  "InPlanePhaseEncodingDirectionDICOM": "COL",
  "InstitutionAddress": "Chemin_Queen-Mary_4565_Montreal_District_CA_H3W_1W5",
  "InstitutionName": "IUGM",
  "InstitutionalDepartmentName": "Department",
  "MRAcquisitionType": "2D",
  "MagneticFieldStrength": 3,
  "Manufacturer": "Siemens",
  "ManufacturersModelName": "Prisma_fit",
  "Modality": "MR",
  "MultibandAccelerationFactor": 4,
  "PartialFourier": 1,
  "PatientPosition": "HFS",
  "PercentPhaseFOV": 100,
  "PhaseEncodingDirection": "j",
  "PhaseEncodingSteps": 104,
  "PhaseResolution": 1,
  "PixelBandwidth": 2290,
  "ProcedureStepDescription": "memory_things",
  "ProtocolName": "func_task-things_run-6",
  "PulseSequenceDetails": "%CustomerSeq%_cmrr_mbep2d_bold",
  "ReceiveCoilActiveElements": "HC1-7;NC1,2",
  "ReceiveCoilName": "HeadNeck_64",
  "ReconMatrixPE": 104,
  "RepetitionTime": 1.49,
  "SAR": 0.0467431,
  "ScanOptions": "FS",
  "ScanningSequence": "EP",
  "SequenceName": "epfid2d1_104",
  "SequenceVariant": "SK_SS",
  "SeriesDescription": "func_task-things_run-6",
  "SeriesNumber": 26,
  "ShimSetting": [645, -7175, -8823, 631, 110, 61, -49, -25],
  "SliceThickness": 2,
  "SliceTiming": [0, 0.785, 0.0975, 0.8825, 0.195, 0.98, 0.295, 1.0775, 0.3925, 1.175, 0.49, 1.275, 0.5875, 1.3725, 0.685, 0, 0.785, 0.0975, 0.8825, 0.195, 0.98, 0.295, 1.0775, 0.3925, 1.175, 0.49, 1.275, 0.5875, 1.3725, 0.685, 0, 0.785, 0.0975, 0.8825, 0.195, 0.98, 0.295, 1.0775, 0.3925, 1.175, 0.49, 1.275, 0.5875, 1.3725, 0.685, 0, 0.785, 0.0975, 0.8825, 0.195, 0.98, 0.295, 1.0775, 0.3925, 1.175, 0.49, 1.275, 0.5875, 1.3725, 0.685],
  "SoftwareVersions": "syngo_MR_E11",
  "SpacingBetweenSlices": 2,
  "StationName": "MRC35049",
  "TaskName": "things",
  "TotalReadoutTime": 0.0576811,
  "TxRefAmp": 267.434,
  "WipMemBlock": "eaeb39fd-2702-4aa2-aade-5c632829dd0a||Sequence: R016 ve11c/master r/e634e98; Dec 19 2017 11:00:25 by eja",
  "dcmmeta_affine": [
    [-1.9935823678970337, -0.06752724200487137, 0.14515304565429688, 107.15097045898438],
    [-0.1155608743429184, 1.8619571924209595, -0.7209445238113403, -53.555816650390625],
    [0.11079267412424088, 0.7270181179046631, 1.8598843812942505, -67.55842590332031],
    [0.0, 0.0, 0.0, 1.0]
],
  "dcmmeta_reorient_transform": [
    [0.0, -1.0, 0.0, 103.0],
    [1.0, 0.0, 0.0, 0.0],
    [0.0, 0.0, 1.0, 0.0],
    [0.0, 0.0, 0.0, 1.0]
],
  "dcmmeta_shape": [104, 104, 60, 190],
  "dcmmeta_slice_dim": 2,
  "dcmmeta_version": 0.6,
  "global": {
    "const": {
      "AcquisitionMatrix": [104, 0, 0, 104],
      "AngioFlag": "N",
      "BitsAllocated": 16,
      "BitsStored": 16,
      "BodyPartExamined": "BRAIN",
      "Columns": 832,
      "EchoNumbers": 1,
      "EchoTime": 37.0,
      "EchoTrainLength": 104,
      "FlipAngle": 52.0,
      "HighBit": 15,
      "ImageOrientationPatient": [0.99679118510973, 0.05778043742514, 0.0553963386741, -0.0337636207676, 0.93097860959326, -0.3635090733289],
      "ImagePositionPatient": [-801.27973373531, -858.04236354509, 231.63051308256],
      "ImageType": [
        "ORIGINAL",
        "PRIMARY",
        "P",
        "MB",
        "ND",
        "MOSAIC"
],
      "ImagedNucleus": "1H",
      "ImagingFrequency": 123.258915,
      "InPlanePhaseEncodingDirection": "COL",
      "LargestImagePixelValue": 4095,
      "MRAcquisitionType": "2D",
      "MagneticFieldStrength": 3.0,
      "Manufacturer": "SIEMENS",
      "ManufacturerModelName": "Prisma_fit",
      "Modality": "MR",
      "NumberOfAverages": 1.0,
      "NumberOfPhaseEncodingSteps": 104,
      "PercentPhaseFieldOfView": 100.0,
      "PercentSampling": 100.0,
      "PerformedProcedureStepStartTime": "170515.315000",
      "PhotometricInterpretation": "MONOCHROME2",
      "PixelBandwidth": 2290.0,
      "PixelRepresentation": 0,
      "PixelSpacing": [2.0, 2.0],
      "ProtocolName": "func_task-things_run-6",
      "RepetitionTime": 1490.0,
      "RescaleIntercept": -4096.0,
      "RescaleSlope": 2.0,
      "RescaleType": "US",
      "Rows": 832,
      "SAR": 0.04674310554192,
      "SamplesPerPixel": 1,
      "ScanOptions": "FS",
      "ScanningSequence": "EP",
      "SequenceName": "epfid2d1_104",
      "SequenceVariant": [
        "SK",
        "SS"
],
      "SeriesDescription": "func_task-things_run-6",
      "SeriesNumber": 26,
      "SeriesTime": "181012.979000",
      "SliceLocation": -35.743397856093,
      "SliceThickness": 2.0,
      "SmallestImagePixelValue": 0,
      "SoftwareVersions": "syngo MR E11",
      "SpacingBetweenSlices": 2.000000035165,
      "SpecificCharacterSet": "ISO_IR 100",
      "StudyID": "1",
      "StudyTime": "170515.169000",
      "TransmitCoilName": "Body",
      "VariableFlipAngleFlag": "N",
      "WindowCenterWidthExplanation": "Algo1",
      "dBdt": 0.0},
    "slices": {}
  },
  "time": {
    "samples": {
      "AcquisitionNumber": [1, 2, 3, 4, 5, 6, 7, 8, 9, 10, 11, 12, 13, 14, 15, 16, 17, 18, 19, 20, 21, 22, 23, 24, 25, 26, 27, 28, 29, 30, 31, 32, 33, 34, 35, 36, 37, 38, 39, 40, 41, 42, 43, 44, 45, 46, 47, 48, 49, 50, 51, 52, 53, 54, 55, 56, 57, 58, 59, 60, 61, 62, 63, 64, 65, 66, 67, 68, 69, 70, 71, 72, 73, 74, 75, 76, 77, 78, 79, 80, 81, 82, 83, 84, 85, 86, 87, 88, 89, 90, 91, 92, 93, 94, 95, 96, 97, 98, 99, 100, 101, 102, 103, 104, 105, 106, 107, 108, 109, 110, 111, 112, 113, 114, 115, 116, 117, 118, 119, 120, 121, 122, 123, 124, 125, 126, 127, 128, 129, 130, 131, 132, 133, 134, 135, 136, 137, 138, 139, 140, 141, 142, 143, 144, 145, 146, 147, 148, 149, 150, 151, 152, 153, 154, 155, 156, 157, 158, 159, 160, 161, 162, 163, 164, 165, 166, 167, 168, 169, 170, 171, 172, 173, 174, 175, 176, 177, 178, 179, 180, 181, 182, 183, 184, 185, 186, 187, 188, 189, 190],
      "AcquisitionTime": ["180851.615000", "180853.105000", "180854.595000", "180856.085000", "180857.575000", "180859.065000", "180900.555000", "180902.045000", "180903.535000", "180905.025000", "180906.515000", "180908.005000", "180909.495000", "180910.985000", "180912.475000", "180913.965000", "180915.455000", "180916.945000", "180918.435000", "180919.925000", "180921.415000", "180922.905000", "180924.395000", "180925.885000", "180927.375000", "180928.865000", "180930.355000", "180931.845000", "180933.335000", "180934.825000", "180936.315000", "180937.805000", "180939.295000", "180940.785000", "180942.275000", "180943.765000", "180945.255000", "180946.745000", "180948.235000", "180949.725000", "180951.215000", "180952.705000", "180954.195000", "180955.685000", "180957.175000", "180958.665000", "181000.155000", "181001.645000", "181003.135000", "181004.625000", "181006.115000", "181007.605000", "181009.095000", "181010.585000", "181012.075000", "181013.565000", "181015.055000", "181016.545000", "181018.035000", "181019.525000", "181021.015000", "181022.505000", "181023.995000", "181025.485000", "181026.975000", "181028.465000", "181029.955000", "181031.445000", "181032.935000", "181034.425000", "181035.915000", "181037.405000", "181038.895000", "181040.385000", "181041.875000", "181043.365000", "181044.855000", "181046.345000", "181047.835000", "181049.325000", "181050.815000", "181052.305000", "181053.795000", "181055.285000", "181056.775000", "181058.265000", "181059.755000", "181101.245000", "181102.735000", "181104.225000", "181105.715000", "181107.205000", "181108.695000", "181110.185000", "181111.675000", "181113.165000", "181114.655000", "181116.145000", "181117.635000", "181119.125000", "181120.615000", "181122.105000", "181123.595000", "181125.085000", "181126.575000", "181128.065000", "181129.555000", "181131.045000", "181132.535000", "181134.025000", "181135.515000", "181137.005000", "181138.495000", "181139.985000", "181141.475000", "181142.965000", "181144.455000", "181145.945000", "181147.435000", "181148.925000", "181150.415000", "181151.905000", "181153.395000", "181154.885000", "181156.375000", "181157.865000", "181159.355000", "181200.845000", "181202.335000", "181203.825000", "181205.315000", "181206.805000", "181208.295000", "181209.785000", "181211.275000", "181212.765000", "181214.255000", "181215.745000", "181217.235000", "181218.725000", "181220.215000", "181221.705000", "181223.195000", "181224.685000", "181226.175000", "181227.665000", "181229.155000", "181230.645000", "181232.135000", "181233.625000", "181235.115000", "181236.605000", "181238.095000", "181239.585000", "181241.075000", "181242.565000", "181244.055000", "181245.545000", "181247.035000", "181248.525000", "181250.015000", "181251.505000", "181252.995000", "181254.485000", "181255.975000", "181257.465000", "181258.955000", "181300.445000", "181301.935000", "181303.425000", "181304.915000", "181306.405000", "181307.895000", "181309.385000", "181310.875000", "181312.365000", "181313.855000", "181315.345000", "181316.835000", "181318.325000", "181319.815000", "181321.305000", "181322.795000", "181324.285000", "181325.775000", "181327.265000", "181328.755000", "181330.245000", "181331.735000", "181333.225000"],
      "ContentTime": ["181012.981000", "181012.984000", "181012.987000", "181012.989000", "181012.992000", "181012.994000", "181012.997000", "181012.999000", "181013.002000", "181013.004000", "181013.007000", "181013.009000", "181013.012000", "181013.014000", "181013.017000", "181013.020000", "181013.022000", "181013.025000", "181013.027000", "181013.030000", "181013.032000", "181013.035000", "181013.037000", "181013.040000", "181013.043000", "181013.045000", "181013.047000", "181032.922000", "181032.924000", "181032.927000", "181032.929000", "181032.932000", "181032.934000", "181032.937000", "181032.939000", "181032.942000", "181032.951000", "181032.954000", "181032.956000", "181032.959000", "181032.961000", "181032.963000", "181032.966000", "181032.968000", "181032.971000", "181032.973000", "181032.976000", "181052.898000", "181052.901000", "181052.903000", "181052.906000", "181052.908000", "181052.911000", "181052.913000", "181052.916000", "181052.924000", "181052.927000", "181052.929000", "181052.932000", "181052.935000", "181052.937000", "181052.940000", "181052.942000", "181052.945000", "181052.947000", "181052.950000", "181052.952000", "181112.886000", "181112.889000", "181112.892000", "181112.894000", "181112.897000", "181112.899000", "181112.902000", "181112.904000", "181112.907000", "181112.909000", "181112.912000", "181112.914000", "181112.917000", "181112.919000", "181112.922000", "181112.924000", "181112.927000", "181112.929000", "181112.932000", "181112.934000", "181132.908000", "181132.911000", "181132.913000", "181132.916000", "181132.918000", "181132.921000", "181132.923000", "181132.926000", "181132.928000", "181132.931000", "181132.933000", "181132.936000", "181132.938000", "181132.941000", "181132.943000", "181132.946000", "181132.948000", "181132.951000", "181132.953000", "181132.956000", "181212.922000", "181212.924000", "181212.927000", "181212.929000", "181212.932000", "181212.934000", "181212.937000", "181212.939000", "181212.942000", "181212.944000", "181212.947000", "181212.949000", "181212.952000", "181212.954000", "181212.957000", "181212.959000", "181212.962000", "181212.964000", "181212.967000", "181212.969000", "181212.972000", "181212.974000", "181212.977000", "181212.979000", "181212.982000", "181212.984000", "181212.987000", "181252.923000", "181252.925000", "181252.928000", "181252.930000", "181252.933000", "181252.935000", "181252.938000", "181252.940000", "181252.943000", "181252.945000", "181252.948000", "181252.950000", "181252.953000", "181252.955000", "181252.958000", "181252.960000", "181252.963000", "181252.965000", "181252.968000", "181252.970000", "181252.973000", "181252.975000", "181252.978000", "181252.980000", "181252.983000", "181252.985000", "181252.988000", "181333.388000", "181333.391000", "181333.393000", "181333.396000", "181333.398000", "181333.401000", "181333.403000", "181333.406000", "181333.408000", "181333.411000", "181333.413000", "181333.416000", "181333.419000", "181333.421000", "181333.424000", "181333.426000", "181333.429000", "181333.431000", "181333.434000", "181333.436000", "181333.439000", "181333.441000", "181333.444000", "181333.446000", "181333.449000", "181333.451000", "181333.454000", "181335.514000", "181335.517000"],
      "InstanceCreationTime": ["181012.981000", "181012.984000", "181012.987000", "181012.989000", "181012.992000", "181012.994000", "181012.997000", "181012.999000", "181013.002000", "181013.004000", "181013.007000", "181013.009000", "181013.012000", "181013.014000", "181013.017000", "181013.020000", "181013.022000", "181013.025000", "181013.027000", "181013.030000", "181013.032000", "181013.035000", "181013.037000", "181013.040000", "181013.043000", "181013.045000", "181013.047000", "181032.922000", "181032.924000", "181032.927000", "181032.929000", "181032.932000", "181032.934000", "181032.937000", "181032.939000", "181032.942000", "181032.951000", "181032.954000", "181032.956000", "181032.959000", "181032.961000", "181032.963000", "181032.966000", "181032.968000", "181032.971000", "181032.973000", "181032.976000", "181052.898000", "181052.901000", "181052.903000", "181052.906000", "181052.908000", "181052.911000", "181052.913000", "181052.916000", "181052.924000", "181052.927000", "181052.929000", "181052.932000", "181052.935000", "181052.937000", "181052.940000", "181052.942000", "181052.945000", "181052.947000", "181052.950000", "181052.952000", "181112.886000", "181112.889000", "181112.892000", "181112.894000", "181112.897000", "181112.899000", "181112.902000", "181112.904000", "181112.907000", "181112.909000", "181112.912000", "181112.914000", "181112.917000", "181112.919000", "181112.922000", "181112.924000", "181112.927000", "181112.929000", "181112.932000", "181112.934000", "181132.908000", "181132.911000", "181132.913000", "181132.916000", "181132.918000", "181132.921000", "181132.923000", "181132.926000", "181132.928000", "181132.931000", "181132.933000", "181132.936000", "181132.938000", "181132.941000", "181132.943000", "181132.946000", "181132.948000", "181132.951000", "181132.953000", "181132.956000", "181212.922000", "181212.924000", "181212.927000", "181212.929000", "181212.932000", "181212.934000", "181212.937000", "181212.939000", "181212.942000", "181212.944000", "181212.947000", "181212.949000", "181212.952000", "181212.954000", "181212.957000", "181212.959000", "181212.962000", "181212.964000", "181212.967000", "181212.969000", "181212.972000", "181212.974000", "181212.977000", "181212.979000", "181212.982000", "181212.984000", "181212.987000", "181252.923000", "181252.925000", "181252.928000", "181252.930000", "181252.933000", "181252.935000", "181252.938000", "181252.940000", "181252.943000", "181252.945000", "181252.948000", "181252.950000", "181252.953000", "181252.955000", "181252.958000", "181252.960000", "181252.963000", "181252.965000", "181252.968000", "181252.970000", "181252.973000", "181252.975000", "181252.978000", "181252.980000", "181252.983000", "181252.985000", "181252.988000", "181333.388000", "181333.391000", "181333.393000", "181333.396000", "181333.398000", "181333.401000", "181333.403000", "181333.406000", "181333.408000", "181333.411000", "181333.413000", "181333.416000", "181333.419000", "181333.421000", "181333.424000", "181333.426000", "181333.429000", "181333.431000", "181333.434000", "181333.436000", "181333.439000", "181333.441000", "181333.444000", "181333.446000", "181333.449000", "181333.451000", "181333.454000", "181335.514000", "181335.517000"],
      "InstanceNumber": [1, 2, 3, 4, 5, 6, 7, 8, 9, 10, 11, 12, 13, 14, 15, 16, 17, 18, 19, 20, 21, 22, 23, 24, 25, 26, 27, 28, 29, 30, 31, 32, 33, 34, 35, 36, 37, 38, 39, 40, 41, 42, 43, 44, 45, 46, 47, 48, 49, 50, 51, 52, 53, 54, 55, 56, 57, 58, 59, 60, 61, 62, 63, 64, 65, 66, 67, 68, 69, 70, 71, 72, 73, 74, 75, 76, 77, 78, 79, 80, 81, 82, 83, 84, 85, 86, 87, 88, 89, 90, 91, 92, 93, 94, 95, 96, 97, 98, 99, 100, 101, 102, 103, 104, 105, 106, 107, 108, 109, 110, 111, 112, 113, 114, 115, 116, 117, 118, 119, 120, 121, 122, 123, 124, 125, 126, 127, 128, 129, 130, 131, 132, 133, 134, 135, 136, 137, 138, 139, 140, 141, 142, 143, 144, 145, 146, 147, 148, 149, 150, 151, 152, 153, 154, 155, 156, 157, 158, 159, 160, 161, 162, 163, 164, 165, 166, 167, 168, 169, 170, 171, 172, 173, 174, 175, 176, 177, 178, 179, 180, 181, 182, 183, 184, 185, 186, 187, 188, 189, 190],
      "WindowCenter": [4808.0, 4808.0, 4814.0, 4812.0, 4784.0, 4808.0, 4838.0, 4866.0, 4842.0, 4836.0, 4806.0, 4810.0, 4810.0, 4808.0, 4804.0, 4808.0, 4808.0, 4808.0, 4808.0, 4830.0, 4806.0, 4832.0, 4808.0, 4808.0, 4808.0, 4806.0, 4806.0, 4802.0, 4804.0, 4804.0, 4806.0, 4808.0, 4808.0, 4802.0, 4804.0, 4808.0, 4804.0, 4808.0, 4804.0, 4806.0, 4802.0, 4804.0, 4808.0, 4808.0, 4802.0, 4804.0, 4804.0, 4804.0, 4802.0, 4806.0, 4802.0, 4802.0, 4800.0, 4806.0, 4802.0, 4804.0, 4806.0, 4802.0, 4800.0, 4802.0, 4802.0, 4804.0, 4806.0, 4806.0, 4802.0, 4804.0, 4800.0, 4802.0, 4802.0, 4806.0, 4806.0, 4804.0, 4798.0, 4804.0, 4804.0, 4806.0, 4806.0, 4804.0, 4804.0, 4804.0, 4806.0, 4784.0, 4802.0, 4802.0, 4802.0, 4800.0, 4802.0, 4802.0, 4806.0, 4806.0, 4808.0, 4810.0, 4808.0, 4804.0, 4806.0, 4804.0, 4802.0, 4804.0, 4802.0, 4802.0, 4806.0, 4804.0, 4804.0, 4808.0, 4802.0, 4806.0, 4806.0, 4804.0, 4806.0, 4804.0, 4802.0, 4806.0, 4804.0, 4806.0, 4804.0, 4804.0, 4802.0, 4804.0, 4802.0, 4806.0, 4806.0, 4804.0, 4806.0, 4806.0, 4808.0, 4808.0, 4808.0, 4806.0, 4804.0, 4810.0, 4810.0, 4810.0, 4834.0, 4810.0, 4832.0, 4808.0, 4830.0, 4832.0, 4832.0, 4830.0, 4810.0, 4808.0, 4808.0, 4804.0, 4806.0, 4810.0, 4810.0, 4808.0, 4808.0, 4812.0, 4808.0, 4830.0, 4806.0, 4812.0, 4834.0, 4834.0, 4836.0, 4834.0, 4836.0, 4830.0, 4810.0, 4810.0, 4810.0, 4832.0, 4832.0, 4838.0, 4838.0, 4838.0, 4860.0, 4858.0, 4864.0, 4860.0, 4836.0, 4838.0, 4830.0, 4808.0, 4808.0, 4806.0, 4808.0, 4808.0, 4808.0, 4808.0, 4808.0, 4808.0, 4810.0, 4830.0, 4832.0, 4810.0, 4834.0, 4836.0],
      "WindowWidth": [18604.0, 18604.0, 18612.0, 18610.0, 18572.0, 18602.0, 18646.0, 18672.0, 18638.0, 18636.0, 18600.0, 18610.0, 18612.0, 18616.0, 18608.0, 18604.0, 18600.0, 18598.0, 18598.0, 18630.0, 18596.0, 18634.0, 18610.0, 18608.0, 18604.0, 18606.0, 18606.0, 18600.0, 18598.0, 18594.0, 18598.0, 18600.0, 18600.0, 18596.0, 18604.0, 18606.0, 18598.0, 18606.0, 18602.0, 18604.0, 18604.0, 18598.0, 18604.0, 18598.0, 18598.0, 18604.0, 18600.0, 18600.0, 18602.0, 18600.0, 18602.0, 18594.0, 18592.0, 18596.0, 18600.0, 18594.0, 18596.0, 18600.0, 18594.0, 18594.0, 18596.0, 18602.0, 18602.0, 18606.0, 18596.0, 18598.0, 18594.0, 18600.0, 18588.0, 18602.0, 18606.0, 18598.0, 18594.0, 18594.0, 18594.0, 18602.0, 18606.0, 18600.0, 18600.0, 18604.0, 18606.0, 18574.0, 18594.0, 18596.0, 18594.0, 18598.0, 18600.0, 18598.0, 18602.0, 18604.0, 18610.0, 18612.0, 18604.0, 18598.0, 18594.0, 18596.0, 18598.0, 18598.0, 18596.0, 18594.0, 18608.0, 18600.0, 18602.0, 18602.0, 18590.0, 18598.0, 18598.0, 18598.0, 18596.0, 18600.0, 18596.0, 18600.0, 18598.0, 18598.0, 18604.0, 18600.0, 18598.0, 18598.0, 18598.0, 18602.0, 18602.0, 18598.0, 18604.0, 18608.0, 18606.0, 18598.0, 18602.0, 18598.0, 18598.0, 18602.0, 18602.0, 18604.0, 18636.0, 18608.0, 18636.0, 18604.0, 18634.0, 18632.0, 18630.0, 18628.0, 18604.0, 18602.0, 18598.0, 18600.0, 18600.0, 18598.0, 18602.0, 18600.0, 18598.0, 18602.0, 18598.0, 18632.0, 18598.0, 18604.0, 18636.0, 18636.0, 18634.0, 18640.0, 18640.0, 18626.0, 18604.0, 18598.0, 18598.0, 18634.0, 18638.0, 18646.0, 18644.0, 18646.0, 18674.0, 18672.0, 18672.0, 18672.0, 18642.0, 18636.0, 18628.0, 18600.0, 18600.0, 18598.0, 18602.0, 18604.0, 18602.0, 18602.0, 18600.0, 18604.0, 18604.0, 18628.0, 18632.0, 18600.0, 18632.0, 18634.0]
    },
    "slices": {}
  }
}