{
  "AcquisitionMatrixPE": 104,
  "AcquisitionNumber": 1,
  "AcquisitionTime": "18:00:20.395000",
  "BandwidthPerPixelPhaseEncode": 17.17,
  "BaseResolution": 104,
  "BodyPartExamined": "BRAIN",
  "CoilString": "HC1-7;NC1_2",
  "ConsistencyInfo": "N4_VE11C_LATEST_20160120",
  "ConversionSoftware": "dcm2niix",
  "ConversionSoftwareVersion": "v1.0.20190902",
  "DerivedVendorReportedEchoSpacing": 0.000560011,
  "DeviceSerialNumber": "167006",
  "DwellTime": 2.1e-06,
  "EchoTime": 0.037,
  "EchoTrainLength": 104,
  "EffectiveEchoSpacing": 0.000560011,
  "FlipAngle": 52,
  "ImageComments": "Unaliased_MB4_PE3_LB",
  "ImageOrientationPatientDICOM": [0.998871, 0.00291357, 0.0474203, 0.0113323, 0.954697, -0.297364],
  "ImageType": [
    "ORIGINAL",
    "PRIMARY",
    "P",
    "MB",
    "ND",
    "MOSAIC"
],
  "ImagingFrequency": 123.259,
  "InPlanePhaseEncodingDirectionDICOM": "COL",
  "InstitutionAddress": "Chemin_Queen-Mary_4565_Montreal_District_CA_H3W_1W5",
  "InstitutionName": "IUGM",
  "InstitutionalDepartmentName": "Department",
  "MRAcquisitionType": "2D",
  "MagneticFieldStrength": 3,
  "Manufacturer": "Siemens",
  "ManufacturersModelName": "Prisma_fit",
  "Modality": "MR",
  "MultibandAccelerationFactor": 4,
  "PartialFourier": 1,
  "PatientPosition": "HFS",
  "PercentPhaseFOV": 100,
  "PhaseEncodingDirection": "j",
  "PhaseEncodingSteps": 104,
  "PhaseResolution": 1,
  "PixelBandwidth": 2290,
  "ProcedureStepDescription": "memory_things",
  "ProtocolName": "func_task-things_run-6",
  "PulseSequenceDetails": "%CustomerSeq%_cmrr_mbep2d_bold",
  "ReceiveCoilActiveElements": "HC1-7;NC1,2",
  "ReceiveCoilName": "HeadNeck_64",
  "ReconMatrixPE": 104,
  "RepetitionTime": 1.49,
  "SAR": 0.0957048,
  "ScanOptions": "FS",
  "ScanningSequence": "EP",
  "SequenceName": "epfid2d1_104",
  "SequenceVariant": "SK_SS",
  "SeriesDescription": "func_task-things_run-6",
  "SeriesNumber": 26,
  "ShimSetting": [641, -7173, -8762, 680, 94, 51, -23, -15],
  "SliceThickness": 2,
  "SliceTiming": [0, 0.7825, 0.0975, 0.88, 0.195, 0.98, 0.2925, 1.0775, 0.39, 1.175, 0.49, 1.2725, 0.5875, 1.37, 0.685, 0, 0.7825, 0.0975, 0.88, 0.195, 0.98, 0.2925, 1.0775, 0.39, 1.175, 0.49, 1.2725, 0.5875, 1.37, 0.685, 0, 0.7825, 0.0975, 0.88, 0.195, 0.98, 0.2925, 1.0775, 0.39, 1.175, 0.49, 1.2725, 0.5875, 1.37, 0.685, 0, 0.7825, 0.0975, 0.88, 0.195, 0.98, 0.2925, 1.0775, 0.39, 1.175, 0.49, 1.2725, 0.5875, 1.37, 0.685],
  "SoftwareVersions": "syngo_MR_E11",
  "SpacingBetweenSlices": 2,
  "StationName": "MRC35049",
  "TaskName": "things",
  "TotalReadoutTime": 0.0576811,
  "TxRefAmp": 376.769,
  "WipMemBlock": "ed5dd2cb-2d5e-44ec-9f4a-d0932d233c0f||Sequence: R016 ve11c/master r/e634e98; Dec 19 2017 11:00:25 by eja",
  "dcmmeta_affine": [
    [-1.9977415800094604, 0.022664682939648628, 0.09227685630321503, 104.60616302490234],
    [-0.005827135872095823, 1.909393548965454, -0.5951319932937622, -63.158111572265625],
    [0.09484066069126129, 0.5947288274765015, 1.907171368598938, -47.123085021972656],
    [0.0, 0.0, 0.0, 1.0]
],
  "dcmmeta_reorient_transform": [
    [0.0, -1.0, 0.0, 103.0],
    [1.0, 0.0, 0.0, 0.0],
    [0.0, 0.0, 1.0, 0.0],
    [0.0, 0.0, 0.0, 1.0]
],
  "dcmmeta_shape": [104, 104, 60, 190],
  "dcmmeta_slice_dim": 2,
  "dcmmeta_version": 0.6,
  "global": {
    "const": {
      "AcquisitionMatrix": [104, 0, 0, 104],
      "AngioFlag": "N",
      "BitsAllocated": 16,
      "BitsStored": 16,
      "BodyPartExamined": "BRAIN",
      "Columns": 832,
      "EchoNumbers": 1,
      "EchoTime": 37.0,
      "EchoTrainLength": 104,
      "FlipAngle": 52.0,
      "HighBit": 15,
      "ImageOrientationPatient": [0.9988707740675, 0.00291356803871, 0.04742033145257, 0.01133234181116, 0.95469680144342, -0.297364415058],
      "ImagePositionPatient": [-842.36849566117, -830.64977708564, 196.09327667776],
      "ImageType": [
        "ORIGINAL",
        "PRIMARY",
        "P",
        "MB",
        "ND",
        "MOSAIC"
],
      "ImagedNucleus": "1H",
      "ImagingFrequency": 123.258876,
      "InPlanePhaseEncodingDirection": "COL",
      "LargestImagePixelValue": 4095,
      "MRAcquisitionType": "2D",
      "MagneticFieldStrength": 3.0,
      "Manufacturer": "SIEMENS",
      "ManufacturerModelName": "Prisma_fit",
      "Modality": "MR",
      "NumberOfAverages": 1.0,
      "NumberOfPhaseEncodingSteps": 104,
      "PercentPhaseFieldOfView": 100.0,
      "PercentSampling": 100.0,
      "PerformedProcedureStepStartTime": "170251.687000",
      "PhotometricInterpretation": "MONOCHROME2",
      "PixelBandwidth": 2290.0,
      "PixelRepresentation": 0,
      "PixelSpacing": [2.0, 2.0],
      "ProtocolName": "func_task-things_run-6",
      "RepetitionTime": 1490.0,
      "RescaleIntercept": -4096.0,
      "RescaleSlope": 2.0,
      "RescaleType": "US",
      "Rows": 832,
      "SAR": 0.09570480531391,
      "SamplesPerPixel": 1,
      "ScanOptions": "FS",
      "ScanningSequence": "EP",
      "SequenceName": "epfid2d1_104",
      "SequenceVariant": [
        "SK",
        "SS"
],
      "SeriesDescription": "func_task-things_run-6",
      "SeriesNumber": 26,
      "SeriesTime": "180139.762000",
      "SliceLocation": -21.315829660463,
      "SliceThickness": 2.0,
      "SmallestImagePixelValue": 0,
      "SoftwareVersions": "syngo MR E11",
      "SpacingBetweenSlices": 1.9999999557764,
      "SpecificCharacterSet": "ISO_IR 100",
      "StudyID": "1",
      "StudyTime": "170251.603000",
      "TransmitCoilName": "Body",
      "VariableFlipAngleFlag": "N",
      "WindowCenterWidthExplanation": "Algo1",
      "dBdt": 0.0},
    "slices": {}
  },
  "time": {
    "samples": {
      "AcquisitionNumber": [1, 2, 3, 4, 5, 6, 7, 8, 9, 10, 11, 12, 13, 14, 15, 16, 17, 18, 19, 20, 21, 22, 23, 24, 25, 26, 27, 28, 29, 30, 31, 32, 33, 34, 35, 36, 37, 38, 39, 40, 41, 42, 43, 44, 45, 46, 47, 48, 49, 50, 51, 52, 53, 54, 55, 56, 57, 58, 59, 60, 61, 62, 63, 64, 65, 66, 67, 68, 69, 70, 71, 72, 73, 74, 75, 76, 77, 78, 79, 80, 81, 82, 83, 84, 85, 86, 87, 88, 89, 90, 91, 92, 93, 94, 95, 96, 97, 98, 99, 100, 101, 102, 103, 104, 105, 106, 107, 108, 109, 110, 111, 112, 113, 114, 115, 116, 117, 118, 119, 120, 121, 122, 123, 124, 125, 126, 127, 128, 129, 130, 131, 132, 133, 134, 135, 136, 137, 138, 139, 140, 141, 142, 143, 144, 145, 146, 147, 148, 149, 150, 151, 152, 153, 154, 155, 156, 157, 158, 159, 160, 161, 162, 163, 164, 165, 166, 167, 168, 169, 170, 171, 172, 173, 174, 175, 176, 177, 178, 179, 180, 181, 182, 183, 184, 185, 186, 187, 188, 189, 190],
      "AcquisitionTime": ["180020.395000", "180021.885000", "180023.375000", "180024.865000", "180026.355000", "180027.845000", "180029.335000", "180030.825000", "180032.315000", "180033.805000", "180035.295000", "180036.785000", "180038.275000", "180039.765000", "180041.255000", "180042.745000", "180044.235000", "180045.725000", "180047.215000", "180048.705000", "180050.195000", "180051.685000", "180053.175000", "180054.665000", "180056.155000", "180057.645000", "180059.135000", "180100.625000", "180102.115000", "180103.605000", "180105.095000", "180106.585000", "180108.075000", "180109.565000", "180111.055000", "180112.545000", "180114.035000", "180115.525000", "180117.015000", "180118.505000", "180119.995000", "180121.485000", "180122.975000", "180124.465000", "180125.955000", "180127.445000", "180128.935000", "180130.425000", "180131.915000", "180133.405000", "180134.895000", "180136.385000", "180137.875000", "180139.365000", "180140.855000", "180142.345000", "180143.835000", "180145.325000", "180146.815000", "180148.305000", "180149.795000", "180151.285000", "180152.775000", "180154.265000", "180155.755000", "180157.245000", "180158.735000", "180200.225000", "180201.715000", "180203.205000", "180204.695000", "180206.185000", "180207.675000", "180209.165000", "180210.655000", "180212.145000", "180213.635000", "180215.125000", "180216.615000", "180218.105000", "180219.595000", "180221.085000", "180222.575000", "180224.065000", "180225.555000", "180227.045000", "180228.535000", "180230.025000", "180231.515000", "180233.005000", "180234.495000", "180235.985000", "180237.475000", "180238.965000", "180240.455000", "180241.945000", "180243.435000", "180244.925000", "180246.415000", "180247.905000", "180249.395000", "180250.885000", "180252.375000", "180253.865000", "180255.355000", "180256.845000", "180258.335000", "180259.825000", "180301.315000", "180302.805000", "180304.295000", "180305.785000", "180307.275000", "180308.765000", "180310.255000", "180311.745000", "180313.235000", "180314.725000", "180316.215000", "180317.705000", "180319.195000", "180320.685000", "180322.175000", "180323.665000", "180325.155000", "180326.645000", "180328.135000", "180329.625000", "180331.115000", "180332.605000", "180334.095000", "180335.585000", "180337.075000", "180338.565000", "180340.055000", "180341.545000", "180343.035000", "180344.525000", "180346.015000", "180347.505000", "180348.995000", "180350.485000", "180351.975000", "180353.465000", "180354.955000", "180356.445000", "180357.935000", "180359.425000", "180400.915000", "180402.405000", "180403.895000", "180405.385000", "180406.875000", "180408.365000", "180409.855000", "180411.345000", "180412.835000", "180414.325000", "180415.815000", "180417.305000", "180418.795000", "180420.285000", "180421.775000", "180423.265000", "180424.755000", "180426.245000", "180427.735000", "180429.225000", "180430.715000", "180432.205000", "180433.695000", "180435.185000", "180436.675000", "180438.165000", "180439.655000", "180441.145000", "180442.635000", "180444.125000", "180445.615000", "180447.105000", "180448.595000", "180450.085000", "180451.575000", "180453.065000", "180454.555000", "180456.045000", "180457.535000", "180459.025000", "180500.515000", "180502.005000"],
      "ContentTime": ["180139.764000", "180139.767000", "180139.769000", "180139.776000", "180139.779000", "180139.781000", "180139.784000", "180139.786000", "180139.789000", "180139.791000", "180139.794000", "180139.796000", "180139.799000", "180139.801000", "180139.804000", "180139.806000", "180139.809000", "180139.811000", "180139.814000", "180139.816000", "180139.819000", "180139.821000", "180139.824000", "180139.826000", "180159.749000", "180159.752000", "180159.754000", "180159.757000", "180159.759000", "180159.762000", "180159.764000", "180159.767000", "180159.769000", "180159.772000", "180159.774000", "180159.777000", "180159.779000", "180159.782000", "180159.784000", "180159.787000", "180159.789000", "180159.792000", "180159.794000", "180159.797000", "180219.708000", "180219.711000", "180219.714000", "180219.716000", "180219.719000", "180219.721000", "180219.724000", "180219.726000", "180219.728000", "180219.731000", "180219.734000", "180219.736000", "180219.738000", "180219.741000", "180219.743000", "180219.746000", "180219.748000", "180219.751000", "180219.753000", "180219.756000", "180219.758000", "180239.718000", "180239.721000", "180239.724000", "180239.726000", "180239.729000", "180239.731000", "180239.734000", "180239.736000", "180239.739000", "180239.741000", "180239.744000", "180239.746000", "180239.749000", "180239.751000", "180239.754000", "180239.756000", "180239.759000", "180239.765000", "180239.768000", "180239.770000", "180259.723000", "180259.726000", "180259.729000", "180259.731000", "180259.734000", "180259.737000", "180259.739000", "180259.742000", "180259.744000", "180259.747000", "180259.749000", "180259.752000", "180259.754000", "180259.757000", "180259.759000", "180259.762000", "180259.764000", "180259.767000", "180259.769000", "180259.772000", "180339.742000", "180339.745000", "180339.748000", "180339.750000", "180339.753000", "180339.755000", "180339.758000", "180339.760000", "180339.763000", "180339.765000", "180339.768000", "180339.770000", "180339.773000", "180339.775000", "180339.778000", "180339.780000", "180339.783000", "180339.785000", "180339.788000", "180339.790000", "180339.793000", "180339.795000", "180339.798000", "180339.800000", "180339.803000", "180339.805000", "180339.808000", "180339.810000", "180419.750000", "180419.752000", "180419.755000", "180419.757000", "180419.760000", "180419.763000", "180419.765000", "180419.768000", "180419.770000", "180419.773000", "180419.775000", "180419.778000", "180419.780000", "180419.783000", "180419.785000", "180419.788000", "180419.790000", "180419.793000", "180419.795000", "180419.798000", "180419.800000", "180419.803000", "180419.805000", "180419.808000", "180419.810000", "180419.813000", "180419.815000", "180459.740000", "180459.743000", "180459.745000", "180459.748000", "180459.750000", "180459.753000", "180459.755000", "180459.758000", "180459.760000", "180459.763000", "180459.765000", "180459.768000", "180459.770000", "180459.773000", "180459.775000", "180459.778000", "180459.780000", "180459.783000", "180459.785000", "180459.788000", "180459.791000", "180459.793000", "180459.796000", "180459.798000", "180459.801000", "180459.803000", "180459.806000", "180504.068000", "180504.071000", "180504.074000"],
      "InstanceCreationTime": ["180139.764000", "180139.767000", "180139.769000", "180139.776000", "180139.779000", "180139.781000", "180139.784000", "180139.786000", "180139.789000", "180139.791000", "180139.794000", "180139.796000", "180139.799000", "180139.801000", "180139.804000", "180139.806000", "180139.809000", "180139.811000", "180139.814000", "180139.816000", "180139.819000", "180139.821000", "180139.824000", "180139.826000", "180159.749000", "180159.752000", "180159.754000", "180159.757000", "180159.759000", "180159.762000", "180159.764000", "180159.767000", "180159.769000", "180159.772000", "180159.774000", "180159.777000", "180159.779000", "180159.782000", "180159.784000", "180159.787000", "180159.789000", "180159.792000", "180159.794000", "180159.797000", "180219.708000", "180219.711000", "180219.714000", "180219.716000", "180219.719000", "180219.721000", "180219.724000", "180219.726000", "180219.728000", "180219.731000", "180219.734000", "180219.736000", "180219.738000", "180219.741000", "180219.743000", "180219.746000", "180219.748000", "180219.751000", "180219.753000", "180219.756000", "180219.758000", "180239.718000", "180239.721000", "180239.724000", "180239.726000", "180239.729000", "180239.731000", "180239.734000", "180239.736000", "180239.739000", "180239.741000", "180239.744000", "180239.746000", "180239.749000", "180239.751000", "180239.754000", "180239.756000", "180239.759000", "180239.765000", "180239.768000", "180239.770000", "180259.723000", "180259.726000", "180259.729000", "180259.731000", "180259.734000", "180259.737000", "180259.739000", "180259.742000", "180259.744000", "180259.747000", "180259.749000", "180259.752000", "180259.754000", "180259.757000", "180259.759000", "180259.762000", "180259.764000", "180259.767000", "180259.769000", "180259.772000", "180339.742000", "180339.745000", "180339.748000", "180339.750000", "180339.753000", "180339.755000", "180339.758000", "180339.760000", "180339.763000", "180339.765000", "180339.768000", "180339.770000", "180339.773000", "180339.775000", "180339.778000", "180339.780000", "180339.783000", "180339.785000", "180339.788000", "180339.790000", "180339.793000", "180339.795000", "180339.798000", "180339.800000", "180339.803000", "180339.805000", "180339.808000", "180339.810000", "180419.750000", "180419.752000", "180419.755000", "180419.757000", "180419.760000", "180419.763000", "180419.765000", "180419.768000", "180419.770000", "180419.773000", "180419.775000", "180419.778000", "180419.780000", "180419.783000", "180419.785000", "180419.788000", "180419.790000", "180419.793000", "180419.795000", "180419.798000", "180419.800000", "180419.803000", "180419.805000", "180419.808000", "180419.810000", "180419.813000", "180419.815000", "180459.740000", "180459.743000", "180459.745000", "180459.748000", "180459.750000", "180459.753000", "180459.755000", "180459.758000", "180459.760000", "180459.763000", "180459.765000", "180459.768000", "180459.770000", "180459.773000", "180459.775000", "180459.778000", "180459.780000", "180459.783000", "180459.785000", "180459.788000", "180459.791000", "180459.793000", "180459.796000", "180459.798000", "180459.801000", "180459.803000", "180459.806000", "180504.068000", "180504.071000", "180504.074000"],
      "InstanceNumber": [1, 2, 3, 4, 5, 6, 7, 8, 9, 10, 11, 12, 13, 14, 15, 16, 17, 18, 19, 20, 21, 22, 23, 24, 25, 26, 27, 28, 29, 30, 31, 32, 33, 34, 35, 36, 37, 38, 39, 40, 41, 42, 43, 44, 45, 46, 47, 48, 49, 50, 51, 52, 53, 54, 55, 56, 57, 58, 59, 60, 61, 62, 63, 64, 65, 66, 67, 68, 69, 70, 71, 72, 73, 74, 75, 76, 77, 78, 79, 80, 81, 82, 83, 84, 85, 86, 87, 88, 89, 90, 91, 92, 93, 94, 95, 96, 97, 98, 99, 100, 101, 102, 103, 104, 105, 106, 107, 108, 109, 110, 111, 112, 113, 114, 115, 116, 117, 118, 119, 120, 121, 122, 123, 124, 125, 126, 127, 128, 129, 130, 131, 132, 133, 134, 135, 136, 137, 138, 139, 140, 141, 142, 143, 144, 145, 146, 147, 148, 149, 150, 151, 152, 153, 154, 155, 156, 157, 158, 159, 160, 161, 162, 163, 164, 165, 166, 167, 168, 169, 170, 171, 172, 173, 174, 175, 176, 177, 178, 179, 180, 181, 182, 183, 184, 185, 186, 187, 188, 189, 190],
      "WindowCenter": [4880.0, 4870.0, 4876.0, 4882.0, 4860.0, 4858.0, 4860.0, 4862.0, 4880.0, 4902.0, 4902.0, 4904.0, 4880.0, 4882.0, 4884.0, 4862.0, 4862.0, 4884.0, 4882.0, 4884.0, 4886.0, 4886.0, 4886.0, 4882.0, 4904.0, 4884.0, 4886.0, 4888.0, 4884.0, 4886.0, 4884.0, 4886.0, 4886.0, 4900.0, 4900.0, 4882.0, 4888.0, 4862.0, 4862.0, 4888.0, 4888.0, 4884.0, 4910.0, 4908.0, 4904.0, 4906.0, 4908.0, 4886.0, 4888.0, 4882.0, 4884.0, 4884.0, 4886.0, 4884.0, 4884.0, 4886.0, 4886.0, 4886.0, 4884.0, 4886.0, 4908.0, 4884.0, 4886.0, 4864.0, 4884.0, 4884.0, 4882.0, 4906.0, 4902.0, 4872.0, 4872.0, 4878.0, 4862.0, 4860.0, 4860.0, 4874.0, 4870.0, 4874.0, 4880.0, 4862.0, 4862.0, 4862.0, 4884.0, 4884.0, 4900.0, 4900.0, 4900.0, 4902.0, 4884.0, 4882.0, 4886.0, 4884.0, 4888.0, 4888.0, 4904.0, 4884.0, 4908.0, 4884.0, 4908.0, 4886.0, 4884.0, 4886.0, 4888.0, 4886.0, 4884.0, 4886.0, 4904.0, 4910.0, 4908.0, 4880.0, 4900.0, 4880.0, 4886.0, 4886.0, 4884.0, 4886.0, 4886.0, 4886.0, 4906.0, 4902.0, 4906.0, 4906.0, 4908.0, 4910.0, 4908.0, 4884.0, 4886.0, 4886.0, 4914.0, 4886.0, 4908.0, 4910.0, 4910.0, 4908.0, 4914.0, 4908.0, 4910.0, 4888.0, 4910.0, 4912.0, 4908.0, 4908.0, 4886.0, 4890.0, 4886.0, 4892.0, 4912.0, 4908.0, 4912.0, 4910.0, 4912.0, 4910.0, 4912.0, 4910.0, 4912.0, 4888.0, 4888.0, 4912.0, 4908.0, 4908.0, 4912.0, 4912.0, 4910.0, 4908.0, 4912.0, 4914.0, 4910.0, 4912.0, 4910.0, 4914.0, 4888.0, 4888.0, 4908.0, 4916.0, 4912.0, 4914.0, 4914.0, 4914.0, 4912.0, 4914.0, 4914.0, 4910.0, 4914.0, 4908.0, 4912.0, 4908.0, 4912.0, 4908.0, 4910.0, 4912.0],
      "WindowWidth": [18652.0, 18668.0, 18670.0, 18652.0, 18610.0, 18612.0, 18606.0, 18618.0, 18658.0, 18696.0, 18702.0, 18700.0, 18668.0, 18660.0, 18654.0, 18614.0, 18614.0, 18650.0, 18646.0, 18658.0, 18660.0, 18656.0, 18658.0, 18664.0, 18700.0, 18652.0, 18652.0, 18658.0, 18652.0, 18648.0, 18642.0, 18652.0, 18666.0, 18702.0, 18704.0, 18662.0, 18646.0, 18610.0, 18616.0, 18650.0, 18652.0, 18652.0, 18694.0, 18694.0, 18700.0, 18702.0, 18692.0, 18656.0, 18658.0, 18642.0, 18642.0, 18652.0, 18656.0, 18658.0, 18664.0, 18660.0, 18658.0, 18664.0, 18658.0, 18654.0, 18696.0, 18660.0, 18654.0, 18618.0, 18646.0, 18654.0, 18668.0, 18694.0, 18696.0, 18674.0, 18676.0, 18660.0, 18618.0, 18608.0, 18620.0, 18664.0, 18676.0, 18678.0, 18654.0, 18614.0, 18612.0, 18610.0, 18650.0, 18658.0, 18700.0, 18704.0, 18700.0, 18700.0, 18666.0, 18662.0, 18658.0, 18650.0, 18652.0, 18654.0, 18694.0, 18660.0, 18696.0, 18664.0, 18694.0, 18662.0, 18660.0, 18660.0, 18664.0, 18658.0, 18654.0, 18664.0, 18696.0, 18700.0, 18698.0, 18670.0, 18698.0, 18668.0, 18654.0, 18654.0, 18648.0, 18646.0, 18656.0, 18662.0, 18694.0, 18706.0, 18702.0, 18698.0, 18694.0, 18696.0, 18704.0, 18658.0, 18650.0, 18662.0, 18686.0, 18664.0, 18696.0, 18690.0, 18690.0, 18694.0, 18690.0, 18704.0, 18698.0, 18662.0, 18700.0, 18700.0, 18696.0, 18700.0, 18660.0, 18658.0, 18650.0, 18656.0, 18698.0, 18694.0, 18704.0, 18706.0, 18702.0, 18698.0, 18704.0, 18690.0, 18694.0, 18656.0, 18656.0, 18696.0, 18694.0, 18698.0, 18706.0, 18704.0, 18700.0, 18692.0, 18692.0, 18702.0, 18702.0, 18706.0, 18692.0, 18694.0, 18664.0, 18662.0, 18698.0, 18704.0, 18710.0, 18702.0, 18700.0, 18696.0, 18694.0, 18696.0, 18688.0, 18692.0, 18700.0, 18690.0, 18698.0, 18704.0, 18700.0, 18696.0, 18694.0, 18688.0]
    },
    "slices": {}
  }
}