{
  "AcquisitionMatrixPE": 104,
  "AcquisitionNumber": 1,
  "AcquisitionTime": "17:44:57.620000",
  "BandwidthPerPixelPhaseEncode": 17.17,
  "BaseResolution": 104,
  "BodyPartExamined": "BRAIN",
  "CoilString": "HC1-7;NC1_2",
  "ConsistencyInfo": "N4_VE11C_LATEST_20160120",
  "ConversionSoftware": "dcm2niix",
  "ConversionSoftwareVersion": "v1.0.20190902",
  "DerivedVendorReportedEchoSpacing": 0.000560011,
  "DeviceSerialNumber": "167006",
  "DwellTime": 2.1e-06,
  "EchoTime": 0.037,
  "EchoTrainLength": 104,
  "EffectiveEchoSpacing": 0.000560011,
  "FlipAngle": 52,
  "ImageComments": "Unaliased_MB4_PE3_LB",
  "ImageOrientationPatientDICOM": [0.998871, 0.00291357, 0.0474203, 0.0113323, 0.954697, -0.297364],
  "ImageType": [
    "ORIGINAL",
    "PRIMARY",
    "P",
    "MB",
    "ND",
    "MOSAIC"
],
  "ImagingFrequency": 123.259,
  "InPlanePhaseEncodingDirectionDICOM": "COL",
  "InstitutionAddress": "Chemin_Queen-Mary_4565_Montreal_District_CA_H3W_1W5",
  "InstitutionName": "IUGM",
  "InstitutionalDepartmentName": "Department",
  "MRAcquisitionType": "2D",
  "MagneticFieldStrength": 3,
  "Manufacturer": "Siemens",
  "ManufacturersModelName": "Prisma_fit",
  "Modality": "MR",
  "MultibandAccelerationFactor": 4,
  "PartialFourier": 1,
  "PatientPosition": "HFS",
  "PercentPhaseFOV": 100,
  "PhaseEncodingDirection": "j",
  "PhaseEncodingSteps": 104,
  "PhaseResolution": 1,
  "PixelBandwidth": 2290,
  "ProcedureStepDescription": "memory_things",
  "ProtocolName": "func_task-things_run-4",
  "PulseSequenceDetails": "%CustomerSeq%_cmrr_mbep2d_bold",
  "ReceiveCoilActiveElements": "HC1-7;NC1,2",
  "ReceiveCoilName": "HeadNeck_64",
  "ReconMatrixPE": 104,
  "RepetitionTime": 1.49,
  "SAR": 0.0957048,
  "ScanOptions": "FS",
  "ScanningSequence": "EP",
  "SequenceName": "epfid2d1_104",
  "SequenceVariant": "SK_SS",
  "SeriesDescription": "func_task-things_run-4",
  "SeriesNumber": 20,
  "ShimSetting": [641, -7173, -8762, 680, 94, 51, -23, -15],
  "SliceThickness": 2,
  "SliceTiming": [0, 0.7825, 0.0975, 0.88, 0.195, 0.98, 0.2925, 1.0775, 0.3925, 1.175, 0.49, 1.2725, 0.5875, 1.37, 0.685, 0, 0.7825, 0.0975, 0.88, 0.195, 0.98, 0.2925, 1.0775, 0.3925, 1.175, 0.49, 1.2725, 0.5875, 1.37, 0.685, 0, 0.7825, 0.0975, 0.88, 0.195, 0.98, 0.2925, 1.0775, 0.3925, 1.175, 0.49, 1.2725, 0.5875, 1.37, 0.685, 0, 0.7825, 0.0975, 0.88, 0.195, 0.98, 0.2925, 1.0775, 0.3925, 1.175, 0.49, 1.2725, 0.5875, 1.37, 0.685],
  "SoftwareVersions": "syngo_MR_E11",
  "SpacingBetweenSlices": 2,
  "StationName": "MRC35049",
  "TaskName": "things",
  "TotalReadoutTime": 0.0576811,
  "TxRefAmp": 376.769,
  "WipMemBlock": "bf82bdad-2fb9-4cb8-b56b-805bbec4874c||Sequence: R016 ve11c/master r/e634e98; Dec 19 2017 11:00:25 by eja",
  "dcmmeta_affine": [
    [-1.9977415800094604, 0.022664682939648628, 0.09227685630321503, 104.60616302490234],
    [-0.005827135872095823, 1.909393548965454, -0.5951319932937622, -63.158111572265625],
    [0.09484066069126129, 0.5947288274765015, 1.907171368598938, -47.123085021972656],
    [0.0, 0.0, 0.0, 1.0]
],
  "dcmmeta_reorient_transform": [
    [0.0, -1.0, 0.0, 103.0],
    [1.0, 0.0, 0.0, 0.0],
    [0.0, 0.0, 1.0, 0.0],
    [0.0, 0.0, 0.0, 1.0]
],
  "dcmmeta_shape": [104, 104, 60, 190],
  "dcmmeta_slice_dim": 2,
  "dcmmeta_version": 0.6,
  "global": {
    "const": {
      "AcquisitionMatrix": [104, 0, 0, 104],
      "AngioFlag": "N",
      "BitsAllocated": 16,
      "BitsStored": 16,
      "BodyPartExamined": "BRAIN",
      "Columns": 832,
      "EchoNumbers": 1,
      "EchoTime": 37.0,
      "EchoTrainLength": 104,
      "FlipAngle": 52.0,
      "HighBit": 15,
      "ImageOrientationPatient": [0.9988707740675, 0.00291356803871, 0.04742033145257, 0.01133234181116, 0.95469680144342, -0.297364415058],
      "ImagePositionPatient": [-842.36849566117, -830.64977708564, 196.09327667776],
      "ImageType": [
        "ORIGINAL",
        "PRIMARY",
        "P",
        "MB",
        "ND",
        "MOSAIC"
],
      "ImagedNucleus": "1H",
      "ImagingFrequency": 123.258872,
      "InPlanePhaseEncodingDirection": "COL",
      "LargestImagePixelValue": 4095,
      "MRAcquisitionType": "2D",
      "MagneticFieldStrength": 3.0,
      "Manufacturer": "SIEMENS",
      "ManufacturerModelName": "Prisma_fit",
      "Modality": "MR",
      "NumberOfAverages": 1.0,
      "NumberOfPhaseEncodingSteps": 104,
      "PercentPhaseFieldOfView": 100.0,
      "PercentSampling": 100.0,
      "PerformedProcedureStepStartTime": "170251.687000",
      "PhotometricInterpretation": "MONOCHROME2",
      "PixelBandwidth": 2290.0,
      "PixelRepresentation": 0,
      "PixelSpacing": [2.0, 2.0],
      "ProtocolName": "func_task-things_run-4",
      "RepetitionTime": 1490.0,
      "RescaleIntercept": -4096.0,
      "RescaleSlope": 2.0,
      "RescaleType": "US",
      "Rows": 832,
      "SAR": 0.09570480531391,
      "SamplesPerPixel": 1,
      "ScanOptions": "FS",
      "ScanningSequence": "EP",
      "SequenceName": "epfid2d1_104",
      "SequenceVariant": [
        "SK",
        "SS"
],
      "SeriesDescription": "func_task-things_run-4",
      "SeriesNumber": 20,
      "SeriesTime": "174554.292000",
      "SliceLocation": -21.315829660463,
      "SliceThickness": 2.0,
      "SmallestImagePixelValue": 0,
      "SoftwareVersions": "syngo MR E11",
      "SpacingBetweenSlices": 1.9999999557764,
      "SpecificCharacterSet": "ISO_IR 100",
      "StudyID": "1",
      "StudyTime": "170251.603000",
      "TransmitCoilName": "Body",
      "VariableFlipAngleFlag": "N",
      "WindowCenterWidthExplanation": "Algo1",
      "dBdt": 0.0},
    "slices": {}
  },
  "time": {
    "samples": {
      "AcquisitionNumber": [1, 2, 3, 4, 5, 6, 7, 8, 9, 10, 11, 12, 13, 14, 15, 16, 17, 18, 19, 20, 21, 22, 23, 24, 25, 26, 27, 28, 29, 30, 31, 32, 33, 34, 35, 36, 37, 38, 39, 40, 41, 42, 43, 44, 45, 46, 47, 48, 49, 50, 51, 52, 53, 54, 55, 56, 57, 58, 59, 60, 61, 62, 63, 64, 65, 66, 67, 68, 69, 70, 71, 72, 73, 74, 75, 76, 77, 78, 79, 80, 81, 82, 83, 84, 85, 86, 87, 88, 89, 90, 91, 92, 93, 94, 95, 96, 97, 98, 99, 100, 101, 102, 103, 104, 105, 106, 107, 108, 109, 110, 111, 112, 113, 114, 115, 116, 117, 118, 119, 120, 121, 122, 123, 124, 125, 126, 127, 128, 129, 130, 131, 132, 133, 134, 135, 136, 137, 138, 139, 140, 141, 142, 143, 144, 145, 146, 147, 148, 149, 150, 151, 152, 153, 154, 155, 156, 157, 158, 159, 160, 161, 162, 163, 164, 165, 166, 167, 168, 169, 170, 171, 172, 173, 174, 175, 176, 177, 178, 179, 180, 181, 182, 183, 184, 185, 186, 187, 188, 189, 190],
      "AcquisitionTime": ["174457.620000", "174459.110000", "174500.600000", "174502.090000", "174503.580000", "174505.070000", "174506.560000", "174508.050000", "174509.540000", "174511.030000", "174512.520000", "174514.010000", "174515.500000", "174516.990000", "174518.480000", "174519.970000", "174521.460000", "174522.950000", "174524.440000", "174525.930000", "174527.420000", "174528.910000", "174530.400000", "174531.890000", "174533.380000", "174534.870000", "174536.360000", "174537.850000", "174539.340000", "174540.830000", "174542.320000", "174543.810000", "174545.300000", "174546.790000", "174548.280000", "174549.770000", "174551.260000", "174552.750000", "174554.240000", "174555.730000", "174557.220000", "174558.710000", "174600.200000", "174601.690000", "174603.180000", "174604.670000", "174606.160000", "174607.650000", "174609.140000", "174610.630000", "174612.120000", "174613.610000", "174615.100000", "174616.590000", "174618.080000", "174619.570000", "174621.060000", "174622.550000", "174624.040000", "174625.530000", "174627.020000", "174628.510000", "174630.000000", "174631.490000", "174632.980000", "174634.470000", "174635.960000", "174637.450000", "174638.940000", "174640.430000", "174641.920000", "174643.410000", "174644.900000", "174646.390000", "174647.880000", "174649.370000", "174650.860000", "174652.350000", "174653.840000", "174655.330000", "174656.820000", "174658.310000", "174659.800000", "174701.290000", "174702.780000", "174704.270000", "174705.760000", "174707.250000", "174708.740000", "174710.230000", "174711.720000", "174713.210000", "174714.700000", "174716.190000", "174717.680000", "174719.170000", "174720.660000", "174722.150000", "174723.640000", "174725.130000", "174726.620000", "174728.110000", "174729.600000", "174731.090000", "174732.580000", "174734.070000", "174735.560000", "174737.050000", "174738.540000", "174740.030000", "174741.520000", "174743.010000", "174744.500000", "174745.990000", "174747.480000", "174748.970000", "174750.460000", "174751.950000", "174753.440000", "174754.930000", "174756.420000", "174757.910000", "174759.400000", "174800.890000", "174802.380000", "174803.870000", "174805.360000", "174806.850000", "174808.340000", "174809.830000", "174811.320000", "174812.810000", "174814.300000", "174815.790000", "174817.280000", "174818.770000", "174820.260000", "174821.750000", "174823.240000", "174824.730000", "174826.220000", "174827.710000", "174829.200000", "174830.690000", "174832.180000", "174833.670000", "174835.160000", "174836.650000", "174838.140000", "174839.630000", "174841.120000", "174842.610000", "174844.100000", "174845.590000", "174847.080000", "174848.570000", "174850.060000", "174851.550000", "174853.040000", "174854.530000", "174856.020000", "174857.510000", "174859.000000", "174900.490000", "174901.980000", "174903.470000", "174904.960000", "174906.450000", "174907.940000", "174909.430000", "174910.920000", "174912.410000", "174913.900000", "174915.390000", "174916.880000", "174918.370000", "174919.860000", "174921.350000", "174922.840000", "174924.330000", "174925.820000", "174927.310000", "174928.800000", "174930.290000", "174931.780000", "174933.270000", "174934.760000", "174936.250000", "174937.740000", "174939.230000"],
      "ContentTime": ["174554.294000", "174554.297000", "174614.354000", "174614.357000", "174614.360000", "174614.362000", "174614.365000", "174614.367000", "174614.370000", "174614.372000", "174614.375000", "174614.377000", "174614.380000", "174614.382000", "174614.385000", "174614.387000", "174614.390000", "174614.392000", "174614.395000", "174614.405000", "174614.408000", "174614.410000", "174614.413000", "174634.335000", "174634.338000", "174634.340000", "174634.343000", "174634.345000", "174634.348000", "174634.350000", "174634.353000", "174634.355000", "174634.358000", "174634.360000", "174634.363000", "174634.365000", "174634.368000", "174634.370000", "174634.373000", "174634.375000", "174634.378000", "174634.380000", "174634.383000", "174654.357000", "174654.360000", "174654.362000", "174654.365000", "174654.367000", "174654.370000", "174654.372000", "174654.375000", "174654.377000", "174654.380000", "174654.382000", "174654.385000", "174654.387000", "174654.390000", "174654.392000", "174654.395000", "174654.397000", "174654.400000", "174654.402000", "174654.405000", "174714.356000", "174714.359000", "174714.361000", "174714.364000", "174714.366000", "174714.369000", "174714.371000", "174714.374000", "174714.376000", "174714.379000", "174714.381000", "174714.384000", "174714.386000", "174714.389000", "174714.391000", "174714.394000", "174714.396000", "174714.399000", "174714.401000", "174714.404000", "174734.344000", "174734.346000", "174734.349000", "174734.351000", "174734.354000", "174734.356000", "174734.359000", "174734.361000", "174734.364000", "174734.366000", "174734.369000", "174734.371000", "174734.374000", "174734.376000", "174734.379000", "174734.381000", "174734.384000", "174734.386000", "174734.389000", "174734.391000", "174734.394000", "174814.369000", "174814.372000", "174814.375000", "174814.377000", "174814.380000", "174814.382000", "174814.385000", "174814.387000", "174814.390000", "174814.392000", "174814.395000", "174814.397000", "174814.400000", "174814.402000", "174814.405000", "174814.407000", "174814.410000", "174814.412000", "174814.415000", "174814.417000", "174814.420000", "174814.422000", "174814.425000", "174814.427000", "174814.430000", "174814.432000", "174814.435000", "174854.365000", "174854.368000", "174854.370000", "174854.373000", "174854.375000", "174854.378000", "174854.380000", "174854.383000", "174854.385000", "174854.388000", "174854.390000", "174854.393000", "174854.395000", "174854.398000", "174854.400000", "174854.403000", "174854.405000", "174854.408000", "174854.410000", "174854.413000", "174854.415000", "174854.418000", "174854.420000", "174854.423000", "174854.425000", "174854.428000", "174854.430000", "174934.361000", "174934.364000", "174934.367000", "174934.369000", "174934.372000", "174934.374000", "174934.377000", "174934.379000", "174934.382000", "174934.384000", "174934.387000", "174934.389000", "174934.392000", "174934.394000", "174934.397000", "174934.399000", "174934.402000", "174934.404000", "174934.407000", "174934.409000", "174934.412000", "174934.414000", "174934.417000", "174934.419000", "174934.422000", "174934.424000", "174934.427000", "174941.418000", "174941.420000", "174941.423000", "174941.426000", "174941.428000"],
      "InstanceCreationTime": ["174554.294000", "174554.297000", "174614.354000", "174614.357000", "174614.360000", "174614.362000", "174614.365000", "174614.367000", "174614.370000", "174614.372000", "174614.375000", "174614.377000", "174614.380000", "174614.382000", "174614.385000", "174614.387000", "174614.390000", "174614.392000", "174614.395000", "174614.405000", "174614.408000", "174614.410000", "174614.413000", "174634.335000", "174634.338000", "174634.340000", "174634.343000", "174634.345000", "174634.348000", "174634.350000", "174634.353000", "174634.355000", "174634.358000", "174634.360000", "174634.363000", "174634.365000", "174634.368000", "174634.370000", "174634.373000", "174634.375000", "174634.378000", "174634.380000", "174634.383000", "174654.357000", "174654.360000", "174654.362000", "174654.365000", "174654.367000", "174654.370000", "174654.372000", "174654.375000", "174654.377000", "174654.380000", "174654.382000", "174654.385000", "174654.387000", "174654.390000", "174654.392000", "174654.395000", "174654.397000", "174654.400000", "174654.402000", "174654.405000", "174714.356000", "174714.359000", "174714.361000", "174714.364000", "174714.366000", "174714.369000", "174714.371000", "174714.374000", "174714.376000", "174714.379000", "174714.381000", "174714.384000", "174714.386000", "174714.389000", "174714.391000", "174714.394000", "174714.396000", "174714.399000", "174714.401000", "174714.404000", "174734.344000", "174734.346000", "174734.349000", "174734.351000", "174734.354000", "174734.356000", "174734.359000", "174734.361000", "174734.364000", "174734.366000", "174734.369000", "174734.371000", "174734.374000", "174734.376000", "174734.379000", "174734.381000", "174734.384000", "174734.386000", "174734.389000", "174734.391000", "174734.394000", "174814.369000", "174814.372000", "174814.375000", "174814.377000", "174814.380000", "174814.382000", "174814.385000", "174814.387000", "174814.390000", "174814.392000", "174814.395000", "174814.397000", "174814.400000", "174814.402000", "174814.405000", "174814.407000", "174814.410000", "174814.412000", "174814.415000", "174814.417000", "174814.420000", "174814.422000", "174814.425000", "174814.427000", "174814.430000", "174814.432000", "174814.435000", "174854.365000", "174854.368000", "174854.370000", "174854.373000", "174854.375000", "174854.378000", "174854.380000", "174854.383000", "174854.385000", "174854.388000", "174854.390000", "174854.393000", "174854.395000", "174854.398000", "174854.400000", "174854.403000", "174854.405000", "174854.408000", "174854.410000", "174854.413000", "174854.415000", "174854.418000", "174854.420000", "174854.423000", "174854.425000", "174854.428000", "174854.430000", "174934.361000", "174934.364000", "174934.367000", "174934.369000", "174934.372000", "174934.374000", "174934.377000", "174934.379000", "174934.382000", "174934.384000", "174934.387000", "174934.389000", "174934.392000", "174934.394000", "174934.397000", "174934.399000", "174934.402000", "174934.404000", "174934.407000", "174934.409000", "174934.412000", "174934.414000", "174934.417000", "174934.419000", "174934.422000", "174934.424000", "174934.427000", "174941.418000", "174941.420000", "174941.423000", "174941.426000", "174941.428000"],
      "InstanceNumber": [1, 2, 3, 4, 5, 6, 7, 8, 9, 10, 11, 12, 13, 14, 15, 16, 17, 18, 19, 20, 21, 22, 23, 24, 25, 26, 27, 28, 29, 30, 31, 32, 33, 34, 35, 36, 37, 38, 39, 40, 41, 42, 43, 44, 45, 46, 47, 48, 49, 50, 51, 52, 53, 54, 55, 56, 57, 58, 59, 60, 61, 62, 63, 64, 65, 66, 67, 68, 69, 70, 71, 72, 73, 74, 75, 76, 77, 78, 79, 80, 81, 82, 83, 84, 85, 86, 87, 88, 89, 90, 91, 92, 93, 94, 95, 96, 97, 98, 99, 100, 101, 102, 103, 104, 105, 106, 107, 108, 109, 110, 111, 112, 113, 114, 115, 116, 117, 118, 119, 120, 121, 122, 123, 124, 125, 126, 127, 128, 129, 130, 131, 132, 133, 134, 135, 136, 137, 138, 139, 140, 141, 142, 143, 144, 145, 146, 147, 148, 149, 150, 151, 152, 153, 154, 155, 156, 157, 158, 159, 160, 161, 162, 163, 164, 165, 166, 167, 168, 169, 170, 171, 172, 173, 174, 175, 176, 177, 178, 179, 180, 181, 182, 183, 184, 185, 186, 187, 188, 189, 190],
      "WindowCenter": [4838.0, 4862.0, 4858.0, 4858.0, 4836.0, 4836.0, 4830.0, 4834.0, 4838.0, 4838.0, 4838.0, 4834.0, 4834.0, 4834.0, 4836.0, 4834.0, 4834.0, 4834.0, 4858.0, 4832.0, 4834.0, 4832.0, 4832.0, 4838.0, 4834.0, 4834.0, 4834.0, 4832.0, 4832.0, 4836.0, 4860.0, 4834.0, 4860.0, 4834.0, 4834.0, 4838.0, 4836.0, 4836.0, 4834.0, 4832.0, 4858.0, 4858.0, 4838.0, 4836.0, 4838.0, 4834.0, 4834.0, 4838.0, 4832.0, 4834.0, 4862.0, 4838.0, 4836.0, 4858.0, 4836.0, 4858.0, 4860.0, 4834.0, 4836.0, 4834.0, 4834.0, 4836.0, 4832.0, 4862.0, 4858.0, 4858.0, 4862.0, 4860.0, 4858.0, 4832.0, 4834.0, 4838.0, 4832.0, 4834.0, 4860.0, 4836.0, 4836.0, 4860.0, 4836.0, 4860.0, 4860.0, 4836.0, 4834.0, 4838.0, 4836.0, 4838.0, 4832.0, 4832.0, 4836.0, 4860.0, 4836.0, 4836.0, 4860.0, 4836.0, 4836.0, 4860.0, 4836.0, 4834.0, 4836.0, 4834.0, 4836.0, 4838.0, 4836.0, 4838.0, 4860.0, 4860.0, 4862.0, 4860.0, 4860.0, 4862.0, 4834.0, 4836.0, 4836.0, 4838.0, 4836.0, 4836.0, 4858.0, 4858.0, 4862.0, 4858.0, 4862.0, 4860.0, 4834.0, 4834.0, 4834.0, 4832.0, 4860.0, 4862.0, 4860.0, 4862.0, 4836.0, 4834.0, 4832.0, 4834.0, 4838.0, 4860.0, 4864.0, 4860.0, 4862.0, 4864.0, 4836.0, 4858.0, 4836.0, 4836.0, 4834.0, 4832.0, 4864.0, 4864.0, 4864.0, 4860.0, 4858.0, 4834.0, 4836.0, 4834.0, 4834.0, 4838.0, 4860.0, 4862.0, 4888.0, 4862.0, 4836.0, 4834.0, 4834.0, 4832.0, 4834.0, 4834.0, 4836.0, 4862.0, 4866.0, 4860.0, 4862.0, 4886.0, 4860.0, 4858.0, 4860.0, 4838.0, 4832.0, 4836.0, 4836.0, 4860.0, 4862.0, 4860.0, 4864.0, 4862.0, 4858.0, 4858.0, 4834.0, 4840.0, 4834.0, 4858.0],
      "WindowWidth": [18576.0, 18606.0, 18606.0, 18606.0, 18570.0, 18574.0, 18566.0, 18568.0, 18572.0, 18568.0, 18572.0, 18568.0, 18566.0, 18566.0, 18572.0, 18568.0, 18570.0, 18568.0, 18604.0, 18568.0, 18566.0, 18566.0, 18568.0, 18574.0, 18568.0, 18566.0, 18570.0, 18562.0, 18560.0, 18570.0, 18600.0, 18564.0, 18602.0, 18568.0, 18568.0, 18568.0, 18570.0, 18566.0, 18562.0, 18566.0, 18600.0, 18598.0, 18574.0, 18570.0, 18568.0, 18568.0, 18568.0, 18572.0, 18564.0, 18564.0, 18602.0, 18570.0, 18572.0, 18600.0, 18570.0, 18598.0, 18606.0, 18564.0, 18570.0, 18568.0, 18572.0, 18568.0, 18568.0, 18600.0, 18596.0, 18598.0, 18600.0, 18606.0, 18598.0, 18566.0, 18568.0, 18574.0, 18562.0, 18570.0, 18600.0, 18572.0, 18570.0, 18602.0, 18572.0, 18600.0, 18606.0, 18568.0, 18570.0, 18564.0, 18564.0, 18570.0, 18564.0, 18566.0, 18570.0, 18600.0, 18574.0, 18568.0, 18606.0, 18568.0, 18568.0, 18602.0, 18570.0, 18564.0, 18572.0, 18568.0, 18562.0, 18566.0, 18568.0, 18568.0, 18592.0, 18598.0, 18602.0, 18598.0, 18602.0, 18602.0, 18566.0, 18572.0, 18566.0, 18572.0, 18570.0, 18570.0, 18600.0, 18600.0, 18602.0, 18596.0, 18598.0, 18604.0, 18566.0, 18568.0, 18564.0, 18566.0, 18598.0, 18606.0, 18608.0, 18606.0, 18568.0, 18570.0, 18568.0, 18562.0, 18570.0, 18598.0, 18606.0, 18604.0, 18602.0, 18602.0, 18570.0, 18600.0, 18568.0, 18566.0, 18566.0, 18566.0, 18604.0, 18608.0, 18602.0, 18602.0, 18598.0, 18568.0, 18568.0, 18568.0, 18564.0, 18570.0, 18594.0, 18604.0, 18642.0, 18602.0, 18568.0, 18568.0, 18568.0, 18568.0, 18568.0, 18570.0, 18572.0, 18608.0, 18608.0, 18608.0, 18610.0, 18644.0, 18598.0, 18594.0, 18602.0, 18570.0, 18570.0, 18572.0, 18570.0, 18600.0, 18606.0, 18596.0, 18608.0, 18608.0, 18598.0, 18602.0, 18566.0, 18570.0, 18568.0, 18600.0]
    },
    "slices": {}
  }
}