{
  "AcquisitionMatrixPE": 104,
  "AcquisitionNumber": 1,
  "AcquisitionTime": "17:37:36.572500",
  "BandwidthPerPixelPhaseEncode": 17.17,
  "BaseResolution": 104,
  "BodyPartExamined": "BRAIN",
  "CoilString": "HC1-7;NC1_2",
  "ConsistencyInfo": "N4_VE11C_LATEST_20160120",
  "ConversionSoftware": "dcm2niix",
  "ConversionSoftwareVersion": "v1.0.20190902",
  "DerivedVendorReportedEchoSpacing": 0.000560011,
  "DeviceSerialNumber": "167006",
  "DwellTime": 2.1e-06,
  "EchoTime": 0.037,
  "EchoTrainLength": 104,
  "EffectiveEchoSpacing": 0.000560011,
  "FlipAngle": 52,
  "ImageComments": "Unaliased_MB4_PE3_LB",
  "ImageOrientationPatientDICOM": [0.998871, 0.00291357, 0.0474203, 0.0113323, 0.954697, -0.297364],
  "ImageType": [
    "ORIGINAL",
    "PRIMARY",
    "P",
    "MB",
    "ND",
    "MOSAIC"
],
  "ImagingFrequency": 123.259,
  "InPlanePhaseEncodingDirectionDICOM": "COL",
  "InstitutionAddress": "Chemin_Queen-Mary_4565_Montreal_District_CA_H3W_1W5",
  "InstitutionName": "IUGM",
  "InstitutionalDepartmentName": "Department",
  "MRAcquisitionType": "2D",
  "MagneticFieldStrength": 3,
  "Manufacturer": "Siemens",
  "ManufacturersModelName": "Prisma_fit",
  "Modality": "MR",
  "MultibandAccelerationFactor": 4,
  "PartialFourier": 1,
  "PatientPosition": "HFS",
  "PercentPhaseFOV": 100,
  "PhaseEncodingDirection": "j",
  "PhaseEncodingSteps": 104,
  "PhaseResolution": 1,
  "PixelBandwidth": 2290,
  "ProcedureStepDescription": "memory_things",
  "ProtocolName": "func_task-things_run-3",
  "PulseSequenceDetails": "%CustomerSeq%_cmrr_mbep2d_bold",
  "ReceiveCoilActiveElements": "HC1-7;NC1,2",
  "ReceiveCoilName": "HeadNeck_64",
  "ReconMatrixPE": 104,
  "RepetitionTime": 1.49,
  "SAR": 0.0957048,
  "ScanOptions": "FS",
  "ScanningSequence": "EP",
  "SequenceName": "epfid2d1_104",
  "SequenceVariant": "SK_SS",
  "SeriesDescription": "func_task-things_run-3",
  "SeriesNumber": 17,
  "ShimSetting": [641, -7173, -8762, 680, 94, 51, -23, -15],
  "SliceThickness": 2,
  "SliceTiming": [0, 0.785, 0.0975, 0.8825, 0.195, 0.98, 0.295, 1.0775, 0.3925, 1.175, 0.49, 1.275, 0.5875, 1.3725, 0.685, 0, 0.785, 0.0975, 0.8825, 0.195, 0.98, 0.295, 1.0775, 0.3925, 1.175, 0.49, 1.275, 0.5875, 1.3725, 0.685, 0, 0.785, 0.0975, 0.8825, 0.195, 0.98, 0.295, 1.0775, 0.3925, 1.175, 0.49, 1.275, 0.5875, 1.3725, 0.685, 0, 0.785, 0.0975, 0.8825, 0.195, 0.98, 0.295, 1.0775, 0.3925, 1.175, 0.49, 1.275, 0.5875, 1.3725, 0.685],
  "SoftwareVersions": "syngo_MR_E11",
  "SpacingBetweenSlices": 2,
  "StationName": "MRC35049",
  "TaskName": "things",
  "TotalReadoutTime": 0.0576811,
  "TxRefAmp": 376.769,
  "WipMemBlock": "e4693fdf-36b7-4c8c-8394-b0ca86bd3f34||Sequence: R016 ve11c/master r/e634e98; Dec 19 2017 11:00:25 by eja",
  "dcmmeta_affine": [
    [-1.9977415800094604, 0.022664682939648628, 0.09227685630321503, 104.60616302490234],
    [-0.005827135872095823, 1.909393548965454, -0.5951319932937622, -63.158111572265625],
    [0.09484066069126129, 0.5947288274765015, 1.907171368598938, -47.123085021972656],
    [0.0, 0.0, 0.0, 1.0]
],
  "dcmmeta_reorient_transform": [
    [0.0, -1.0, 0.0, 103.0],
    [1.0, 0.0, 0.0, 0.0],
    [0.0, 0.0, 1.0, 0.0],
    [0.0, 0.0, 0.0, 1.0]
],
  "dcmmeta_shape": [104, 104, 60, 190],
  "dcmmeta_slice_dim": 2,
  "dcmmeta_version": 0.6,
  "global": {
    "const": {
      "AcquisitionMatrix": [104, 0, 0, 104],
      "AngioFlag": "N",
      "BitsAllocated": 16,
      "BitsStored": 16,
      "BodyPartExamined": "BRAIN",
      "Columns": 832,
      "EchoNumbers": 1,
      "EchoTime": 37.0,
      "EchoTrainLength": 104,
      "FlipAngle": 52.0,
      "HighBit": 15,
      "ImageOrientationPatient": [0.9988707740675, 0.00291356803871, 0.04742033145257, 0.01133234181116, 0.95469680144342, -0.297364415058],
      "ImagePositionPatient": [-842.36849566117, -830.64977708564, 196.09327667776],
      "ImageType": [
        "ORIGINAL",
        "PRIMARY",
        "P",
        "MB",
        "ND",
        "MOSAIC"
],
      "ImagedNucleus": "1H",
      "ImagingFrequency": 123.258869,
      "InPlanePhaseEncodingDirection": "COL",
      "LargestImagePixelValue": 4095,
      "MRAcquisitionType": "2D",
      "MagneticFieldStrength": 3.0,
      "Manufacturer": "SIEMENS",
      "ManufacturerModelName": "Prisma_fit",
      "Modality": "MR",
      "NumberOfAverages": 1.0,
      "NumberOfPhaseEncodingSteps": 104,
      "PercentPhaseFieldOfView": 100.0,
      "PercentSampling": 100.0,
      "PerformedProcedureStepStartTime": "170251.687000",
      "PhotometricInterpretation": "MONOCHROME2",
      "PixelBandwidth": 2290.0,
      "PixelRepresentation": 0,
      "PixelSpacing": [2.0, 2.0],
      "ProtocolName": "func_task-things_run-3",
      "RepetitionTime": 1490.0,
      "RescaleIntercept": -4096.0,
      "RescaleSlope": 2.0,
      "RescaleType": "US",
      "Rows": 832,
      "SAR": 0.09570480531391,
      "SamplesPerPixel": 1,
      "ScanOptions": "FS",
      "ScanningSequence": "EP",
      "SequenceName": "epfid2d1_104",
      "SequenceVariant": [
        "SK",
        "SS"
],
      "SeriesDescription": "func_task-things_run-3",
      "SeriesNumber": 17,
      "SeriesTime": "173859.775000",
      "SliceLocation": -21.315829660463,
      "SliceThickness": 2.0,
      "SmallestImagePixelValue": 0,
      "SoftwareVersions": "syngo MR E11",
      "SpacingBetweenSlices": 1.9999999557764,
      "SpecificCharacterSet": "ISO_IR 100",
      "StudyID": "1",
      "StudyTime": "170251.603000",
      "TransmitCoilName": "Body",
      "VariableFlipAngleFlag": "N",
      "WindowCenterWidthExplanation": "Algo1",
      "dBdt": 0.0},
    "slices": {}
  },
  "time": {
    "samples": {
      "AcquisitionNumber": [1, 2, 3, 4, 5, 6, 7, 8, 9, 10, 11, 12, 13, 14, 15, 16, 17, 18, 19, 20, 21, 22, 23, 24, 25, 26, 27, 28, 29, 30, 31, 32, 33, 34, 35, 36, 37, 38, 39, 40, 41, 42, 43, 44, 45, 46, 47, 48, 49, 50, 51, 52, 53, 54, 55, 56, 57, 58, 59, 60, 61, 62, 63, 64, 65, 66, 67, 68, 69, 70, 71, 72, 73, 74, 75, 76, 77, 78, 79, 80, 81, 82, 83, 84, 85, 86, 87, 88, 89, 90, 91, 92, 93, 94, 95, 96, 97, 98, 99, 100, 101, 102, 103, 104, 105, 106, 107, 108, 109, 110, 111, 112, 113, 114, 115, 116, 117, 118, 119, 120, 121, 122, 123, 124, 125, 126, 127, 128, 129, 130, 131, 132, 133, 134, 135, 136, 137, 138, 139, 140, 141, 142, 143, 144, 145, 146, 147, 148, 149, 150, 151, 152, 153, 154, 155, 156, 157, 158, 159, 160, 161, 162, 163, 164, 165, 166, 167, 168, 169, 170, 171, 172, 173, 174, 175, 176, 177, 178, 179, 180, 181, 182, 183, 184, 185, 186, 187, 188, 189, 190],
      "AcquisitionTime": ["173736.572500", "173738.062500", "173739.552500", "173741.042500", "173742.532500", "173744.022500", "173745.512500", "173747.002500", "173748.492500", "173749.982500", "173751.472500", "173752.962500", "173754.452500", "173755.942500", "173757.432500", "173758.922500", "173800.412500", "173801.902500", "173803.392500", "173804.882500", "173806.372500", "173807.862500", "173809.352500", "173810.842500", "173812.332500", "173813.822500", "173815.312500", "173816.802500", "173818.292500", "173819.782500", "173821.272500", "173822.762500", "173824.252500", "173825.742500", "173827.232500", "173828.722500", "173830.212500", "173831.702500", "173833.192500", "173834.682500", "173836.172500", "173837.662500", "173839.152500", "173840.642500", "173842.132500", "173843.622500", "173845.112500", "173846.602500", "173848.092500", "173849.582500", "173851.072500", "173852.562500", "173854.052500", "173855.542500", "173857.032500", "173858.522500", "173900.012500", "173901.502500", "173902.992500", "173904.482500", "173905.972500", "173907.462500", "173908.952500", "173910.442500", "173911.932500", "173913.422500", "173914.912500", "173916.402500", "173917.892500", "173919.382500", "173920.872500", "173922.362500", "173923.852500", "173925.342500", "173926.832500", "173928.322500", "173929.812500", "173931.302500", "173932.792500", "173934.282500", "173935.772500", "173937.262500", "173938.752500", "173940.242500", "173941.732500", "173943.222500", "173944.712500", "173946.202500", "173947.692500", "173949.182500", "173950.672500", "173952.162500", "173953.652500", "173955.142500", "173956.632500", "173958.122500", "173959.612500", "174001.102500", "174002.592500", "174004.082500", "174005.572500", "174007.062500", "174008.552500", "174010.042500", "174011.532500", "174013.022500", "174014.512500", "174016.002500", "174017.492500", "174018.982500", "174020.472500", "174021.962500", "174023.452500", "174024.942500", "174026.432500", "174027.922500", "174029.412500", "174030.902500", "174032.392500", "174033.882500", "174035.372500", "174036.862500", "174038.352500", "174039.842500", "174041.332500", "174042.822500", "174044.312500", "174045.802500", "174047.292500", "174048.782500", "174050.272500", "174051.762500", "174053.252500", "174054.742500", "174056.232500", "174057.722500", "174059.212500", "174100.702500", "174102.192500", "174103.682500", "174105.172500", "174106.662500", "174108.152500", "174109.642500", "174111.132500", "174112.622500", "174114.112500", "174115.602500", "174117.092500", "174118.582500", "174120.072500", "174121.562500", "174123.052500", "174124.542500", "174126.032500", "174127.522500", "174129.012500", "174130.502500", "174131.992500", "174133.482500", "174134.972500", "174136.462500", "174137.952500", "174139.442500", "174140.932500", "174142.422500", "174143.912500", "174145.402500", "174146.892500", "174148.382500", "174149.872500", "174151.362500", "174152.852500", "174154.342500", "174155.832500", "174157.322500", "174158.812500", "174200.302500", "174201.792500", "174203.282500", "174204.772500", "174206.262500", "174207.752500", "174209.242500", "174210.732500", "174212.222500", "174213.712500", "174215.202500", "174216.692500", "174218.182500"],
      "ContentTime": ["173859.777000", "173859.779000", "173859.782000", "173859.785000", "173859.787000", "173859.790000", "173859.792000", "173859.795000", "173859.797000", "173859.800000", "173859.802000", "173859.805000", "173859.807000", "173859.810000", "173859.812000", "173859.815000", "173859.817000", "173859.820000", "173859.822000", "173859.825000", "173859.827000", "173859.830000", "173859.832000", "173859.835000", "173859.837000", "173859.840000", "173859.842000", "173859.844000", "173859.847000", "173919.716000", "173919.719000", "173919.722000", "173919.724000", "173919.727000", "173919.729000", "173919.732000", "173919.734000", "173919.736000", "173919.739000", "173919.741000", "173919.745000", "173919.748000", "173919.750000", "173919.753000", "173919.755000", "173919.758000", "173919.760000", "173919.763000", "173919.765000", "173940.155000", "173940.158000", "173940.160000", "173940.163000", "173940.165000", "173940.169000", "173940.172000", "173940.174000", "173940.176000", "173940.179000", "173940.181000", "173940.184000", "173940.187000", "173940.189000", "173940.192000", "173940.194000", "173940.196000", "173940.199000", "173940.201000", "173940.204000", "173940.206000", "173959.737000", "173959.740000", "173959.743000", "173959.745000", "173959.747000", "173959.750000", "173959.753000", "173959.755000", "173959.757000", "173959.760000", "173959.762000", "173959.765000", "173959.768000", "173959.770000", "173959.773000", "173959.775000", "173959.777000", "173959.780000", "173959.782000", "173959.785000", "174039.787000", "174039.790000", "174039.792000", "174039.795000", "174039.797000", "174039.800000", "174039.803000", "174039.805000", "174039.808000", "174039.810000", "174039.813000", "174039.815000", "174039.818000", "174039.820000", "174039.823000", "174039.825000", "174039.828000", "174039.830000", "174039.833000", "174039.835000", "174039.838000", "174039.840000", "174039.843000", "174039.845000", "174039.848000", "174039.850000", "174039.853000", "174039.855000", "174039.858000", "174039.861000", "174039.863000", "174039.866000", "174119.765000", "174119.768000", "174119.771000", "174119.773000", "174119.776000", "174119.778000", "174119.781000", "174119.783000", "174119.786000", "174119.788000", "174119.791000", "174119.793000", "174119.796000", "174119.798000", "174119.801000", "174119.804000", "174119.806000", "174119.809000", "174119.811000", "174119.814000", "174119.816000", "174119.819000", "174119.821000", "174119.824000", "174119.826000", "174119.829000", "174119.831000", "174159.756000", "174159.758000", "174159.761000", "174159.763000", "174159.766000", "174159.768000", "174159.771000", "174159.773000", "174159.776000", "174159.778000", "174159.781000", "174159.783000", "174159.786000", "174159.788000", "174159.791000", "174159.793000", "174159.796000", "174159.798000", "174159.801000", "174159.803000", "174159.806000", "174159.808000", "174159.811000", "174159.813000", "174159.816000", "174159.818000", "174159.821000", "174220.342000", "174220.345000", "174220.347000", "174220.350000", "174220.352000", "174220.355000", "174220.358000", "174220.360000", "174220.363000", "174220.365000", "174220.368000", "174220.370000", "174220.373000", "174220.375000"],
      "InstanceCreationTime": ["173859.777000", "173859.779000", "173859.782000", "173859.785000", "173859.787000", "173859.790000", "173859.792000", "173859.795000", "173859.797000", "173859.800000", "173859.802000", "173859.805000", "173859.807000", "173859.810000", "173859.812000", "173859.815000", "173859.817000", "173859.820000", "173859.822000", "173859.825000", "173859.827000", "173859.830000", "173859.832000", "173859.835000", "173859.837000", "173859.840000", "173859.842000", "173859.844000", "173859.847000", "173919.716000", "173919.719000", "173919.722000", "173919.724000", "173919.727000", "173919.729000", "173919.732000", "173919.734000", "173919.736000", "173919.739000", "173919.741000", "173919.745000", "173919.748000", "173919.750000", "173919.753000", "173919.755000", "173919.758000", "173919.760000", "173919.763000", "173919.765000", "173940.155000", "173940.158000", "173940.160000", "173940.163000", "173940.165000", "173940.169000", "173940.172000", "173940.174000", "173940.176000", "173940.179000", "173940.181000", "173940.184000", "173940.187000", "173940.189000", "173940.192000", "173940.194000", "173940.196000", "173940.199000", "173940.201000", "173940.204000", "173940.206000", "173959.737000", "173959.740000", "173959.743000", "173959.745000", "173959.747000", "173959.750000", "173959.753000", "173959.755000", "173959.757000", "173959.760000", "173959.762000", "173959.765000", "173959.768000", "173959.770000", "173959.773000", "173959.775000", "173959.777000", "173959.780000", "173959.782000", "173959.785000", "174039.787000", "174039.790000", "174039.792000", "174039.795000", "174039.797000", "174039.800000", "174039.803000", "174039.805000", "174039.808000", "174039.810000", "174039.813000", "174039.815000", "174039.818000", "174039.820000", "174039.823000", "174039.825000", "174039.828000", "174039.830000", "174039.833000", "174039.835000", "174039.838000", "174039.840000", "174039.843000", "174039.845000", "174039.848000", "174039.850000", "174039.853000", "174039.855000", "174039.858000", "174039.861000", "174039.863000", "174039.866000", "174119.765000", "174119.768000", "174119.771000", "174119.773000", "174119.776000", "174119.778000", "174119.781000", "174119.783000", "174119.786000", "174119.788000", "174119.791000", "174119.793000", "174119.796000", "174119.798000", "174119.801000", "174119.804000", "174119.806000", "174119.809000", "174119.811000", "174119.814000", "174119.816000", "174119.819000", "174119.821000", "174119.824000", "174119.826000", "174119.829000", "174119.831000", "174159.756000", "174159.758000", "174159.761000", "174159.763000", "174159.766000", "174159.768000", "174159.771000", "174159.773000", "174159.776000", "174159.778000", "174159.781000", "174159.783000", "174159.786000", "174159.788000", "174159.791000", "174159.793000", "174159.796000", "174159.798000", "174159.801000", "174159.803000", "174159.806000", "174159.808000", "174159.811000", "174159.813000", "174159.816000", "174159.818000", "174159.821000", "174220.342000", "174220.345000", "174220.347000", "174220.350000", "174220.352000", "174220.355000", "174220.358000", "174220.360000", "174220.363000", "174220.365000", "174220.368000", "174220.370000", "174220.373000", "174220.375000"],
      "InstanceNumber": [1, 2, 3, 4, 5, 6, 7, 8, 9, 10, 11, 12, 13, 14, 15, 16, 17, 18, 19, 20, 21, 22, 23, 24, 25, 26, 27, 28, 29, 30, 31, 32, 33, 34, 35, 36, 37, 38, 39, 40, 41, 42, 43, 44, 45, 46, 47, 48, 49, 50, 51, 52, 53, 54, 55, 56, 57, 58, 59, 60, 61, 62, 63, 64, 65, 66, 67, 68, 69, 70, 71, 72, 73, 74, 75, 76, 77, 78, 79, 80, 81, 82, 83, 84, 85, 86, 87, 88, 89, 90, 91, 92, 93, 94, 95, 96, 97, 98, 99, 100, 101, 102, 103, 104, 105, 106, 107, 108, 109, 110, 111, 112, 113, 114, 115, 116, 117, 118, 119, 120, 121, 122, 123, 124, 125, 126, 127, 128, 129, 130, 131, 132, 133, 134, 135, 136, 137, 138, 139, 140, 141, 142, 143, 144, 145, 146, 147, 148, 149, 150, 151, 152, 153, 154, 155, 156, 157, 158, 159, 160, 161, 162, 163, 164, 165, 166, 167, 168, 169, 170, 171, 172, 173, 174, 175, 176, 177, 178, 179, 180, 181, 182, 183, 184, 185, 186, 187, 188, 189, 190],
      "WindowCenter": [4866.0, 4866.0, 4888.0, 4866.0, 4864.0, 4888.0, 4864.0, 4864.0, 4866.0, 4886.0, 4860.0, 4864.0, 4860.0, 4860.0, 4864.0, 4862.0, 4866.0, 4864.0, 4892.0, 4888.0, 4868.0, 4860.0, 4860.0, 4864.0, 4866.0, 4864.0, 4862.0, 4864.0, 4864.0, 4890.0, 4862.0, 4866.0, 4866.0, 4866.0, 4890.0, 4864.0, 4866.0, 4866.0, 4838.0, 4858.0, 4866.0, 4884.0, 4890.0, 4888.0, 4888.0, 4862.0, 4864.0, 4862.0, 4866.0, 4862.0, 4866.0, 4886.0, 4886.0, 4862.0, 4886.0, 4864.0, 4868.0, 4864.0, 4860.0, 4864.0, 4886.0, 4886.0, 4888.0, 4888.0, 4864.0, 4864.0, 4862.0, 4862.0, 4860.0, 4862.0, 4886.0, 4886.0, 4888.0, 4888.0, 4864.0, 4886.0, 4860.0, 4864.0, 4864.0, 4868.0, 4888.0, 4884.0, 4864.0, 4886.0, 4864.0, 4862.0, 4864.0, 4866.0, 4888.0, 4888.0, 4892.0, 4888.0, 4862.0, 4866.0, 4866.0, 4864.0, 4888.0, 4890.0, 4890.0, 4886.0, 4888.0, 4862.0, 4890.0, 4864.0, 4886.0, 4888.0, 4884.0, 4888.0, 4862.0, 4864.0, 4866.0, 4866.0, 4890.0, 4888.0, 4866.0, 4888.0, 4888.0, 4886.0, 4864.0, 4862.0, 4890.0, 4884.0, 4886.0, 4886.0, 4866.0, 4864.0, 4864.0, 4884.0, 4884.0, 4890.0, 4888.0, 4866.0, 4864.0, 4862.0, 4862.0, 4886.0, 4888.0, 4890.0, 4886.0, 4888.0, 4862.0, 4864.0, 4864.0, 4866.0, 4884.0, 4888.0, 4884.0, 4886.0, 4890.0, 4862.0, 4888.0, 4886.0, 4860.0, 4862.0, 4886.0, 4890.0, 4890.0, 4888.0, 4866.0, 4858.0, 4862.0, 4862.0, 4864.0, 4888.0, 4888.0, 4890.0, 4888.0, 4890.0, 4914.0, 4888.0, 4890.0, 4866.0, 4862.0, 4888.0, 4886.0, 4888.0, 4892.0, 4892.0, 4890.0, 4890.0, 4864.0, 4886.0, 4890.0, 4894.0, 4890.0, 4866.0, 4888.0, 4866.0, 4866.0, 4886.0],
      "WindowWidth": [18606.0, 18604.0, 18640.0, 18606.0, 18612.0, 18642.0, 18602.0, 18606.0, 18610.0, 18644.0, 18602.0, 18606.0, 18606.0, 18598.0, 18604.0, 18604.0, 18604.0, 18604.0, 18642.0, 18638.0, 18606.0, 18598.0, 18600.0, 18606.0, 18612.0, 18602.0, 18608.0, 18604.0, 18602.0, 18634.0, 18608.0, 18608.0, 18610.0, 18606.0, 18642.0, 18604.0, 18606.0, 18614.0, 18568.0, 18602.0, 18610.0, 18640.0, 18650.0, 18646.0, 18638.0, 18600.0, 18606.0, 18602.0, 18606.0, 18606.0, 18612.0, 18640.0, 18632.0, 18610.0, 18636.0, 18604.0, 18608.0, 18608.0, 18598.0, 18604.0, 18642.0, 18636.0, 18648.0, 18640.0, 18606.0, 18604.0, 18598.0, 18604.0, 18598.0, 18606.0, 18646.0, 18638.0, 18640.0, 18636.0, 18606.0, 18642.0, 18596.0, 18596.0, 18610.0, 18608.0, 18638.0, 18634.0, 18604.0, 18636.0, 18606.0, 18606.0, 18602.0, 18606.0, 18640.0, 18640.0, 18642.0, 18642.0, 18606.0, 18612.0, 18608.0, 18606.0, 18636.0, 18634.0, 18636.0, 18636.0, 18642.0, 18602.0, 18642.0, 18602.0, 18638.0, 18642.0, 18638.0, 18640.0, 18604.0, 18604.0, 18612.0, 18604.0, 18642.0, 18638.0, 18610.0, 18642.0, 18636.0, 18642.0, 18606.0, 18598.0, 18638.0, 18632.0, 18638.0, 18640.0, 18608.0, 18602.0, 18606.0, 18636.0, 18642.0, 18648.0, 18636.0, 18612.0, 18602.0, 18604.0, 18606.0, 18636.0, 18644.0, 18648.0, 18636.0, 18646.0, 18606.0, 18606.0, 18604.0, 18608.0, 18638.0, 18646.0, 18640.0, 18640.0, 18652.0, 18606.0, 18634.0, 18640.0, 18596.0, 18598.0, 18640.0, 18640.0, 18652.0, 18644.0, 18606.0, 18594.0, 18600.0, 18604.0, 18608.0, 18644.0, 18642.0, 18646.0, 18646.0, 18648.0, 18680.0, 18642.0, 18636.0, 18608.0, 18604.0, 18638.0, 18638.0, 18638.0, 18650.0, 18646.0, 18644.0, 18642.0, 18608.0, 18644.0, 18642.0, 18650.0, 18650.0, 18608.0, 18634.0, 18610.0, 18608.0, 18638.0]
    },
    "slices": {}
  }
}