{
  "AcquisitionMatrixPE": 104,
  "AcquisitionNumber": 1,
  "AcquisitionTime": "17:37:36.572500",
  "BandwidthPerPixelPhaseEncode": 17.17,
  "BaseResolution": 104,
  "BodyPartExamined": "BRAIN",
  "CoilString": "HC1-7;NC1_2",
  "ConsistencyInfo": "N4_VE11C_LATEST_20160120",
  "ConversionSoftware": "dcm2niix",
  "ConversionSoftwareVersion": "v1.0.20190902",
  "DerivedVendorReportedEchoSpacing": 0.000560011,
  "DeviceSerialNumber": "167006",
  "DwellTime": 2.1e-06,
  "EchoTime": 0.037,
  "EchoTrainLength": 104,
  "EffectiveEchoSpacing": 0.000560011,
  "FlipAngle": 52,
  "ImageComments": "Unaliased_MB4_PE3_LB",
  "ImageOrientationPatientDICOM": [0.998871, 0.00291357, 0.0474203, 0.0113323, 0.954697, -0.297364],
  "ImageType": [
    "ORIGINAL",
    "PRIMARY",
    "M",
    "MB",
    "ND",
    "MOSAIC"
],
  "ImagingFrequency": 123.259,
  "InPlanePhaseEncodingDirectionDICOM": "COL",
  "InstitutionAddress": "Chemin_Queen-Mary_4565_Montreal_District_CA_H3W_1W5",
  "InstitutionName": "IUGM",
  "InstitutionalDepartmentName": "Department",
  "MRAcquisitionType": "2D",
  "MagneticFieldStrength": 3,
  "Manufacturer": "Siemens",
  "ManufacturersModelName": "Prisma_fit",
  "Modality": "MR",
  "MultibandAccelerationFactor": 4,
  "PartialFourier": 1,
  "PatientPosition": "HFS",
  "PercentPhaseFOV": 100,
  "PhaseEncodingDirection": "j",
  "PhaseEncodingSteps": 104,
  "PhaseResolution": 1,
  "PixelBandwidth": 2290,
  "ProcedureStepDescription": "memory_things",
  "ProtocolName": "func_task-things_run-3",
  "PulseSequenceDetails": "%CustomerSeq%_cmrr_mbep2d_bold",
  "ReceiveCoilActiveElements": "HC1-7;NC1,2",
  "ReceiveCoilName": "HeadNeck_64",
  "ReconMatrixPE": 104,
  "RepetitionTime": 1.49,
  "SAR": 0.0957048,
  "ScanOptions": "FS",
  "ScanningSequence": "EP",
  "SequenceName": "epfid2d1_104",
  "SequenceVariant": "SK_SS",
  "SeriesDescription": "func_task-things_run-3",
  "SeriesNumber": 16,
  "ShimSetting": [641, -7173, -8762, 680, 94, 51, -23, -15],
  "SliceThickness": 2,
  "SliceTiming": [0, 0.785, 0.0975, 0.8825, 0.195, 0.98, 0.295, 1.0775, 0.3925, 1.175, 0.49, 1.275, 0.5875, 1.3725, 0.685, 0, 0.785, 0.0975, 0.8825, 0.195, 0.98, 0.295, 1.0775, 0.3925, 1.175, 0.49, 1.275, 0.5875, 1.3725, 0.685, 0, 0.785, 0.0975, 0.8825, 0.195, 0.98, 0.295, 1.0775, 0.3925, 1.175, 0.49, 1.275, 0.5875, 1.3725, 0.685, 0, 0.785, 0.0975, 0.8825, 0.195, 0.98, 0.295, 1.0775, 0.3925, 1.175, 0.49, 1.275, 0.5875, 1.3725, 0.685],
  "SoftwareVersions": "syngo_MR_E11",
  "SpacingBetweenSlices": 2,
  "StationName": "MRC35049",
  "TaskName": "things",
  "TotalReadoutTime": 0.0576811,
  "TxRefAmp": 376.769,
  "WipMemBlock": "e4693fdf-36b7-4c8c-8394-b0ca86bd3f34||Sequence: R016 ve11c/master r/e634e98; Dec 19 2017 11:00:25 by eja",
  "dcmmeta_affine": [
    [-1.9977415800094604, 0.022664682939648628, 0.09227685630321503, 104.60616302490234],
    [-0.005827135872095823, 1.909393548965454, -0.5951319932937622, -63.158111572265625],
    [0.09484066069126129, 0.5947288274765015, 1.907171368598938, -47.123085021972656],
    [0.0, 0.0, 0.0, 1.0]
],
  "dcmmeta_reorient_transform": [
    [0.0, -1.0, 0.0, 103.0],
    [1.0, 0.0, 0.0, 0.0],
    [0.0, 0.0, 1.0, 0.0],
    [0.0, 0.0, 0.0, 1.0]
],
  "dcmmeta_shape": [104, 104, 60, 190],
  "dcmmeta_slice_dim": 2,
  "dcmmeta_version": 0.6,
  "global": {
    "const": {
      "AcquisitionMatrix": [104, 0, 0, 104],
      "AngioFlag": "N",
      "BitsAllocated": 16,
      "BitsStored": 16,
      "BodyPartExamined": "BRAIN",
      "Columns": 832,
      "EchoNumbers": 1,
      "EchoTime": 37.0,
      "EchoTrainLength": 104,
      "FlipAngle": 52.0,
      "HighBit": 15,
      "ImageOrientationPatient": [0.9988707740675, 0.00291356803871, 0.04742033145257, 0.01133234181116, 0.95469680144342, -0.297364415058],
      "ImagePositionPatient": [-842.36849566117, -830.64977708564, 196.09327667776],
      "ImageType": [
        "ORIGINAL",
        "PRIMARY",
        "M",
        "MB",
        "ND",
        "MOSAIC"
],
      "ImagedNucleus": "1H",
      "ImagingFrequency": 123.258869,
      "InPlanePhaseEncodingDirection": "COL",
      "MRAcquisitionType": "2D",
      "MagneticFieldStrength": 3.0,
      "Manufacturer": "SIEMENS",
      "ManufacturerModelName": "Prisma_fit",
      "Modality": "MR",
      "NumberOfAverages": 1.0,
      "NumberOfPhaseEncodingSteps": 104,
      "PercentPhaseFieldOfView": 100.0,
      "PercentSampling": 100.0,
      "PerformedProcedureStepStartTime": "170251.687000",
      "PhotometricInterpretation": "MONOCHROME2",
      "PixelBandwidth": 2290.0,
      "PixelRepresentation": 0,
      "PixelSpacing": [2.0, 2.0],
      "ProtocolName": "func_task-things_run-3",
      "RepetitionTime": 1490.0,
      "Rows": 832,
      "SAR": 0.09570480531391,
      "SamplesPerPixel": 1,
      "ScanOptions": "FS",
      "ScanningSequence": "EP",
      "SequenceName": "epfid2d1_104",
      "SequenceVariant": [
        "SK",
        "SS"
],
      "SeriesDescription": "func_task-things_run-3",
      "SeriesNumber": 16,
      "SeriesTime": "173859.635000",
      "SliceLocation": -21.315829660463,
      "SliceThickness": 2.0,
      "SmallestImagePixelValue": 0,
      "SoftwareVersions": "syngo MR E11",
      "SpacingBetweenSlices": 1.9999999557764,
      "SpecificCharacterSet": "ISO_IR 100",
      "StudyID": "1",
      "StudyTime": "170251.603000",
      "TransmitCoilName": "Body",
      "VariableFlipAngleFlag": "N",
      "WindowCenterWidthExplanation": "Algo1",
      "dBdt": 0.0},
    "slices": {}
  },
  "time": {
    "samples": {
      "AcquisitionNumber": [1, 2, 3, 4, 5, 6, 7, 8, 9, 10, 11, 12, 13, 14, 15, 16, 17, 18, 19, 20, 21, 22, 23, 24, 25, 26, 27, 28, 29, 30, 31, 32, 33, 34, 35, 36, 37, 38, 39, 40, 41, 42, 43, 44, 45, 46, 47, 48, 49, 50, 51, 52, 53, 54, 55, 56, 57, 58, 59, 60, 61, 62, 63, 64, 65, 66, 67, 68, 69, 70, 71, 72, 73, 74, 75, 76, 77, 78, 79, 80, 81, 82, 83, 84, 85, 86, 87, 88, 89, 90, 91, 92, 93, 94, 95, 96, 97, 98, 99, 100, 101, 102, 103, 104, 105, 106, 107, 108, 109, 110, 111, 112, 113, 114, 115, 116, 117, 118, 119, 120, 121, 122, 123, 124, 125, 126, 127, 128, 129, 130, 131, 132, 133, 134, 135, 136, 137, 138, 139, 140, 141, 142, 143, 144, 145, 146, 147, 148, 149, 150, 151, 152, 153, 154, 155, 156, 157, 158, 159, 160, 161, 162, 163, 164, 165, 166, 167, 168, 169, 170, 171, 172, 173, 174, 175, 176, 177, 178, 179, 180, 181, 182, 183, 184, 185, 186, 187, 188, 189, 190],
      "AcquisitionTime": ["173736.572500", "173738.062500", "173739.552500", "173741.042500", "173742.532500", "173744.022500", "173745.512500", "173747.002500", "173748.492500", "173749.982500", "173751.472500", "173752.962500", "173754.452500", "173755.942500", "173757.432500", "173758.922500", "173800.412500", "173801.902500", "173803.392500", "173804.882500", "173806.372500", "173807.862500", "173809.352500", "173810.842500", "173812.332500", "173813.822500", "173815.312500", "173816.802500", "173818.292500", "173819.782500", "173821.272500", "173822.762500", "173824.252500", "173825.742500", "173827.232500", "173828.722500", "173830.212500", "173831.702500", "173833.192500", "173834.682500", "173836.172500", "173837.662500", "173839.152500", "173840.642500", "173842.132500", "173843.622500", "173845.112500", "173846.602500", "173848.092500", "173849.582500", "173851.072500", "173852.562500", "173854.052500", "173855.542500", "173857.032500", "173858.522500", "173900.012500", "173901.502500", "173902.992500", "173904.482500", "173905.972500", "173907.462500", "173908.952500", "173910.442500", "173911.932500", "173913.422500", "173914.912500", "173916.402500", "173917.892500", "173919.382500", "173920.872500", "173922.362500", "173923.852500", "173925.342500", "173926.832500", "173928.322500", "173929.812500", "173931.302500", "173932.792500", "173934.282500", "173935.772500", "173937.262500", "173938.752500", "173940.242500", "173941.732500", "173943.222500", "173944.712500", "173946.202500", "173947.692500", "173949.182500", "173950.672500", "173952.162500", "173953.652500", "173955.142500", "173956.632500", "173958.122500", "173959.612500", "174001.102500", "174002.592500", "174004.082500", "174005.572500", "174007.062500", "174008.552500", "174010.042500", "174011.532500", "174013.022500", "174014.512500", "174016.002500", "174017.492500", "174018.982500", "174020.472500", "174021.962500", "174023.452500", "174024.942500", "174026.432500", "174027.922500", "174029.412500", "174030.902500", "174032.392500", "174033.882500", "174035.372500", "174036.862500", "174038.352500", "174039.842500", "174041.332500", "174042.822500", "174044.312500", "174045.802500", "174047.292500", "174048.782500", "174050.272500", "174051.762500", "174053.252500", "174054.742500", "174056.232500", "174057.722500", "174059.212500", "174100.702500", "174102.192500", "174103.682500", "174105.172500", "174106.662500", "174108.152500", "174109.642500", "174111.132500", "174112.622500", "174114.112500", "174115.602500", "174117.092500", "174118.582500", "174120.072500", "174121.562500", "174123.052500", "174124.542500", "174126.032500", "174127.522500", "174129.012500", "174130.502500", "174131.992500", "174133.482500", "174134.972500", "174136.462500", "174137.952500", "174139.442500", "174140.932500", "174142.422500", "174143.912500", "174145.402500", "174146.892500", "174148.382500", "174149.872500", "174151.362500", "174152.852500", "174154.342500", "174155.832500", "174157.322500", "174158.812500", "174200.302500", "174201.792500", "174203.282500", "174204.772500", "174206.262500", "174207.752500", "174209.242500", "174210.732500", "174212.222500", "174213.712500", "174215.202500", "174216.692500", "174218.182500"],
      "ContentTime": ["173859.638000", "173859.642000", "173859.645000", "173859.649000", "173859.652000", "173859.655000", "173859.659000", "173859.662000", "173859.665000", "173859.673000", "173859.676000", "173859.679000", "173859.683000", "173859.686000", "173859.689000", "173859.692000", "173859.696000", "173859.699000", "173859.702000", "173859.706000", "173859.709000", "173859.712000", "173859.716000", "173859.719000", "173859.722000", "173859.725000", "173859.729000", "173859.732000", "173859.735000", "173919.601000", "173919.605000", "173919.608000", "173919.612000", "173919.615000", "173919.618000", "173919.627000", "173919.630000", "173919.633000", "173919.636000", "173919.640000", "173919.643000", "173919.646000", "173919.650000", "173919.653000", "173919.656000", "173919.659000", "173919.663000", "173919.666000", "173919.669000", "173939.601000", "173939.605000", "173939.608000", "173939.612000", "173939.615000", "173939.618000", "173939.622000", "173939.625000", "173939.628000", "173939.631000", "173939.635000", "173939.638000", "173939.642000", "173939.645000", "173939.648000", "173939.653000", "173939.657000", "173939.660000", "173939.663000", "173939.667000", "173939.670000", "173959.601000", "173959.605000", "173959.608000", "173959.612000", "173959.615000", "173959.618000", "173959.630000", "173959.633000", "173959.636000", "173959.640000", "173959.652000", "173959.655000", "173959.658000", "173959.662000", "173959.665000", "173959.668000", "173959.671000", "173959.675000", "173959.678000", "173959.681000", "174039.602000", "174039.606000", "174039.609000", "174039.613000", "174039.616000", "174039.619000", "174039.623000", "174039.626000", "174039.629000", "174039.632000", "174039.636000", "174039.639000", "174039.642000", "174039.646000", "174039.649000", "174039.652000", "174039.656000", "174039.659000", "174039.662000", "174039.666000", "174039.669000", "174039.672000", "174039.676000", "174039.679000", "174039.682000", "174039.686000", "174039.689000", "174039.692000", "174039.696000", "174039.699000", "174039.702000", "174039.706000", "174119.601000", "174119.605000", "174119.608000", "174119.612000", "174119.615000", "174119.619000", "174119.622000", "174119.625000", "174119.628000", "174119.632000", "174119.635000", "174119.639000", "174119.642000", "174119.646000", "174119.649000", "174119.652000", "174119.656000", "174119.659000", "174119.662000", "174119.666000", "174119.669000", "174119.673000", "174119.676000", "174119.679000", "174119.682000", "174119.686000", "174119.689000", "174159.601000", "174159.605000", "174159.608000", "174159.612000", "174159.615000", "174159.618000", "174159.622000", "174159.625000", "174159.628000", "174159.632000", "174159.635000", "174159.638000", "174159.642000", "174159.645000", "174159.648000", "174159.652000", "174159.655000", "174159.658000", "174159.662000", "174159.665000", "174159.668000", "174159.672000", "174159.675000", "174159.678000", "174159.682000", "174159.685000", "174159.688000", "174220.231000", "174220.235000", "174220.238000", "174220.250000", "174220.254000", "174220.257000", "174220.260000", "174220.264000", "174220.267000", "174220.272000", "174220.276000", "174220.279000", "174220.283000", "174220.286000"],
      "InstanceCreationTime": ["173859.638000", "173859.642000", "173859.645000", "173859.649000", "173859.652000", "173859.655000", "173859.659000", "173859.662000", "173859.665000", "173859.673000", "173859.676000", "173859.679000", "173859.683000", "173859.686000", "173859.689000", "173859.692000", "173859.696000", "173859.699000", "173859.702000", "173859.706000", "173859.709000", "173859.712000", "173859.716000", "173859.719000", "173859.722000", "173859.725000", "173859.729000", "173859.732000", "173859.735000", "173919.601000", "173919.605000", "173919.608000", "173919.612000", "173919.615000", "173919.618000", "173919.627000", "173919.630000", "173919.633000", "173919.636000", "173919.640000", "173919.643000", "173919.646000", "173919.650000", "173919.653000", "173919.656000", "173919.659000", "173919.663000", "173919.666000", "173919.669000", "173939.601000", "173939.605000", "173939.608000", "173939.612000", "173939.615000", "173939.618000", "173939.622000", "173939.625000", "173939.628000", "173939.631000", "173939.635000", "173939.638000", "173939.642000", "173939.645000", "173939.648000", "173939.653000", "173939.657000", "173939.660000", "173939.663000", "173939.667000", "173939.670000", "173959.601000", "173959.605000", "173959.608000", "173959.612000", "173959.615000", "173959.618000", "173959.630000", "173959.633000", "173959.636000", "173959.640000", "173959.652000", "173959.655000", "173959.658000", "173959.662000", "173959.665000", "173959.668000", "173959.671000", "173959.675000", "173959.678000", "173959.681000", "174039.602000", "174039.606000", "174039.609000", "174039.613000", "174039.616000", "174039.619000", "174039.623000", "174039.626000", "174039.629000", "174039.632000", "174039.636000", "174039.639000", "174039.642000", "174039.646000", "174039.649000", "174039.652000", "174039.656000", "174039.659000", "174039.662000", "174039.666000", "174039.669000", "174039.672000", "174039.676000", "174039.679000", "174039.682000", "174039.686000", "174039.689000", "174039.692000", "174039.696000", "174039.699000", "174039.702000", "174039.706000", "174119.601000", "174119.605000", "174119.608000", "174119.612000", "174119.615000", "174119.619000", "174119.622000", "174119.625000", "174119.628000", "174119.632000", "174119.635000", "174119.639000", "174119.642000", "174119.646000", "174119.649000", "174119.652000", "174119.656000", "174119.659000", "174119.662000", "174119.666000", "174119.669000", "174119.673000", "174119.676000", "174119.679000", "174119.682000", "174119.686000", "174119.689000", "174159.601000", "174159.605000", "174159.608000", "174159.612000", "174159.615000", "174159.618000", "174159.622000", "174159.625000", "174159.628000", "174159.632000", "174159.635000", "174159.638000", "174159.642000", "174159.645000", "174159.648000", "174159.652000", "174159.655000", "174159.658000", "174159.662000", "174159.665000", "174159.668000", "174159.672000", "174159.675000", "174159.678000", "174159.682000", "174159.685000", "174159.688000", "174220.231000", "174220.235000", "174220.238000", "174220.250000", "174220.254000", "174220.257000", "174220.260000", "174220.264000", "174220.267000", "174220.272000", "174220.276000", "174220.279000", "174220.283000", "174220.286000"],
      "InstanceNumber": [1, 2, 3, 4, 5, 6, 7, 8, 9, 10, 11, 12, 13, 14, 15, 16, 17, 18, 19, 20, 21, 22, 23, 24, 25, 26, 27, 28, 29, 30, 31, 32, 33, 34, 35, 36, 37, 38, 39, 40, 41, 42, 43, 44, 45, 46, 47, 48, 49, 50, 51, 52, 53, 54, 55, 56, 57, 58, 59, 60, 61, 62, 63, 64, 65, 66, 67, 68, 69, 70, 71, 72, 73, 74, 75, 76, 77, 78, 79, 80, 81, 82, 83, 84, 85, 86, 87, 88, 89, 90, 91, 92, 93, 94, 95, 96, 97, 98, 99, 100, 101, 102, 103, 104, 105, 106, 107, 108, 109, 110, 111, 112, 113, 114, 115, 116, 117, 118, 119, 120, 121, 122, 123, 124, 125, 126, 127, 128, 129, 130, 131, 132, 133, 134, 135, 136, 137, 138, 139, 140, 141, 142, 143, 144, 145, 146, 147, 148, 149, 150, 151, 152, 153, 154, 155, 156, 157, 158, 159, 160, 161, 162, 163, 164, 165, 166, 167, 168, 169, 170, 171, 172, 173, 174, 175, 176, 177, 178, 179, 180, 181, 182, 183, 184, 185, 186, 187, 188, 189, 190],
      "LargestImagePixelValue": [41096, 40219, 39551, 38464, 40241, 38487, 38178, 38486, 39433, 38957, 38480, 38525, 39582, 38968, 38593, 38919, 38821, 38452, 38927, 38994, 38797, 38852, 38975, 38346, 38514, 38465, 38664, 38728, 38220, 38882, 39152, 39531, 39277, 38768, 38928, 38837, 38991, 39459, 40798, 39024, 38670, 38290, 38977, 39704, 41285, 39405, 38881, 40347, 39742, 38442, 39428, 38965, 40123, 39020, 39856, 40156, 40062, 39965, 40437, 39008, 40105, 40287, 39534, 40266, 40883, 44657, 40834, 41009, 40608, 39630, 39761, 41114, 40320, 41393, 47191, 40887, 41417, 40390, 38482, 39197, 38545, 38811, 38082, 38167, 38841, 38180, 44909, 37678, 38962, 37794, 38144, 38320, 38893, 38910, 40509, 40290, 38158, 41043, 38849, 39035, 42085, 39515, 38374, 37989, 38463, 38326, 38397, 38345, 41758, 38202, 38133, 38149, 38859, 38509, 44680, 38227, 40731, 39363, 40352, 41475, 40158, 40473, 40291, 41610, 41642, 38999, 38410, 39555, 39417, 39698, 43836, 40831, 40422, 40782, 39990, 39663, 38485, 39241, 39796, 39473, 39779, 40270, 39825, 40186, 40005, 39853, 40572, 39132, 40844, 44071, 40076, 44574, 40557, 50000, 40729, 39766, 41206, 39823, 39260, 45447, 39101, 38318, 39453, 44256, 45611, 39299, 40438, 38663, 38595, 38333, 45264, 38545, 41018, 38940, 39153, 39015, 39366, 39342, 39283, 43417, 39939, 41529, 41912, 38858, 42043, 41931, 38767, 41510, 41207, 39081],
      "WindowCenter": [10602.0, 10539.0, 10492.0, 10480.0, 10519.0, 10504.0, 10506.0, 10511.0, 10514.0, 10517.0, 10528.0, 10504.0, 10546.0, 10551.0, 10518.0, 10524.0, 10533.0, 10501.0, 10521.0, 10539.0, 10526.0, 10521.0, 10514.0, 10502.0, 10514.0, 10526.0, 10536.0, 10529.0, 10516.0, 10525.0, 10523.0, 10526.0, 10538.0, 10537.0, 10541.0, 10563.0, 10563.0, 10532.0, 10509.0, 10497.0, 10518.0, 10519.0, 10541.0, 10558.0, 10584.0, 10542.0, 10517.0, 10515.0, 10517.0, 10501.0, 10527.0, 10545.0, 10556.0, 10534.0, 10540.0, 10545.0, 10555.0, 10547.0, 10556.0, 10533.0, 10542.0, 10563.0, 10588.0, 10604.0, 10587.0, 10581.0, 10526.0, 10508.0, 10508.0, 10499.0, 10515.0, 10580.0, 10560.0, 10551.0, 10669.0, 10570.0, 10514.0, 10501.0, 10529.0, 10540.0, 10537.0, 10561.0, 10557.0, 10543.0, 10536.0, 10513.0, 10558.0, 10485.0, 10523.0, 10505.0, 10517.0, 10536.0, 10556.0, 10543.0, 10558.0, 10554.0, 10522.0, 10578.0, 10566.0, 10569.0, 10599.0, 10564.0, 10539.0, 10542.0, 10548.0, 10561.0, 10564.0, 10563.0, 10586.0, 10532.0, 10531.0, 10539.0, 10553.0, 10553.0, 10631.0, 10559.0, 10606.0, 10595.0, 10581.0, 10600.0, 10571.0, 10576.0, 10593.0, 10633.0, 10624.0, 10539.0, 10502.0, 10536.0, 10554.0, 10580.0, 10648.0, 10590.0, 10566.0, 10553.0, 10522.0, 10527.0, 10536.0, 10573.0, 10602.0, 10589.0, 10567.0, 10526.0, 10521.0, 10542.0, 10559.0, 10561.0, 10575.0, 10559.0, 10573.0, 10617.0, 10553.0, 10568.0, 10530.0, 10647.0, 10546.0, 10552.0, 10587.0, 10594.0, 10578.0, 10566.0, 10445.0, 10423.0, 10437.0, 10501.0, 10525.0, 10490.0, 10526.0, 10536.0, 10536.0, 10533.0, 10594.0, 10515.0, 10505.0, 10472.0, 10471.0, 10536.0, 10548.0, 10524.0, 10534.0, 10541.0, 10481.0, 10515.0, 10524.0, 10508.0, 10550.0, 10523.0, 10493.0, 10517.0, 10528.0, 10508.0],
      "WindowWidth": [22564.0, 22388.0, 22265.0, 22237.0, 22324.0, 22287.0, 22295.0, 22303.0, 22305.0, 22312.0, 22347.0, 22287.0, 22376.0, 22394.0, 22318.0, 22331.0, 22351.0, 22278.0, 22318.0, 22363.0, 22333.0, 22333.0, 22304.0, 22281.0, 22305.0, 22336.0, 22359.0, 22343.0, 22317.0, 22327.0, 22333.0, 22334.0, 22369.0, 22362.0, 22367.0, 22425.0, 22420.0, 22349.0, 22298.0, 22273.0, 22314.0, 22321.0, 22371.0, 22409.0, 22469.0, 22369.0, 22316.0, 22304.0, 22309.0, 22286.0, 22334.0, 22389.0, 22409.0, 22356.0, 22361.0, 22386.0, 22409.0, 22388.0, 22412.0, 22354.0, 22367.0, 22416.0, 22476.0, 22511.0, 22470.0, 22449.0, 22320.0, 22287.0, 22296.0, 22270.0, 22304.0, 22449.0, 22407.0, 22381.0, 22656.0, 22424.0, 22302.0, 22267.0, 22347.0, 22366.0, 22363.0, 22413.0, 22406.0, 22375.0, 22353.0, 22307.0, 22397.0, 22246.0, 22336.0, 22297.0, 22318.0, 22364.0, 22406.0, 22374.0, 22410.0, 22405.0, 22332.0, 22453.0, 22442.0, 22438.0, 22502.0, 22424.0, 22372.0, 22382.0, 22389.0, 22417.0, 22427.0, 22421.0, 22467.0, 22349.0, 22349.0, 22371.0, 22396.0, 22398.0, 22562.0, 22418.0, 22523.0, 22494.0, 22463.0, 22508.0, 22430.0, 22441.0, 22483.0, 22584.0, 22561.0, 22373.0, 22280.0, 22347.0, 22396.0, 22457.0, 22609.0, 22486.0, 22429.0, 22399.0, 22330.0, 22329.0, 22363.0, 22442.0, 22518.0, 22476.0, 22424.0, 22331.0, 22320.0, 22368.0, 22412.0, 22411.0, 22446.0, 22411.0, 22432.0, 22533.0, 22388.0, 22417.0, 22341.0, 22589.0, 22372.0, 22383.0, 22462.0, 22491.0, 22457.0, 22403.0, 22142.0, 22087.0, 22116.0, 22248.0, 22301.0, 22244.0, 22329.0, 22352.0, 22352.0, 22349.0, 22471.0, 22311.0, 22280.0, 22198.0, 22200.0, 22359.0, 22390.0, 22331.0, 22346.0, 22355.0, 22221.0, 22297.0, 22319.0, 22291.0, 22383.0, 22317.0, 22253.0, 22305.0, 22335.0, 22296.0]
    },
    "slices": {}
  }
}