{
  "AcquisitionMatrixPE": 104,
  "AcquisitionNumber": 1,
  "AcquisitionTime": "17:53:55.042500",
  "BandwidthPerPixelPhaseEncode": 17.17,
  "BaseResolution": 104,
  "BodyPartExamined": "BRAIN",
  "CoilString": "HC1-7;NC1_2",
  "ConsistencyInfo": "N4_VE11C_LATEST_20160120",
  "ConversionSoftware": "dcm2niix",
  "ConversionSoftwareVersion": "v1.0.20190902",
  "DerivedVendorReportedEchoSpacing": 0.000560011,
  "DeviceSerialNumber": "167006",
  "DwellTime": 2.1e-06,
  "EchoTime": 0.037,
  "EchoTrainLength": 104,
  "EffectiveEchoSpacing": 0.000560011,
  "FlipAngle": 52,
  "ImageComments": "Unaliased_MB4_PE3_LB",
  "ImageOrientationPatientDICOM": [0.998871, 0.00291357, 0.0474203, 0.0113323, 0.954697, -0.297364],
  "ImageType": [
    "ORIGINAL",
    "PRIMARY",
    "P",
    "MB",
    "ND",
    "MOSAIC"
],
  "ImagingFrequency": 123.259,
  "InPlanePhaseEncodingDirectionDICOM": "COL",
  "InstitutionAddress": "Chemin_Queen-Mary_4565_Montreal_District_CA_H3W_1W5",
  "InstitutionName": "IUGM",
  "InstitutionalDepartmentName": "Department",
  "MRAcquisitionType": "2D",
  "MagneticFieldStrength": 3,
  "Manufacturer": "Siemens",
  "ManufacturersModelName": "Prisma_fit",
  "Modality": "MR",
  "MultibandAccelerationFactor": 4,
  "PartialFourier": 1,
  "PatientPosition": "HFS",
  "PercentPhaseFOV": 100,
  "PhaseEncodingDirection": "j",
  "PhaseEncodingSteps": 104,
  "PhaseResolution": 1,
  "PixelBandwidth": 2290,
  "ProcedureStepDescription": "memory_things",
  "ProtocolName": "func_task-things_run-5",
  "PulseSequenceDetails": "%CustomerSeq%_cmrr_mbep2d_bold",
  "ReceiveCoilActiveElements": "HC1-7;NC1,2",
  "ReceiveCoilName": "HeadNeck_64",
  "ReconMatrixPE": 104,
  "RepetitionTime": 1.49,
  "SAR": 0.0957048,
  "ScanOptions": "FS",
  "ScanningSequence": "EP",
  "SequenceName": "epfid2d1_104",
  "SequenceVariant": "SK_SS",
  "SeriesDescription": "func_task-things_run-5",
  "SeriesNumber": 23,
  "ShimSetting": [641, -7173, -8762, 680, 94, 51, -23, -15],
  "SliceThickness": 2,
  "SliceTiming": [0, 0.7825, 0.0975, 0.8825, 0.195, 0.98, 0.2925, 1.0775, 0.3925, 1.175, 0.49, 1.2725, 0.5875, 1.3725, 0.685, 0, 0.7825, 0.0975, 0.8825, 0.195, 0.98, 0.2925, 1.0775, 0.3925, 1.175, 0.49, 1.2725, 0.5875, 1.3725, 0.685, 0, 0.7825, 0.0975, 0.8825, 0.195, 0.98, 0.2925, 1.0775, 0.3925, 1.175, 0.49, 1.2725, 0.5875, 1.3725, 0.685, 0, 0.7825, 0.0975, 0.8825, 0.195, 0.98, 0.2925, 1.0775, 0.3925, 1.175, 0.49, 1.2725, 0.5875, 1.3725, 0.685],
  "SoftwareVersions": "syngo_MR_E11",
  "SpacingBetweenSlices": 2,
  "StationName": "MRC35049",
  "TaskName": "things",
  "TotalReadoutTime": 0.0576811,
  "TxRefAmp": 376.769,
  "WipMemBlock": "13a64731-bc98-4312-bd33-7a4adce38917||Sequence: R016 ve11c/master r/e634e98; Dec 19 2017 11:00:25 by eja",
  "dcmmeta_affine": [
    [-1.9977415800094604, 0.022664682939648628, 0.09227685630321503, 104.60616302490234],
    [-0.005827135872095823, 1.909393548965454, -0.5951319932937622, -63.158111572265625],
    [0.09484066069126129, 0.5947288274765015, 1.907171368598938, -47.123085021972656],
    [0.0, 0.0, 0.0, 1.0]
],
  "dcmmeta_reorient_transform": [
    [0.0, -1.0, 0.0, 103.0],
    [1.0, 0.0, 0.0, 0.0],
    [0.0, 0.0, 1.0, 0.0],
    [0.0, 0.0, 0.0, 1.0]
],
  "dcmmeta_shape": [104, 104, 60, 190],
  "dcmmeta_slice_dim": 2,
  "dcmmeta_version": 0.6,
  "global": {
    "const": {
      "AcquisitionMatrix": [104, 0, 0, 104],
      "AngioFlag": "N",
      "BitsAllocated": 16,
      "BitsStored": 16,
      "BodyPartExamined": "BRAIN",
      "Columns": 832,
      "EchoNumbers": 1,
      "EchoTime": 37.0,
      "EchoTrainLength": 104,
      "FlipAngle": 52.0,
      "HighBit": 15,
      "ImageOrientationPatient": [0.9988707740675, 0.00291356803871, 0.04742033145257, 0.01133234181116, 0.95469680144342, -0.297364415058],
      "ImagePositionPatient": [-842.36849566117, -830.64977708564, 196.09327667776],
      "ImageType": [
        "ORIGINAL",
        "PRIMARY",
        "P",
        "MB",
        "ND",
        "MOSAIC"
],
      "ImagedNucleus": "1H",
      "ImagingFrequency": 123.258873,
      "InPlanePhaseEncodingDirection": "COL",
      "LargestImagePixelValue": 4095,
      "MRAcquisitionType": "2D",
      "MagneticFieldStrength": 3.0,
      "Manufacturer": "SIEMENS",
      "ManufacturerModelName": "Prisma_fit",
      "Modality": "MR",
      "NumberOfAverages": 1.0,
      "NumberOfPhaseEncodingSteps": 104,
      "PercentPhaseFieldOfView": 100.0,
      "PercentSampling": 100.0,
      "PerformedProcedureStepStartTime": "170251.687000",
      "PhotometricInterpretation": "MONOCHROME2",
      "PixelBandwidth": 2290.0,
      "PixelRepresentation": 0,
      "PixelSpacing": [2.0, 2.0],
      "ProtocolName": "func_task-things_run-5",
      "RepetitionTime": 1490.0,
      "RescaleIntercept": -4096.0,
      "RescaleSlope": 2.0,
      "RescaleType": "US",
      "Rows": 832,
      "SAR": 0.09570480531391,
      "SamplesPerPixel": 1,
      "ScanOptions": "FS",
      "ScanningSequence": "EP",
      "SequenceName": "epfid2d1_104",
      "SequenceVariant": [
        "SK",
        "SS"
],
      "SeriesDescription": "func_task-things_run-5",
      "SeriesNumber": 23,
      "SeriesTime": "175453.277000",
      "SliceLocation": -21.315829660463,
      "SliceThickness": 2.0,
      "SmallestImagePixelValue": 0,
      "SoftwareVersions": "syngo MR E11",
      "SpacingBetweenSlices": 1.9999999557764,
      "SpecificCharacterSet": "ISO_IR 100",
      "StudyID": "1",
      "StudyTime": "170251.603000",
      "TransmitCoilName": "Body",
      "VariableFlipAngleFlag": "N",
      "WindowCenterWidthExplanation": "Algo1",
      "dBdt": 0.0},
    "slices": {}
  },
  "time": {
    "samples": {
      "AcquisitionNumber": [1, 2, 3, 4, 5, 6, 7, 8, 9, 10, 11, 12, 13, 14, 15, 16, 17, 18, 19, 20, 21, 22, 23, 24, 25, 26, 27, 28, 29, 30, 31, 32, 33, 34, 35, 36, 37, 38, 39, 40, 41, 42, 43, 44, 45, 46, 47, 48, 49, 50, 51, 52, 53, 54, 55, 56, 57, 58, 59, 60, 61, 62, 63, 64, 65, 66, 67, 68, 69, 70, 71, 72, 73, 74, 75, 76, 77, 78, 79, 80, 81, 82, 83, 84, 85, 86, 87, 88, 89, 90, 91, 92, 93, 94, 95, 96, 97, 98, 99, 100, 101, 102, 103, 104, 105, 106, 107, 108, 109, 110, 111, 112, 113, 114, 115, 116, 117, 118, 119, 120, 121, 122, 123, 124, 125, 126, 127, 128, 129, 130, 131, 132, 133, 134, 135, 136, 137, 138, 139, 140, 141, 142, 143, 144, 145, 146, 147, 148, 149, 150, 151, 152, 153, 154, 155, 156, 157, 158, 159, 160, 161, 162, 163, 164, 165, 166, 167, 168, 169, 170, 171, 172, 173, 174, 175, 176, 177, 178, 179, 180, 181, 182, 183, 184, 185, 186, 187, 188, 189, 190],
      "AcquisitionTime": ["175355.042500", "175356.532500", "175358.022500", "175359.512500", "175401.002500", "175402.492500", "175403.982500", "175405.472500", "175406.962500", "175408.452500", "175409.942500", "175411.432500", "175412.922500", "175414.412500", "175415.902500", "175417.392500", "175418.882500", "175420.372500", "175421.862500", "175423.352500", "175424.842500", "175426.332500", "175427.822500", "175429.312500", "175430.802500", "175432.292500", "175433.782500", "175435.272500", "175436.762500", "175438.252500", "175439.742500", "175441.232500", "175442.722500", "175444.212500", "175445.702500", "175447.192500", "175448.682500", "175450.172500", "175451.662500", "175453.152500", "175454.642500", "175456.132500", "175457.622500", "175459.112500", "175500.602500", "175502.092500", "175503.582500", "175505.072500", "175506.562500", "175508.052500", "175509.542500", "175511.032500", "175512.522500", "175514.012500", "175515.502500", "175516.992500", "175518.482500", "175519.972500", "175521.462500", "175522.952500", "175524.442500", "175525.932500", "175527.422500", "175528.912500", "175530.402500", "175531.892500", "175533.382500", "175534.872500", "175536.362500", "175537.852500", "175539.342500", "175540.832500", "175542.322500", "175543.812500", "175545.302500", "175546.792500", "175548.282500", "175549.772500", "175551.262500", "175552.752500", "175554.242500", "175555.732500", "175557.222500", "175558.712500", "175600.202500", "175601.692500", "175603.182500", "175604.672500", "175606.162500", "175607.652500", "175609.142500", "175610.632500", "175612.122500", "175613.612500", "175615.102500", "175616.592500", "175618.082500", "175619.572500", "175621.062500", "175622.552500", "175624.042500", "175625.532500", "175627.022500", "175628.512500", "175630.002500", "175631.492500", "175632.982500", "175634.472500", "175635.962500", "175637.452500", "175638.942500", "175640.432500", "175641.922500", "175643.412500", "175644.902500", "175646.392500", "175647.882500", "175649.372500", "175650.862500", "175652.352500", "175653.842500", "175655.332500", "175656.822500", "175658.312500", "175659.802500", "175701.292500", "175702.782500", "175704.272500", "175705.762500", "175707.252500", "175708.742500", "175710.232500", "175711.722500", "175713.212500", "175714.702500", "175716.192500", "175717.682500", "175719.172500", "175720.662500", "175722.152500", "175723.642500", "175725.132500", "175726.622500", "175728.112500", "175729.602500", "175731.092500", "175732.582500", "175734.072500", "175735.562500", "175737.052500", "175738.542500", "175740.032500", "175741.522500", "175743.012500", "175744.502500", "175745.992500", "175747.482500", "175748.972500", "175750.462500", "175751.952500", "175753.442500", "175754.932500", "175756.422500", "175757.912500", "175759.402500", "175800.892500", "175802.382500", "175803.872500", "175805.362500", "175806.852500", "175808.342500", "175809.832500", "175811.322500", "175812.812500", "175814.302500", "175815.792500", "175817.282500", "175818.772500", "175820.262500", "175821.752500", "175823.242500", "175824.732500", "175826.222500", "175827.712500", "175829.202500", "175830.692500", "175832.182500", "175833.672500", "175835.162500", "175836.652500"],
      "ContentTime": ["175453.280000", "175453.282000", "175453.285000", "175513.324000", "175513.327000", "175513.329000", "175513.332000", "175513.334000", "175513.337000", "175513.339000", "175513.342000", "175513.344000", "175513.347000", "175513.349000", "175513.352000", "175513.354000", "175513.357000", "175513.359000", "175513.362000", "175513.364000", "175513.367000", "175513.369000", "175513.372000", "175513.374000", "175533.294000", "175533.297000", "175533.299000", "175533.301000", "175533.304000", "175533.306000", "175533.309000", "175533.311000", "175533.314000", "175533.316000", "175533.319000", "175533.321000", "175533.324000", "175533.326000", "175533.329000", "175533.336000", "175533.338000", "175533.341000", "175533.343000", "175533.345000", "175553.293000", "175553.296000", "175553.298000", "175553.301000", "175553.303000", "175553.306000", "175553.308000", "175553.311000", "175553.313000", "175553.316000", "175553.318000", "175553.321000", "175553.323000", "175553.326000", "175553.328000", "175553.331000", "175553.333000", "175553.336000", "175553.338000", "175553.340000", "175613.309000", "175613.311000", "175613.314000", "175613.316000", "175613.319000", "175613.330000", "175613.332000", "175613.335000", "175613.337000", "175613.340000", "175613.342000", "175613.345000", "175613.347000", "175613.350000", "175613.352000", "175613.355000", "175613.357000", "175613.360000", "175613.362000", "175613.365000", "175613.367000", "175633.296000", "175633.299000", "175633.302000", "175633.304000", "175633.307000", "175633.309000", "175633.312000", "175633.314000", "175633.316000", "175633.319000", "175633.321000", "175633.324000", "175633.326000", "175633.329000", "175633.331000", "175633.334000", "175633.336000", "175633.339000", "175633.341000", "175633.344000", "175713.333000", "175713.336000", "175713.339000", "175713.341000", "175713.344000", "175713.346000", "175713.349000", "175713.351000", "175713.354000", "175713.356000", "175713.359000", "175713.361000", "175713.364000", "175713.366000", "175713.369000", "175713.371000", "175713.374000", "175713.376000", "175713.379000", "175713.381000", "175713.384000", "175713.386000", "175713.389000", "175713.391000", "175713.394000", "175713.396000", "175713.399000", "175753.740000", "175753.743000", "175753.745000", "175753.748000", "175753.750000", "175753.753000", "175753.755000", "175753.758000", "175753.760000", "175753.763000", "175753.765000", "175753.768000", "175753.770000", "175753.773000", "175753.775000", "175753.778000", "175753.780000", "175753.783000", "175753.785000", "175753.788000", "175753.790000", "175753.793000", "175753.795000", "175753.798000", "175753.800000", "175753.803000", "175753.806000", "175833.337000", "175833.339000", "175833.342000", "175833.345000", "175833.347000", "175833.350000", "175833.352000", "175833.355000", "175833.357000", "175833.360000", "175833.362000", "175833.365000", "175833.367000", "175833.370000", "175833.372000", "175833.375000", "175833.377000", "175833.380000", "175833.382000", "175833.385000", "175833.387000", "175833.390000", "175833.392000", "175833.395000", "175833.397000", "175833.413000", "175833.416000", "175839.017000", "175839.020000", "175839.023000", "175839.026000"],
      "InstanceCreationTime": ["175453.280000", "175453.282000", "175453.285000", "175513.324000", "175513.327000", "175513.329000", "175513.332000", "175513.334000", "175513.337000", "175513.339000", "175513.342000", "175513.344000", "175513.347000", "175513.349000", "175513.352000", "175513.354000", "175513.357000", "175513.359000", "175513.362000", "175513.364000", "175513.367000", "175513.369000", "175513.372000", "175513.374000", "175533.294000", "175533.297000", "175533.299000", "175533.301000", "175533.304000", "175533.306000", "175533.309000", "175533.311000", "175533.314000", "175533.316000", "175533.319000", "175533.321000", "175533.324000", "175533.326000", "175533.329000", "175533.336000", "175533.338000", "175533.341000", "175533.343000", "175533.345000", "175553.293000", "175553.296000", "175553.298000", "175553.301000", "175553.303000", "175553.306000", "175553.308000", "175553.311000", "175553.313000", "175553.316000", "175553.318000", "175553.321000", "175553.323000", "175553.326000", "175553.328000", "175553.331000", "175553.333000", "175553.336000", "175553.338000", "175553.340000", "175613.309000", "175613.311000", "175613.314000", "175613.316000", "175613.319000", "175613.330000", "175613.332000", "175613.335000", "175613.337000", "175613.340000", "175613.342000", "175613.345000", "175613.347000", "175613.350000", "175613.352000", "175613.355000", "175613.357000", "175613.360000", "175613.362000", "175613.365000", "175613.367000", "175633.296000", "175633.299000", "175633.302000", "175633.304000", "175633.307000", "175633.309000", "175633.312000", "175633.314000", "175633.316000", "175633.319000", "175633.321000", "175633.324000", "175633.326000", "175633.329000", "175633.331000", "175633.334000", "175633.336000", "175633.339000", "175633.341000", "175633.344000", "175713.333000", "175713.336000", "175713.339000", "175713.341000", "175713.344000", "175713.346000", "175713.349000", "175713.351000", "175713.354000", "175713.356000", "175713.359000", "175713.361000", "175713.364000", "175713.366000", "175713.369000", "175713.371000", "175713.374000", "175713.376000", "175713.379000", "175713.381000", "175713.384000", "175713.386000", "175713.389000", "175713.391000", "175713.394000", "175713.396000", "175713.399000", "175753.740000", "175753.743000", "175753.745000", "175753.748000", "175753.750000", "175753.753000", "175753.755000", "175753.758000", "175753.760000", "175753.763000", "175753.765000", "175753.768000", "175753.770000", "175753.773000", "175753.775000", "175753.778000", "175753.780000", "175753.783000", "175753.785000", "175753.788000", "175753.790000", "175753.793000", "175753.795000", "175753.798000", "175753.800000", "175753.803000", "175753.806000", "175833.337000", "175833.339000", "175833.342000", "175833.345000", "175833.347000", "175833.350000", "175833.352000", "175833.355000", "175833.357000", "175833.360000", "175833.362000", "175833.365000", "175833.367000", "175833.370000", "175833.372000", "175833.375000", "175833.377000", "175833.380000", "175833.382000", "175833.385000", "175833.387000", "175833.390000", "175833.392000", "175833.395000", "175833.397000", "175833.413000", "175833.416000", "175839.017000", "175839.020000", "175839.023000", "175839.026000"],
      "InstanceNumber": [1, 2, 3, 4, 5, 6, 7, 8, 9, 10, 11, 12, 13, 14, 15, 16, 17, 18, 19, 20, 21, 22, 23, 24, 25, 26, 27, 28, 29, 30, 31, 32, 33, 34, 35, 36, 37, 38, 39, 40, 41, 42, 43, 44, 45, 46, 47, 48, 49, 50, 51, 52, 53, 54, 55, 56, 57, 58, 59, 60, 61, 62, 63, 64, 65, 66, 67, 68, 69, 70, 71, 72, 73, 74, 75, 76, 77, 78, 79, 80, 81, 82, 83, 84, 85, 86, 87, 88, 89, 90, 91, 92, 93, 94, 95, 96, 97, 98, 99, 100, 101, 102, 103, 104, 105, 106, 107, 108, 109, 110, 111, 112, 113, 114, 115, 116, 117, 118, 119, 120, 121, 122, 123, 124, 125, 126, 127, 128, 129, 130, 131, 132, 133, 134, 135, 136, 137, 138, 139, 140, 141, 142, 143, 144, 145, 146, 147, 148, 149, 150, 151, 152, 153, 154, 155, 156, 157, 158, 159, 160, 161, 162, 163, 164, 165, 166, 167, 168, 169, 170, 171, 172, 173, 174, 175, 176, 177, 178, 179, 180, 181, 182, 183, 184, 185, 186, 187, 188, 189, 190],
      "WindowCenter": [4862.0, 4888.0, 4886.0, 4860.0, 4860.0, 4860.0, 4886.0, 4866.0, 4860.0, 4860.0, 4860.0, 4886.0, 4890.0, 4888.0, 4862.0, 4860.0, 4862.0, 4838.0, 4862.0, 4866.0, 4864.0, 4864.0, 4862.0, 4864.0, 4864.0, 4884.0, 4864.0, 4864.0, 4864.0, 4866.0, 4858.0, 4886.0, 4886.0, 4888.0, 4862.0, 4886.0, 4886.0, 4912.0, 4888.0, 4838.0, 4838.0, 4836.0, 4862.0, 4860.0, 4862.0, 4888.0, 4888.0, 4886.0, 4866.0, 4884.0, 4864.0, 4862.0, 4864.0, 4860.0, 4862.0, 4888.0, 4864.0, 4864.0, 4886.0, 4910.0, 4886.0, 4860.0, 4858.0, 4836.0, 4838.0, 4864.0, 4862.0, 4864.0, 4890.0, 4880.0, 4894.0, 4878.0, 4860.0, 4828.0, 4804.0, 4802.0, 4834.0, 4864.0, 4886.0, 4910.0, 4908.0, 4886.0, 4888.0, 4884.0, 4836.0, 4834.0, 4838.0, 4836.0, 4862.0, 4886.0, 4890.0, 4912.0, 4888.0, 4886.0, 4886.0, 4864.0, 4886.0, 4860.0, 4860.0, 4862.0, 4864.0, 4886.0, 4890.0, 4886.0, 4886.0, 4888.0, 4886.0, 4886.0, 4862.0, 4886.0, 4862.0, 4862.0, 4884.0, 4860.0, 4866.0, 4886.0, 4890.0, 4884.0, 4888.0, 4888.0, 4892.0, 4864.0, 4886.0, 4868.0, 4886.0, 4886.0, 4888.0, 4888.0, 4888.0, 4884.0, 4886.0, 4862.0, 4862.0, 4886.0, 4888.0, 4886.0, 4886.0, 4864.0, 4890.0, 4890.0, 4886.0, 4888.0, 4886.0, 4884.0, 4888.0, 4886.0, 4888.0, 4884.0, 4864.0, 4886.0, 4884.0, 4864.0, 4890.0, 4888.0, 4884.0, 4890.0, 4886.0, 4864.0, 4886.0, 4890.0, 4888.0, 4888.0, 4888.0, 4886.0, 4862.0, 4862.0, 4860.0, 4888.0, 4892.0, 4884.0, 4890.0, 4886.0, 4886.0, 4886.0, 4888.0, 4888.0, 4862.0, 4862.0, 4860.0, 4888.0, 4888.0, 4914.0, 4888.0, 4888.0, 4890.0, 4890.0, 4886.0, 4864.0, 4862.0, 4886.0],
      "WindowWidth": [18608.0, 18640.0, 18640.0, 18604.0, 18600.0, 18606.0, 18648.0, 18612.0, 18600.0, 18604.0, 18606.0, 18646.0, 18654.0, 18644.0, 18602.0, 18604.0, 18604.0, 18572.0, 18606.0, 18614.0, 18610.0, 18612.0, 18606.0, 18610.0, 18610.0, 18638.0, 18606.0, 18612.0, 18606.0, 18608.0, 18604.0, 18644.0, 18642.0, 18646.0, 18610.0, 18644.0, 18654.0, 18690.0, 18652.0, 18574.0, 18574.0, 18570.0, 18606.0, 18602.0, 18604.0, 18648.0, 18654.0, 18646.0, 18612.0, 18640.0, 18610.0, 18602.0, 18608.0, 18602.0, 18604.0, 18644.0, 18606.0, 18606.0, 18642.0, 18690.0, 18658.0, 18606.0, 18598.0, 18570.0, 18570.0, 18604.0, 18608.0, 18610.0, 18660.0, 18674.0, 18708.0, 18662.0, 18610.0, 18570.0, 18550.0, 18538.0, 18570.0, 18612.0, 18644.0, 18698.0, 18708.0, 18664.0, 18660.0, 18642.0, 18568.0, 18570.0, 18570.0, 18570.0, 18602.0, 18640.0, 18652.0, 18694.0, 18658.0, 18650.0, 18636.0, 18606.0, 18642.0, 18604.0, 18600.0, 18606.0, 18606.0, 18646.0, 18648.0, 18642.0, 18650.0, 18646.0, 18642.0, 18644.0, 18608.0, 18640.0, 18608.0, 18604.0, 18644.0, 18608.0, 18612.0, 18646.0, 18648.0, 18644.0, 18640.0, 18650.0, 18646.0, 18612.0, 18636.0, 18610.0, 18640.0, 18644.0, 18644.0, 18646.0, 18646.0, 18644.0, 18646.0, 18606.0, 18608.0, 18640.0, 18642.0, 18646.0, 18640.0, 18612.0, 18648.0, 18648.0, 18644.0, 18652.0, 18638.0, 18638.0, 18644.0, 18642.0, 18650.0, 18648.0, 18616.0, 18646.0, 18640.0, 18610.0, 18648.0, 18644.0, 18642.0, 18654.0, 18640.0, 18610.0, 18642.0, 18648.0, 18648.0, 18658.0, 18656.0, 18644.0, 18604.0, 18608.0, 18598.0, 18640.0, 18652.0, 18642.0, 18658.0, 18646.0, 18646.0, 18646.0, 18640.0, 18652.0, 18606.0, 18610.0, 18600.0, 18646.0, 18644.0, 18686.0, 18652.0, 18648.0, 18646.0, 18640.0, 18644.0, 18606.0, 18608.0, 18644.0]
    },
    "slices": {}
  }
}