{
  "AcquisitionMatrixPE": 104,
  "AcquisitionNumber": 1,
  "AcquisitionTime": "17:30:39.762500",
  "BandwidthPerPixelPhaseEncode": 17.17,
  "BaseResolution": 104,
  "BodyPartExamined": "BRAIN",
  "CoilString": "HC1-7;NC1_2",
  "ConsistencyInfo": "N4_VE11C_LATEST_20160120",
  "ConversionSoftware": "dcm2niix",
  "ConversionSoftwareVersion": "v1.0.20190902",
  "DerivedVendorReportedEchoSpacing": 0.000560011,
  "DeviceSerialNumber": "167006",
  "DwellTime": 2.1e-06,
  "EchoTime": 0.037,
  "EchoTrainLength": 104,
  "EffectiveEchoSpacing": 0.000560011,
  "FlipAngle": 52,
  "ImageComments": "Unaliased_MB4_PE3_LB",
  "ImageOrientationPatientDICOM": [0.998871, 0.00291357, 0.0474203, 0.0113323, 0.954697, -0.297364],
  "ImageType": [
    "ORIGINAL",
    "PRIMARY",
    "P",
    "MB",
    "ND",
    "MOSAIC"
],
  "ImagingFrequency": 123.259,
  "InPlanePhaseEncodingDirectionDICOM": "COL",
  "InstitutionAddress": "Chemin_Queen-Mary_4565_Montreal_District_CA_H3W_1W5",
  "InstitutionName": "IUGM",
  "InstitutionalDepartmentName": "Department",
  "MRAcquisitionType": "2D",
  "MagneticFieldStrength": 3,
  "Manufacturer": "Siemens",
  "ManufacturersModelName": "Prisma_fit",
  "Modality": "MR",
  "MultibandAccelerationFactor": 4,
  "PartialFourier": 1,
  "PatientPosition": "HFS",
  "PercentPhaseFOV": 100,
  "PhaseEncodingDirection": "j",
  "PhaseEncodingSteps": 104,
  "PhaseResolution": 1,
  "PixelBandwidth": 2290,
  "ProcedureStepDescription": "memory_things",
  "ProtocolName": "func_task-things_run-2",
  "PulseSequenceDetails": "%CustomerSeq%_cmrr_mbep2d_bold",
  "ReceiveCoilActiveElements": "HC1-7;NC1,2",
  "ReceiveCoilName": "HeadNeck_64",
  "ReconMatrixPE": 104,
  "RepetitionTime": 1.49,
  "SAR": 0.0957048,
  "ScanOptions": "FS",
  "ScanningSequence": "EP",
  "SequenceName": "epfid2d1_104",
  "SequenceVariant": "SK_SS",
  "SeriesDescription": "func_task-things_run-2",
  "SeriesNumber": 14,
  "ShimSetting": [641, -7173, -8762, 680, 94, 51, -23, -15],
  "SliceThickness": 2,
  "SliceTiming": [0, 0.785, 0.0975, 0.8825, 0.195, 0.98, 0.295, 1.0775, 0.3925, 1.175, 0.49, 1.2725, 0.5875, 1.3725, 0.685, 0, 0.785, 0.0975, 0.8825, 0.195, 0.98, 0.295, 1.0775, 0.3925, 1.175, 0.49, 1.2725, 0.5875, 1.3725, 0.685, 0, 0.785, 0.0975, 0.8825, 0.195, 0.98, 0.295, 1.0775, 0.3925, 1.175, 0.49, 1.2725, 0.5875, 1.3725, 0.685, 0, 0.785, 0.0975, 0.8825, 0.195, 0.98, 0.295, 1.0775, 0.3925, 1.175, 0.49, 1.2725, 0.5875, 1.3725, 0.685],
  "SoftwareVersions": "syngo_MR_E11",
  "SpacingBetweenSlices": 2,
  "StationName": "MRC35049",
  "TaskName": "things",
  "TotalReadoutTime": 0.0576811,
  "TxRefAmp": 376.769,
  "WipMemBlock": "c144354c-8412-4dcc-9fd9-e7e374f6e2a9||Sequence: R016 ve11c/master r/e634e98; Dec 19 2017 11:00:25 by eja",
  "dcmmeta_affine": [
    [-1.9977415800094604, 0.022664682939648628, 0.09227685630321503, 104.60616302490234],
    [-0.005827135872095823, 1.909393548965454, -0.5951319932937622, -63.158111572265625],
    [0.09484066069126129, 0.5947288274765015, 1.907171368598938, -47.123085021972656],
    [0.0, 0.0, 0.0, 1.0]
],
  "dcmmeta_reorient_transform": [
    [0.0, -1.0, 0.0, 103.0],
    [1.0, 0.0, 0.0, 0.0],
    [0.0, 0.0, 1.0, 0.0],
    [0.0, 0.0, 0.0, 1.0]
],
  "dcmmeta_shape": [104, 104, 60, 190],
  "dcmmeta_slice_dim": 2,
  "dcmmeta_version": 0.6,
  "global": {
    "const": {
      "AcquisitionMatrix": [104, 0, 0, 104],
      "AngioFlag": "N",
      "BitsAllocated": 16,
      "BitsStored": 16,
      "BodyPartExamined": "BRAIN",
      "Columns": 832,
      "EchoNumbers": 1,
      "EchoTime": 37.0,
      "EchoTrainLength": 104,
      "FlipAngle": 52.0,
      "HighBit": 15,
      "ImageOrientationPatient": [0.9988707740675, 0.00291356803871, 0.04742033145257, 0.01133234181116, 0.95469680144342, -0.297364415058],
      "ImagePositionPatient": [-842.36849566117, -830.64977708564, 196.09327667776],
      "ImageType": [
        "ORIGINAL",
        "PRIMARY",
        "P",
        "MB",
        "ND",
        "MOSAIC"
],
      "ImagedNucleus": "1H",
      "ImagingFrequency": 123.258867,
      "InPlanePhaseEncodingDirection": "COL",
      "LargestImagePixelValue": 4095,
      "MRAcquisitionType": "2D",
      "MagneticFieldStrength": 3.0,
      "Manufacturer": "SIEMENS",
      "ManufacturerModelName": "Prisma_fit",
      "Modality": "MR",
      "NumberOfAverages": 1.0,
      "NumberOfPhaseEncodingSteps": 104,
      "PercentPhaseFieldOfView": 100.0,
      "PercentSampling": 100.0,
      "PerformedProcedureStepStartTime": "170251.687000",
      "PhotometricInterpretation": "MONOCHROME2",
      "PixelBandwidth": 2290.0,
      "PixelRepresentation": 0,
      "PixelSpacing": [2.0, 2.0],
      "ProtocolName": "func_task-things_run-2",
      "RepetitionTime": 1490.0,
      "RescaleIntercept": -4096.0,
      "RescaleSlope": 2.0,
      "RescaleType": "US",
      "Rows": 832,
      "SAR": 0.09570480531391,
      "SamplesPerPixel": 1,
      "ScanOptions": "FS",
      "ScanningSequence": "EP",
      "SequenceName": "epfid2d1_104",
      "SequenceVariant": [
        "SK",
        "SS"
],
      "SeriesDescription": "func_task-things_run-2",
      "SeriesNumber": 14,
      "SeriesTime": "173153.348000",
      "SliceLocation": -21.315829660463,
      "SliceThickness": 2.0,
      "SmallestImagePixelValue": 0,
      "SoftwareVersions": "syngo MR E11",
      "SpacingBetweenSlices": 1.9999999557764,
      "SpecificCharacterSet": "ISO_IR 100",
      "StudyID": "1",
      "StudyTime": "170251.603000",
      "TransmitCoilName": "Body",
      "VariableFlipAngleFlag": "N",
      "WindowCenterWidthExplanation": "Algo1",
      "dBdt": 0.0},
    "slices": {}
  },
  "time": {
    "samples": {
      "AcquisitionNumber": [1, 2, 3, 4, 5, 6, 7, 8, 9, 10, 11, 12, 13, 14, 15, 16, 17, 18, 19, 20, 21, 22, 23, 24, 25, 26, 27, 28, 29, 30, 31, 32, 33, 34, 35, 36, 37, 38, 39, 40, 41, 42, 43, 44, 45, 46, 47, 48, 49, 50, 51, 52, 53, 54, 55, 56, 57, 58, 59, 60, 61, 62, 63, 64, 65, 66, 67, 68, 69, 70, 71, 72, 73, 74, 75, 76, 77, 78, 79, 80, 81, 82, 83, 84, 85, 86, 87, 88, 89, 90, 91, 92, 93, 94, 95, 96, 97, 98, 99, 100, 101, 102, 103, 104, 105, 106, 107, 108, 109, 110, 111, 112, 113, 114, 115, 116, 117, 118, 119, 120, 121, 122, 123, 124, 125, 126, 127, 128, 129, 130, 131, 132, 133, 134, 135, 136, 137, 138, 139, 140, 141, 142, 143, 144, 145, 146, 147, 148, 149, 150, 151, 152, 153, 154, 155, 156, 157, 158, 159, 160, 161, 162, 163, 164, 165, 166, 167, 168, 169, 170, 171, 172, 173, 174, 175, 176, 177, 178, 179, 180, 181, 182, 183, 184, 185, 186, 187, 188, 189, 190],
      "AcquisitionTime": ["173039.762500", "173041.252500", "173042.742500", "173044.232500", "173045.722500", "173047.212500", "173048.702500", "173050.192500", "173051.682500", "173053.172500", "173054.662500", "173056.152500", "173057.642500", "173059.132500", "173100.622500", "173102.112500", "173103.602500", "173105.092500", "173106.582500", "173108.072500", "173109.562500", "173111.052500", "173112.542500", "173114.032500", "173115.522500", "173117.012500", "173118.502500", "173119.992500", "173121.482500", "173122.972500", "173124.462500", "173125.952500", "173127.442500", "173128.932500", "173130.422500", "173131.912500", "173133.402500", "173134.892500", "173136.382500", "173137.872500", "173139.362500", "173140.852500", "173142.342500", "173143.832500", "173145.322500", "173146.812500", "173148.302500", "173149.792500", "173151.282500", "173152.772500", "173154.262500", "173155.752500", "173157.242500", "173158.732500", "173200.222500", "173201.712500", "173203.202500", "173204.692500", "173206.182500", "173207.672500", "173209.162500", "173210.652500", "173212.142500", "173213.632500", "173215.122500", "173216.612500", "173218.102500", "173219.592500", "173221.082500", "173222.572500", "173224.062500", "173225.552500", "173227.042500", "173228.532500", "173230.022500", "173231.512500", "173233.002500", "173234.492500", "173235.982500", "173237.472500", "173238.962500", "173240.452500", "173241.942500", "173243.432500", "173244.922500", "173246.412500", "173247.902500", "173249.392500", "173250.882500", "173252.372500", "173253.862500", "173255.352500", "173256.842500", "173258.332500", "173259.822500", "173301.312500", "173302.802500", "173304.292500", "173305.782500", "173307.272500", "173308.762500", "173310.252500", "173311.742500", "173313.232500", "173314.722500", "173316.212500", "173317.702500", "173319.192500", "173320.682500", "173322.172500", "173323.662500", "173325.152500", "173326.642500", "173328.132500", "173329.622500", "173331.112500", "173332.602500", "173334.092500", "173335.582500", "173337.072500", "173338.562500", "173340.052500", "173341.542500", "173343.032500", "173344.522500", "173346.012500", "173347.502500", "173348.992500", "173350.482500", "173351.972500", "173353.462500", "173354.952500", "173356.442500", "173357.932500", "173359.422500", "173400.912500", "173402.402500", "173403.892500", "173405.382500", "173406.872500", "173408.362500", "173409.852500", "173411.342500", "173412.832500", "173414.322500", "173415.812500", "173417.302500", "173418.792500", "173420.282500", "173421.772500", "173423.262500", "173424.752500", "173426.242500", "173427.732500", "173429.222500", "173430.712500", "173432.202500", "173433.692500", "173435.182500", "173436.672500", "173438.162500", "173439.652500", "173441.142500", "173442.632500", "173444.122500", "173445.612500", "173447.102500", "173448.592500", "173450.082500", "173451.572500", "173453.062500", "173454.552500", "173456.042500", "173457.532500", "173459.022500", "173500.512500", "173502.002500", "173503.492500", "173504.982500", "173506.472500", "173507.962500", "173509.452500", "173510.942500", "173512.432500", "173513.922500", "173515.412500", "173516.902500", "173518.392500", "173519.882500", "173521.372500"],
      "ContentTime": ["173153.350000", "173153.353000", "173153.356000", "173153.358000", "173153.360000", "173153.363000", "173153.365000", "173153.368000", "173153.370000", "173153.373000", "173153.375000", "173153.378000", "173153.380000", "173153.383000", "173153.385000", "173153.388000", "173153.390000", "173153.393000", "173153.395000", "173153.398000", "173213.291000", "173213.293000", "173213.296000", "173213.298000", "173213.301000", "173213.303000", "173213.306000", "173213.308000", "173213.311000", "173213.313000", "173213.316000", "173213.318000", "173213.321000", "173213.323000", "173213.326000", "173213.328000", "173213.330000", "173213.333000", "173213.335000", "173213.338000", "173233.318000", "173233.321000", "173233.323000", "173233.325000", "173233.328000", "173233.330000", "173233.333000", "173233.335000", "173233.338000", "173233.340000", "173233.343000", "173233.345000", "173233.348000", "173233.350000", "173233.353000", "173233.355000", "173233.358000", "173233.360000", "173233.363000", "173233.365000", "173253.317000", "173253.320000", "173253.322000", "173253.325000", "173253.327000", "173253.330000", "173253.332000", "173253.335000", "173253.337000", "173253.340000", "173253.342000", "173253.345000", "173253.347000", "173253.350000", "173253.352000", "173253.355000", "173253.357000", "173253.360000", "173253.362000", "173253.365000", "173253.367000", "173313.316000", "173313.319000", "173313.321000", "173313.324000", "173313.326000", "173313.329000", "173313.331000", "173313.334000", "173313.336000", "173313.339000", "173313.341000", "173313.344000", "173313.346000", "173313.349000", "173313.351000", "173313.354000", "173313.356000", "173313.359000", "173313.361000", "173313.364000", "173353.324000", "173353.326000", "173353.329000", "173353.331000", "173353.334000", "173353.336000", "173353.339000", "173353.341000", "173353.344000", "173353.346000", "173353.349000", "173353.351000", "173353.354000", "173353.356000", "173353.359000", "173353.361000", "173353.364000", "173353.366000", "173353.369000", "173353.371000", "173353.374000", "173353.376000", "173353.379000", "173353.381000", "173353.391000", "173353.393000", "173353.396000", "173353.398000", "173433.326000", "173433.329000", "173433.331000", "173433.334000", "173433.336000", "173433.339000", "173433.341000", "173433.344000", "173433.347000", "173433.349000", "173433.352000", "173433.354000", "173433.357000", "173433.359000", "173433.362000", "173433.364000", "173433.367000", "173433.369000", "173433.371000", "173433.374000", "173433.377000", "173433.379000", "173433.382000", "173433.384000", "173433.387000", "173433.389000", "173433.392000", "173453.335000", "173453.338000", "173453.341000", "173453.343000", "173453.346000", "173453.348000", "173453.351000", "173453.353000", "173453.356000", "173453.358000", "173453.360000", "173453.363000", "173453.365000", "173524.035000", "173524.038000", "173524.041000", "173524.043000", "173524.046000", "173524.048000", "173524.051000", "173524.054000", "173524.056000", "173524.059000", "173524.061000", "173524.064000", "173524.066000", "173524.069000", "173524.071000", "173524.074000", "173524.076000", "173524.079000", "173524.082000", "173524.084000", "173524.087000"],
      "InstanceCreationTime": ["173153.350000", "173153.353000", "173153.356000", "173153.358000", "173153.360000", "173153.363000", "173153.365000", "173153.368000", "173153.370000", "173153.373000", "173153.375000", "173153.378000", "173153.380000", "173153.383000", "173153.385000", "173153.388000", "173153.390000", "173153.393000", "173153.395000", "173153.398000", "173213.291000", "173213.293000", "173213.296000", "173213.298000", "173213.301000", "173213.303000", "173213.306000", "173213.308000", "173213.311000", "173213.313000", "173213.316000", "173213.318000", "173213.321000", "173213.323000", "173213.326000", "173213.328000", "173213.330000", "173213.333000", "173213.335000", "173213.338000", "173233.318000", "173233.321000", "173233.323000", "173233.325000", "173233.328000", "173233.330000", "173233.333000", "173233.335000", "173233.338000", "173233.340000", "173233.343000", "173233.345000", "173233.348000", "173233.350000", "173233.353000", "173233.355000", "173233.358000", "173233.360000", "173233.363000", "173233.365000", "173253.317000", "173253.320000", "173253.322000", "173253.325000", "173253.327000", "173253.330000", "173253.332000", "173253.335000", "173253.337000", "173253.340000", "173253.342000", "173253.345000", "173253.347000", "173253.350000", "173253.352000", "173253.355000", "173253.357000", "173253.360000", "173253.362000", "173253.365000", "173253.367000", "173313.316000", "173313.319000", "173313.321000", "173313.324000", "173313.326000", "173313.329000", "173313.331000", "173313.334000", "173313.336000", "173313.339000", "173313.341000", "173313.344000", "173313.346000", "173313.349000", "173313.351000", "173313.354000", "173313.356000", "173313.359000", "173313.361000", "173313.364000", "173353.324000", "173353.326000", "173353.329000", "173353.331000", "173353.334000", "173353.336000", "173353.339000", "173353.341000", "173353.344000", "173353.346000", "173353.349000", "173353.351000", "173353.354000", "173353.356000", "173353.359000", "173353.361000", "173353.364000", "173353.366000", "173353.369000", "173353.371000", "173353.374000", "173353.376000", "173353.379000", "173353.381000", "173353.391000", "173353.393000", "173353.396000", "173353.398000", "173433.326000", "173433.329000", "173433.331000", "173433.334000", "173433.336000", "173433.339000", "173433.341000", "173433.344000", "173433.347000", "173433.349000", "173433.352000", "173433.354000", "173433.357000", "173433.359000", "173433.362000", "173433.364000", "173433.367000", "173433.369000", "173433.371000", "173433.374000", "173433.377000", "173433.379000", "173433.382000", "173433.384000", "173433.387000", "173433.389000", "173433.392000", "173453.335000", "173453.338000", "173453.341000", "173453.343000", "173453.346000", "173453.348000", "173453.351000", "173453.353000", "173453.356000", "173453.358000", "173453.360000", "173453.363000", "173453.365000", "173524.035000", "173524.038000", "173524.041000", "173524.043000", "173524.046000", "173524.048000", "173524.051000", "173524.054000", "173524.056000", "173524.059000", "173524.061000", "173524.064000", "173524.066000", "173524.069000", "173524.071000", "173524.074000", "173524.076000", "173524.079000", "173524.082000", "173524.084000", "173524.087000"],
      "InstanceNumber": [1, 2, 3, 4, 5, 6, 7, 8, 9, 10, 11, 12, 13, 14, 15, 16, 17, 18, 19, 20, 21, 22, 23, 24, 25, 26, 27, 28, 29, 30, 31, 32, 33, 34, 35, 36, 37, 38, 39, 40, 41, 42, 43, 44, 45, 46, 47, 48, 49, 50, 51, 52, 53, 54, 55, 56, 57, 58, 59, 60, 61, 62, 63, 64, 65, 66, 67, 68, 69, 70, 71, 72, 73, 74, 75, 76, 77, 78, 79, 80, 81, 82, 83, 84, 85, 86, 87, 88, 89, 90, 91, 92, 93, 94, 95, 96, 97, 98, 99, 100, 101, 102, 103, 104, 105, 106, 107, 108, 109, 110, 111, 112, 113, 114, 115, 116, 117, 118, 119, 120, 121, 122, 123, 124, 125, 126, 127, 128, 129, 130, 131, 132, 133, 134, 135, 136, 137, 138, 139, 140, 141, 142, 143, 144, 145, 146, 147, 148, 149, 150, 151, 152, 153, 154, 155, 156, 157, 158, 159, 160, 161, 162, 163, 164, 165, 166, 167, 168, 169, 170, 171, 172, 173, 174, 175, 176, 177, 178, 179, 180, 181, 182, 183, 184, 185, 186, 187, 188, 189, 190],
      "WindowCenter": [4860.0, 4858.0, 4856.0, 4862.0, 4882.0, 4876.0, 4878.0, 4858.0, 4832.0, 4826.0, 4828.0, 4834.0, 4862.0, 4890.0, 4886.0, 4888.0, 4888.0, 4888.0, 4862.0, 4858.0, 4836.0, 4834.0, 4840.0, 4860.0, 4886.0, 4910.0, 4886.0, 4860.0, 4860.0, 4862.0, 4862.0, 4836.0, 4864.0, 4864.0, 4886.0, 4890.0, 4888.0, 4912.0, 4890.0, 4862.0, 4886.0, 4888.0, 4858.0, 4860.0, 4864.0, 4886.0, 4888.0, 4888.0, 4910.0, 4890.0, 4888.0, 4884.0, 4862.0, 4862.0, 4864.0, 4864.0, 4886.0, 4886.0, 4888.0, 4888.0, 4886.0, 4886.0, 4888.0, 4886.0, 4864.0, 4888.0, 4888.0, 4890.0, 4888.0, 4864.0, 4888.0, 4888.0, 4866.0, 4888.0, 4890.0, 4888.0, 4866.0, 4890.0, 4888.0, 4888.0, 4892.0, 4888.0, 4890.0, 4888.0, 4892.0, 4888.0, 4894.0, 4888.0, 4892.0, 4888.0, 4888.0, 4888.0, 4888.0, 4886.0, 4888.0, 4886.0, 4888.0, 4890.0, 4864.0, 4888.0, 4888.0, 4888.0, 4888.0, 4890.0, 4890.0, 4864.0, 4892.0, 4890.0, 4888.0, 4888.0, 4888.0, 4890.0, 4892.0, 4888.0, 4890.0, 4888.0, 4890.0, 4888.0, 4886.0, 4886.0, 4886.0, 4868.0, 4886.0, 4888.0, 4886.0, 4888.0, 4890.0, 4888.0, 4892.0, 4886.0, 4888.0, 4888.0, 4890.0, 4890.0, 4888.0, 4890.0, 4888.0, 4888.0, 4892.0, 4888.0, 4888.0, 4890.0, 4888.0, 4890.0, 4888.0, 4890.0, 4894.0, 4888.0, 4892.0, 4890.0, 4890.0, 4890.0, 4866.0, 4888.0, 4888.0, 4892.0, 4890.0, 4888.0, 4890.0, 4914.0, 4888.0, 4888.0, 4892.0, 4866.0, 4890.0, 4892.0, 4892.0, 4892.0, 4890.0, 4892.0, 4890.0, 4886.0, 4864.0, 4866.0, 4888.0, 4888.0, 4888.0, 4892.0, 4888.0, 4890.0, 4888.0, 4888.0, 4890.0, 4884.0, 4890.0, 4864.0, 4890.0, 4890.0, 4892.0, 4892.0],
      "WindowWidth": [18608.0, 18598.0, 18600.0, 18608.0, 18656.0, 18662.0, 18658.0, 18610.0, 18570.0, 18570.0, 18566.0, 18574.0, 18614.0, 18646.0, 18652.0, 18658.0, 18646.0, 18644.0, 18608.0, 18600.0, 18572.0, 18564.0, 18572.0, 18604.0, 18652.0, 18690.0, 18638.0, 18604.0, 18598.0, 18602.0, 18600.0, 18570.0, 18608.0, 18612.0, 18636.0, 18644.0, 18642.0, 18686.0, 18638.0, 18602.0, 18654.0, 18648.0, 18602.0, 18600.0, 18608.0, 18648.0, 18644.0, 18650.0, 18692.0, 18650.0, 18640.0, 18642.0, 18608.0, 18608.0, 18612.0, 18602.0, 18644.0, 18642.0, 18648.0, 18648.0, 18646.0, 18640.0, 18644.0, 18640.0, 18610.0, 18642.0, 18644.0, 18646.0, 18646.0, 18614.0, 18646.0, 18644.0, 18608.0, 18642.0, 18640.0, 18638.0, 18608.0, 18644.0, 18642.0, 18638.0, 18644.0, 18642.0, 18642.0, 18640.0, 18644.0, 18642.0, 18648.0, 18640.0, 18646.0, 18640.0, 18640.0, 18646.0, 18640.0, 18642.0, 18644.0, 18638.0, 18646.0, 18644.0, 18610.0, 18632.0, 18640.0, 18648.0, 18642.0, 18646.0, 18642.0, 18610.0, 18640.0, 18650.0, 18640.0, 18644.0, 18642.0, 18646.0, 18646.0, 18642.0, 18644.0, 18642.0, 18648.0, 18650.0, 18638.0, 18640.0, 18642.0, 18606.0, 18640.0, 18644.0, 18640.0, 18640.0, 18644.0, 18638.0, 18644.0, 18640.0, 18642.0, 18642.0, 18644.0, 18644.0, 18634.0, 18640.0, 18638.0, 18638.0, 18652.0, 18640.0, 18646.0, 18644.0, 18638.0, 18642.0, 18644.0, 18642.0, 18654.0, 18640.0, 18644.0, 18648.0, 18642.0, 18646.0, 18608.0, 18634.0, 18638.0, 18640.0, 18644.0, 18642.0, 18640.0, 18676.0, 18642.0, 18634.0, 18640.0, 18606.0, 18642.0, 18642.0, 18652.0, 18648.0, 18644.0, 18652.0, 18638.0, 18634.0, 18606.0, 18606.0, 18642.0, 18640.0, 18644.0, 18646.0, 18644.0, 18654.0, 18638.0, 18638.0, 18638.0, 18634.0, 18638.0, 18608.0, 18636.0, 18650.0, 18656.0, 18660.0]
    },
    "slices": {}
  }
}