{
  "AcquisitionMatrixPE": 104,
  "AcquisitionNumber": 1,
  "AcquisitionTime": "10:07:8.965000",
  "BandwidthPerPixelPhaseEncode": 17.17,
  "BaseResolution": 104,
  "BodyPartExamined": "BRAIN",
  "CoilString": "HC1-7;NC1_2",
  "ConsistencyInfo": "N4_VE11C_LATEST_20160120",
  "ConversionSoftware": "dcm2niix",
  "ConversionSoftwareVersion": "v1.0.20190902",
  "DerivedVendorReportedEchoSpacing": 0.000560011,
  "DeviceSerialNumber": "167006",
  "DwellTime": 2.1e-06,
  "EchoTime": 0.037,
  "EchoTrainLength": 104,
  "EffectiveEchoSpacing": 0.000560011,
  "FlipAngle": 52,
  "ImageComments": "Unaliased_MB4_PE3_LB",
  "ImageOrientationPatientDICOM": [0.997062, 0.0752924, 0.0140701, -0.0644771, 0.924189, -0.376454],
  "ImageType": [
    "ORIGINAL",
    "PRIMARY",
    "P",
    "MB",
    "ND",
    "MOSAIC"
],
  "ImagingFrequency": 123.259,
  "InPlanePhaseEncodingDirectionDICOM": "COL",
  "InstitutionAddress": "Chemin_Queen-Mary_4565_Montreal_District_CA_H3W_1W5",
  "InstitutionName": "IUGM",
  "InstitutionalDepartmentName": "Department",
  "MRAcquisitionType": "2D",
  "MagneticFieldStrength": 3,
  "Manufacturer": "Siemens",
  "ManufacturersModelName": "Prisma_fit",
  "Modality": "MR",
  "MultibandAccelerationFactor": 4,
  "PartialFourier": 1,
  "PatientPosition": "HFS",
  "PercentPhaseFOV": 100,
  "PhaseEncodingDirection": "j",
  "PhaseEncodingSteps": 104,
  "PhaseResolution": 1,
  "PixelBandwidth": 2290,
  "ProcedureStepDescription": "memory_things",
  "ProtocolName": "func_task-things_run-6",
  "PulseSequenceDetails": "%CustomerSeq%_cmrr_mbep2d_bold",
  "ReceiveCoilActiveElements": "HC1-7;NC1,2",
  "ReceiveCoilName": "HeadNeck_64",
  "ReconMatrixPE": 104,
  "RepetitionTime": 1.49,
  "SAR": 0.0703931,
  "ScanOptions": "FS",
  "ScanningSequence": "EP",
  "SequenceName": "epfid2d1_104",
  "SequenceVariant": "SK_SS",
  "SeriesDescription": "func_task-things_run-6",
  "SeriesNumber": 26,
  "ShimSetting": [630, -7166, -8826, 644, 69, 67, -5, -16],
  "SliceThickness": 2,
  "SliceTiming": [0, 0.7825, 0.0975, 0.88, 0.195, 0.98, 0.2925, 1.0775, 0.39, 1.175, 0.49, 1.2725, 0.5875, 1.37, 0.685, 0, 0.7825, 0.0975, 0.88, 0.195, 0.98, 0.2925, 1.0775, 0.39, 1.175, 0.49, 1.2725, 0.5875, 1.37, 0.685, 0, 0.7825, 0.0975, 0.88, 0.195, 0.98, 0.2925, 1.0775, 0.39, 1.175, 0.49, 1.2725, 0.5875, 1.37, 0.685, 0, 0.7825, 0.0975, 0.88, 0.195, 0.98, 0.2925, 1.0775, 0.39, 1.175, 0.49, 1.2725, 0.5875, 1.37, 0.685],
  "SoftwareVersions": "syngo_MR_E11",
  "SpacingBetweenSlices": 2,
  "StationName": "MRC35049",
  "TaskName": "things",
  "TotalReadoutTime": 0.0576811,
  "TxRefAmp": 318.658,
  "WipMemBlock": "77cfe046-76be-473c-bb87-a50db732fc5e||Sequence: R016 ve11c/master r/e634e98; Dec 19 2017 11:00:25 by eja",
  "dcmmeta_affine": [
    [-1.994124412536621, -0.12895427644252777, 0.08269502967596054, 110.07636260986328],
    [-0.150584876537323, 1.84837806224823, -0.7488810420036316, -50.48517990112305],
    [0.02814013697206974, 0.7529072761535645, 1.8526571989059448, -65.42398834228516],
    [0.0, 0.0, 0.0, 1.0]
],
  "dcmmeta_reorient_transform": [
    [0.0, -1.0, 0.0, 103.0],
    [1.0, 0.0, 0.0, 0.0],
    [0.0, 0.0, 1.0, 0.0],
    [0.0, 0.0, 0.0, 1.0]
],
  "dcmmeta_shape": [104, 104, 60, 190],
  "dcmmeta_slice_dim": 2,
  "dcmmeta_version": 0.6,
  "global": {
    "const": {
      "AcquisitionMatrix": [104, 0, 0, 104],
      "AngioFlag": "N",
      "BitsAllocated": 16,
      "BitsStored": 16,
      "BodyPartExamined": "BRAIN",
      "Columns": 832,
      "EchoNumbers": 1,
      "EchoTime": 37.0,
      "EchoTrainLength": 104,
      "FlipAngle": 52.0,
      "HighBit": 15,
      "ImageOrientationPatient": [0.99706222573144, 0.07529243786834, 0.01407006820573, -0.0644771353035, 0.92418902245023, -0.3764536489471],
      "ImagePositionPatient": [-775.7160193418, -867.52026184418, 275.94071356338],
      "ImageType": [
        "ORIGINAL",
        "PRIMARY",
        "P",
        "MB",
        "ND",
        "MOSAIC"
],
      "ImagedNucleus": "1H",
      "ImagingFrequency": 123.258973,
      "InPlanePhaseEncodingDirection": "COL",
      "LargestImagePixelValue": 4095,
      "MRAcquisitionType": "2D",
      "MagneticFieldStrength": 3.0,
      "Manufacturer": "SIEMENS",
      "ManufacturerModelName": "Prisma_fit",
      "Modality": "MR",
      "NumberOfAverages": 1.0,
      "NumberOfPhaseEncodingSteps": 104,
      "PercentPhaseFieldOfView": 100.0,
      "PercentSampling": 100.0,
      "PerformedProcedureStepStartTime": "085339.932000",
      "PhotometricInterpretation": "MONOCHROME2",
      "PixelBandwidth": 2290.0,
      "PixelRepresentation": 0,
      "PixelSpacing": [2.0, 2.0],
      "ProtocolName": "func_task-things_run-6",
      "RepetitionTime": 1490.0,
      "RescaleIntercept": -4096.0,
      "RescaleSlope": 2.0,
      "RescaleType": "US",
      "Rows": 832,
      "SAR": 0.07039310903706,
      "SamplesPerPixel": 1,
      "ScanOptions": "FS",
      "ScanningSequence": "EP",
      "SequenceName": "epfid2d1_104",
      "SequenceVariant": [
        "SK",
        "SS"
],
      "SeriesDescription": "func_task-things_run-6",
      "SeriesNumber": 26,
      "SeriesTime": "100835.790000",
      "SliceLocation": -37.149027700968,
      "SliceThickness": 2.0,
      "SmallestImagePixelValue": 0,
      "SoftwareVersions": "syngo MR E11",
      "SpacingBetweenSlices": 1.9999999525045,
      "SpecificCharacterSet": "ISO_IR 100",
      "StudyID": "1",
      "StudyTime": "085339.804000",
      "TransmitCoilName": "Body",
      "VariableFlipAngleFlag": "N",
      "WindowCenterWidthExplanation": "Algo1",
      "dBdt": 0.0},
    "slices": {}
  },
  "time": {
    "samples": {
      "AcquisitionNumber": [1, 2, 3, 4, 5, 6, 7, 8, 9, 10, 11, 12, 13, 14, 15, 16, 17, 18, 19, 20, 21, 22, 23, 24, 25, 26, 27, 28, 29, 30, 31, 32, 33, 34, 35, 36, 37, 38, 39, 40, 41, 42, 43, 44, 45, 46, 47, 48, 49, 50, 51, 52, 53, 54, 55, 56, 57, 58, 59, 60, 61, 62, 63, 64, 65, 66, 67, 68, 69, 70, 71, 72, 73, 74, 75, 76, 77, 78, 79, 80, 81, 82, 83, 84, 85, 86, 87, 88, 89, 90, 91, 92, 93, 94, 95, 96, 97, 98, 99, 100, 101, 102, 103, 104, 105, 106, 107, 108, 109, 110, 111, 112, 113, 114, 115, 116, 117, 118, 119, 120, 121, 122, 123, 124, 125, 126, 127, 128, 129, 130, 131, 132, 133, 134, 135, 136, 137, 138, 139, 140, 141, 142, 143, 144, 145, 146, 147, 148, 149, 150, 151, 152, 153, 154, 155, 156, 157, 158, 159, 160, 161, 162, 163, 164, 165, 166, 167, 168, 169, 170, 171, 172, 173, 174, 175, 176, 177, 178, 179, 180, 181, 182, 183, 184, 185, 186, 187, 188, 189, 190],
      "AcquisitionTime": ["100708.965000", "100710.455000", "100711.945000", "100713.435000", "100714.925000", "100716.415000", "100717.905000", "100719.395000", "100720.885000", "100722.375000", "100723.865000", "100725.355000", "100726.845000", "100728.335000", "100729.825000", "100731.315000", "100732.805000", "100734.295000", "100735.785000", "100737.275000", "100738.765000", "100740.255000", "100741.745000", "100743.235000", "100744.725000", "100746.215000", "100747.705000", "100749.195000", "100750.685000", "100752.175000", "100753.665000", "100755.155000", "100756.645000", "100758.135000", "100759.625000", "100801.115000", "100802.605000", "100804.095000", "100805.585000", "100807.075000", "100808.565000", "100810.055000", "100811.545000", "100813.035000", "100814.525000", "100816.015000", "100817.505000", "100818.995000", "100820.485000", "100821.975000", "100823.465000", "100824.955000", "100826.445000", "100827.935000", "100829.425000", "100830.915000", "100832.405000", "100833.895000", "100835.385000", "100836.875000", "100838.365000", "100839.855000", "100841.345000", "100842.835000", "100844.325000", "100845.815000", "100847.305000", "100848.795000", "100850.285000", "100851.775000", "100853.265000", "100854.755000", "100856.245000", "100857.735000", "100859.225000", "100900.715000", "100902.205000", "100903.695000", "100905.185000", "100906.675000", "100908.165000", "100909.655000", "100911.145000", "100912.635000", "100914.125000", "100915.615000", "100917.105000", "100918.595000", "100920.085000", "100921.575000", "100923.065000", "100924.555000", "100926.045000", "100927.535000", "100929.025000", "100930.515000", "100932.005000", "100933.495000", "100934.985000", "100936.475000", "100937.965000", "100939.455000", "100940.945000", "100942.435000", "100943.925000", "100945.415000", "100946.905000", "100948.395000", "100949.885000", "100951.375000", "100952.865000", "100954.355000", "100955.845000", "100957.335000", "100958.825000", "101000.315000", "101001.805000", "101003.295000", "101004.785000", "101006.275000", "101007.765000", "101009.255000", "101010.745000", "101012.235000", "101013.725000", "101015.215000", "101016.705000", "101018.195000", "101019.685000", "101021.175000", "101022.665000", "101024.155000", "101025.645000", "101027.135000", "101028.625000", "101030.115000", "101031.605000", "101033.095000", "101034.585000", "101036.075000", "101037.565000", "101039.055000", "101040.545000", "101042.035000", "101043.525000", "101045.015000", "101046.505000", "101047.995000", "101049.485000", "101050.975000", "101052.465000", "101053.955000", "101055.445000", "101056.935000", "101058.425000", "101059.915000", "101101.405000", "101102.895000", "101104.385000", "101105.875000", "101107.365000", "101108.855000", "101110.345000", "101111.835000", "101113.325000", "101114.815000", "101116.305000", "101117.795000", "101119.285000", "101120.775000", "101122.265000", "101123.755000", "101125.245000", "101126.735000", "101128.225000", "101129.715000", "101131.205000", "101132.695000", "101134.185000", "101135.675000", "101137.165000", "101138.655000", "101140.145000", "101141.635000", "101143.125000", "101144.615000", "101146.105000", "101147.595000", "101149.085000", "101150.575000"],
      "ContentTime": ["100835.792000", "100835.795000", "100835.797000", "100835.800000", "100835.802000", "100835.805000", "100835.807000", "100835.810000", "100835.812000", "100835.815000", "100835.818000", "100835.820000", "100835.823000", "100835.825000", "100835.828000", "100835.830000", "100835.833000", "100835.835000", "100835.838000", "100835.840000", "100835.843000", "100835.845000", "100835.848000", "100835.850000", "100835.853000", "100835.856000", "100835.858000", "100835.861000", "100835.863000", "100835.866000", "100835.868000", "100835.871000", "100855.686000", "100855.689000", "100855.692000", "100855.694000", "100855.697000", "100855.699000", "100855.702000", "100855.704000", "100855.707000", "100855.709000", "100855.712000", "100855.715000", "100855.717000", "100855.720000", "100855.722000", "100855.725000", "100855.727000", "100855.730000", "100855.732000", "100855.735000", "100915.697000", "100915.700000", "100915.702000", "100915.705000", "100915.707000", "100915.710000", "100915.712000", "100915.715000", "100915.717000", "100915.720000", "100915.722000", "100915.725000", "100915.727000", "100915.730000", "100915.733000", "100915.735000", "100915.738000", "100915.740000", "100915.743000", "100915.745000", "100935.679000", "100935.681000", "100935.684000", "100935.686000", "100935.689000", "100935.691000", "100935.694000", "100935.697000", "100935.699000", "100935.702000", "100935.704000", "100935.707000", "100935.710000", "100935.712000", "100935.715000", "100935.717000", "100935.720000", "100935.722000", "100935.725000", "100935.727000", "100935.730000", "101015.756000", "101015.759000", "101015.762000", "101015.764000", "101015.767000", "101015.769000", "101015.772000", "101015.775000", "101015.777000", "101015.780000", "101015.782000", "101015.785000", "101015.787000", "101015.790000", "101015.792000", "101015.795000", "101015.797000", "101015.800000", "101015.802000", "101015.805000", "101015.808000", "101015.810000", "101015.813000", "101015.815000", "101015.818000", "101015.821000", "101015.823000", "101015.826000", "101015.828000", "101015.831000", "101015.833000", "101055.724000", "101055.727000", "101055.729000", "101055.732000", "101055.734000", "101055.737000", "101055.739000", "101055.742000", "101055.745000", "101055.747000", "101055.750000", "101055.752000", "101055.755000", "101055.757000", "101055.760000", "101055.762000", "101055.765000", "101055.768000", "101055.770000", "101055.773000", "101055.775000", "101055.778000", "101055.780000", "101055.783000", "101055.785000", "101055.788000", "101055.790000", "101135.708000", "101135.711000", "101135.714000", "101135.716000", "101135.719000", "101135.721000", "101135.724000", "101135.726000", "101135.729000", "101135.731000", "101135.734000", "101135.736000", "101135.739000", "101135.742000", "101135.744000", "101135.747000", "101135.749000", "101135.752000", "101135.754000", "101135.757000", "101135.759000", "101135.762000", "101135.764000", "101135.767000", "101135.769000", "101135.772000", "101135.775000", "101152.991000", "101152.994000", "101152.997000", "101153.000000", "101153.003000", "101153.005000", "101153.008000", "101153.011000", "101153.013000", "101153.016000", "101153.018000", "101153.021000"],
      "InstanceCreationTime": ["100835.792000", "100835.795000", "100835.797000", "100835.800000", "100835.802000", "100835.805000", "100835.807000", "100835.810000", "100835.812000", "100835.815000", "100835.818000", "100835.820000", "100835.823000", "100835.825000", "100835.828000", "100835.830000", "100835.833000", "100835.835000", "100835.838000", "100835.840000", "100835.843000", "100835.845000", "100835.848000", "100835.850000", "100835.853000", "100835.856000", "100835.858000", "100835.861000", "100835.863000", "100835.866000", "100835.868000", "100835.871000", "100855.686000", "100855.689000", "100855.692000", "100855.694000", "100855.697000", "100855.699000", "100855.702000", "100855.704000", "100855.707000", "100855.709000", "100855.712000", "100855.715000", "100855.717000", "100855.720000", "100855.722000", "100855.725000", "100855.727000", "100855.730000", "100855.732000", "100855.735000", "100915.697000", "100915.700000", "100915.702000", "100915.705000", "100915.707000", "100915.710000", "100915.712000", "100915.715000", "100915.717000", "100915.720000", "100915.722000", "100915.725000", "100915.727000", "100915.730000", "100915.733000", "100915.735000", "100915.738000", "100915.740000", "100915.743000", "100915.745000", "100935.679000", "100935.681000", "100935.684000", "100935.686000", "100935.689000", "100935.691000", "100935.694000", "100935.697000", "100935.699000", "100935.702000", "100935.704000", "100935.707000", "100935.710000", "100935.712000", "100935.715000", "100935.717000", "100935.720000", "100935.722000", "100935.725000", "100935.727000", "100935.730000", "101015.756000", "101015.759000", "101015.762000", "101015.764000", "101015.767000", "101015.769000", "101015.772000", "101015.775000", "101015.777000", "101015.780000", "101015.782000", "101015.785000", "101015.787000", "101015.790000", "101015.792000", "101015.795000", "101015.797000", "101015.800000", "101015.802000", "101015.805000", "101015.808000", "101015.810000", "101015.813000", "101015.815000", "101015.818000", "101015.821000", "101015.823000", "101015.826000", "101015.828000", "101015.831000", "101015.833000", "101055.724000", "101055.727000", "101055.729000", "101055.732000", "101055.734000", "101055.737000", "101055.739000", "101055.742000", "101055.745000", "101055.747000", "101055.750000", "101055.752000", "101055.755000", "101055.757000", "101055.760000", "101055.762000", "101055.765000", "101055.768000", "101055.770000", "101055.773000", "101055.775000", "101055.778000", "101055.780000", "101055.783000", "101055.785000", "101055.788000", "101055.790000", "101135.708000", "101135.711000", "101135.714000", "101135.716000", "101135.719000", "101135.721000", "101135.724000", "101135.726000", "101135.729000", "101135.731000", "101135.734000", "101135.736000", "101135.739000", "101135.742000", "101135.744000", "101135.747000", "101135.749000", "101135.752000", "101135.754000", "101135.757000", "101135.759000", "101135.762000", "101135.764000", "101135.767000", "101135.769000", "101135.772000", "101135.775000", "101152.991000", "101152.994000", "101152.997000", "101153.000000", "101153.003000", "101153.005000", "101153.008000", "101153.011000", "101153.013000", "101153.016000", "101153.018000", "101153.021000"],
      "InstanceNumber": [1, 2, 3, 4, 5, 6, 7, 8, 9, 10, 11, 12, 13, 14, 15, 16, 17, 18, 19, 20, 21, 22, 23, 24, 25, 26, 27, 28, 29, 30, 31, 32, 33, 34, 35, 36, 37, 38, 39, 40, 41, 42, 43, 44, 45, 46, 47, 48, 49, 50, 51, 52, 53, 54, 55, 56, 57, 58, 59, 60, 61, 62, 63, 64, 65, 66, 67, 68, 69, 70, 71, 72, 73, 74, 75, 76, 77, 78, 79, 80, 81, 82, 83, 84, 85, 86, 87, 88, 89, 90, 91, 92, 93, 94, 95, 96, 97, 98, 99, 100, 101, 102, 103, 104, 105, 106, 107, 108, 109, 110, 111, 112, 113, 114, 115, 116, 117, 118, 119, 120, 121, 122, 123, 124, 125, 126, 127, 128, 129, 130, 131, 132, 133, 134, 135, 136, 137, 138, 139, 140, 141, 142, 143, 144, 145, 146, 147, 148, 149, 150, 151, 152, 153, 154, 155, 156, 157, 158, 159, 160, 161, 162, 163, 164, 165, 166, 167, 168, 169, 170, 171, 172, 173, 174, 175, 176, 177, 178, 179, 180, 181, 182, 183, 184, 185, 186, 187, 188, 189, 190],
      "WindowCenter": [4816.0, 4816.0, 4820.0, 4820.0, 4818.0, 4824.0, 4820.0, 4818.0, 4816.0, 4822.0, 4824.0, 4820.0, 4818.0, 4818.0, 4820.0, 4816.0, 4816.0, 4816.0, 4818.0, 4820.0, 4818.0, 4820.0, 4824.0, 4818.0, 4820.0, 4818.0, 4822.0, 4820.0, 4824.0, 4820.0, 4816.0, 4822.0, 4818.0, 4820.0, 4824.0, 4822.0, 4822.0, 4820.0, 4822.0, 4818.0, 4820.0, 4820.0, 4824.0, 4818.0, 4820.0, 4820.0, 4820.0, 4822.0, 4820.0, 4822.0, 4822.0, 4820.0, 4844.0, 4822.0, 4824.0, 4846.0, 4818.0, 4822.0, 4822.0, 4820.0, 4818.0, 4820.0, 4822.0, 4824.0, 4820.0, 4820.0, 4824.0, 4818.0, 4818.0, 4824.0, 4824.0, 4820.0, 4822.0, 4822.0, 4820.0, 4822.0, 4824.0, 4820.0, 4822.0, 4824.0, 4820.0, 4822.0, 4822.0, 4824.0, 4820.0, 4818.0, 4822.0, 4820.0, 4824.0, 4820.0, 4824.0, 4820.0, 4820.0, 4820.0, 4822.0, 4820.0, 4820.0, 4824.0, 4818.0, 4824.0, 4822.0, 4826.0, 4822.0, 4820.0, 4822.0, 4816.0, 4824.0, 4820.0, 4820.0, 4824.0, 4824.0, 4824.0, 4824.0, 4824.0, 4818.0, 4822.0, 4824.0, 4820.0, 4820.0, 4824.0, 4824.0, 4820.0, 4824.0, 4822.0, 4822.0, 4824.0, 4822.0, 4826.0, 4824.0, 4824.0, 4822.0, 4822.0, 4822.0, 4824.0, 4824.0, 4824.0, 4824.0, 4824.0, 4826.0, 4848.0, 4820.0, 4824.0, 4822.0, 4822.0, 4820.0, 4822.0, 4822.0, 4822.0, 4820.0, 4826.0, 4820.0, 4824.0, 4824.0, 4822.0, 4824.0, 4822.0, 4818.0, 4824.0, 4824.0, 4822.0, 4826.0, 4824.0, 4818.0, 4822.0, 4822.0, 4848.0, 4822.0, 4822.0, 4824.0, 4826.0, 4846.0, 4824.0, 4826.0, 4822.0, 4826.0, 4822.0, 4820.0, 4826.0, 4826.0, 4824.0, 4826.0, 4826.0, 4824.0, 4822.0, 4824.0, 4824.0, 4820.0, 4824.0, 4822.0, 4824.0],
      "WindowWidth": [18604.0, 18600.0, 18608.0, 18606.0, 18606.0, 18606.0, 18606.0, 18610.0, 18604.0, 18608.0, 18606.0, 18608.0, 18600.0, 18604.0, 18602.0, 18606.0, 18602.0, 18604.0, 18602.0, 18604.0, 18604.0, 18608.0, 18610.0, 18604.0, 18608.0, 18602.0, 18606.0, 18606.0, 18606.0, 18606.0, 18606.0, 18606.0, 18604.0, 18606.0, 18608.0, 18604.0, 18606.0, 18604.0, 18604.0, 18606.0, 18608.0, 18602.0, 18612.0, 18606.0, 18604.0, 18606.0, 18606.0, 18610.0, 18608.0, 18608.0, 18606.0, 18604.0, 18642.0, 18608.0, 18612.0, 18634.0, 18610.0, 18606.0, 18610.0, 18606.0, 18606.0, 18604.0, 18606.0, 18604.0, 18606.0, 18604.0, 18608.0, 18602.0, 18602.0, 18606.0, 18600.0, 18602.0, 18606.0, 18608.0, 18600.0, 18610.0, 18604.0, 18600.0, 18606.0, 18602.0, 18606.0, 18606.0, 18606.0, 18610.0, 18600.0, 18602.0, 18604.0, 18602.0, 18604.0, 18602.0, 18602.0, 18604.0, 18604.0, 18602.0, 18600.0, 18600.0, 18600.0, 18604.0, 18600.0, 18606.0, 18610.0, 18606.0, 18602.0, 18602.0, 18600.0, 18596.0, 18606.0, 18598.0, 18604.0, 18600.0, 18604.0, 18606.0, 18604.0, 18606.0, 18602.0, 18604.0, 18606.0, 18600.0, 18598.0, 18600.0, 18606.0, 18602.0, 18600.0, 18600.0, 18600.0, 18604.0, 18604.0, 18604.0, 18604.0, 18604.0, 18604.0, 18604.0, 18606.0, 18602.0, 18600.0, 18604.0, 18606.0, 18604.0, 18606.0, 18636.0, 18602.0, 18604.0, 18596.0, 18602.0, 18602.0, 18606.0, 18604.0, 18602.0, 18600.0, 18604.0, 18602.0, 18602.0, 18610.0, 18602.0, 18602.0, 18602.0, 18602.0, 18602.0, 18598.0, 18600.0, 18606.0, 18598.0, 18604.0, 18602.0, 18602.0, 18632.0, 18600.0, 18600.0, 18604.0, 18600.0, 18634.0, 18606.0, 18602.0, 18602.0, 18600.0, 18600.0, 18602.0, 18602.0, 18604.0, 18602.0, 18598.0, 18604.0, 18606.0, 18604.0, 18606.0, 18600.0, 18602.0, 18604.0, 18604.0, 18602.0]
    },
    "slices": {}
  }
}