{
  "AcquisitionMatrixPE": 104,
  "AcquisitionNumber": 1,
  "AcquisitionTime": "09:54:59.705000",
  "BandwidthPerPixelPhaseEncode": 17.17,
  "BaseResolution": 104,
  "BodyPartExamined": "BRAIN",
  "CoilString": "HC1-7;NC1_2",
  "ConsistencyInfo": "N4_VE11C_LATEST_20160120",
  "ConversionSoftware": "dcm2niix",
  "ConversionSoftwareVersion": "v1.0.20190902",
  "DerivedVendorReportedEchoSpacing": 0.000560011,
  "DeviceSerialNumber": "167006",
  "DwellTime": 2.1e-06,
  "EchoTime": 0.037,
  "EchoTrainLength": 104,
  "EffectiveEchoSpacing": 0.000560011,
  "FlipAngle": 52,
  "ImageComments": "Unaliased_MB4_PE3_LB",
  "ImageOrientationPatientDICOM": [0.997062, 0.0752924, 0.0140701, -0.0644771, 0.924189, -0.376454],
  "ImageType": [
    "ORIGINAL",
    "PRIMARY",
    "P",
    "MB",
    "ND",
    "MOSAIC"
],
  "ImagingFrequency": 123.259,
  "InPlanePhaseEncodingDirectionDICOM": "COL",
  "InstitutionAddress": "Chemin_Queen-Mary_4565_Montreal_District_CA_H3W_1W5",
  "InstitutionName": "IUGM",
  "InstitutionalDepartmentName": "Department",
  "MRAcquisitionType": "2D",
  "MagneticFieldStrength": 3,
  "Manufacturer": "Siemens",
  "ManufacturersModelName": "Prisma_fit",
  "Modality": "MR",
  "MultibandAccelerationFactor": 4,
  "PartialFourier": 1,
  "PatientPosition": "HFS",
  "PercentPhaseFOV": 100,
  "PhaseEncodingDirection": "j",
  "PhaseEncodingSteps": 104,
  "PhaseResolution": 1,
  "PixelBandwidth": 2290,
  "ProcedureStepDescription": "memory_things",
  "ProtocolName": "func_task-things_run-4",
  "PulseSequenceDetails": "%CustomerSeq%_cmrr_mbep2d_bold",
  "ReceiveCoilActiveElements": "HC1-7;NC1,2",
  "ReceiveCoilName": "HeadNeck_64",
  "ReconMatrixPE": 104,
  "RepetitionTime": 1.49,
  "SAR": 0.0703931,
  "ScanOptions": "FS",
  "ScanningSequence": "EP",
  "SequenceName": "epfid2d1_104",
  "SequenceVariant": "SK_SS",
  "SeriesDescription": "func_task-things_run-4",
  "SeriesNumber": 20,
  "ShimSetting": [630, -7166, -8826, 644, 69, 67, -5, -16],
  "SliceThickness": 2,
  "SliceTiming": [0, 0.7825, 0.0975, 0.8825, 0.195, 0.98, 0.2925, 1.0775, 0.3925, 1.175, 0.49, 1.2725, 0.5875, 1.3725, 0.685, 0, 0.7825, 0.0975, 0.8825, 0.195, 0.98, 0.2925, 1.0775, 0.3925, 1.175, 0.49, 1.2725, 0.5875, 1.3725, 0.685, 0, 0.7825, 0.0975, 0.8825, 0.195, 0.98, 0.2925, 1.0775, 0.3925, 1.175, 0.49, 1.2725, 0.5875, 1.3725, 0.685, 0, 0.7825, 0.0975, 0.8825, 0.195, 0.98, 0.2925, 1.0775, 0.3925, 1.175, 0.49, 1.2725, 0.5875, 1.3725, 0.685],
  "SoftwareVersions": "syngo_MR_E11",
  "SpacingBetweenSlices": 2,
  "StationName": "MRC35049",
  "TaskName": "things",
  "TotalReadoutTime": 0.0576811,
  "TxRefAmp": 318.658,
  "WipMemBlock": "d91a776c-0354-4806-a787-fcd006d2451e||Sequence: R016 ve11c/master r/e634e98; Dec 19 2017 11:00:25 by eja",
  "dcmmeta_affine": [
    [-1.994124412536621, -0.12895427644252777, 0.08269502967596054, 110.07636260986328],
    [-0.150584876537323, 1.84837806224823, -0.7488810420036316, -50.48517990112305],
    [0.02814013697206974, 0.7529072761535645, 1.8526571989059448, -65.42398834228516],
    [0.0, 0.0, 0.0, 1.0]
],
  "dcmmeta_reorient_transform": [
    [0.0, -1.0, 0.0, 103.0],
    [1.0, 0.0, 0.0, 0.0],
    [0.0, 0.0, 1.0, 0.0],
    [0.0, 0.0, 0.0, 1.0]
],
  "dcmmeta_shape": [104, 104, 60, 190],
  "dcmmeta_slice_dim": 2,
  "dcmmeta_version": 0.6,
  "global": {
    "const": {
      "AcquisitionMatrix": [104, 0, 0, 104],
      "AngioFlag": "N",
      "BitsAllocated": 16,
      "BitsStored": 16,
      "BodyPartExamined": "BRAIN",
      "Columns": 832,
      "EchoNumbers": 1,
      "EchoTime": 37.0,
      "EchoTrainLength": 104,
      "FlipAngle": 52.0,
      "HighBit": 15,
      "ImageOrientationPatient": [0.99706222573144, 0.07529243786834, 0.01407006820573, -0.0644771353035, 0.92418902245023, -0.3764536489471],
      "ImagePositionPatient": [-775.7160193418, -867.52026184418, 275.94071356338],
      "ImageType": [
        "ORIGINAL",
        "PRIMARY",
        "P",
        "MB",
        "ND",
        "MOSAIC"
],
      "ImagedNucleus": "1H",
      "ImagingFrequency": 123.258968,
      "InPlanePhaseEncodingDirection": "COL",
      "LargestImagePixelValue": 4095,
      "MRAcquisitionType": "2D",
      "MagneticFieldStrength": 3.0,
      "Manufacturer": "SIEMENS",
      "ManufacturerModelName": "Prisma_fit",
      "Modality": "MR",
      "NumberOfAverages": 1.0,
      "NumberOfPhaseEncodingSteps": 104,
      "PercentPhaseFieldOfView": 100.0,
      "PercentSampling": 100.0,
      "PerformedProcedureStepStartTime": "085339.932000",
      "PhotometricInterpretation": "MONOCHROME2",
      "PixelBandwidth": 2290.0,
      "PixelRepresentation": 0,
      "PixelSpacing": [2.0, 2.0],
      "ProtocolName": "func_task-things_run-4",
      "RepetitionTime": 1490.0,
      "RescaleIntercept": -4096.0,
      "RescaleSlope": 2.0,
      "RescaleType": "US",
      "Rows": 832,
      "SAR": 0.07039310903706,
      "SamplesPerPixel": 1,
      "ScanOptions": "FS",
      "ScanningSequence": "EP",
      "SequenceName": "epfid2d1_104",
      "SequenceVariant": [
        "SK",
        "SS"
],
      "SeriesDescription": "func_task-things_run-4",
      "SeriesNumber": 20,
      "SeriesTime": "095606.205000",
      "SliceLocation": -37.149027700968,
      "SliceThickness": 2.0,
      "SmallestImagePixelValue": 0,
      "SoftwareVersions": "syngo MR E11",
      "SpacingBetweenSlices": 1.9999999525045,
      "SpecificCharacterSet": "ISO_IR 100",
      "StudyID": "1",
      "StudyTime": "085339.804000",
      "TransmitCoilName": "Body",
      "VariableFlipAngleFlag": "N",
      "WindowCenterWidthExplanation": "Algo1",
      "dBdt": 0.0},
    "slices": {}
  },
  "time": {
    "samples": {
      "AcquisitionNumber": [1, 2, 3, 4, 5, 6, 7, 8, 9, 10, 11, 12, 13, 14, 15, 16, 17, 18, 19, 20, 21, 22, 23, 24, 25, 26, 27, 28, 29, 30, 31, 32, 33, 34, 35, 36, 37, 38, 39, 40, 41, 42, 43, 44, 45, 46, 47, 48, 49, 50, 51, 52, 53, 54, 55, 56, 57, 58, 59, 60, 61, 62, 63, 64, 65, 66, 67, 68, 69, 70, 71, 72, 73, 74, 75, 76, 77, 78, 79, 80, 81, 82, 83, 84, 85, 86, 87, 88, 89, 90, 91, 92, 93, 94, 95, 96, 97, 98, 99, 100, 101, 102, 103, 104, 105, 106, 107, 108, 109, 110, 111, 112, 113, 114, 115, 116, 117, 118, 119, 120, 121, 122, 123, 124, 125, 126, 127, 128, 129, 130, 131, 132, 133, 134, 135, 136, 137, 138, 139, 140, 141, 142, 143, 144, 145, 146, 147, 148, 149, 150, 151, 152, 153, 154, 155, 156, 157, 158, 159, 160, 161, 162, 163, 164, 165, 166, 167, 168, 169, 170, 171, 172, 173, 174, 175, 176, 177, 178, 179, 180, 181, 182, 183, 184, 185, 186, 187, 188, 189, 190],
      "AcquisitionTime": ["095459.705000", "095501.195000", "095502.685000", "095504.175000", "095505.665000", "095507.155000", "095508.645000", "095510.135000", "095511.625000", "095513.115000", "095514.605000", "095516.095000", "095517.585000", "095519.075000", "095520.565000", "095522.055000", "095523.545000", "095525.035000", "095526.525000", "095528.015000", "095529.505000", "095530.995000", "095532.485000", "095533.975000", "095535.465000", "095536.955000", "095538.445000", "095539.935000", "095541.425000", "095542.915000", "095544.405000", "095545.895000", "095547.385000", "095548.875000", "095550.365000", "095551.855000", "095553.345000", "095554.835000", "095556.325000", "095557.815000", "095559.305000", "095600.795000", "095602.285000", "095603.775000", "095605.265000", "095606.755000", "095608.245000", "095609.735000", "095611.225000", "095612.715000", "095614.205000", "095615.695000", "095617.185000", "095618.675000", "095620.165000", "095621.655000", "095623.145000", "095624.635000", "095626.125000", "095627.615000", "095629.105000", "095630.595000", "095632.085000", "095633.575000", "095635.065000", "095636.555000", "095638.045000", "095639.535000", "095641.025000", "095642.515000", "095644.005000", "095645.495000", "095646.985000", "095648.475000", "095649.965000", "095651.455000", "095652.945000", "095654.435000", "095655.925000", "095657.415000", "095658.905000", "095700.395000", "095701.885000", "095703.375000", "095704.865000", "095706.355000", "095707.845000", "095709.335000", "095710.825000", "095712.315000", "095713.805000", "095715.295000", "095716.785000", "095718.275000", "095719.765000", "095721.255000", "095722.745000", "095724.235000", "095725.725000", "095727.215000", "095728.705000", "095730.195000", "095731.685000", "095733.175000", "095734.665000", "095736.155000", "095737.645000", "095739.135000", "095740.625000", "095742.115000", "095743.605000", "095745.095000", "095746.585000", "095748.075000", "095749.565000", "095751.055000", "095752.545000", "095754.035000", "095755.525000", "095757.015000", "095758.505000", "095759.995000", "095801.485000", "095802.975000", "095804.465000", "095805.955000", "095807.445000", "095808.935000", "095810.425000", "095811.915000", "095813.405000", "095814.895000", "095816.385000", "095817.875000", "095819.365000", "095820.855000", "095822.345000", "095823.835000", "095825.325000", "095826.815000", "095828.305000", "095829.795000", "095831.285000", "095832.775000", "095834.265000", "095835.755000", "095837.245000", "095838.735000", "095840.225000", "095841.715000", "095843.205000", "095844.695000", "095846.185000", "095847.675000", "095849.165000", "095850.655000", "095852.145000", "095853.635000", "095855.125000", "095856.615000", "095858.105000", "095859.595000", "095901.085000", "095902.575000", "095904.065000", "095905.555000", "095907.045000", "095908.535000", "095910.025000", "095911.515000", "095913.005000", "095914.495000", "095915.985000", "095917.475000", "095918.965000", "095920.455000", "095921.945000", "095923.435000", "095924.925000", "095926.415000", "095927.905000", "095929.395000", "095930.885000", "095932.375000", "095933.865000", "095935.355000", "095936.845000", "095938.335000", "095939.825000", "095941.315000"],
      "ContentTime": ["095606.207000", "095606.210000", "095606.213000", "095606.215000", "095606.218000", "095606.220000", "095606.223000", "095606.225000", "095606.228000", "095606.230000", "095606.233000", "095606.235000", "095606.238000", "095606.240000", "095626.216000", "095626.219000", "095626.222000", "095626.224000", "095626.227000", "095626.229000", "095626.232000", "095626.234000", "095626.237000", "095626.240000", "095626.242000", "095626.245000", "095626.247000", "095626.250000", "095626.253000", "095626.255000", "095626.258000", "095626.260000", "095626.263000", "095626.265000", "095646.198000", "095646.201000", "095646.204000", "095646.206000", "095646.209000", "095646.211000", "095646.214000", "095646.217000", "095646.219000", "095646.222000", "095646.224000", "095646.227000", "095646.229000", "095646.232000", "095646.234000", "095646.237000", "095646.239000", "095646.242000", "095646.244000", "095646.247000", "095706.216000", "095706.219000", "095706.221000", "095706.224000", "095706.226000", "095706.229000", "095706.231000", "095706.234000", "095706.237000", "095706.239000", "095706.242000", "095706.244000", "095706.247000", "095706.250000", "095706.252000", "095706.255000", "095706.257000", "095706.260000", "095706.262000", "095706.265000", "095706.268000", "095726.193000", "095726.195000", "095726.198000", "095726.200000", "095726.203000", "095726.205000", "095726.208000", "095726.211000", "095726.213000", "095726.216000", "095726.218000", "095726.221000", "095726.223000", "095726.226000", "095726.228000", "095726.231000", "095726.234000", "095726.236000", "095726.239000", "095726.241000", "095806.240000", "095806.243000", "095806.246000", "095806.248000", "095806.251000", "095806.254000", "095806.256000", "095806.259000", "095806.261000", "095806.264000", "095806.266000", "095806.269000", "095806.271000", "095806.274000", "095806.276000", "095806.279000", "095806.283000", "095806.286000", "095806.288000", "095806.291000", "095806.293000", "095806.296000", "095806.298000", "095806.301000", "095806.303000", "095806.306000", "095806.309000", "095806.311000", "095806.314000", "095846.225000", "095846.228000", "095846.230000", "095846.233000", "095846.236000", "095846.238000", "095846.241000", "095846.243000", "095846.246000", "095846.249000", "095846.251000", "095846.254000", "095846.256000", "095846.259000", "095846.261000", "095846.264000", "095846.266000", "095846.269000", "095846.272000", "095846.274000", "095846.277000", "095846.279000", "095846.282000", "095846.284000", "095846.287000", "095846.289000", "095846.292000", "095926.758000", "095926.761000", "095926.764000", "095926.767000", "095926.769000", "095926.772000", "095926.774000", "095926.777000", "095926.779000", "095926.782000", "095926.784000", "095926.787000", "095926.789000", "095926.792000", "095926.795000", "095926.798000", "095926.800000", "095926.803000", "095926.805000", "095926.808000", "095926.811000", "095926.813000", "095926.816000", "095926.818000", "095926.821000", "095926.823000", "095926.826000", "095943.426000", "095943.429000", "095943.431000", "095943.434000", "095943.436000", "095943.439000", "095943.442000", "095943.444000", "095943.447000", "095943.449000", "095943.452000", "095943.455000"],
      "InstanceCreationTime": ["095606.207000", "095606.210000", "095606.213000", "095606.215000", "095606.218000", "095606.220000", "095606.223000", "095606.225000", "095606.228000", "095606.230000", "095606.233000", "095606.235000", "095606.238000", "095606.240000", "095626.216000", "095626.219000", "095626.222000", "095626.224000", "095626.227000", "095626.229000", "095626.232000", "095626.234000", "095626.237000", "095626.240000", "095626.242000", "095626.245000", "095626.247000", "095626.250000", "095626.253000", "095626.255000", "095626.258000", "095626.260000", "095626.263000", "095626.265000", "095646.198000", "095646.201000", "095646.204000", "095646.206000", "095646.209000", "095646.211000", "095646.214000", "095646.217000", "095646.219000", "095646.222000", "095646.224000", "095646.227000", "095646.229000", "095646.232000", "095646.234000", "095646.237000", "095646.239000", "095646.242000", "095646.244000", "095646.247000", "095706.216000", "095706.219000", "095706.221000", "095706.224000", "095706.226000", "095706.229000", "095706.231000", "095706.234000", "095706.237000", "095706.239000", "095706.242000", "095706.244000", "095706.247000", "095706.250000", "095706.252000", "095706.255000", "095706.257000", "095706.260000", "095706.262000", "095706.265000", "095706.268000", "095726.193000", "095726.195000", "095726.198000", "095726.200000", "095726.203000", "095726.205000", "095726.208000", "095726.211000", "095726.213000", "095726.216000", "095726.218000", "095726.221000", "095726.223000", "095726.226000", "095726.228000", "095726.231000", "095726.234000", "095726.236000", "095726.239000", "095726.241000", "095806.240000", "095806.243000", "095806.246000", "095806.248000", "095806.251000", "095806.254000", "095806.256000", "095806.259000", "095806.261000", "095806.264000", "095806.266000", "095806.269000", "095806.271000", "095806.274000", "095806.276000", "095806.279000", "095806.283000", "095806.286000", "095806.288000", "095806.291000", "095806.293000", "095806.296000", "095806.298000", "095806.301000", "095806.303000", "095806.306000", "095806.309000", "095806.311000", "095806.314000", "095846.225000", "095846.228000", "095846.230000", "095846.233000", "095846.236000", "095846.238000", "095846.241000", "095846.243000", "095846.246000", "095846.249000", "095846.251000", "095846.254000", "095846.256000", "095846.259000", "095846.261000", "095846.264000", "095846.266000", "095846.269000", "095846.272000", "095846.274000", "095846.277000", "095846.279000", "095846.282000", "095846.284000", "095846.287000", "095846.289000", "095846.292000", "095926.758000", "095926.761000", "095926.764000", "095926.767000", "095926.769000", "095926.772000", "095926.774000", "095926.777000", "095926.779000", "095926.782000", "095926.784000", "095926.787000", "095926.789000", "095926.792000", "095926.795000", "095926.798000", "095926.800000", "095926.803000", "095926.805000", "095926.808000", "095926.811000", "095926.813000", "095926.816000", "095926.818000", "095926.821000", "095926.823000", "095926.826000", "095943.426000", "095943.429000", "095943.431000", "095943.434000", "095943.436000", "095943.439000", "095943.442000", "095943.444000", "095943.447000", "095943.449000", "095943.452000", "095943.455000"],
      "InstanceNumber": [1, 2, 3, 4, 5, 6, 7, 8, 9, 10, 11, 12, 13, 14, 15, 16, 17, 18, 19, 20, 21, 22, 23, 24, 25, 26, 27, 28, 29, 30, 31, 32, 33, 34, 35, 36, 37, 38, 39, 40, 41, 42, 43, 44, 45, 46, 47, 48, 49, 50, 51, 52, 53, 54, 55, 56, 57, 58, 59, 60, 61, 62, 63, 64, 65, 66, 67, 68, 69, 70, 71, 72, 73, 74, 75, 76, 77, 78, 79, 80, 81, 82, 83, 84, 85, 86, 87, 88, 89, 90, 91, 92, 93, 94, 95, 96, 97, 98, 99, 100, 101, 102, 103, 104, 105, 106, 107, 108, 109, 110, 111, 112, 113, 114, 115, 116, 117, 118, 119, 120, 121, 122, 123, 124, 125, 126, 127, 128, 129, 130, 131, 132, 133, 134, 135, 136, 137, 138, 139, 140, 141, 142, 143, 144, 145, 146, 147, 148, 149, 150, 151, 152, 153, 154, 155, 156, 157, 158, 159, 160, 161, 162, 163, 164, 165, 166, 167, 168, 169, 170, 171, 172, 173, 174, 175, 176, 177, 178, 179, 180, 181, 182, 183, 184, 185, 186, 187, 188, 189, 190],
      "WindowCenter": [4820.0, 4820.0, 4820.0, 4820.0, 4820.0, 4818.0, 4818.0, 4824.0, 4820.0, 4816.0, 4818.0, 4818.0, 4820.0, 4820.0, 4820.0, 4820.0, 4820.0, 4822.0, 4826.0, 4822.0, 4816.0, 4820.0, 4822.0, 4824.0, 4820.0, 4820.0, 4820.0, 4822.0, 4822.0, 4820.0, 4820.0, 4820.0, 4824.0, 4822.0, 4814.0, 4820.0, 4816.0, 4818.0, 4818.0, 4818.0, 4816.0, 4818.0, 4824.0, 4822.0, 4820.0, 4818.0, 4820.0, 4822.0, 4818.0, 4820.0, 4820.0, 4822.0, 4820.0, 4822.0, 4822.0, 4820.0, 4818.0, 4820.0, 4820.0, 4818.0, 4818.0, 4818.0, 4822.0, 4820.0, 4822.0, 4822.0, 4820.0, 4818.0, 4818.0, 4818.0, 4818.0, 4820.0, 4818.0, 4818.0, 4820.0, 4820.0, 4822.0, 4822.0, 4816.0, 4820.0, 4818.0, 4824.0, 4818.0, 4816.0, 4822.0, 4820.0, 4820.0, 4820.0, 4820.0, 4822.0, 4820.0, 4826.0, 4820.0, 4820.0, 4820.0, 4822.0, 4822.0, 4818.0, 4820.0, 4816.0, 4816.0, 4818.0, 4822.0, 4824.0, 4822.0, 4818.0, 4820.0, 4824.0, 4822.0, 4818.0, 4818.0, 4818.0, 4818.0, 4822.0, 4820.0, 4820.0, 4818.0, 4822.0, 4822.0, 4822.0, 4816.0, 4818.0, 4820.0, 4820.0, 4818.0, 4822.0, 4822.0, 4822.0, 4822.0, 4820.0, 4820.0, 4820.0, 4822.0, 4818.0, 4822.0, 4816.0, 4822.0, 4818.0, 4822.0, 4818.0, 4820.0, 4816.0, 4824.0, 4818.0, 4822.0, 4820.0, 4824.0, 4820.0, 4820.0, 4818.0, 4816.0, 4818.0, 4822.0, 4820.0, 4820.0, 4818.0, 4820.0, 4822.0, 4820.0, 4824.0, 4820.0, 4818.0, 4818.0, 4818.0, 4820.0, 4822.0, 4820.0, 4820.0, 4822.0, 4820.0, 4822.0, 4816.0, 4820.0, 4822.0, 4820.0, 4824.0, 4818.0, 4822.0, 4822.0, 4820.0, 4818.0, 4820.0, 4822.0, 4822.0, 4822.0, 4846.0, 4822.0, 4822.0, 4818.0, 4822.0],
      "WindowWidth": [18604.0, 18600.0, 18608.0, 18600.0, 18604.0, 18600.0, 18604.0, 18604.0, 18602.0, 18600.0, 18604.0, 18596.0, 18598.0, 18598.0, 18598.0, 18604.0, 18598.0, 18606.0, 18606.0, 18604.0, 18602.0, 18602.0, 18604.0, 18606.0, 18602.0, 18606.0, 18602.0, 18602.0, 18606.0, 18602.0, 18600.0, 18604.0, 18606.0, 18602.0, 18598.0, 18602.0, 18600.0, 18608.0, 18602.0, 18600.0, 18600.0, 18600.0, 18604.0, 18600.0, 18602.0, 18598.0, 18602.0, 18602.0, 18600.0, 18604.0, 18602.0, 18600.0, 18606.0, 18604.0, 18606.0, 18602.0, 18596.0, 18600.0, 18604.0, 18602.0, 18598.0, 18602.0, 18600.0, 18602.0, 18608.0, 18606.0, 18600.0, 18600.0, 18600.0, 18600.0, 18602.0, 18600.0, 18600.0, 18604.0, 18602.0, 18604.0, 18598.0, 18600.0, 18600.0, 18604.0, 18598.0, 18602.0, 18600.0, 18600.0, 18600.0, 18602.0, 18606.0, 18604.0, 18604.0, 18606.0, 18604.0, 18610.0, 18604.0, 18604.0, 18604.0, 18604.0, 18600.0, 18600.0, 18606.0, 18606.0, 18600.0, 18600.0, 18600.0, 18604.0, 18606.0, 18604.0, 18604.0, 18602.0, 18606.0, 18608.0, 18606.0, 18596.0, 18600.0, 18600.0, 18604.0, 18602.0, 18604.0, 18606.0, 18606.0, 18608.0, 18600.0, 18602.0, 18604.0, 18604.0, 18604.0, 18600.0, 18596.0, 18600.0, 18606.0, 18606.0, 18604.0, 18600.0, 18602.0, 18604.0, 18602.0, 18604.0, 18600.0, 18600.0, 18604.0, 18604.0, 18600.0, 18602.0, 18604.0, 18604.0, 18608.0, 18600.0, 18606.0, 18598.0, 18604.0, 18610.0, 18602.0, 18604.0, 18606.0, 18598.0, 18604.0, 18606.0, 18602.0, 18608.0, 18600.0, 18598.0, 18604.0, 18598.0, 18608.0, 18606.0, 18604.0, 18602.0, 18602.0, 18608.0, 18602.0, 18600.0, 18606.0, 18600.0, 18606.0, 18604.0, 18600.0, 18608.0, 18600.0, 18602.0, 18604.0, 18610.0, 18600.0, 18604.0, 18606.0, 18610.0, 18608.0, 18640.0, 18610.0, 18606.0, 18604.0, 18608.0]
    },
    "slices": {}
  }
}