{
  "AcquisitionMatrixPE": 104,
  "AcquisitionNumber": 1,
  "AcquisitionTime": "10:01:3.500000",
  "BandwidthPerPixelPhaseEncode": 17.17,
  "BaseResolution": 104,
  "BodyPartExamined": "BRAIN",
  "CoilString": "HC1-7;NC1_2",
  "ConsistencyInfo": "N4_VE11C_LATEST_20160120",
  "ConversionSoftware": "dcm2niix",
  "ConversionSoftwareVersion": "v1.0.20190902",
  "DerivedVendorReportedEchoSpacing": 0.000560011,
  "DeviceSerialNumber": "167006",
  "DwellTime": 2.1e-06,
  "EchoTime": 0.037,
  "EchoTrainLength": 104,
  "EffectiveEchoSpacing": 0.000560011,
  "FlipAngle": 52,
  "ImageComments": "Unaliased_MB4_PE3_LB",
  "ImageOrientationPatientDICOM": [0.997062, 0.0752924, 0.0140701, -0.0644771, 0.924189, -0.376454],
  "ImageType": [
    "ORIGINAL",
    "PRIMARY",
    "P",
    "MB",
    "ND",
    "MOSAIC"
],
  "ImagingFrequency": 123.259,
  "InPlanePhaseEncodingDirectionDICOM": "COL",
  "InstitutionAddress": "Chemin_Queen-Mary_4565_Montreal_District_CA_H3W_1W5",
  "InstitutionName": "IUGM",
  "InstitutionalDepartmentName": "Department",
  "MRAcquisitionType": "2D",
  "MagneticFieldStrength": 3,
  "Manufacturer": "Siemens",
  "ManufacturersModelName": "Prisma_fit",
  "Modality": "MR",
  "MultibandAccelerationFactor": 4,
  "PartialFourier": 1,
  "PatientPosition": "HFS",
  "PercentPhaseFOV": 100,
  "PhaseEncodingDirection": "j",
  "PhaseEncodingSteps": 104,
  "PhaseResolution": 1,
  "PixelBandwidth": 2290,
  "ProcedureStepDescription": "memory_things",
  "ProtocolName": "func_task-things_run-5",
  "PulseSequenceDetails": "%CustomerSeq%_cmrr_mbep2d_bold",
  "ReceiveCoilActiveElements": "HC1-7;NC1,2",
  "ReceiveCoilName": "HeadNeck_64",
  "ReconMatrixPE": 104,
  "RepetitionTime": 1.49,
  "SAR": 0.0703931,
  "ScanOptions": "FS",
  "ScanningSequence": "EP",
  "SequenceName": "epfid2d1_104",
  "SequenceVariant": "SK_SS",
  "SeriesDescription": "func_task-things_run-5",
  "SeriesNumber": 23,
  "ShimSetting": [630, -7166, -8826, 644, 69, 67, -5, -16],
  "SliceThickness": 2,
  "SliceTiming": [0, 0.7825, 0.0975, 0.88, 0.195, 0.98, 0.2925, 1.0775, 0.3925, 1.175, 0.49, 1.2725, 0.5875, 1.37, 0.685, 0, 0.7825, 0.0975, 0.88, 0.195, 0.98, 0.2925, 1.0775, 0.3925, 1.175, 0.49, 1.2725, 0.5875, 1.37, 0.685, 0, 0.7825, 0.0975, 0.88, 0.195, 0.98, 0.2925, 1.0775, 0.3925, 1.175, 0.49, 1.2725, 0.5875, 1.37, 0.685, 0, 0.7825, 0.0975, 0.88, 0.195, 0.98, 0.2925, 1.0775, 0.3925, 1.175, 0.49, 1.2725, 0.5875, 1.37, 0.685],
  "SoftwareVersions": "syngo_MR_E11",
  "SpacingBetweenSlices": 2,
  "StationName": "MRC35049",
  "TaskName": "things",
  "TotalReadoutTime": 0.0576811,
  "TxRefAmp": 318.658,
  "WipMemBlock": "31bc59fa-c2d8-4adf-8a11-6577f7db82b0||Sequence: R016 ve11c/master r/e634e98; Dec 19 2017 11:00:25 by eja",
  "dcmmeta_affine": [
    [-1.994124412536621, -0.12895427644252777, 0.08269502967596054, 110.07636260986328],
    [-0.150584876537323, 1.84837806224823, -0.7488810420036316, -50.48517990112305],
    [0.02814013697206974, 0.7529072761535645, 1.8526571989059448, -65.42398834228516],
    [0.0, 0.0, 0.0, 1.0]
],
  "dcmmeta_reorient_transform": [
    [0.0, -1.0, 0.0, 103.0],
    [1.0, 0.0, 0.0, 0.0],
    [0.0, 0.0, 1.0, 0.0],
    [0.0, 0.0, 0.0, 1.0]
],
  "dcmmeta_shape": [104, 104, 60, 190],
  "dcmmeta_slice_dim": 2,
  "dcmmeta_version": 0.6,
  "global": {
    "const": {
      "AcquisitionMatrix": [104, 0, 0, 104],
      "AngioFlag": "N",
      "BitsAllocated": 16,
      "BitsStored": 16,
      "BodyPartExamined": "BRAIN",
      "Columns": 832,
      "EchoNumbers": 1,
      "EchoTime": 37.0,
      "EchoTrainLength": 104,
      "FlipAngle": 52.0,
      "HighBit": 15,
      "ImageOrientationPatient": [0.99706222573144, 0.07529243786834, 0.01407006820573, -0.0644771353035, 0.92418902245023, -0.3764536489471],
      "ImagePositionPatient": [-775.7160193418, -867.52026184418, 275.94071356338],
      "ImageType": [
        "ORIGINAL",
        "PRIMARY",
        "P",
        "MB",
        "ND",
        "MOSAIC"
],
      "ImagedNucleus": "1H",
      "ImagingFrequency": 123.25897,
      "InPlanePhaseEncodingDirection": "COL",
      "LargestImagePixelValue": 4095,
      "MRAcquisitionType": "2D",
      "MagneticFieldStrength": 3.0,
      "Manufacturer": "SIEMENS",
      "ManufacturerModelName": "Prisma_fit",
      "Modality": "MR",
      "NumberOfAverages": 1.0,
      "NumberOfPhaseEncodingSteps": 104,
      "PercentPhaseFieldOfView": 100.0,
      "PercentSampling": 100.0,
      "PerformedProcedureStepStartTime": "085339.932000",
      "PhotometricInterpretation": "MONOCHROME2",
      "PixelBandwidth": 2290.0,
      "PixelRepresentation": 0,
      "PixelSpacing": [2.0, 2.0],
      "ProtocolName": "func_task-things_run-5",
      "RepetitionTime": 1490.0,
      "RescaleIntercept": -4096.0,
      "RescaleSlope": 2.0,
      "RescaleType": "US",
      "Rows": 832,
      "SAR": 0.07039310903706,
      "SamplesPerPixel": 1,
      "ScanOptions": "FS",
      "ScanningSequence": "EP",
      "SequenceName": "epfid2d1_104",
      "SequenceVariant": [
        "SK",
        "SS"
],
      "SeriesDescription": "func_task-things_run-5",
      "SeriesNumber": 23,
      "SeriesTime": "100235.941000",
      "SliceLocation": -37.149027700968,
      "SliceThickness": 2.0,
      "SmallestImagePixelValue": 0,
      "SoftwareVersions": "syngo MR E11",
      "SpacingBetweenSlices": 1.9999999525045,
      "SpecificCharacterSet": "ISO_IR 100",
      "StudyID": "1",
      "StudyTime": "085339.804000",
      "TransmitCoilName": "Body",
      "VariableFlipAngleFlag": "N",
      "WindowCenterWidthExplanation": "Algo1",
      "dBdt": 0.0},
    "slices": {}
  },
  "time": {
    "samples": {
      "AcquisitionNumber": [1, 2, 3, 4, 5, 6, 7, 8, 9, 10, 11, 12, 13, 14, 15, 16, 17, 18, 19, 20, 21, 22, 23, 24, 25, 26, 27, 28, 29, 30, 31, 32, 33, 34, 35, 36, 37, 38, 39, 40, 41, 42, 43, 44, 45, 46, 47, 48, 49, 50, 51, 52, 53, 54, 55, 56, 57, 58, 59, 60, 61, 62, 63, 64, 65, 66, 67, 68, 69, 70, 71, 72, 73, 74, 75, 76, 77, 78, 79, 80, 81, 82, 83, 84, 85, 86, 87, 88, 89, 90, 91, 92, 93, 94, 95, 96, 97, 98, 99, 100, 101, 102, 103, 104, 105, 106, 107, 108, 109, 110, 111, 112, 113, 114, 115, 116, 117, 118, 119, 120, 121, 122, 123, 124, 125, 126, 127, 128, 129, 130, 131, 132, 133, 134, 135, 136, 137, 138, 139, 140, 141, 142, 143, 144, 145, 146, 147, 148, 149, 150, 151, 152, 153, 154, 155, 156, 157, 158, 159, 160, 161, 162, 163, 164, 165, 166, 167, 168, 169, 170, 171, 172, 173, 174, 175, 176, 177, 178, 179, 180, 181, 182, 183, 184, 185, 186, 187, 188, 189, 190],
      "AcquisitionTime": ["100103.500000", "100104.990000", "100106.480000", "100107.970000", "100109.460000", "100110.950000", "100112.440000", "100113.930000", "100115.420000", "100116.910000", "100118.400000", "100119.890000", "100121.380000", "100122.870000", "100124.360000", "100125.850000", "100127.340000", "100128.830000", "100130.320000", "100131.810000", "100133.300000", "100134.790000", "100136.280000", "100137.770000", "100139.260000", "100140.750000", "100142.240000", "100143.730000", "100145.220000", "100146.710000", "100148.200000", "100149.690000", "100151.180000", "100152.670000", "100154.160000", "100155.650000", "100157.140000", "100158.630000", "100200.120000", "100201.610000", "100203.100000", "100204.590000", "100206.080000", "100207.570000", "100209.060000", "100210.550000", "100212.040000", "100213.530000", "100215.020000", "100216.510000", "100218.000000", "100219.490000", "100220.980000", "100222.470000", "100223.960000", "100225.450000", "100226.940000", "100228.430000", "100229.920000", "100231.410000", "100232.900000", "100234.390000", "100235.880000", "100237.370000", "100238.860000", "100240.350000", "100241.840000", "100243.330000", "100244.820000", "100246.310000", "100247.800000", "100249.290000", "100250.780000", "100252.270000", "100253.760000", "100255.250000", "100256.740000", "100258.230000", "100259.720000", "100301.210000", "100302.700000", "100304.190000", "100305.680000", "100307.170000", "100308.660000", "100310.150000", "100311.640000", "100313.130000", "100314.620000", "100316.110000", "100317.600000", "100319.090000", "100320.580000", "100322.070000", "100323.560000", "100325.050000", "100326.540000", "100328.030000", "100329.520000", "100331.010000", "100332.500000", "100333.990000", "100335.480000", "100336.970000", "100338.460000", "100339.950000", "100341.440000", "100342.930000", "100344.420000", "100345.910000", "100347.400000", "100348.890000", "100350.380000", "100351.870000", "100353.360000", "100354.850000", "100356.340000", "100357.830000", "100359.320000", "100400.810000", "100402.300000", "100403.790000", "100405.280000", "100406.770000", "100408.260000", "100409.750000", "100411.240000", "100412.730000", "100414.220000", "100415.710000", "100417.200000", "100418.690000", "100420.180000", "100421.670000", "100423.160000", "100424.650000", "100426.140000", "100427.630000", "100429.120000", "100430.610000", "100432.100000", "100433.590000", "100435.080000", "100436.570000", "100438.060000", "100439.550000", "100441.040000", "100442.530000", "100444.020000", "100445.510000", "100447.000000", "100448.490000", "100449.980000", "100451.470000", "100452.960000", "100454.450000", "100455.940000", "100457.430000", "100458.920000", "100500.410000", "100501.900000", "100503.390000", "100504.880000", "100506.370000", "100507.860000", "100509.350000", "100510.840000", "100512.330000", "100513.820000", "100515.310000", "100516.800000", "100518.290000", "100519.780000", "100521.270000", "100522.760000", "100524.250000", "100525.740000", "100527.230000", "100528.720000", "100530.210000", "100531.700000", "100533.190000", "100534.680000", "100536.170000", "100537.660000", "100539.150000", "100540.640000", "100542.130000", "100543.620000", "100545.110000"],
      "ContentTime": ["100235.943000", "100235.946000", "100235.948000", "100235.951000", "100235.953000", "100235.956000", "100235.958000", "100235.961000", "100235.969000", "100235.971000", "100235.974000", "100235.977000", "100235.979000", "100235.982000", "100235.985000", "100235.988000", "100235.990000", "100235.993000", "100235.996000", "100235.998000", "100236.002000", "100236.004000", "100236.007000", "100236.009000", "100236.012000", "100236.014000", "100236.017000", "100236.020000", "100236.022000", "100236.025000", "100236.027000", "100236.030000", "100236.032000", "100236.035000", "100236.037000", "100236.041000", "100236.043000", "100236.046000", "100236.048000", "100255.769000", "100255.772000", "100255.775000", "100255.777000", "100255.780000", "100255.782000", "100255.785000", "100255.788000", "100255.790000", "100255.793000", "100255.795000", "100255.798000", "100255.800000", "100255.803000", "100255.806000", "100255.808000", "100255.811000", "100255.814000", "100255.816000", "100255.819000", "100315.757000", "100315.760000", "100315.762000", "100315.765000", "100315.768000", "100315.770000", "100315.773000", "100315.775000", "100315.778000", "100315.781000", "100315.783000", "100315.786000", "100315.788000", "100315.791000", "100315.793000", "100315.796000", "100315.798000", "100315.801000", "100315.803000", "100315.806000", "100335.830000", "100335.833000", "100335.835000", "100335.838000", "100335.840000", "100335.843000", "100335.845000", "100335.848000", "100335.851000", "100335.853000", "100335.856000", "100335.858000", "100335.861000", "100335.863000", "100335.866000", "100335.868000", "100335.871000", "100335.874000", "100335.876000", "100335.879000", "100355.771000", "100355.774000", "100355.777000", "100355.779000", "100355.782000", "100355.784000", "100355.787000", "100355.790000", "100355.792000", "100355.795000", "100355.797000", "100355.800000", "100355.802000", "100355.805000", "100355.807000", "100355.810000", "100435.815000", "100435.818000", "100435.821000", "100435.823000", "100435.826000", "100435.828000", "100435.831000", "100435.833000", "100435.836000", "100435.838000", "100435.841000", "100435.843000", "100435.846000", "100435.848000", "100435.851000", "100435.854000", "100435.856000", "100435.859000", "100435.861000", "100435.864000", "100435.866000", "100435.869000", "100435.871000", "100435.874000", "100435.877000", "100435.879000", "100435.882000", "100515.805000", "100515.808000", "100515.810000", "100515.813000", "100515.819000", "100515.821000", "100515.824000", "100515.826000", "100515.829000", "100515.831000", "100515.834000", "100515.836000", "100515.839000", "100515.841000", "100515.844000", "100515.846000", "100515.849000", "100515.852000", "100515.854000", "100515.857000", "100515.859000", "100515.862000", "100515.865000", "100515.867000", "100515.870000", "100515.872000", "100515.875000", "100547.051000", "100547.055000", "100547.057000", "100547.060000", "100547.062000", "100547.065000", "100547.068000", "100547.070000", "100547.073000", "100547.076000", "100547.078000", "100547.081000", "100547.084000", "100547.087000", "100547.090000", "100547.092000", "100547.095000", "100547.097000", "100547.100000", "100547.103000", "100547.106000"],
      "InstanceCreationTime": ["100235.943000", "100235.946000", "100235.948000", "100235.951000", "100235.953000", "100235.956000", "100235.958000", "100235.961000", "100235.969000", "100235.971000", "100235.974000", "100235.977000", "100235.979000", "100235.982000", "100235.985000", "100235.988000", "100235.990000", "100235.993000", "100235.996000", "100235.998000", "100236.002000", "100236.004000", "100236.007000", "100236.009000", "100236.012000", "100236.014000", "100236.017000", "100236.020000", "100236.022000", "100236.025000", "100236.027000", "100236.030000", "100236.032000", "100236.035000", "100236.037000", "100236.041000", "100236.043000", "100236.046000", "100236.048000", "100255.769000", "100255.772000", "100255.775000", "100255.777000", "100255.780000", "100255.782000", "100255.785000", "100255.788000", "100255.790000", "100255.793000", "100255.795000", "100255.798000", "100255.800000", "100255.803000", "100255.806000", "100255.808000", "100255.811000", "100255.814000", "100255.816000", "100255.819000", "100315.757000", "100315.760000", "100315.762000", "100315.765000", "100315.768000", "100315.770000", "100315.773000", "100315.775000", "100315.778000", "100315.781000", "100315.783000", "100315.786000", "100315.788000", "100315.791000", "100315.793000", "100315.796000", "100315.798000", "100315.801000", "100315.803000", "100315.806000", "100335.830000", "100335.833000", "100335.835000", "100335.838000", "100335.840000", "100335.843000", "100335.845000", "100335.848000", "100335.851000", "100335.853000", "100335.856000", "100335.858000", "100335.861000", "100335.863000", "100335.866000", "100335.868000", "100335.871000", "100335.874000", "100335.876000", "100335.879000", "100355.771000", "100355.774000", "100355.777000", "100355.779000", "100355.782000", "100355.784000", "100355.787000", "100355.790000", "100355.792000", "100355.795000", "100355.797000", "100355.800000", "100355.802000", "100355.805000", "100355.807000", "100355.810000", "100435.815000", "100435.818000", "100435.821000", "100435.823000", "100435.826000", "100435.828000", "100435.831000", "100435.833000", "100435.836000", "100435.838000", "100435.841000", "100435.843000", "100435.846000", "100435.848000", "100435.851000", "100435.854000", "100435.856000", "100435.859000", "100435.861000", "100435.864000", "100435.866000", "100435.869000", "100435.871000", "100435.874000", "100435.877000", "100435.879000", "100435.882000", "100515.805000", "100515.808000", "100515.810000", "100515.813000", "100515.819000", "100515.821000", "100515.824000", "100515.826000", "100515.829000", "100515.831000", "100515.834000", "100515.836000", "100515.839000", "100515.841000", "100515.844000", "100515.846000", "100515.849000", "100515.852000", "100515.854000", "100515.857000", "100515.859000", "100515.862000", "100515.865000", "100515.867000", "100515.870000", "100515.872000", "100515.875000", "100547.051000", "100547.055000", "100547.057000", "100547.060000", "100547.062000", "100547.065000", "100547.068000", "100547.070000", "100547.073000", "100547.076000", "100547.078000", "100547.081000", "100547.084000", "100547.087000", "100547.090000", "100547.092000", "100547.095000", "100547.097000", "100547.100000", "100547.103000", "100547.106000"],
      "InstanceNumber": [1, 2, 3, 4, 5, 6, 7, 8, 9, 10, 11, 12, 13, 14, 15, 16, 17, 18, 19, 20, 21, 22, 23, 24, 25, 26, 27, 28, 29, 30, 31, 32, 33, 34, 35, 36, 37, 38, 39, 40, 41, 42, 43, 44, 45, 46, 47, 48, 49, 50, 51, 52, 53, 54, 55, 56, 57, 58, 59, 60, 61, 62, 63, 64, 65, 66, 67, 68, 69, 70, 71, 72, 73, 74, 75, 76, 77, 78, 79, 80, 81, 82, 83, 84, 85, 86, 87, 88, 89, 90, 91, 92, 93, 94, 95, 96, 97, 98, 99, 100, 101, 102, 103, 104, 105, 106, 107, 108, 109, 110, 111, 112, 113, 114, 115, 116, 117, 118, 119, 120, 121, 122, 123, 124, 125, 126, 127, 128, 129, 130, 131, 132, 133, 134, 135, 136, 137, 138, 139, 140, 141, 142, 143, 144, 145, 146, 147, 148, 149, 150, 151, 152, 153, 154, 155, 156, 157, 158, 159, 160, 161, 162, 163, 164, 165, 166, 167, 168, 169, 170, 171, 172, 173, 174, 175, 176, 177, 178, 179, 180, 181, 182, 183, 184, 185, 186, 187, 188, 189, 190],
      "WindowCenter": [4820.0, 4816.0, 4818.0, 4816.0, 4820.0, 4820.0, 4820.0, 4822.0, 4818.0, 4818.0, 4822.0, 4820.0, 4822.0, 4822.0, 4818.0, 4822.0, 4822.0, 4818.0, 4820.0, 4820.0, 4818.0, 4818.0, 4822.0, 4820.0, 4820.0, 4820.0, 4822.0, 4824.0, 4822.0, 4820.0, 4820.0, 4820.0, 4822.0, 4818.0, 4822.0, 4818.0, 4820.0, 4820.0, 4824.0, 4822.0, 4822.0, 4822.0, 4818.0, 4822.0, 4816.0, 4816.0, 4818.0, 4822.0, 4822.0, 4820.0, 4818.0, 4822.0, 4822.0, 4820.0, 4818.0, 4818.0, 4820.0, 4820.0, 4818.0, 4824.0, 4822.0, 4822.0, 4824.0, 4818.0, 4818.0, 4822.0, 4820.0, 4818.0, 4822.0, 4824.0, 4824.0, 4822.0, 4824.0, 4818.0, 4820.0, 4820.0, 4822.0, 4818.0, 4820.0, 4816.0, 4824.0, 4824.0, 4816.0, 4822.0, 4820.0, 4822.0, 4820.0, 4822.0, 4822.0, 4820.0, 4818.0, 4822.0, 4822.0, 4822.0, 4824.0, 4822.0, 4820.0, 4824.0, 4820.0, 4824.0, 4822.0, 4822.0, 4822.0, 4822.0, 4820.0, 4820.0, 4822.0, 4822.0, 4822.0, 4818.0, 4822.0, 4822.0, 4820.0, 4822.0, 4822.0, 4822.0, 4822.0, 4824.0, 4818.0, 4820.0, 4820.0, 4824.0, 4824.0, 4824.0, 4822.0, 4822.0, 4822.0, 4822.0, 4822.0, 4824.0, 4820.0, 4824.0, 4820.0, 4820.0, 4822.0, 4824.0, 4822.0, 4822.0, 4822.0, 4818.0, 4820.0, 4822.0, 4826.0, 4818.0, 4822.0, 4822.0, 4820.0, 4822.0, 4824.0, 4822.0, 4818.0, 4824.0, 4822.0, 4820.0, 4822.0, 4822.0, 4844.0, 4822.0, 4820.0, 4846.0, 4844.0, 4844.0, 4824.0, 4820.0, 4822.0, 4822.0, 4846.0, 4824.0, 4848.0, 4822.0, 4846.0, 4824.0, 4822.0, 4846.0, 4824.0, 4848.0, 4846.0, 4822.0, 4822.0, 4822.0, 4818.0, 4848.0, 4842.0, 4824.0, 4824.0, 4848.0, 4818.0, 4844.0, 4824.0, 4822.0],
      "WindowWidth": [18600.0, 18600.0, 18596.0, 18598.0, 18604.0, 18602.0, 18602.0, 18598.0, 18602.0, 18600.0, 18602.0, 18598.0, 18604.0, 18604.0, 18600.0, 18604.0, 18598.0, 18600.0, 18600.0, 18604.0, 18598.0, 18600.0, 18602.0, 18598.0, 18598.0, 18602.0, 18604.0, 18604.0, 18596.0, 18600.0, 18598.0, 18598.0, 18604.0, 18604.0, 18604.0, 18596.0, 18602.0, 18600.0, 18598.0, 18600.0, 18602.0, 18602.0, 18596.0, 18604.0, 18600.0, 18602.0, 18602.0, 18606.0, 18604.0, 18602.0, 18598.0, 18600.0, 18602.0, 18600.0, 18602.0, 18598.0, 18600.0, 18600.0, 18598.0, 18602.0, 18606.0, 18602.0, 18604.0, 18604.0, 18600.0, 18602.0, 18602.0, 18596.0, 18604.0, 18606.0, 18602.0, 18608.0, 18604.0, 18598.0, 18606.0, 18604.0, 18604.0, 18600.0, 18604.0, 18600.0, 18602.0, 18600.0, 18602.0, 18604.0, 18602.0, 18604.0, 18604.0, 18606.0, 18608.0, 18606.0, 18600.0, 18602.0, 18602.0, 18612.0, 18602.0, 18608.0, 18606.0, 18608.0, 18604.0, 18608.0, 18606.0, 18608.0, 18606.0, 18608.0, 18608.0, 18604.0, 18602.0, 18602.0, 18606.0, 18602.0, 18604.0, 18608.0, 18606.0, 18604.0, 18606.0, 18602.0, 18608.0, 18606.0, 18596.0, 18606.0, 18608.0, 18598.0, 18606.0, 18608.0, 18610.0, 18606.0, 18604.0, 18602.0, 18606.0, 18608.0, 18604.0, 18608.0, 18610.0, 18600.0, 18606.0, 18608.0, 18602.0, 18600.0, 18608.0, 18606.0, 18602.0, 18602.0, 18612.0, 18604.0, 18600.0, 18600.0, 18606.0, 18606.0, 18606.0, 18604.0, 18602.0, 18610.0, 18608.0, 18612.0, 18606.0, 18604.0, 18640.0, 18606.0, 18606.0, 18640.0, 18638.0, 18640.0, 18608.0, 18608.0, 18610.0, 18604.0, 18638.0, 18610.0, 18634.0, 18604.0, 18638.0, 18606.0, 18610.0, 18640.0, 18608.0, 18638.0, 18638.0, 18606.0, 18604.0, 18604.0, 18602.0, 18634.0, 18638.0, 18606.0, 18604.0, 18640.0, 18608.0, 18638.0, 18606.0, 18606.0]
    },
    "slices": {}
  }
}