{
  "AcquisitionMatrixPE": 104,
  "AcquisitionNumber": 1,
  "AcquisitionTime": "10:07:8.965000",
  "BandwidthPerPixelPhaseEncode": 17.17,
  "BaseResolution": 104,
  "BodyPartExamined": "BRAIN",
  "CoilString": "HC1-7;NC1_2",
  "ConsistencyInfo": "N4_VE11C_LATEST_20160120",
  "ConversionSoftware": "dcm2niix",
  "ConversionSoftwareVersion": "v1.0.20190902",
  "DerivedVendorReportedEchoSpacing": 0.000560011,
  "DeviceSerialNumber": "167006",
  "DwellTime": 2.1e-06,
  "EchoTime": 0.037,
  "EchoTrainLength": 104,
  "EffectiveEchoSpacing": 0.000560011,
  "FlipAngle": 52,
  "ImageComments": "Unaliased_MB4_PE3_LB",
  "ImageOrientationPatientDICOM": [0.997062, 0.0752924, 0.0140701, -0.0644771, 0.924189, -0.376454],
  "ImageType": [
    "ORIGINAL",
    "PRIMARY",
    "M",
    "MB",
    "ND",
    "MOSAIC"
],
  "ImagingFrequency": 123.259,
  "InPlanePhaseEncodingDirectionDICOM": "COL",
  "InstitutionAddress": "Chemin_Queen-Mary_4565_Montreal_District_CA_H3W_1W5",
  "InstitutionName": "IUGM",
  "InstitutionalDepartmentName": "Department",
  "MRAcquisitionType": "2D",
  "MagneticFieldStrength": 3,
  "Manufacturer": "Siemens",
  "ManufacturersModelName": "Prisma_fit",
  "Modality": "MR",
  "MultibandAccelerationFactor": 4,
  "PartialFourier": 1,
  "PatientPosition": "HFS",
  "PercentPhaseFOV": 100,
  "PhaseEncodingDirection": "j",
  "PhaseEncodingSteps": 104,
  "PhaseResolution": 1,
  "PixelBandwidth": 2290,
  "ProcedureStepDescription": "memory_things",
  "ProtocolName": "func_task-things_run-6",
  "PulseSequenceDetails": "%CustomerSeq%_cmrr_mbep2d_bold",
  "ReceiveCoilActiveElements": "HC1-7;NC1,2",
  "ReceiveCoilName": "HeadNeck_64",
  "ReconMatrixPE": 104,
  "RepetitionTime": 1.49,
  "SAR": 0.0703931,
  "ScanOptions": "FS",
  "ScanningSequence": "EP",
  "SequenceName": "epfid2d1_104",
  "SequenceVariant": "SK_SS",
  "SeriesDescription": "func_task-things_run-6",
  "SeriesNumber": 25,
  "ShimSetting": [630, -7166, -8826, 644, 69, 67, -5, -16],
  "SliceThickness": 2,
  "SliceTiming": [0, 0.7825, 0.0975, 0.88, 0.195, 0.98, 0.2925, 1.0775, 0.39, 1.175, 0.49, 1.2725, 0.5875, 1.37, 0.685, 0, 0.7825, 0.0975, 0.88, 0.195, 0.98, 0.2925, 1.0775, 0.39, 1.175, 0.49, 1.2725, 0.5875, 1.37, 0.685, 0, 0.7825, 0.0975, 0.88, 0.195, 0.98, 0.2925, 1.0775, 0.39, 1.175, 0.49, 1.2725, 0.5875, 1.37, 0.685, 0, 0.7825, 0.0975, 0.88, 0.195, 0.98, 0.2925, 1.0775, 0.39, 1.175, 0.49, 1.2725, 0.5875, 1.37, 0.685],
  "SoftwareVersions": "syngo_MR_E11",
  "SpacingBetweenSlices": 2,
  "StationName": "MRC35049",
  "TaskName": "things",
  "TotalReadoutTime": 0.0576811,
  "TxRefAmp": 318.658,
  "WipMemBlock": "77cfe046-76be-473c-bb87-a50db732fc5e||Sequence: R016 ve11c/master r/e634e98; Dec 19 2017 11:00:25 by eja",
  "dcmmeta_affine": [
    [-1.994124412536621, -0.12895427644252777, 0.08269502967596054, 110.07636260986328],
    [-0.150584876537323, 1.84837806224823, -0.7488810420036316, -50.48517990112305],
    [0.02814013697206974, 0.7529072761535645, 1.8526571989059448, -65.42398834228516],
    [0.0, 0.0, 0.0, 1.0]
],
  "dcmmeta_reorient_transform": [
    [0.0, -1.0, 0.0, 103.0],
    [1.0, 0.0, 0.0, 0.0],
    [0.0, 0.0, 1.0, 0.0],
    [0.0, 0.0, 0.0, 1.0]
],
  "dcmmeta_shape": [104, 104, 60, 190],
  "dcmmeta_slice_dim": 2,
  "dcmmeta_version": 0.6,
  "global": {
    "const": {
      "AcquisitionMatrix": [104, 0, 0, 104],
      "AngioFlag": "N",
      "BitsAllocated": 16,
      "BitsStored": 16,
      "BodyPartExamined": "BRAIN",
      "Columns": 832,
      "EchoNumbers": 1,
      "EchoTime": 37.0,
      "EchoTrainLength": 104,
      "FlipAngle": 52.0,
      "HighBit": 15,
      "ImageOrientationPatient": [0.99706222573144, 0.07529243786834, 0.01407006820573, -0.0644771353035, 0.92418902245023, -0.3764536489471],
      "ImagePositionPatient": [-775.7160193418, -867.52026184418, 275.94071356338],
      "ImageType": [
        "ORIGINAL",
        "PRIMARY",
        "M",
        "MB",
        "ND",
        "MOSAIC"
],
      "ImagedNucleus": "1H",
      "ImagingFrequency": 123.258973,
      "InPlanePhaseEncodingDirection": "COL",
      "MRAcquisitionType": "2D",
      "MagneticFieldStrength": 3.0,
      "Manufacturer": "SIEMENS",
      "ManufacturerModelName": "Prisma_fit",
      "Modality": "MR",
      "NumberOfAverages": 1.0,
      "NumberOfPhaseEncodingSteps": 104,
      "PercentPhaseFieldOfView": 100.0,
      "PercentSampling": 100.0,
      "PerformedProcedureStepStartTime": "085339.932000",
      "PhotometricInterpretation": "MONOCHROME2",
      "PixelBandwidth": 2290.0,
      "PixelRepresentation": 0,
      "PixelSpacing": [2.0, 2.0],
      "ProtocolName": "func_task-things_run-6",
      "RepetitionTime": 1490.0,
      "Rows": 832,
      "SAR": 0.07039310903706,
      "SamplesPerPixel": 1,
      "ScanOptions": "FS",
      "ScanningSequence": "EP",
      "SequenceName": "epfid2d1_104",
      "SequenceVariant": [
        "SK",
        "SS"
],
      "SeriesDescription": "func_task-things_run-6",
      "SeriesNumber": 25,
      "SeriesTime": "100835.614000",
      "SliceLocation": -37.149027700968,
      "SliceThickness": 2.0,
      "SmallestImagePixelValue": 0,
      "SoftwareVersions": "syngo MR E11",
      "SpacingBetweenSlices": 1.9999999525045,
      "SpecificCharacterSet": "ISO_IR 100",
      "StudyID": "1",
      "StudyTime": "085339.804000",
      "TransmitCoilName": "Body",
      "VariableFlipAngleFlag": "N",
      "WindowCenterWidthExplanation": "Algo1",
      "dBdt": 0.0},
    "slices": {}
  },
  "time": {
    "samples": {
      "AcquisitionNumber": [1, 2, 3, 4, 5, 6, 7, 8, 9, 10, 11, 12, 13, 14, 15, 16, 17, 18, 19, 20, 21, 22, 23, 24, 25, 26, 27, 28, 29, 30, 31, 32, 33, 34, 35, 36, 37, 38, 39, 40, 41, 42, 43, 44, 45, 46, 47, 48, 49, 50, 51, 52, 53, 54, 55, 56, 57, 58, 59, 60, 61, 62, 63, 64, 65, 66, 67, 68, 69, 70, 71, 72, 73, 74, 75, 76, 77, 78, 79, 80, 81, 82, 83, 84, 85, 86, 87, 88, 89, 90, 91, 92, 93, 94, 95, 96, 97, 98, 99, 100, 101, 102, 103, 104, 105, 106, 107, 108, 109, 110, 111, 112, 113, 114, 115, 116, 117, 118, 119, 120, 121, 122, 123, 124, 125, 126, 127, 128, 129, 130, 131, 132, 133, 134, 135, 136, 137, 138, 139, 140, 141, 142, 143, 144, 145, 146, 147, 148, 149, 150, 151, 152, 153, 154, 155, 156, 157, 158, 159, 160, 161, 162, 163, 164, 165, 166, 167, 168, 169, 170, 171, 172, 173, 174, 175, 176, 177, 178, 179, 180, 181, 182, 183, 184, 185, 186, 187, 188, 189, 190],
      "AcquisitionTime": ["100708.965000", "100710.455000", "100711.945000", "100713.435000", "100714.925000", "100716.415000", "100717.905000", "100719.395000", "100720.885000", "100722.375000", "100723.865000", "100725.355000", "100726.845000", "100728.335000", "100729.825000", "100731.315000", "100732.805000", "100734.295000", "100735.785000", "100737.275000", "100738.765000", "100740.255000", "100741.745000", "100743.235000", "100744.725000", "100746.215000", "100747.705000", "100749.195000", "100750.685000", "100752.175000", "100753.665000", "100755.155000", "100756.645000", "100758.135000", "100759.625000", "100801.115000", "100802.605000", "100804.095000", "100805.585000", "100807.075000", "100808.565000", "100810.055000", "100811.545000", "100813.035000", "100814.525000", "100816.015000", "100817.505000", "100818.995000", "100820.485000", "100821.975000", "100823.465000", "100824.955000", "100826.445000", "100827.935000", "100829.425000", "100830.915000", "100832.405000", "100833.895000", "100835.385000", "100836.875000", "100838.365000", "100839.855000", "100841.345000", "100842.835000", "100844.325000", "100845.815000", "100847.305000", "100848.795000", "100850.285000", "100851.775000", "100853.265000", "100854.755000", "100856.245000", "100857.735000", "100859.225000", "100900.715000", "100902.205000", "100903.695000", "100905.185000", "100906.675000", "100908.165000", "100909.655000", "100911.145000", "100912.635000", "100914.125000", "100915.615000", "100917.105000", "100918.595000", "100920.085000", "100921.575000", "100923.065000", "100924.555000", "100926.045000", "100927.535000", "100929.025000", "100930.515000", "100932.005000", "100933.495000", "100934.985000", "100936.475000", "100937.965000", "100939.455000", "100940.945000", "100942.435000", "100943.925000", "100945.415000", "100946.905000", "100948.395000", "100949.885000", "100951.375000", "100952.865000", "100954.355000", "100955.845000", "100957.335000", "100958.825000", "101000.315000", "101001.805000", "101003.295000", "101004.785000", "101006.275000", "101007.765000", "101009.255000", "101010.745000", "101012.235000", "101013.725000", "101015.215000", "101016.705000", "101018.195000", "101019.685000", "101021.175000", "101022.665000", "101024.155000", "101025.645000", "101027.135000", "101028.625000", "101030.115000", "101031.605000", "101033.095000", "101034.585000", "101036.075000", "101037.565000", "101039.055000", "101040.545000", "101042.035000", "101043.525000", "101045.015000", "101046.505000", "101047.995000", "101049.485000", "101050.975000", "101052.465000", "101053.955000", "101055.445000", "101056.935000", "101058.425000", "101059.915000", "101101.405000", "101102.895000", "101104.385000", "101105.875000", "101107.365000", "101108.855000", "101110.345000", "101111.835000", "101113.325000", "101114.815000", "101116.305000", "101117.795000", "101119.285000", "101120.775000", "101122.265000", "101123.755000", "101125.245000", "101126.735000", "101128.225000", "101129.715000", "101131.205000", "101132.695000", "101134.185000", "101135.675000", "101137.165000", "101138.655000", "101140.145000", "101141.635000", "101143.125000", "101144.615000", "101146.105000", "101147.595000", "101149.085000", "101150.575000"],
      "ContentTime": ["100835.617000", "100835.628000", "100835.632000", "100835.635000", "100835.639000", "100835.642000", "100835.645000", "100835.649000", "100835.652000", "100835.655000", "100835.659000", "100835.662000", "100835.666000", "100835.669000", "100835.672000", "100835.676000", "100835.679000", "100835.682000", "100835.686000", "100835.689000", "100835.693000", "100835.696000", "100835.699000", "100835.703000", "100835.706000", "100835.709000", "100835.713000", "100835.716000", "100835.720000", "100835.732000", "100835.735000", "100835.739000", "100855.573000", "100855.577000", "100855.580000", "100855.584000", "100855.587000", "100855.591000", "100855.594000", "100855.597000", "100855.601000", "100855.604000", "100855.607000", "100855.611000", "100855.614000", "100855.617000", "100855.621000", "100855.624000", "100855.627000", "100855.631000", "100855.634000", "100855.637000", "100915.573000", "100915.577000", "100915.580000", "100915.584000", "100915.588000", "100915.592000", "100915.595000", "100915.599000", "100915.603000", "100915.606000", "100915.610000", "100915.613000", "100915.616000", "100915.620000", "100915.623000", "100915.626000", "100915.630000", "100915.633000", "100915.636000", "100915.640000", "100935.572000", "100935.576000", "100935.579000", "100935.583000", "100935.586000", "100935.589000", "100935.593000", "100935.596000", "100935.599000", "100935.603000", "100935.606000", "100935.609000", "100935.613000", "100935.616000", "100935.620000", "100935.623000", "100935.626000", "100935.630000", "100935.633000", "100935.636000", "100935.640000", "101015.573000", "101015.577000", "101015.580000", "101015.594000", "101015.597000", "101015.601000", "101015.604000", "101015.607000", "101015.611000", "101015.614000", "101015.618000", "101015.621000", "101015.625000", "101015.628000", "101015.631000", "101015.635000", "101015.638000", "101015.641000", "101015.645000", "101015.648000", "101015.652000", "101015.655000", "101015.658000", "101015.662000", "101015.665000", "101015.668000", "101015.672000", "101015.675000", "101015.679000", "101015.682000", "101015.685000", "101055.573000", "101055.577000", "101055.581000", "101055.584000", "101055.587000", "101055.591000", "101055.594000", "101055.598000", "101055.601000", "101055.604000", "101055.608000", "101055.611000", "101055.615000", "101055.618000", "101055.621000", "101055.625000", "101055.628000", "101055.631000", "101055.635000", "101055.638000", "101055.642000", "101055.645000", "101055.648000", "101055.652000", "101055.655000", "101055.658000", "101055.662000", "101135.573000", "101135.577000", "101135.580000", "101135.584000", "101135.587000", "101135.590000", "101135.594000", "101135.597000", "101135.601000", "101135.604000", "101135.607000", "101135.611000", "101135.614000", "101135.618000", "101135.621000", "101135.624000", "101135.628000", "101135.631000", "101135.634000", "101135.638000", "101135.641000", "101135.645000", "101135.648000", "101135.651000", "101135.655000", "101135.658000", "101135.661000", "101152.922000", "101152.925000", "101152.929000", "101152.932000", "101152.936000", "101152.939000", "101152.942000", "101152.946000", "101152.949000", "101152.953000", "101152.956000", "101152.960000"],
      "InstanceCreationTime": ["100835.617000", "100835.628000", "100835.632000", "100835.635000", "100835.639000", "100835.642000", "100835.645000", "100835.649000", "100835.652000", "100835.655000", "100835.659000", "100835.662000", "100835.666000", "100835.669000", "100835.672000", "100835.676000", "100835.679000", "100835.682000", "100835.686000", "100835.689000", "100835.693000", "100835.696000", "100835.699000", "100835.703000", "100835.706000", "100835.709000", "100835.713000", "100835.716000", "100835.720000", "100835.732000", "100835.735000", "100835.739000", "100855.573000", "100855.577000", "100855.580000", "100855.584000", "100855.587000", "100855.591000", "100855.594000", "100855.597000", "100855.601000", "100855.604000", "100855.607000", "100855.611000", "100855.614000", "100855.617000", "100855.621000", "100855.624000", "100855.627000", "100855.631000", "100855.634000", "100855.637000", "100915.573000", "100915.577000", "100915.580000", "100915.584000", "100915.588000", "100915.592000", "100915.595000", "100915.599000", "100915.603000", "100915.606000", "100915.610000", "100915.613000", "100915.616000", "100915.620000", "100915.623000", "100915.626000", "100915.630000", "100915.633000", "100915.636000", "100915.640000", "100935.572000", "100935.576000", "100935.579000", "100935.583000", "100935.586000", "100935.589000", "100935.593000", "100935.596000", "100935.599000", "100935.603000", "100935.606000", "100935.609000", "100935.613000", "100935.616000", "100935.620000", "100935.623000", "100935.626000", "100935.630000", "100935.633000", "100935.636000", "100935.640000", "101015.573000", "101015.577000", "101015.580000", "101015.594000", "101015.597000", "101015.601000", "101015.604000", "101015.607000", "101015.611000", "101015.614000", "101015.618000", "101015.621000", "101015.625000", "101015.628000", "101015.631000", "101015.635000", "101015.638000", "101015.641000", "101015.645000", "101015.648000", "101015.652000", "101015.655000", "101015.658000", "101015.662000", "101015.665000", "101015.668000", "101015.672000", "101015.675000", "101015.679000", "101015.682000", "101015.685000", "101055.573000", "101055.577000", "101055.581000", "101055.584000", "101055.587000", "101055.591000", "101055.594000", "101055.598000", "101055.601000", "101055.604000", "101055.608000", "101055.611000", "101055.615000", "101055.618000", "101055.621000", "101055.625000", "101055.628000", "101055.631000", "101055.635000", "101055.638000", "101055.642000", "101055.645000", "101055.648000", "101055.652000", "101055.655000", "101055.658000", "101055.662000", "101135.573000", "101135.577000", "101135.580000", "101135.584000", "101135.587000", "101135.590000", "101135.594000", "101135.597000", "101135.601000", "101135.604000", "101135.607000", "101135.611000", "101135.614000", "101135.618000", "101135.621000", "101135.624000", "101135.628000", "101135.631000", "101135.634000", "101135.638000", "101135.641000", "101135.645000", "101135.648000", "101135.651000", "101135.655000", "101135.658000", "101135.661000", "101152.922000", "101152.925000", "101152.929000", "101152.932000", "101152.936000", "101152.939000", "101152.942000", "101152.946000", "101152.949000", "101152.953000", "101152.956000", "101152.960000"],
      "InstanceNumber": [1, 2, 3, 4, 5, 6, 7, 8, 9, 10, 11, 12, 13, 14, 15, 16, 17, 18, 19, 20, 21, 22, 23, 24, 25, 26, 27, 28, 29, 30, 31, 32, 33, 34, 35, 36, 37, 38, 39, 40, 41, 42, 43, 44, 45, 46, 47, 48, 49, 50, 51, 52, 53, 54, 55, 56, 57, 58, 59, 60, 61, 62, 63, 64, 65, 66, 67, 68, 69, 70, 71, 72, 73, 74, 75, 76, 77, 78, 79, 80, 81, 82, 83, 84, 85, 86, 87, 88, 89, 90, 91, 92, 93, 94, 95, 96, 97, 98, 99, 100, 101, 102, 103, 104, 105, 106, 107, 108, 109, 110, 111, 112, 113, 114, 115, 116, 117, 118, 119, 120, 121, 122, 123, 124, 125, 126, 127, 128, 129, 130, 131, 132, 133, 134, 135, 136, 137, 138, 139, 140, 141, 142, 143, 144, 145, 146, 147, 148, 149, 150, 151, 152, 153, 154, 155, 156, 157, 158, 159, 160, 161, 162, 163, 164, 165, 166, 167, 168, 169, 170, 171, 172, 173, 174, 175, 176, 177, 178, 179, 180, 181, 182, 183, 184, 185, 186, 187, 188, 189, 190],
      "LargestImagePixelValue": [43440, 41666, 41246, 40483, 40699, 40625, 39650, 39310, 39761, 39121, 41778, 39542, 39961, 39657, 39166, 39698, 39852, 39700, 39799, 39847, 40119, 39216, 40161, 39394, 39514, 40233, 40052, 39670, 39285, 39182, 39563, 39642, 39859, 39592, 39727, 40433, 39974, 40264, 40264, 40514, 40720, 40436, 40334, 40625, 40538, 40698, 40474, 40116, 38274, 39526, 39060, 40455, 38254, 38442, 38610, 37922, 38528, 38177, 37995, 38019, 46492, 39664, 40312, 39683, 41075, 41453, 41061, 40595, 40711, 40436, 39842, 40774, 40558, 39678, 41499, 41539, 40926, 41102, 41488, 40269, 41156, 40007, 40846, 40776, 40666, 41402, 40691, 40903, 41093, 41136, 40506, 41997, 42246, 41319, 41502, 41700, 41777, 41267, 40435, 40882, 42042, 41637, 41462, 41834, 41140, 41784, 41881, 41194, 40812, 42056, 41429, 41191, 41443, 41477, 40835, 41094, 40745, 41030, 41432, 41157, 41949, 41658, 41127, 41020, 40956, 41297, 41026, 40984, 41247, 40785, 40914, 41378, 41475, 40739, 40006, 39961, 41274, 39524, 40532, 41379, 41200, 41011, 41124, 40956, 40974, 41744, 41012, 41288, 41572, 41470, 41371, 41036, 41524, 39018, 42338, 41781, 42029, 41913, 41883, 41445, 41411, 41880, 41521, 41555, 42014, 41045, 41597, 42211, 40906, 41707, 41488, 39932, 40494, 41243, 41297, 42180, 41695, 42115, 41413, 41406, 41782, 41577, 41198, 41928, 41868, 41746, 41681, 41272, 41365, 40835],
      "WindowCenter": [10438.0, 10383.0, 10358.0, 10348.0, 10364.0, 10374.0, 10361.0, 10362.0, 10361.0, 10355.0, 10391.0, 10396.0, 10431.0, 10412.0, 10379.0, 10362.0, 10361.0, 10345.0, 10352.0, 10375.0, 10387.0, 10385.0, 10381.0, 10376.0, 10388.0, 10400.0, 10402.0, 10416.0, 10402.0, 10388.0, 10402.0, 10405.0, 10391.0, 10393.0, 10403.0, 10398.0, 10384.0, 10381.0, 10371.0, 10361.0, 10370.0, 10370.0, 10368.0, 10365.0, 10385.0, 10390.0, 10381.0, 10371.0, 10337.0, 10349.0, 10354.0, 10382.0, 10371.0, 10364.0, 10352.0, 10344.0, 10341.0, 10342.0, 10345.0, 10362.0, 10455.0, 10397.0, 10402.0, 10388.0, 10388.0, 10408.0, 10396.0, 10371.0, 10383.0, 10379.0, 10365.0, 10372.0, 10385.0, 10359.0, 10364.0, 10372.0, 10385.0, 10397.0, 10412.0, 10385.0, 10372.0, 10341.0, 10358.0, 10386.0, 10408.0, 10420.0, 10404.0, 10367.0, 10358.0, 10349.0, 10360.0, 10405.0, 10442.0, 10427.0, 10399.0, 10389.0, 10376.0, 10359.0, 10344.0, 10361.0, 10388.0, 10400.0, 10402.0, 10416.0, 10412.0, 10399.0, 10399.0, 10386.0, 10390.0, 10428.0, 10431.0, 10441.0, 10434.0, 10433.0, 10396.0, 10376.0, 10382.0, 10395.0, 10428.0, 10426.0, 10412.0, 10395.0, 10377.0, 10361.0, 10369.0, 10385.0, 10397.0, 10410.0, 10426.0, 10410.0, 10399.0, 10403.0, 10413.0, 10391.0, 10374.0, 10373.0, 10379.0, 10371.0, 10388.0, 10410.0, 10432.0, 10430.0, 10417.0, 10409.0, 10392.0, 10391.0, 10386.0, 10386.0, 10411.0, 10424.0, 10416.0, 10401.0, 10387.0, 10360.0, 10417.0, 10430.0, 10440.0, 10432.0, 10406.0, 10396.0, 10392.0, 10385.0, 10397.0, 10414.0, 10421.0, 10404.0, 10407.0, 10403.0, 10388.0, 10393.0, 10402.0, 10380.0, 10377.0, 10380.0, 10384.0, 10410.0, 10446.0, 10457.0, 10428.0, 10419.0, 10406.0, 10379.0, 10378.0, 10407.0, 10404.0, 10399.0, 10407.0, 10393.0, 10383.0, 10383.0],
      "WindowWidth": [22146.0, 22006.0, 21942.0, 21916.0, 21950.0, 21970.0, 21940.0, 21945.0, 21944.0, 21931.0, 22012.0, 22030.0, 22111.0, 22067.0, 21990.0, 21946.0, 21947.0, 21911.0, 21924.0, 21978.0, 22006.0, 22003.0, 21996.0, 21983.0, 22010.0, 22037.0, 22042.0, 22076.0, 22045.0, 22008.0, 22042.0, 22051.0, 22010.0, 22021.0, 22042.0, 22022.0, 21993.0, 21987.0, 21959.0, 21940.0, 21964.0, 21958.0, 21953.0, 21948.0, 21998.0, 22011.0, 21989.0, 21966.0, 21896.0, 21916.0, 21937.0, 21996.0, 21975.0, 21956.0, 21922.0, 21910.0, 21901.0, 21903.0, 21913.0, 21952.0, 22147.0, 22028.0, 22037.0, 22004.0, 22003.0, 22043.0, 22024.0, 21964.0, 21990.0, 21983.0, 21951.0, 21966.0, 21991.0, 21937.0, 21945.0, 21960.0, 21996.0, 22023.0, 22054.0, 21995.0, 21965.0, 21894.0, 21930.0, 22000.0, 22053.0, 22073.0, 22044.0, 21955.0, 21926.0, 21911.0, 21945.0, 22042.0, 22126.0, 22092.0, 22026.0, 22009.0, 21974.0, 21937.0, 21903.0, 21940.0, 22001.0, 22026.0, 22033.0, 22065.0, 22059.0, 22024.0, 22026.0, 21998.0, 22011.0, 22096.0, 22110.0, 22128.0, 22107.0, 22104.0, 22022.0, 21974.0, 21992.0, 22021.0, 22099.0, 22091.0, 22054.0, 22016.0, 21971.0, 21938.0, 21956.0, 21993.0, 22023.0, 22057.0, 22094.0, 22052.0, 22026.0, 22033.0, 22060.0, 22004.0, 21972.0, 21970.0, 21978.0, 21965.0, 22005.0, 22053.0, 22108.0, 22105.0, 22070.0, 22051.0, 22011.0, 22003.0, 21992.0, 21992.0, 22049.0, 22080.0, 22062.0, 22027.0, 21995.0, 21944.0, 22068.0, 22095.0, 22118.0, 22093.0, 22034.0, 22015.0, 22013.0, 21986.0, 22022.0, 22060.0, 22076.0, 22035.0, 22042.0, 22029.0, 21994.0, 22008.0, 22027.0, 21983.0, 21973.0, 21979.0, 21982.0, 22040.0, 22133.0, 22164.0, 22090.0, 22070.0, 22036.0, 21974.0, 21975.0, 22041.0, 22032.0, 22031.0, 22042.0, 22008.0, 21986.0, 21987.0]
    },
    "slices": {}
  }
}