{
  "AcquisitionMatrixPE": 104,
  "AcquisitionNumber": 1,
  "AcquisitionTime": "09:54:59.705000",
  "BandwidthPerPixelPhaseEncode": 17.17,
  "BaseResolution": 104,
  "BodyPartExamined": "BRAIN",
  "CoilString": "HC1-7;NC1_2",
  "ConsistencyInfo": "N4_VE11C_LATEST_20160120",
  "ConversionSoftware": "dcm2niix",
  "ConversionSoftwareVersion": "v1.0.20190902",
  "DerivedVendorReportedEchoSpacing": 0.000560011,
  "DeviceSerialNumber": "167006",
  "DwellTime": 2.1e-06,
  "EchoTime": 0.037,
  "EchoTrainLength": 104,
  "EffectiveEchoSpacing": 0.000560011,
  "FlipAngle": 52,
  "ImageComments": "Unaliased_MB4_PE3_LB",
  "ImageOrientationPatientDICOM": [0.997062, 0.0752924, 0.0140701, -0.0644771, 0.924189, -0.376454],
  "ImageType": [
    "ORIGINAL",
    "PRIMARY",
    "M",
    "MB",
    "ND",
    "MOSAIC"
],
  "ImagingFrequency": 123.259,
  "InPlanePhaseEncodingDirectionDICOM": "COL",
  "InstitutionAddress": "Chemin_Queen-Mary_4565_Montreal_District_CA_H3W_1W5",
  "InstitutionName": "IUGM",
  "InstitutionalDepartmentName": "Department",
  "MRAcquisitionType": "2D",
  "MagneticFieldStrength": 3,
  "Manufacturer": "Siemens",
  "ManufacturersModelName": "Prisma_fit",
  "Modality": "MR",
  "MultibandAccelerationFactor": 4,
  "PartialFourier": 1,
  "PatientPosition": "HFS",
  "PercentPhaseFOV": 100,
  "PhaseEncodingDirection": "j",
  "PhaseEncodingSteps": 104,
  "PhaseResolution": 1,
  "PixelBandwidth": 2290,
  "ProcedureStepDescription": "memory_things",
  "ProtocolName": "func_task-things_run-4",
  "PulseSequenceDetails": "%CustomerSeq%_cmrr_mbep2d_bold",
  "ReceiveCoilActiveElements": "HC1-7;NC1,2",
  "ReceiveCoilName": "HeadNeck_64",
  "ReconMatrixPE": 104,
  "RepetitionTime": 1.49,
  "SAR": 0.0703931,
  "ScanOptions": "FS",
  "ScanningSequence": "EP",
  "SequenceName": "epfid2d1_104",
  "SequenceVariant": "SK_SS",
  "SeriesDescription": "func_task-things_run-4",
  "SeriesNumber": 19,
  "ShimSetting": [630, -7166, -8826, 644, 69, 67, -5, -16],
  "SliceThickness": 2,
  "SliceTiming": [0, 0.7825, 0.0975, 0.8825, 0.195, 0.98, 0.2925, 1.0775, 0.3925, 1.175, 0.49, 1.2725, 0.5875, 1.3725, 0.685, 0, 0.7825, 0.0975, 0.8825, 0.195, 0.98, 0.2925, 1.0775, 0.3925, 1.175, 0.49, 1.2725, 0.5875, 1.3725, 0.685, 0, 0.7825, 0.0975, 0.8825, 0.195, 0.98, 0.2925, 1.0775, 0.3925, 1.175, 0.49, 1.2725, 0.5875, 1.3725, 0.685, 0, 0.7825, 0.0975, 0.8825, 0.195, 0.98, 0.2925, 1.0775, 0.3925, 1.175, 0.49, 1.2725, 0.5875, 1.3725, 0.685],
  "SoftwareVersions": "syngo_MR_E11",
  "SpacingBetweenSlices": 2,
  "StationName": "MRC35049",
  "TaskName": "things",
  "TotalReadoutTime": 0.0576811,
  "TxRefAmp": 318.658,
  "WipMemBlock": "d91a776c-0354-4806-a787-fcd006d2451e||Sequence: R016 ve11c/master r/e634e98; Dec 19 2017 11:00:25 by eja",
  "dcmmeta_affine": [
    [-1.994124412536621, -0.12895427644252777, 0.08269502967596054, 110.07636260986328],
    [-0.150584876537323, 1.84837806224823, -0.7488810420036316, -50.48517990112305],
    [0.02814013697206974, 0.7529072761535645, 1.8526571989059448, -65.42398834228516],
    [0.0, 0.0, 0.0, 1.0]
],
  "dcmmeta_reorient_transform": [
    [0.0, -1.0, 0.0, 103.0],
    [1.0, 0.0, 0.0, 0.0],
    [0.0, 0.0, 1.0, 0.0],
    [0.0, 0.0, 0.0, 1.0]
],
  "dcmmeta_shape": [104, 104, 60, 190],
  "dcmmeta_slice_dim": 2,
  "dcmmeta_version": 0.6,
  "global": {
    "const": {
      "AcquisitionMatrix": [104, 0, 0, 104],
      "AngioFlag": "N",
      "BitsAllocated": 16,
      "BitsStored": 16,
      "BodyPartExamined": "BRAIN",
      "Columns": 832,
      "EchoNumbers": 1,
      "EchoTime": 37.0,
      "EchoTrainLength": 104,
      "FlipAngle": 52.0,
      "HighBit": 15,
      "ImageOrientationPatient": [0.99706222573144, 0.07529243786834, 0.01407006820573, -0.0644771353035, 0.92418902245023, -0.3764536489471],
      "ImagePositionPatient": [-775.7160193418, -867.52026184418, 275.94071356338],
      "ImageType": [
        "ORIGINAL",
        "PRIMARY",
        "M",
        "MB",
        "ND",
        "MOSAIC"
],
      "ImagedNucleus": "1H",
      "ImagingFrequency": 123.258968,
      "InPlanePhaseEncodingDirection": "COL",
      "MRAcquisitionType": "2D",
      "MagneticFieldStrength": 3.0,
      "Manufacturer": "SIEMENS",
      "ManufacturerModelName": "Prisma_fit",
      "Modality": "MR",
      "NumberOfAverages": 1.0,
      "NumberOfPhaseEncodingSteps": 104,
      "PercentPhaseFieldOfView": 100.0,
      "PercentSampling": 100.0,
      "PerformedProcedureStepStartTime": "085339.932000",
      "PhotometricInterpretation": "MONOCHROME2",
      "PixelBandwidth": 2290.0,
      "PixelRepresentation": 0,
      "PixelSpacing": [2.0, 2.0],
      "ProtocolName": "func_task-things_run-4",
      "RepetitionTime": 1490.0,
      "Rows": 832,
      "SAR": 0.07039310903706,
      "SamplesPerPixel": 1,
      "ScanOptions": "FS",
      "ScanningSequence": "EP",
      "SequenceName": "epfid2d1_104",
      "SequenceVariant": [
        "SK",
        "SS"
],
      "SeriesDescription": "func_task-things_run-4",
      "SeriesNumber": 19,
      "SeriesTime": "095606.118000",
      "SliceLocation": -37.149027700968,
      "SliceThickness": 2.0,
      "SmallestImagePixelValue": 0,
      "SoftwareVersions": "syngo MR E11",
      "SpacingBetweenSlices": 1.9999999525045,
      "SpecificCharacterSet": "ISO_IR 100",
      "StudyID": "1",
      "StudyTime": "085339.804000",
      "TransmitCoilName": "Body",
      "VariableFlipAngleFlag": "N",
      "WindowCenterWidthExplanation": "Algo1",
      "dBdt": 0.0},
    "slices": {}
  },
  "time": {
    "samples": {
      "AcquisitionNumber": [1, 2, 3, 4, 5, 6, 7, 8, 9, 10, 11, 12, 13, 14, 15, 16, 17, 18, 19, 20, 21, 22, 23, 24, 25, 26, 27, 28, 29, 30, 31, 32, 33, 34, 35, 36, 37, 38, 39, 40, 41, 42, 43, 44, 45, 46, 47, 48, 49, 50, 51, 52, 53, 54, 55, 56, 57, 58, 59, 60, 61, 62, 63, 64, 65, 66, 67, 68, 69, 70, 71, 72, 73, 74, 75, 76, 77, 78, 79, 80, 81, 82, 83, 84, 85, 86, 87, 88, 89, 90, 91, 92, 93, 94, 95, 96, 97, 98, 99, 100, 101, 102, 103, 104, 105, 106, 107, 108, 109, 110, 111, 112, 113, 114, 115, 116, 117, 118, 119, 120, 121, 122, 123, 124, 125, 126, 127, 128, 129, 130, 131, 132, 133, 134, 135, 136, 137, 138, 139, 140, 141, 142, 143, 144, 145, 146, 147, 148, 149, 150, 151, 152, 153, 154, 155, 156, 157, 158, 159, 160, 161, 162, 163, 164, 165, 166, 167, 168, 169, 170, 171, 172, 173, 174, 175, 176, 177, 178, 179, 180, 181, 182, 183, 184, 185, 186, 187, 188, 189, 190],
      "AcquisitionTime": ["095459.705000", "095501.195000", "095502.685000", "095504.175000", "095505.665000", "095507.155000", "095508.645000", "095510.135000", "095511.625000", "095513.115000", "095514.605000", "095516.095000", "095517.585000", "095519.075000", "095520.565000", "095522.055000", "095523.545000", "095525.035000", "095526.525000", "095528.015000", "095529.505000", "095530.995000", "095532.485000", "095533.975000", "095535.465000", "095536.955000", "095538.445000", "095539.935000", "095541.425000", "095542.915000", "095544.405000", "095545.895000", "095547.385000", "095548.875000", "095550.365000", "095551.855000", "095553.345000", "095554.835000", "095556.325000", "095557.815000", "095559.305000", "095600.795000", "095602.285000", "095603.775000", "095605.265000", "095606.755000", "095608.245000", "095609.735000", "095611.225000", "095612.715000", "095614.205000", "095615.695000", "095617.185000", "095618.675000", "095620.165000", "095621.655000", "095623.145000", "095624.635000", "095626.125000", "095627.615000", "095629.105000", "095630.595000", "095632.085000", "095633.575000", "095635.065000", "095636.555000", "095638.045000", "095639.535000", "095641.025000", "095642.515000", "095644.005000", "095645.495000", "095646.985000", "095648.475000", "095649.965000", "095651.455000", "095652.945000", "095654.435000", "095655.925000", "095657.415000", "095658.905000", "095700.395000", "095701.885000", "095703.375000", "095704.865000", "095706.355000", "095707.845000", "095709.335000", "095710.825000", "095712.315000", "095713.805000", "095715.295000", "095716.785000", "095718.275000", "095719.765000", "095721.255000", "095722.745000", "095724.235000", "095725.725000", "095727.215000", "095728.705000", "095730.195000", "095731.685000", "095733.175000", "095734.665000", "095736.155000", "095737.645000", "095739.135000", "095740.625000", "095742.115000", "095743.605000", "095745.095000", "095746.585000", "095748.075000", "095749.565000", "095751.055000", "095752.545000", "095754.035000", "095755.525000", "095757.015000", "095758.505000", "095759.995000", "095801.485000", "095802.975000", "095804.465000", "095805.955000", "095807.445000", "095808.935000", "095810.425000", "095811.915000", "095813.405000", "095814.895000", "095816.385000", "095817.875000", "095819.365000", "095820.855000", "095822.345000", "095823.835000", "095825.325000", "095826.815000", "095828.305000", "095829.795000", "095831.285000", "095832.775000", "095834.265000", "095835.755000", "095837.245000", "095838.735000", "095840.225000", "095841.715000", "095843.205000", "095844.695000", "095846.185000", "095847.675000", "095849.165000", "095850.655000", "095852.145000", "095853.635000", "095855.125000", "095856.615000", "095858.105000", "095859.595000", "095901.085000", "095902.575000", "095904.065000", "095905.555000", "095907.045000", "095908.535000", "095910.025000", "095911.515000", "095913.005000", "095914.495000", "095915.985000", "095917.475000", "095918.965000", "095920.455000", "095921.945000", "095923.435000", "095924.925000", "095926.415000", "095927.905000", "095929.395000", "095930.885000", "095932.375000", "095933.865000", "095935.355000", "095936.845000", "095938.335000", "095939.825000", "095941.315000"],
      "ContentTime": ["095606.121000", "095606.125000", "095606.128000", "095606.132000", "095606.135000", "095606.144000", "095606.147000", "095606.150000", "095606.154000", "095606.157000", "095606.160000", "095606.164000", "095606.167000", "095606.178000", "095626.076000", "095626.094000", "095626.097000", "095626.101000", "095626.104000", "095626.108000", "095626.111000", "095626.114000", "095626.118000", "095626.121000", "095626.124000", "095626.128000", "095626.131000", "095626.135000", "095626.138000", "095626.141000", "095626.145000", "095626.148000", "095626.151000", "095626.155000", "095646.076000", "095646.080000", "095646.083000", "095646.087000", "095646.090000", "095646.094000", "095646.097000", "095646.101000", "095646.104000", "095646.108000", "095646.112000", "095646.115000", "095646.119000", "095646.123000", "095646.128000", "095646.132000", "095646.135000", "095646.139000", "095646.143000", "095646.147000", "095706.077000", "095706.081000", "095706.084000", "095706.088000", "095706.091000", "095706.095000", "095706.098000", "095706.101000", "095706.105000", "095706.108000", "095706.112000", "095706.115000", "095706.118000", "095706.122000", "095706.125000", "095706.128000", "095706.132000", "095706.135000", "095706.139000", "095706.142000", "095706.145000", "095726.077000", "095726.081000", "095726.084000", "095726.088000", "095726.091000", "095726.095000", "095726.098000", "095726.101000", "095726.105000", "095726.109000", "095726.112000", "095726.115000", "095726.119000", "095726.122000", "095726.125000", "095726.129000", "095726.132000", "095726.136000", "095726.139000", "095726.142000", "095806.076000", "095806.080000", "095806.083000", "095806.087000", "095806.090000", "095806.094000", "095806.097000", "095806.101000", "095806.104000", "095806.119000", "095806.122000", "095806.126000", "095806.129000", "095806.133000", "095806.136000", "095806.139000", "095806.143000", "095806.146000", "095806.150000", "095806.153000", "095806.156000", "095806.160000", "095806.163000", "095806.167000", "095806.170000", "095806.173000", "095806.177000", "095806.180000", "095806.184000", "095846.077000", "095846.081000", "095846.084000", "095846.088000", "095846.091000", "095846.095000", "095846.098000", "095846.102000", "095846.105000", "095846.108000", "095846.112000", "095846.115000", "095846.119000", "095846.122000", "095846.126000", "095846.129000", "095846.132000", "095846.136000", "095846.139000", "095846.142000", "095846.146000", "095846.149000", "095846.153000", "095846.156000", "095846.160000", "095846.163000", "095846.166000", "095926.077000", "095926.081000", "095926.085000", "095926.088000", "095926.091000", "095926.095000", "095926.098000", "095926.102000", "095926.105000", "095926.108000", "095926.112000", "095926.115000", "095926.119000", "095926.122000", "095926.126000", "095926.129000", "095926.132000", "095926.136000", "095926.139000", "095926.143000", "095926.146000", "095926.149000", "095926.153000", "095926.156000", "095926.160000", "095926.163000", "095926.166000", "095943.333000", "095943.336000", "095943.340000", "095943.344000", "095943.347000", "095943.351000", "095943.354000", "095943.358000", "095943.361000", "095943.365000", "095943.368000", "095943.372000"],
      "InstanceCreationTime": ["095606.121000", "095606.125000", "095606.128000", "095606.132000", "095606.135000", "095606.144000", "095606.147000", "095606.150000", "095606.154000", "095606.157000", "095606.160000", "095606.164000", "095606.167000", "095606.178000", "095626.076000", "095626.094000", "095626.097000", "095626.101000", "095626.104000", "095626.108000", "095626.111000", "095626.114000", "095626.118000", "095626.121000", "095626.124000", "095626.128000", "095626.131000", "095626.135000", "095626.138000", "095626.141000", "095626.145000", "095626.148000", "095626.151000", "095626.155000", "095646.076000", "095646.080000", "095646.083000", "095646.087000", "095646.090000", "095646.094000", "095646.097000", "095646.101000", "095646.104000", "095646.108000", "095646.112000", "095646.115000", "095646.119000", "095646.123000", "095646.128000", "095646.132000", "095646.135000", "095646.139000", "095646.143000", "095646.147000", "095706.077000", "095706.081000", "095706.084000", "095706.088000", "095706.091000", "095706.095000", "095706.098000", "095706.101000", "095706.105000", "095706.108000", "095706.112000", "095706.115000", "095706.118000", "095706.122000", "095706.125000", "095706.128000", "095706.132000", "095706.135000", "095706.139000", "095706.142000", "095706.145000", "095726.077000", "095726.081000", "095726.084000", "095726.088000", "095726.091000", "095726.095000", "095726.098000", "095726.101000", "095726.105000", "095726.109000", "095726.112000", "095726.115000", "095726.119000", "095726.122000", "095726.125000", "095726.129000", "095726.132000", "095726.136000", "095726.139000", "095726.142000", "095806.076000", "095806.080000", "095806.083000", "095806.087000", "095806.090000", "095806.094000", "095806.097000", "095806.101000", "095806.104000", "095806.119000", "095806.122000", "095806.126000", "095806.129000", "095806.133000", "095806.136000", "095806.139000", "095806.143000", "095806.146000", "095806.150000", "095806.153000", "095806.156000", "095806.160000", "095806.163000", "095806.167000", "095806.170000", "095806.173000", "095806.177000", "095806.180000", "095806.184000", "095846.077000", "095846.081000", "095846.084000", "095846.088000", "095846.091000", "095846.095000", "095846.098000", "095846.102000", "095846.105000", "095846.108000", "095846.112000", "095846.115000", "095846.119000", "095846.122000", "095846.126000", "095846.129000", "095846.132000", "095846.136000", "095846.139000", "095846.142000", "095846.146000", "095846.149000", "095846.153000", "095846.156000", "095846.160000", "095846.163000", "095846.166000", "095926.077000", "095926.081000", "095926.085000", "095926.088000", "095926.091000", "095926.095000", "095926.098000", "095926.102000", "095926.105000", "095926.108000", "095926.112000", "095926.115000", "095926.119000", "095926.122000", "095926.126000", "095926.129000", "095926.132000", "095926.136000", "095926.139000", "095926.143000", "095926.146000", "095926.149000", "095926.153000", "095926.156000", "095926.160000", "095926.163000", "095926.166000", "095943.333000", "095943.336000", "095943.340000", "095943.344000", "095943.347000", "095943.351000", "095943.354000", "095943.358000", "095943.361000", "095943.365000", "095943.368000", "095943.372000"],
      "InstanceNumber": [1, 2, 3, 4, 5, 6, 7, 8, 9, 10, 11, 12, 13, 14, 15, 16, 17, 18, 19, 20, 21, 22, 23, 24, 25, 26, 27, 28, 29, 30, 31, 32, 33, 34, 35, 36, 37, 38, 39, 40, 41, 42, 43, 44, 45, 46, 47, 48, 49, 50, 51, 52, 53, 54, 55, 56, 57, 58, 59, 60, 61, 62, 63, 64, 65, 66, 67, 68, 69, 70, 71, 72, 73, 74, 75, 76, 77, 78, 79, 80, 81, 82, 83, 84, 85, 86, 87, 88, 89, 90, 91, 92, 93, 94, 95, 96, 97, 98, 99, 100, 101, 102, 103, 104, 105, 106, 107, 108, 109, 110, 111, 112, 113, 114, 115, 116, 117, 118, 119, 120, 121, 122, 123, 124, 125, 126, 127, 128, 129, 130, 131, 132, 133, 134, 135, 136, 137, 138, 139, 140, 141, 142, 143, 144, 145, 146, 147, 148, 149, 150, 151, 152, 153, 154, 155, 156, 157, 158, 159, 160, 161, 162, 163, 164, 165, 166, 167, 168, 169, 170, 171, 172, 173, 174, 175, 176, 177, 178, 179, 180, 181, 182, 183, 184, 185, 186, 187, 188, 189, 190],
      "LargestImagePixelValue": [44186, 42669, 42075, 42354, 42777, 41856, 41931, 42026, 42627, 42322, 41404, 41352, 41402, 42580, 42400, 41754, 41797, 42335, 41641, 42379, 41753, 41510, 41911, 42758, 41993, 41824, 40911, 42000, 42800, 42273, 41582, 41017, 42013, 42852, 42892, 42923, 42004, 41431, 42397, 42390, 42679, 41858, 41490, 43455, 42792, 42227, 42657, 43392, 42776, 41800, 41151, 42774, 42198, 41367, 41462, 42238, 41964, 42129, 42726, 42968, 42751, 42784, 42466, 42748, 42731, 42357, 42211, 42903, 43251, 42155, 41585, 41618, 42660, 42646, 41699, 41658, 41047, 42305, 43057, 41855, 41989, 42168, 42351, 42223, 43071, 43350, 43006, 42966, 42932, 43415, 42592, 42741, 42687, 43629, 42823, 42074, 43446, 43735, 43828, 43138, 42394, 42672, 41744, 43061, 43047, 42616, 43329, 43140, 43648, 44416, 43443, 42784, 44187, 43520, 44187, 43770, 43758, 43680, 43166, 43452, 42331, 42472, 41777, 42267, 43116, 43642, 42952, 44452, 43492, 43486, 43334, 42882, 44063, 43390, 43488, 42572, 42907, 43915, 43392, 42362, 44275, 43597, 43287, 42900, 41312, 42520, 42187, 42889, 43818, 42852, 43786, 43048, 42515, 43505, 44377, 42999, 43892, 43197, 43048, 42596, 44290, 43261, 43133, 43985, 43266, 43658, 43768, 43664, 42882, 43007, 43239, 43641, 43116, 42582, 43868, 43575, 43823, 43431, 44005, 44112, 43264, 43573, 43827, 40820, 40238, 41893, 41460, 42106, 42044, 42345],
      "WindowCenter": [10485.0, 10427.0, 10409.0, 10413.0, 10415.0, 10397.0, 10379.0, 10366.0, 10376.0, 10414.0, 10434.0, 10435.0, 10420.0, 10418.0, 10407.0, 10413.0, 10418.0, 10410.0, 10411.0, 10407.0, 10419.0, 10414.0, 10404.0, 10403.0, 10415.0, 10436.0, 10425.0, 10413.0, 10420.0, 10425.0, 10421.0, 10407.0, 10404.0, 10413.0, 10430.0, 10420.0, 10385.0, 10369.0, 10379.0, 10394.0, 10420.0, 10402.0, 10394.0, 10390.0, 10392.0, 10397.0, 10405.0, 10416.0, 10409.0, 10409.0, 10392.0, 10399.0, 10399.0, 10399.0, 10405.0, 10424.0, 10426.0, 10418.0, 10412.0, 10420.0, 10431.0, 10436.0, 10425.0, 10428.0, 10437.0, 10426.0, 10413.0, 10412.0, 10435.0, 10435.0, 10414.0, 10411.0, 10409.0, 10423.0, 10423.0, 10420.0, 10408.0, 10415.0, 10432.0, 10423.0, 10420.0, 10402.0, 10414.0, 10426.0, 10430.0, 10412.0, 10413.0, 10405.0, 10396.0, 10408.0, 10426.0, 10426.0, 10409.0, 10411.0, 10413.0, 10429.0, 10454.0, 10455.0, 10447.0, 10415.0, 10392.0, 10388.0, 10387.0, 10418.0, 10448.0, 10448.0, 10445.0, 10428.0, 10404.0, 10401.0, 10396.0, 10390.0, 10407.0, 10415.0, 10429.0, 10440.0, 10433.0, 10417.0, 10400.0, 10406.0, 10424.0, 10438.0, 10436.0, 10424.0, 10439.0, 10438.0, 10440.0, 10447.0, 10452.0, 10439.0, 10420.0, 10406.0, 10413.0, 10434.0, 10438.0, 10425.0, 10416.0, 10421.0, 10428.0, 10413.0, 10417.0, 10411.0, 10410.0, 10416.0, 10420.0, 10423.0, 10416.0, 10413.0, 10423.0, 10428.0, 10439.0, 10432.0, 10419.0, 10413.0, 10430.0, 10415.0, 10409.0, 10387.0, 10392.0, 10400.0, 10428.0, 10448.0, 10451.0, 10439.0, 10417.0, 10404.0, 10417.0, 10423.0, 10416.0, 10407.0, 10412.0, 10430.0, 10424.0, 10409.0, 10402.0, 10419.0, 10429.0, 10421.0, 10415.0, 10425.0, 10410.0, 10407.0, 10419.0, 10416.0, 10407.0, 10403.0, 10388.0, 10397.0, 10400.0, 10406.0],
      "WindowWidth": [22260.0, 22112.0, 22061.0, 22072.0, 22064.0, 22029.0, 21983.0, 21952.0, 21975.0, 22068.0, 22117.0, 22119.0, 22087.0, 22071.0, 22048.0, 22069.0, 22078.0, 22060.0, 22063.0, 22050.0, 22080.0, 22066.0, 22042.0, 22033.0, 22068.0, 22123.0, 22094.0, 22061.0, 22074.0, 22091.0, 22090.0, 22053.0, 22040.0, 22056.0, 22093.0, 22070.0, 21995.0, 21961.0, 21979.0, 22012.0, 22072.0, 22036.0, 22015.0, 21997.0, 22007.0, 22025.0, 22039.0, 22059.0, 22048.0, 22052.0, 22016.0, 22033.0, 22029.0, 22036.0, 22048.0, 22089.0, 22094.0, 22073.0, 22052.0, 22073.0, 22102.0, 22110.0, 22086.0, 22092.0, 22115.0, 22091.0, 22062.0, 22055.0, 22111.0, 22114.0, 22066.0, 22059.0, 22055.0, 22088.0, 22091.0, 22078.0, 22053.0, 22064.0, 22106.0, 22092.0, 22077.0, 22036.0, 22060.0, 22089.0, 22091.0, 22049.0, 22053.0, 22036.0, 22013.0, 22041.0, 22089.0, 22087.0, 22049.0, 22049.0, 22055.0, 22099.0, 22146.0, 22150.0, 22130.0, 22059.0, 22008.0, 21997.0, 22005.0, 22067.0, 22137.0, 22142.0, 22132.0, 22092.0, 22030.0, 22019.0, 22012.0, 22000.0, 22031.0, 22056.0, 22085.0, 22115.0, 22094.0, 22057.0, 22020.0, 22037.0, 22086.0, 22121.0, 22122.0, 22088.0, 22117.0, 22111.0, 22115.0, 22125.0, 22141.0, 22112.0, 22068.0, 22036.0, 22047.0, 22101.0, 22110.0, 22082.0, 22058.0, 22064.0, 22088.0, 22061.0, 22055.0, 22049.0, 22043.0, 22062.0, 22080.0, 22081.0, 22067.0, 22054.0, 22076.0, 22091.0, 22114.0, 22099.0, 22070.0, 22049.0, 22083.0, 22056.0, 22037.0, 21989.0, 22001.0, 22030.0, 22085.0, 22141.0, 22146.0, 22113.0, 22064.0, 22031.0, 22063.0, 22081.0, 22064.0, 22039.0, 22050.0, 22095.0, 22080.0, 22044.0, 22026.0, 22067.0, 22090.0, 22069.0, 22053.0, 22076.0, 22050.0, 22038.0, 22064.0, 22073.0, 22052.0, 22031.0, 22001.0, 22016.0, 22027.0, 22035.0]
    },
    "slices": {}
  }
}