{
  "AcquisitionMatrixPE": 104,
  "AcquisitionNumber": 1,
  "AcquisitionTime": "09:47:0.187500",
  "BandwidthPerPixelPhaseEncode": 17.17,
  "BaseResolution": 104,
  "BodyPartExamined": "BRAIN",
  "CoilString": "HC1-7;NC1_2",
  "ConsistencyInfo": "N4_VE11C_LATEST_20160120",
  "ConversionSoftware": "dcm2niix",
  "ConversionSoftwareVersion": "v1.0.20190902",
  "DerivedVendorReportedEchoSpacing": 0.000560011,
  "DeviceSerialNumber": "167006",
  "DwellTime": 2.1e-06,
  "EchoTime": 0.037,
  "EchoTrainLength": 104,
  "EffectiveEchoSpacing": 0.000560011,
  "FlipAngle": 52,
  "ImageComments": "Unaliased_MB4_PE3_LB",
  "ImageOrientationPatientDICOM": [0.997062, 0.0752924, 0.0140701, -0.0644771, 0.924189, -0.376454],
  "ImageType": [
    "ORIGINAL",
    "PRIMARY",
    "M",
    "MB",
    "ND",
    "MOSAIC"
],
  "ImagingFrequency": 123.259,
  "InPlanePhaseEncodingDirectionDICOM": "COL",
  "InstitutionAddress": "Chemin_Queen-Mary_4565_Montreal_District_CA_H3W_1W5",
  "InstitutionName": "IUGM",
  "InstitutionalDepartmentName": "Department",
  "MRAcquisitionType": "2D",
  "MagneticFieldStrength": 3,
  "Manufacturer": "Siemens",
  "ManufacturersModelName": "Prisma_fit",
  "Modality": "MR",
  "MultibandAccelerationFactor": 4,
  "PartialFourier": 1,
  "PatientPosition": "HFS",
  "PercentPhaseFOV": 100,
  "PhaseEncodingDirection": "j",
  "PhaseEncodingSteps": 104,
  "PhaseResolution": 1,
  "PixelBandwidth": 2290,
  "ProcedureStepDescription": "memory_things",
  "ProtocolName": "func_task-things_run-3",
  "PulseSequenceDetails": "%CustomerSeq%_cmrr_mbep2d_bold",
  "ReceiveCoilActiveElements": "HC1-7;NC1,2",
  "ReceiveCoilName": "HeadNeck_64",
  "ReconMatrixPE": 104,
  "RepetitionTime": 1.49,
  "SAR": 0.0703931,
  "ScanOptions": "FS",
  "ScanningSequence": "EP",
  "SequenceName": "epfid2d1_104",
  "SequenceVariant": "SK_SS",
  "SeriesDescription": "func_task-things_run-3",
  "SeriesNumber": 16,
  "ShimSetting": [630, -7166, -8826, 644, 69, 67, -5, -16],
  "SliceThickness": 2,
  "SliceTiming": [0, 0.7825, 0.0975, 0.8825, 0.195, 0.98, 0.2925, 1.0775, 0.3925, 1.175, 0.49, 1.2725, 0.5875, 1.3725, 0.685, 0, 0.7825, 0.0975, 0.8825, 0.195, 0.98, 0.2925, 1.0775, 0.3925, 1.175, 0.49, 1.2725, 0.5875, 1.3725, 0.685, 0, 0.7825, 0.0975, 0.8825, 0.195, 0.98, 0.2925, 1.0775, 0.3925, 1.175, 0.49, 1.2725, 0.5875, 1.3725, 0.685, 0, 0.7825, 0.0975, 0.8825, 0.195, 0.98, 0.2925, 1.0775, 0.3925, 1.175, 0.49, 1.2725, 0.5875, 1.3725, 0.685],
  "SoftwareVersions": "syngo_MR_E11",
  "SpacingBetweenSlices": 2,
  "StationName": "MRC35049",
  "TaskName": "things",
  "TotalReadoutTime": 0.0576811,
  "TxRefAmp": 318.658,
  "WipMemBlock": "c3dde927-f44b-4101-90b8-63295a0f0e1a||Sequence: R016 ve11c/master r/e634e98; Dec 19 2017 11:00:25 by eja",
  "dcmmeta_affine": [
    [-1.994124412536621, -0.12895427644252777, 0.08269502967596054, 110.07636260986328],
    [-0.150584876537323, 1.84837806224823, -0.7488810420036316, -50.48517990112305],
    [0.02814013697206974, 0.7529072761535645, 1.8526571989059448, -65.42398834228516],
    [0.0, 0.0, 0.0, 1.0]
],
  "dcmmeta_reorient_transform": [
    [0.0, -1.0, 0.0, 103.0],
    [1.0, 0.0, 0.0, 0.0],
    [0.0, 0.0, 1.0, 0.0],
    [0.0, 0.0, 0.0, 1.0]
],
  "dcmmeta_shape": [104, 104, 60, 190],
  "dcmmeta_slice_dim": 2,
  "dcmmeta_version": 0.6,
  "global": {
    "const": {
      "AcquisitionMatrix": [104, 0, 0, 104],
      "AngioFlag": "N",
      "BitsAllocated": 16,
      "BitsStored": 16,
      "BodyPartExamined": "BRAIN",
      "Columns": 832,
      "EchoNumbers": 1,
      "EchoTime": 37.0,
      "EchoTrainLength": 104,
      "FlipAngle": 52.0,
      "HighBit": 15,
      "ImageOrientationPatient": [0.99706222573144, 0.07529243786834, 0.01407006820573, -0.0644771353035, 0.92418902245023, -0.3764536489471],
      "ImagePositionPatient": [-775.7160193418, -867.52026184418, 275.94071356338],
      "ImageType": [
        "ORIGINAL",
        "PRIMARY",
        "M",
        "MB",
        "ND",
        "MOSAIC"
],
      "ImagedNucleus": "1H",
      "ImagingFrequency": 123.258965,
      "InPlanePhaseEncodingDirection": "COL",
      "MRAcquisitionType": "2D",
      "MagneticFieldStrength": 3.0,
      "Manufacturer": "SIEMENS",
      "ManufacturerModelName": "Prisma_fit",
      "Modality": "MR",
      "NumberOfAverages": 1.0,
      "NumberOfPhaseEncodingSteps": 104,
      "PercentPhaseFieldOfView": 100.0,
      "PercentSampling": 100.0,
      "PerformedProcedureStepStartTime": "085339.932000",
      "PhotometricInterpretation": "MONOCHROME2",
      "PixelBandwidth": 2290.0,
      "PixelRepresentation": 0,
      "PixelSpacing": [2.0, 2.0],
      "ProtocolName": "func_task-things_run-3",
      "RepetitionTime": 1490.0,
      "Rows": 832,
      "SAR": 0.07039310903706,
      "SamplesPerPixel": 1,
      "ScanOptions": "FS",
      "ScanningSequence": "EP",
      "SequenceName": "epfid2d1_104",
      "SequenceVariant": [
        "SK",
        "SS"
],
      "SeriesDescription": "func_task-things_run-3",
      "SeriesNumber": 16,
      "SeriesTime": "094815.603000",
      "SliceLocation": -37.149027700968,
      "SliceThickness": 2.0,
      "SmallestImagePixelValue": 0,
      "SoftwareVersions": "syngo MR E11",
      "SpacingBetweenSlices": 1.9999999525045,
      "SpecificCharacterSet": "ISO_IR 100",
      "StudyID": "1",
      "StudyTime": "085339.804000",
      "TransmitCoilName": "Body",
      "VariableFlipAngleFlag": "N",
      "WindowCenterWidthExplanation": "Algo1",
      "dBdt": 0.0},
    "slices": {}
  },
  "time": {
    "samples": {
      "AcquisitionNumber": [1, 2, 3, 4, 5, 6, 7, 8, 9, 10, 11, 12, 13, 14, 15, 16, 17, 18, 19, 20, 21, 22, 23, 24, 25, 26, 27, 28, 29, 30, 31, 32, 33, 34, 35, 36, 37, 38, 39, 40, 41, 42, 43, 44, 45, 46, 47, 48, 49, 50, 51, 52, 53, 54, 55, 56, 57, 58, 59, 60, 61, 62, 63, 64, 65, 66, 67, 68, 69, 70, 71, 72, 73, 74, 75, 76, 77, 78, 79, 80, 81, 82, 83, 84, 85, 86, 87, 88, 89, 90, 91, 92, 93, 94, 95, 96, 97, 98, 99, 100, 101, 102, 103, 104, 105, 106, 107, 108, 109, 110, 111, 112, 113, 114, 115, 116, 117, 118, 119, 120, 121, 122, 123, 124, 125, 126, 127, 128, 129, 130, 131, 132, 133, 134, 135, 136, 137, 138, 139, 140, 141, 142, 143, 144, 145, 146, 147, 148, 149, 150, 151, 152, 153, 154, 155, 156, 157, 158, 159, 160, 161, 162, 163, 164, 165, 166, 167, 168, 169, 170, 171, 172, 173, 174, 175, 176, 177, 178, 179, 180, 181, 182, 183, 184, 185, 186, 187, 188, 189, 190],
      "AcquisitionTime": ["094700.187500", "094701.677500", "094703.167500", "094704.657500", "094706.147500", "094707.637500", "094709.127500", "094710.617500", "094712.107500", "094713.597500", "094715.087500", "094716.577500", "094718.067500", "094719.557500", "094721.047500", "094722.537500", "094724.027500", "094725.517500", "094727.007500", "094728.497500", "094729.987500", "094731.477500", "094732.967500", "094734.457500", "094735.947500", "094737.437500", "094738.927500", "094740.417500", "094741.907500", "094743.397500", "094744.887500", "094746.377500", "094747.867500", "094749.357500", "094750.847500", "094752.337500", "094753.827500", "094755.317500", "094756.807500", "094758.297500", "094759.787500", "094801.277500", "094802.767500", "094804.257500", "094805.747500", "094807.237500", "094808.727500", "094810.217500", "094811.707500", "094813.197500", "094814.687500", "094816.177500", "094817.667500", "094819.157500", "094820.647500", "094822.137500", "094823.627500", "094825.117500", "094826.607500", "094828.097500", "094829.587500", "094831.077500", "094832.567500", "094834.057500", "094835.547500", "094837.037500", "094838.527500", "094840.017500", "094841.507500", "094842.997500", "094844.487500", "094845.977500", "094847.467500", "094848.957500", "094850.447500", "094851.937500", "094853.427500", "094854.917500", "094856.407500", "094857.897500", "094859.387500", "094900.877500", "094902.367500", "094903.857500", "094905.347500", "094906.837500", "094908.327500", "094909.817500", "094911.307500", "094912.797500", "094914.287500", "094915.777500", "094917.267500", "094918.757500", "094920.247500", "094921.737500", "094923.227500", "094924.717500", "094926.207500", "094927.697500", "094929.187500", "094930.677500", "094932.167500", "094933.657500", "094935.147500", "094936.637500", "094938.127500", "094939.617500", "094941.107500", "094942.597500", "094944.087500", "094945.577500", "094947.067500", "094948.557500", "094950.047500", "094951.537500", "094953.027500", "094954.517500", "094956.007500", "094957.497500", "094958.987500", "095000.477500", "095001.967500", "095003.457500", "095004.947500", "095006.437500", "095007.927500", "095009.417500", "095010.907500", "095012.397500", "095013.887500", "095015.377500", "095016.867500", "095018.357500", "095019.847500", "095021.337500", "095022.827500", "095024.317500", "095025.807500", "095027.297500", "095028.787500", "095030.277500", "095031.767500", "095033.257500", "095034.747500", "095036.237500", "095037.727500", "095039.217500", "095040.707500", "095042.197500", "095043.687500", "095045.177500", "095046.667500", "095048.157500", "095049.647500", "095051.137500", "095052.627500", "095054.117500", "095055.607500", "095057.097500", "095058.587500", "095100.077500", "095101.567500", "095103.057500", "095104.547500", "095106.037500", "095107.527500", "095109.017500", "095110.507500", "095111.997500", "095113.487500", "095114.977500", "095116.467500", "095117.957500", "095119.447500", "095120.937500", "095122.427500", "095123.917500", "095125.407500", "095126.897500", "095128.387500", "095129.877500", "095131.367500", "095132.857500", "095134.347500", "095135.837500", "095137.327500", "095138.817500", "095140.307500", "095141.797500"],
      "ContentTime": ["094815.606000", "094815.610000", "094815.613000", "094815.617000", "094815.620000", "094815.624000", "094815.627000", "094815.630000", "094815.634000", "094815.637000", "094815.640000", "094815.644000", "094815.647000", "094815.651000", "094815.663000", "094815.666000", "094815.669000", "094815.673000", "094815.676000", "094815.679000", "094815.683000", "094835.572000", "094835.576000", "094835.579000", "094835.583000", "094835.586000", "094835.589000", "094835.593000", "094835.596000", "094835.600000", "094835.603000", "094835.607000", "094835.610000", "094835.613000", "094835.617000", "094835.620000", "094835.623000", "094835.627000", "094835.630000", "094835.633000", "094835.637000", "094855.572000", "094855.576000", "094855.579000", "094855.583000", "094855.586000", "094855.589000", "094855.593000", "094855.596000", "094855.599000", "094855.603000", "094855.606000", "094855.615000", "094855.619000", "094855.622000", "094855.625000", "094855.629000", "094855.632000", "094855.635000", "094855.639000", "094855.642000", "094915.573000", "094915.577000", "094915.580000", "094915.584000", "094915.587000", "094915.590000", "094915.594000", "094915.597000", "094915.600000", "094915.604000", "094915.607000", "094915.610000", "094915.614000", "094915.617000", "094915.621000", "094915.624000", "094915.627000", "094915.631000", "094915.634000", "094915.637000", "094935.573000", "094935.577000", "094935.580000", "094935.584000", "094935.587000", "094935.590000", "094935.594000", "094935.597000", "094935.601000", "094935.604000", "094935.607000", "094935.611000", "094935.614000", "094935.618000", "094935.621000", "094935.624000", "094935.628000", "094935.631000", "094935.634000", "094935.638000", "094935.641000", "095015.573000", "095015.577000", "095015.580000", "095015.584000", "095015.587000", "095015.590000", "095015.594000", "095015.597000", "095015.601000", "095015.604000", "095015.607000", "095015.611000", "095015.614000", "095015.617000", "095015.621000", "095015.626000", "095015.630000", "095015.633000", "095015.637000", "095015.641000", "095015.645000", "095015.648000", "095015.652000", "095015.656000", "095015.659000", "095015.663000", "095015.666000", "095015.670000", "095055.572000", "095055.576000", "095055.579000", "095055.583000", "095055.586000", "095055.590000", "095055.593000", "095055.596000", "095055.600000", "095055.603000", "095055.606000", "095055.610000", "095055.613000", "095055.617000", "095055.620000", "095055.623000", "095055.627000", "095055.630000", "095055.634000", "095055.637000", "095055.640000", "095055.657000", "095055.660000", "095055.663000", "095055.667000", "095055.670000", "095055.674000", "095135.573000", "095135.577000", "095135.580000", "095135.584000", "095135.587000", "095135.591000", "095135.594000", "095135.598000", "095135.601000", "095135.604000", "095135.608000", "095135.611000", "095135.614000", "095135.618000", "095135.621000", "095135.624000", "095135.628000", "095135.631000", "095135.635000", "095135.638000", "095135.641000", "095135.645000", "095135.648000", "095135.652000", "095135.655000", "095135.658000", "095135.662000", "095143.617000", "095143.621000", "095143.624000", "095143.628000", "095143.631000", "095143.635000"],
      "InstanceCreationTime": ["094815.606000", "094815.610000", "094815.613000", "094815.617000", "094815.620000", "094815.624000", "094815.627000", "094815.630000", "094815.634000", "094815.637000", "094815.640000", "094815.644000", "094815.647000", "094815.651000", "094815.663000", "094815.666000", "094815.669000", "094815.673000", "094815.676000", "094815.679000", "094815.683000", "094835.572000", "094835.576000", "094835.579000", "094835.583000", "094835.586000", "094835.589000", "094835.593000", "094835.596000", "094835.600000", "094835.603000", "094835.607000", "094835.610000", "094835.613000", "094835.617000", "094835.620000", "094835.623000", "094835.627000", "094835.630000", "094835.633000", "094835.637000", "094855.572000", "094855.576000", "094855.579000", "094855.583000", "094855.586000", "094855.589000", "094855.593000", "094855.596000", "094855.599000", "094855.603000", "094855.606000", "094855.615000", "094855.619000", "094855.622000", "094855.625000", "094855.629000", "094855.632000", "094855.635000", "094855.639000", "094855.642000", "094915.573000", "094915.577000", "094915.580000", "094915.584000", "094915.587000", "094915.590000", "094915.594000", "094915.597000", "094915.600000", "094915.604000", "094915.607000", "094915.610000", "094915.614000", "094915.617000", "094915.621000", "094915.624000", "094915.627000", "094915.631000", "094915.634000", "094915.637000", "094935.573000", "094935.577000", "094935.580000", "094935.584000", "094935.587000", "094935.590000", "094935.594000", "094935.597000", "094935.601000", "094935.604000", "094935.607000", "094935.611000", "094935.614000", "094935.618000", "094935.621000", "094935.624000", "094935.628000", "094935.631000", "094935.634000", "094935.638000", "094935.641000", "095015.573000", "095015.577000", "095015.580000", "095015.584000", "095015.587000", "095015.590000", "095015.594000", "095015.597000", "095015.601000", "095015.604000", "095015.607000", "095015.611000", "095015.614000", "095015.617000", "095015.621000", "095015.626000", "095015.630000", "095015.633000", "095015.637000", "095015.641000", "095015.645000", "095015.648000", "095015.652000", "095015.656000", "095015.659000", "095015.663000", "095015.666000", "095015.670000", "095055.572000", "095055.576000", "095055.579000", "095055.583000", "095055.586000", "095055.590000", "095055.593000", "095055.596000", "095055.600000", "095055.603000", "095055.606000", "095055.610000", "095055.613000", "095055.617000", "095055.620000", "095055.623000", "095055.627000", "095055.630000", "095055.634000", "095055.637000", "095055.640000", "095055.657000", "095055.660000", "095055.663000", "095055.667000", "095055.670000", "095055.674000", "095135.573000", "095135.577000", "095135.580000", "095135.584000", "095135.587000", "095135.591000", "095135.594000", "095135.598000", "095135.601000", "095135.604000", "095135.608000", "095135.611000", "095135.614000", "095135.618000", "095135.621000", "095135.624000", "095135.628000", "095135.631000", "095135.635000", "095135.638000", "095135.641000", "095135.645000", "095135.648000", "095135.652000", "095135.655000", "095135.658000", "095135.662000", "095143.617000", "095143.621000", "095143.624000", "095143.628000", "095143.631000", "095143.635000"],
      "InstanceNumber": [1, 2, 3, 4, 5, 6, 7, 8, 9, 10, 11, 12, 13, 14, 15, 16, 17, 18, 19, 20, 21, 22, 23, 24, 25, 26, 27, 28, 29, 30, 31, 32, 33, 34, 35, 36, 37, 38, 39, 40, 41, 42, 43, 44, 45, 46, 47, 48, 49, 50, 51, 52, 53, 54, 55, 56, 57, 58, 59, 60, 61, 62, 63, 64, 65, 66, 67, 68, 69, 70, 71, 72, 73, 74, 75, 76, 77, 78, 79, 80, 81, 82, 83, 84, 85, 86, 87, 88, 89, 90, 91, 92, 93, 94, 95, 96, 97, 98, 99, 100, 101, 102, 103, 104, 105, 106, 107, 108, 109, 110, 111, 112, 113, 114, 115, 116, 117, 118, 119, 120, 121, 122, 123, 124, 125, 126, 127, 128, 129, 130, 131, 132, 133, 134, 135, 136, 137, 138, 139, 140, 141, 142, 143, 144, 145, 146, 147, 148, 149, 150, 151, 152, 153, 154, 155, 156, 157, 158, 159, 160, 161, 162, 163, 164, 165, 166, 167, 168, 169, 170, 171, 172, 173, 174, 175, 176, 177, 178, 179, 180, 181, 182, 183, 184, 185, 186, 187, 188, 189, 190],
      "LargestImagePixelValue": [41904, 41001, 40367, 40226, 39150, 40149, 40555, 40134, 39503, 39082, 39217, 40277, 40734, 40491, 40597, 38951, 39852, 40984, 40671, 40654, 39863, 39650, 40447, 41132, 40774, 40091, 39898, 40751, 41408, 40949, 40142, 41131, 41893, 42151, 41090, 40743, 41594, 42385, 41822, 41709, 41328, 42333, 42685, 43376, 43338, 43486, 42184, 43640, 43662, 42710, 42001, 42762, 42049, 42002, 42636, 41862, 43175, 42811, 42729, 41799, 41576, 42391, 43027, 42723, 42707, 41935, 42409, 43483, 44208, 42667, 43142, 42180, 41442, 41658, 42220, 43212, 42639, 42082, 42562, 43296, 43000, 42996, 42058, 43165, 42596, 42724, 41977, 42786, 42925, 42380, 42405, 42002, 42667, 43130, 42349, 41810, 42542, 43448, 42105, 42280, 42500, 43071, 44240, 43729, 43752, 42886, 44258, 43951, 43906, 43039, 43443, 44272, 44026, 43203, 43576, 44505, 43664, 43195, 44423, 44671, 44408, 43851, 45211, 45779, 45231, 44637, 44561, 44861, 44646, 44580, 44680, 43594, 44539, 44087, 43828, 44233, 43350, 44167, 45416, 44538, 44143, 43239, 43800, 42918, 45222, 45070, 45371, 45137, 45880, 45657, 44557, 43970, 43821, 44582, 44005, 43740, 44893, 45614, 44745, 44166, 45504, 45235, 44420, 44832, 44799, 44843, 44597, 43949, 44026, 43850, 42965, 43130, 42207, 41456, 41639, 41977, 42848, 43128, 40891, 41269, 41775, 42148, 41383, 40571, 40598, 41648, 41429, 41894, 41983, 40988],
      "WindowCenter": [10537.0, 10488.0, 10457.0, 10437.0, 10419.0, 10440.0, 10474.0, 10471.0, 10449.0, 10441.0, 10439.0, 10455.0, 10466.0, 10458.0, 10440.0, 10423.0, 10430.0, 10460.0, 10465.0, 10455.0, 10433.0, 10425.0, 10436.0, 10467.0, 10456.0, 10434.0, 10431.0, 10435.0, 10458.0, 10461.0, 10443.0, 10446.0, 10467.0, 10478.0, 10460.0, 10446.0, 10464.0, 10500.0, 10499.0, 10478.0, 10451.0, 10450.0, 10456.0, 10489.0, 10489.0, 10479.0, 10457.0, 10457.0, 10475.0, 10483.0, 10488.0, 10491.0, 10481.0, 10475.0, 10469.0, 10454.0, 10477.0, 10497.0, 10499.0, 10488.0, 10475.0, 10494.0, 10509.0, 10495.0, 10476.0, 10460.0, 10456.0, 10477.0, 10507.0, 10494.0, 10489.0, 10479.0, 10467.0, 10473.0, 10486.0, 10510.0, 10507.0, 10497.0, 10481.0, 10480.0, 10483.0, 10502.0, 10518.0, 10527.0, 10522.0, 10502.0, 10474.0, 10471.0, 10489.0, 10506.0, 10533.0, 10521.0, 10525.0, 10521.0, 10498.0, 10488.0, 10485.0, 10515.0, 10507.0, 10498.0, 10494.0, 10482.0, 10499.0, 10505.0, 10496.0, 10484.0, 10490.0, 10511.0, 10514.0, 10504.0, 10505.0, 10522.0, 10522.0, 10508.0, 10491.0, 10514.0, 10518.0, 10510.0, 10515.0, 10524.0, 10519.0, 10505.0, 10505.0, 10516.0, 10529.0, 10533.0, 10519.0, 10513.0, 10505.0, 10492.0, 10512.0, 10521.0, 10544.0, 10547.0, 10520.0, 10516.0, 10501.0, 10510.0, 10537.0, 10562.0, 10565.0, 10533.0, 10533.0, 10507.0, 10506.0, 10504.0, 10494.0, 10486.0, 10496.0, 10537.0, 10526.0, 10513.0, 10494.0, 10497.0, 10499.0, 10493.0, 10497.0, 10515.0, 10499.0, 10485.0, 10491.0, 10511.0, 10501.0, 10496.0, 10486.0, 10497.0, 10506.0, 10497.0, 10500.0, 10512.0, 10503.0, 10502.0, 10499.0, 10486.0, 10485.0, 10491.0, 10503.0, 10512.0, 10508.0, 10507.0, 10502.0, 10509.0, 10499.0, 10484.0, 10490.0, 10488.0, 10480.0, 10474.0, 10490.0, 10491.0],
      "WindowWidth": [22398.0, 22274.0, 22193.0, 22139.0, 22103.0, 22142.0, 22221.0, 22212.0, 22164.0, 22148.0, 22142.0, 22175.0, 22203.0, 22183.0, 22141.0, 22110.0, 22118.0, 22189.0, 22202.0, 22176.0, 22126.0, 22112.0, 22132.0, 22203.0, 22181.0, 22130.0, 22122.0, 22127.0, 22182.0, 22188.0, 22151.0, 22146.0, 22196.0, 22222.0, 22184.0, 22155.0, 22194.0, 22271.0, 22273.0, 22230.0, 22163.0, 22155.0, 22168.0, 22238.0, 22242.0, 22216.0, 22168.0, 22165.0, 22210.0, 22234.0, 22246.0, 22246.0, 22229.0, 22219.0, 22196.0, 22163.0, 22213.0, 22266.0, 22267.0, 22247.0, 22218.0, 22264.0, 22298.0, 22262.0, 22215.0, 22180.0, 22167.0, 22215.0, 22283.0, 22260.0, 22243.0, 22223.0, 22199.0, 22212.0, 22238.0, 22295.0, 22286.0, 22258.0, 22227.0, 22219.0, 22229.0, 22279.0, 22317.0, 22333.0, 22325.0, 22273.0, 22211.0, 22200.0, 22247.0, 22292.0, 22361.0, 22328.0, 22331.0, 22321.0, 22268.0, 22243.0, 22237.0, 22305.0, 22287.0, 22263.0, 22254.0, 22222.0, 22258.0, 22279.0, 22256.0, 22232.0, 22240.0, 22292.0, 22300.0, 22280.0, 22276.0, 22321.0, 22317.0, 22287.0, 22248.0, 22299.0, 22314.0, 22293.0, 22297.0, 22320.0, 22309.0, 22278.0, 22267.0, 22291.0, 22323.0, 22337.0, 22303.0, 22288.0, 22269.0, 22244.0, 22287.0, 22313.0, 22367.0, 22375.0, 22315.0, 22308.0, 22272.0, 22285.0, 22347.0, 22410.0, 22413.0, 22346.0, 22342.0, 22284.0, 22272.0, 22268.0, 22243.0, 22224.0, 22245.0, 22339.0, 22322.0, 22292.0, 22244.0, 22251.0, 22256.0, 22243.0, 22250.0, 22288.0, 22258.0, 22228.0, 22236.0, 22285.0, 22263.0, 22245.0, 22223.0, 22254.0, 22273.0, 22257.0, 22260.0, 22291.0, 22270.0, 22267.0, 22268.0, 22235.0, 22236.0, 22248.0, 22273.0, 22295.0, 22293.0, 22287.0, 22273.0, 22290.0, 22267.0, 22234.0, 22244.0, 22239.0, 22223.0, 22206.0, 22246.0, 22255.0]
    },
    "slices": {}
  }
}