{
  "AcquisitionMatrixPE": 104,
  "AcquisitionNumber": 1,
  "AcquisitionTime": "09:40:54.390000",
  "BandwidthPerPixelPhaseEncode": 17.17,
  "BaseResolution": 104,
  "BodyPartExamined": "BRAIN",
  "CoilString": "HC1-7;NC1_2",
  "ConsistencyInfo": "N4_VE11C_LATEST_20160120",
  "ConversionSoftware": "dcm2niix",
  "ConversionSoftwareVersion": "v1.0.20190902",
  "DerivedVendorReportedEchoSpacing": 0.000560011,
  "DeviceSerialNumber": "167006",
  "DwellTime": 2.1e-06,
  "EchoTime": 0.037,
  "EchoTrainLength": 104,
  "EffectiveEchoSpacing": 0.000560011,
  "FlipAngle": 52,
  "ImageComments": "Unaliased_MB4_PE3_LB",
  "ImageOrientationPatientDICOM": [0.997062, 0.0752924, 0.0140701, -0.0644771, 0.924189, -0.376454],
  "ImageType": [
    "ORIGINAL",
    "PRIMARY",
    "M",
    "MB",
    "ND",
    "MOSAIC"
],
  "ImagingFrequency": 123.259,
  "InPlanePhaseEncodingDirectionDICOM": "COL",
  "InstitutionAddress": "Chemin_Queen-Mary_4565_Montreal_District_CA_H3W_1W5",
  "InstitutionName": "IUGM",
  "InstitutionalDepartmentName": "Department",
  "MRAcquisitionType": "2D",
  "MagneticFieldStrength": 3,
  "Manufacturer": "Siemens",
  "ManufacturersModelName": "Prisma_fit",
  "Modality": "MR",
  "MultibandAccelerationFactor": 4,
  "PartialFourier": 1,
  "PatientPosition": "HFS",
  "PercentPhaseFOV": 100,
  "PhaseEncodingDirection": "j",
  "PhaseEncodingSteps": 104,
  "PhaseResolution": 1,
  "PixelBandwidth": 2290,
  "ProcedureStepDescription": "memory_things",
  "ProtocolName": "func_task-things_run-2",
  "PulseSequenceDetails": "%CustomerSeq%_cmrr_mbep2d_bold",
  "ReceiveCoilActiveElements": "HC1-7;NC1,2",
  "ReceiveCoilName": "HeadNeck_64",
  "ReconMatrixPE": 104,
  "RepetitionTime": 1.49,
  "SAR": 0.0703931,
  "ScanOptions": "FS",
  "ScanningSequence": "EP",
  "SequenceName": "epfid2d1_104",
  "SequenceVariant": "SK_SS",
  "SeriesDescription": "func_task-things_run-2",
  "SeriesNumber": 13,
  "ShimSetting": [630, -7166, -8826, 644, 69, 67, -5, -16],
  "SliceThickness": 2,
  "SliceTiming": [0, 0.7825, 0.0975, 0.88, 0.195, 0.98, 0.2925, 1.0775, 0.39, 1.175, 0.49, 1.2725, 0.5875, 1.37, 0.685, 0, 0.7825, 0.0975, 0.88, 0.195, 0.98, 0.2925, 1.0775, 0.39, 1.175, 0.49, 1.2725, 0.5875, 1.37, 0.685, 0, 0.7825, 0.0975, 0.88, 0.195, 0.98, 0.2925, 1.0775, 0.39, 1.175, 0.49, 1.2725, 0.5875, 1.37, 0.685, 0, 0.7825, 0.0975, 0.88, 0.195, 0.98, 0.2925, 1.0775, 0.39, 1.175, 0.49, 1.2725, 0.5875, 1.37, 0.685],
  "SoftwareVersions": "syngo_MR_E11",
  "SpacingBetweenSlices": 2,
  "StationName": "MRC35049",
  "TaskName": "things",
  "TotalReadoutTime": 0.0576811,
  "TxRefAmp": 318.658,
  "WipMemBlock": "aa54bc0c-6aaf-494e-adf2-05def27e217a||Sequence: R016 ve11c/master r/e634e98; Dec 19 2017 11:00:25 by eja",
  "dcmmeta_affine": [
    [-1.994124412536621, -0.12895427644252777, 0.08269502967596054, 110.07636260986328],
    [-0.150584876537323, 1.84837806224823, -0.7488810420036316, -50.48517990112305],
    [0.02814013697206974, 0.7529072761535645, 1.8526571989059448, -65.42398834228516],
    [0.0, 0.0, 0.0, 1.0]
],
  "dcmmeta_reorient_transform": [
    [0.0, -1.0, 0.0, 103.0],
    [1.0, 0.0, 0.0, 0.0],
    [0.0, 0.0, 1.0, 0.0],
    [0.0, 0.0, 0.0, 1.0]
],
  "dcmmeta_shape": [104, 104, 60, 190],
  "dcmmeta_slice_dim": 2,
  "dcmmeta_version": 0.6,
  "global": {
    "const": {
      "AcquisitionMatrix": [104, 0, 0, 104],
      "AngioFlag": "N",
      "BitsAllocated": 16,
      "BitsStored": 16,
      "BodyPartExamined": "BRAIN",
      "Columns": 832,
      "EchoNumbers": 1,
      "EchoTime": 37.0,
      "EchoTrainLength": 104,
      "FlipAngle": 52.0,
      "HighBit": 15,
      "ImageOrientationPatient": [0.99706222573144, 0.07529243786834, 0.01407006820573, -0.0644771353035, 0.92418902245023, -0.3764536489471],
      "ImagePositionPatient": [-775.7160193418, -867.52026184418, 275.94071356338],
      "ImageType": [
        "ORIGINAL",
        "PRIMARY",
        "M",
        "MB",
        "ND",
        "MOSAIC"
],
      "ImagedNucleus": "1H",
      "ImagingFrequency": 123.258963,
      "InPlanePhaseEncodingDirection": "COL",
      "MRAcquisitionType": "2D",
      "MagneticFieldStrength": 3.0,
      "Manufacturer": "SIEMENS",
      "ManufacturerModelName": "Prisma_fit",
      "Modality": "MR",
      "NumberOfAverages": 1.0,
      "NumberOfPhaseEncodingSteps": 104,
      "PercentPhaseFieldOfView": 100.0,
      "PercentSampling": 100.0,
      "PerformedProcedureStepStartTime": "085339.932000",
      "PhotometricInterpretation": "MONOCHROME2",
      "PixelBandwidth": 2290.0,
      "PixelRepresentation": 0,
      "PixelSpacing": [2.0, 2.0],
      "ProtocolName": "func_task-things_run-2",
      "RepetitionTime": 1490.0,
      "Rows": 832,
      "SAR": 0.07039310903706,
      "SamplesPerPixel": 1,
      "ScanOptions": "FS",
      "ScanningSequence": "EP",
      "SequenceName": "epfid2d1_104",
      "SequenceVariant": [
        "SK",
        "SS"
],
      "SeriesDescription": "func_task-things_run-2",
      "SeriesNumber": 13,
      "SeriesTime": "094215.686000",
      "SliceLocation": -37.149027700968,
      "SliceThickness": 2.0,
      "SmallestImagePixelValue": 0,
      "SoftwareVersions": "syngo MR E11",
      "SpacingBetweenSlices": 1.9999999525045,
      "SpecificCharacterSet": "ISO_IR 100",
      "StudyID": "1",
      "StudyTime": "085339.804000",
      "TransmitCoilName": "Body",
      "VariableFlipAngleFlag": "N",
      "WindowCenterWidthExplanation": "Algo1",
      "dBdt": 0.0},
    "slices": {}
  },
  "time": {
    "samples": {
      "AcquisitionNumber": [1, 2, 3, 4, 5, 6, 7, 8, 9, 10, 11, 12, 13, 14, 15, 16, 17, 18, 19, 20, 21, 22, 23, 24, 25, 26, 27, 28, 29, 30, 31, 32, 33, 34, 35, 36, 37, 38, 39, 40, 41, 42, 43, 44, 45, 46, 47, 48, 49, 50, 51, 52, 53, 54, 55, 56, 57, 58, 59, 60, 61, 62, 63, 64, 65, 66, 67, 68, 69, 70, 71, 72, 73, 74, 75, 76, 77, 78, 79, 80, 81, 82, 83, 84, 85, 86, 87, 88, 89, 90, 91, 92, 93, 94, 95, 96, 97, 98, 99, 100, 101, 102, 103, 104, 105, 106, 107, 108, 109, 110, 111, 112, 113, 114, 115, 116, 117, 118, 119, 120, 121, 122, 123, 124, 125, 126, 127, 128, 129, 130, 131, 132, 133, 134, 135, 136, 137, 138, 139, 140, 141, 142, 143, 144, 145, 146, 147, 148, 149, 150, 151, 152, 153, 154, 155, 156, 157, 158, 159, 160, 161, 162, 163, 164, 165, 166, 167, 168, 169, 170, 171, 172, 173, 174, 175, 176, 177, 178, 179, 180, 181, 182, 183, 184, 185, 186, 187, 188, 189, 190],
      "AcquisitionTime": ["094054.390000", "094055.880000", "094057.370000", "094058.860000", "094100.350000", "094101.840000", "094103.330000", "094104.820000", "094106.310000", "094107.800000", "094109.290000", "094110.780000", "094112.270000", "094113.760000", "094115.250000", "094116.740000", "094118.230000", "094119.720000", "094121.210000", "094122.700000", "094124.190000", "094125.680000", "094127.170000", "094128.660000", "094130.150000", "094131.640000", "094133.130000", "094134.620000", "094136.110000", "094137.600000", "094139.090000", "094140.580000", "094142.070000", "094143.560000", "094145.050000", "094146.540000", "094148.030000", "094149.520000", "094151.010000", "094152.500000", "094153.990000", "094155.480000", "094156.970000", "094158.460000", "094159.950000", "094201.440000", "094202.930000", "094204.420000", "094205.910000", "094207.400000", "094208.890000", "094210.380000", "094211.870000", "094213.360000", "094214.850000", "094216.340000", "094217.830000", "094219.320000", "094220.810000", "094222.300000", "094223.790000", "094225.280000", "094226.770000", "094228.260000", "094229.750000", "094231.240000", "094232.730000", "094234.220000", "094235.710000", "094237.200000", "094238.690000", "094240.180000", "094241.670000", "094243.160000", "094244.650000", "094246.140000", "094247.630000", "094249.120000", "094250.610000", "094252.100000", "094253.590000", "094255.080000", "094256.570000", "094258.060000", "094259.550000", "094301.040000", "094302.530000", "094304.020000", "094305.510000", "094307.000000", "094308.490000", "094309.980000", "094311.470000", "094312.960000", "094314.450000", "094315.940000", "094317.430000", "094318.920000", "094320.410000", "094321.900000", "094323.390000", "094324.880000", "094326.370000", "094327.860000", "094329.350000", "094330.840000", "094332.330000", "094333.820000", "094335.310000", "094336.800000", "094338.290000", "094339.780000", "094341.270000", "094342.760000", "094344.250000", "094345.740000", "094347.230000", "094348.720000", "094350.210000", "094351.700000", "094353.190000", "094354.680000", "094356.170000", "094357.660000", "094359.150000", "094400.640000", "094402.130000", "094403.620000", "094405.110000", "094406.600000", "094408.090000", "094409.580000", "094411.070000", "094412.560000", "094414.050000", "094415.540000", "094417.030000", "094418.520000", "094420.010000", "094421.500000", "094422.990000", "094424.480000", "094425.970000", "094427.460000", "094428.950000", "094430.440000", "094431.930000", "094433.420000", "094434.910000", "094436.400000", "094437.890000", "094439.380000", "094440.870000", "094442.360000", "094443.850000", "094445.340000", "094446.830000", "094448.320000", "094449.810000", "094451.300000", "094452.790000", "094454.280000", "094455.770000", "094457.260000", "094458.750000", "094500.240000", "094501.730000", "094503.220000", "094504.710000", "094506.200000", "094507.690000", "094509.180000", "094510.670000", "094512.160000", "094513.650000", "094515.140000", "094516.630000", "094518.120000", "094519.610000", "094521.100000", "094522.590000", "094524.080000", "094525.570000", "094527.060000", "094528.550000", "094530.040000", "094531.530000", "094533.020000", "094534.510000", "094536.000000"],
      "ContentTime": ["094215.689000", "094215.693000", "094215.696000", "094215.700000", "094215.703000", "094215.706000", "094215.710000", "094215.713000", "094215.717000", "094215.720000", "094215.723000", "094215.727000", "094215.730000", "094215.733000", "094215.737000", "094215.740000", "094215.743000", "094215.747000", "094215.750000", "094215.754000", "094215.757000", "094215.760000", "094215.764000", "094215.767000", "094215.771000", "094215.774000", "094235.654000", "094235.659000", "094235.663000", "094235.667000", "094235.671000", "094235.674000", "094235.678000", "094235.682000", "094235.685000", "094235.689000", "094235.692000", "094235.696000", "094235.699000", "094235.702000", "094235.706000", "094235.709000", "094235.713000", "094235.716000", "094235.719000", "094235.723000", "094255.653000", "094255.657000", "094255.660000", "094255.664000", "094255.667000", "094255.670000", "094255.674000", "094255.677000", "094255.680000", "094255.684000", "094255.687000", "094255.691000", "094255.694000", "094255.697000", "094255.701000", "094255.705000", "094255.708000", "094255.712000", "094255.715000", "094255.719000", "094255.722000", "094315.653000", "094315.657000", "094315.660000", "094315.664000", "094315.667000", "094315.671000", "094315.674000", "094315.677000", "094315.681000", "094315.684000", "094315.688000", "094315.691000", "094315.694000", "094315.698000", "094315.701000", "094315.704000", "094315.708000", "094315.711000", "094315.715000", "094315.718000", "094335.653000", "094335.657000", "094335.660000", "094335.664000", "094335.667000", "094335.671000", "094335.674000", "094335.677000", "094335.681000", "094335.684000", "094335.688000", "094335.691000", "094335.694000", "094335.698000", "094335.701000", "094335.705000", "094335.708000", "094335.711000", "094335.715000", "094335.718000", "094415.652000", "094415.656000", "094415.659000", "094415.663000", "094415.666000", "094415.670000", "094415.673000", "094415.676000", "094415.680000", "094415.683000", "094415.687000", "094415.690000", "094415.693000", "094415.697000", "094415.700000", "094415.704000", "094415.707000", "094415.710000", "094415.714000", "094415.717000", "094415.721000", "094415.724000", "094415.728000", "094415.731000", "094415.735000", "094415.744000", "094415.747000", "094455.653000", "094455.657000", "094455.660000", "094455.664000", "094455.667000", "094455.671000", "094455.674000", "094455.677000", "094455.681000", "094455.701000", "094455.704000", "094455.708000", "094455.711000", "094455.714000", "094455.718000", "094455.721000", "094455.725000", "094455.728000", "094455.731000", "094455.735000", "094455.738000", "094455.741000", "094455.745000", "094455.748000", "094455.752000", "094455.755000", "094455.758000", "094535.653000", "094535.657000", "094535.660000", "094535.664000", "094535.667000", "094535.671000", "094535.674000", "094535.678000", "094535.681000", "094535.684000", "094535.688000", "094535.691000", "094535.694000", "094535.698000", "094535.701000", "094535.705000", "094535.708000", "094535.712000", "094535.715000", "094535.718000", "094535.722000", "094535.725000", "094535.728000", "094535.732000", "094535.735000", "094535.739000", "094535.742000", "094538.305000", "094538.308000"],
      "InstanceCreationTime": ["094215.689000", "094215.693000", "094215.696000", "094215.700000", "094215.703000", "094215.706000", "094215.710000", "094215.713000", "094215.717000", "094215.720000", "094215.723000", "094215.727000", "094215.730000", "094215.733000", "094215.737000", "094215.740000", "094215.743000", "094215.747000", "094215.750000", "094215.754000", "094215.757000", "094215.760000", "094215.764000", "094215.767000", "094215.771000", "094215.774000", "094235.654000", "094235.659000", "094235.663000", "094235.667000", "094235.671000", "094235.674000", "094235.678000", "094235.682000", "094235.685000", "094235.689000", "094235.692000", "094235.696000", "094235.699000", "094235.702000", "094235.706000", "094235.709000", "094235.713000", "094235.716000", "094235.719000", "094235.723000", "094255.653000", "094255.657000", "094255.660000", "094255.664000", "094255.667000", "094255.670000", "094255.674000", "094255.677000", "094255.680000", "094255.684000", "094255.687000", "094255.691000", "094255.694000", "094255.697000", "094255.701000", "094255.705000", "094255.708000", "094255.712000", "094255.715000", "094255.719000", "094255.722000", "094315.653000", "094315.657000", "094315.660000", "094315.664000", "094315.667000", "094315.671000", "094315.674000", "094315.677000", "094315.681000", "094315.684000", "094315.688000", "094315.691000", "094315.694000", "094315.698000", "094315.701000", "094315.704000", "094315.708000", "094315.711000", "094315.715000", "094315.718000", "094335.653000", "094335.657000", "094335.660000", "094335.664000", "094335.667000", "094335.671000", "094335.674000", "094335.677000", "094335.681000", "094335.684000", "094335.688000", "094335.691000", "094335.694000", "094335.698000", "094335.701000", "094335.705000", "094335.708000", "094335.711000", "094335.715000", "094335.718000", "094415.652000", "094415.656000", "094415.659000", "094415.663000", "094415.666000", "094415.670000", "094415.673000", "094415.676000", "094415.680000", "094415.683000", "094415.687000", "094415.690000", "094415.693000", "094415.697000", "094415.700000", "094415.704000", "094415.707000", "094415.710000", "094415.714000", "094415.717000", "094415.721000", "094415.724000", "094415.728000", "094415.731000", "094415.735000", "094415.744000", "094415.747000", "094455.653000", "094455.657000", "094455.660000", "094455.664000", "094455.667000", "094455.671000", "094455.674000", "094455.677000", "094455.681000", "094455.701000", "094455.704000", "094455.708000", "094455.711000", "094455.714000", "094455.718000", "094455.721000", "094455.725000", "094455.728000", "094455.731000", "094455.735000", "094455.738000", "094455.741000", "094455.745000", "094455.748000", "094455.752000", "094455.755000", "094455.758000", "094535.653000", "094535.657000", "094535.660000", "094535.664000", "094535.667000", "094535.671000", "094535.674000", "094535.678000", "094535.681000", "094535.684000", "094535.688000", "094535.691000", "094535.694000", "094535.698000", "094535.701000", "094535.705000", "094535.708000", "094535.712000", "094535.715000", "094535.718000", "094535.722000", "094535.725000", "094535.728000", "094535.732000", "094535.735000", "094535.739000", "094535.742000", "094538.305000", "094538.308000"],
      "InstanceNumber": [1, 2, 3, 4, 5, 6, 7, 8, 9, 10, 11, 12, 13, 14, 15, 16, 17, 18, 19, 20, 21, 22, 23, 24, 25, 26, 27, 28, 29, 30, 31, 32, 33, 34, 35, 36, 37, 38, 39, 40, 41, 42, 43, 44, 45, 46, 47, 48, 49, 50, 51, 52, 53, 54, 55, 56, 57, 58, 59, 60, 61, 62, 63, 64, 65, 66, 67, 68, 69, 70, 71, 72, 73, 74, 75, 76, 77, 78, 79, 80, 81, 82, 83, 84, 85, 86, 87, 88, 89, 90, 91, 92, 93, 94, 95, 96, 97, 98, 99, 100, 101, 102, 103, 104, 105, 106, 107, 108, 109, 110, 111, 112, 113, 114, 115, 116, 117, 118, 119, 120, 121, 122, 123, 124, 125, 126, 127, 128, 129, 130, 131, 132, 133, 134, 135, 136, 137, 138, 139, 140, 141, 142, 143, 144, 145, 146, 147, 148, 149, 150, 151, 152, 153, 154, 155, 156, 157, 158, 159, 160, 161, 162, 163, 164, 165, 166, 167, 168, 169, 170, 171, 172, 173, 174, 175, 176, 177, 178, 179, 180, 181, 182, 183, 184, 185, 186, 187, 188, 189, 190],
      "LargestImagePixelValue": [42081, 40731, 40130, 40427, 39716, 40358, 41339, 40589, 40278, 41052, 40703, 40478, 39989, 39726, 40528, 40873, 40672, 40176, 40291, 40268, 40453, 40661, 40031, 39538, 40504, 40069, 40060, 39837, 40345, 40297, 40691, 40907, 40492, 41584, 41556, 40885, 40450, 40803, 41912, 41227, 42003, 40652, 41502, 42139, 41592, 42078, 40580, 40941, 41977, 41883, 41617, 40658, 41312, 42331, 41222, 40897, 41396, 42409, 41809, 41451, 42087, 42316, 41761, 41622, 43496, 42089, 40560, 42047, 42628, 42040, 41706, 41397, 42814, 42425, 41499, 41989, 42394, 42593, 42080, 41612, 42422, 42308, 41867, 41462, 42657, 43041, 41967, 42585, 42892, 42368, 42653, 41362, 42729, 43472, 43577, 42809, 42275, 43312, 44045, 42704, 42555, 43520, 43703, 42867, 42755, 43369, 43269, 42978, 42426, 42583, 43792, 43504, 42800, 41320, 40285, 42605, 42777, 42570, 41890, 42231, 42521, 41816, 41854, 42729, 42615, 42205, 42250, 41803, 42335, 41409, 40913, 41212, 42106, 41125, 40871, 42109, 42813, 42444, 42512, 42219, 41711, 42437, 43076, 42424, 42134, 41371, 42164, 42116, 40945, 41270, 42341, 41753, 41089, 41770, 42094, 41516, 41220, 40622, 41071, 41855, 41820, 41598, 41578, 41382, 41110, 41011, 41123, 42174, 42080, 41044, 40759, 40420, 40682, 40337, 40230, 39749, 39670, 40125, 39944, 39940, 39562, 38533, 38100, 37944, 38733, 39003, 38370, 39344, 39340, 39002],
      "WindowCenter": [10500.0, 10461.0, 10447.0, 10459.0, 10455.0, 10451.0, 10450.0, 10445.0, 10445.0, 10477.0, 10485.0, 10476.0, 10463.0, 10454.0, 10474.0, 10471.0, 10455.0, 10453.0, 10463.0, 10481.0, 10477.0, 10468.0, 10462.0, 10462.0, 10485.0, 10481.0, 10470.0, 10462.0, 10459.0, 10477.0, 10486.0, 10481.0, 10466.0, 10474.0, 10483.0, 10481.0, 10476.0, 10486.0, 10494.0, 10479.0, 10480.0, 10465.0, 10483.0, 10509.0, 10504.0, 10494.0, 10476.0, 10475.0, 10498.0, 10498.0, 10485.0, 10480.0, 10469.0, 10489.0, 10479.0, 10471.0, 10467.0, 10486.0, 10491.0, 10475.0, 10475.0, 10477.0, 10479.0, 10473.0, 10495.0, 10495.0, 10473.0, 10478.0, 10493.0, 10481.0, 10476.0, 10477.0, 10509.0, 10504.0, 10486.0, 10474.0, 10479.0, 10487.0, 10498.0, 10485.0, 10507.0, 10503.0, 10487.0, 10476.0, 10476.0, 10489.0, 10482.0, 10487.0, 10500.0, 10498.0, 10480.0, 10468.0, 10483.0, 10509.0, 10517.0, 10496.0, 10474.0, 10473.0, 10490.0, 10468.0, 10467.0, 10488.0, 10506.0, 10494.0, 10483.0, 10487.0, 10497.0, 10484.0, 10485.0, 10476.0, 10494.0, 10489.0, 10467.0, 10451.0, 10454.0, 10492.0, 10497.0, 10482.0, 10467.0, 10461.0, 10469.0, 10475.0, 10469.0, 10463.0, 10464.0, 10455.0, 10454.0, 10474.0, 10483.0, 10475.0, 10467.0, 10449.0, 10456.0, 10472.0, 10484.0, 10495.0, 10506.0, 10500.0, 10485.0, 10470.0, 10470.0, 10490.0, 10509.0, 10503.0, 10488.0, 10471.0, 10466.0, 10483.0, 10469.0, 10474.0, 10471.0, 10473.0, 10466.0, 10468.0, 10481.0, 10480.0, 10473.0, 10459.0, 10450.0, 10484.0, 10493.0, 10481.0, 10464.0, 10470.0, 10467.0, 10465.0, 10484.0, 10495.0, 10488.0, 10468.0, 10451.0, 10445.0, 10465.0, 10480.0, 10472.0, 10452.0, 10450.0, 10444.0, 10470.0, 10491.0, 10479.0, 10461.0, 10437.0, 10441.0, 10462.0, 10472.0, 10462.0, 10456.0, 10450.0, 10446.0],
      "WindowWidth": [22309.0, 22211.0, 22173.0, 22194.0, 22183.0, 22167.0, 22157.0, 22148.0, 22151.0, 22224.0, 22246.0, 22224.0, 22196.0, 22177.0, 22224.0, 22212.0, 22171.0, 22167.0, 22194.0, 22234.0, 22227.0, 22207.0, 22194.0, 22194.0, 22249.0, 22241.0, 22214.0, 22197.0, 22189.0, 22236.0, 22253.0, 22231.0, 22197.0, 22215.0, 22237.0, 22238.0, 22230.0, 22248.0, 22266.0, 22230.0, 22225.0, 22199.0, 22239.0, 22297.0, 22287.0, 22264.0, 22224.0, 22218.0, 22273.0, 22270.0, 22243.0, 22234.0, 22207.0, 22250.0, 22233.0, 22213.0, 22199.0, 22238.0, 22254.0, 22211.0, 22211.0, 22218.0, 22223.0, 22211.0, 22253.0, 22261.0, 22217.0, 22222.0, 22256.0, 22232.0, 22225.0, 22228.0, 22293.0, 22283.0, 22244.0, 22216.0, 22229.0, 22245.0, 22277.0, 22246.0, 22296.0, 22287.0, 22247.0, 22221.0, 22220.0, 22247.0, 22234.0, 22244.0, 22274.0, 22268.0, 22225.0, 22203.0, 22229.0, 22290.0, 22309.0, 22260.0, 22211.0, 22205.0, 22242.0, 22197.0, 22191.0, 22240.0, 22280.0, 22254.0, 22230.0, 22236.0, 22262.0, 22230.0, 22233.0, 22211.0, 22252.0, 22241.0, 22192.0, 22163.0, 22174.0, 22255.0, 22267.0, 22230.0, 22201.0, 22182.0, 22204.0, 22216.0, 22201.0, 22184.0, 22193.0, 22168.0, 22162.0, 22212.0, 22233.0, 22219.0, 22200.0, 22157.0, 22169.0, 22213.0, 22241.0, 22261.0, 22285.0, 22271.0, 22239.0, 22206.0, 22209.0, 22252.0, 22297.0, 22282.0, 22251.0, 22208.0, 22197.0, 22236.0, 22212.0, 22218.0, 22210.0, 22218.0, 22200.0, 22202.0, 22228.0, 22228.0, 22214.0, 22182.0, 22161.0, 22237.0, 22258.0, 22232.0, 22193.0, 22209.0, 22203.0, 22198.0, 22244.0, 22266.0, 22247.0, 22205.0, 22166.0, 22160.0, 22199.0, 22235.0, 22213.0, 22177.0, 22166.0, 22154.0, 22217.0, 22266.0, 22239.0, 22202.0, 22150.0, 22156.0, 22197.0, 22223.0, 22203.0, 22183.0, 22170.0, 22165.0]
    },
    "slices": {}
  }
}