{
  "AcquisitionMatrixPE": 104,
  "AcquisitionNumber": 1,
  "AcquisitionTime": "18:18:51.222500",
  "BandwidthPerPixelPhaseEncode": 17.17,
  "BaseResolution": 104,
  "BodyPartExamined": "BRAIN",
  "CoilString": "HC1-7;NC1_2",
  "ConsistencyInfo": "N4_VE11C_LATEST_20160120",
  "ConversionSoftware": "dcm2niix",
  "ConversionSoftwareVersion": "v1.0.20190902",
  "DerivedVendorReportedEchoSpacing": 0.000560011,
  "DeviceSerialNumber": "167006",
  "DwellTime": 2.1e-06,
  "EchoTime": 0.037,
  "EchoTrainLength": 104,
  "EffectiveEchoSpacing": 0.000560011,
  "FlipAngle": 52,
  "ImageComments": "Unaliased_MB4_PE3_LB",
  "ImageOrientationPatientDICOM": [0.996669, 0.0625532, 0.0523167, -0.0332371, 0.897451, -0.43986],
  "ImageType": [
    "ORIGINAL",
    "PRIMARY",
    "P",
    "MB",
    "ND",
    "MOSAIC"
],
  "ImagingFrequency": 123.259,
  "InPlanePhaseEncodingDirectionDICOM": "COL",
  "InstitutionAddress": "Chemin_Queen-Mary_4565_Montreal_District_CA_H3W_1W5",
  "InstitutionName": "IUGM",
  "InstitutionalDepartmentName": "Department",
  "MRAcquisitionType": "2D",
  "MagneticFieldStrength": 3,
  "Manufacturer": "Siemens",
  "ManufacturersModelName": "Prisma_fit",
  "Modality": "MR",
  "MultibandAccelerationFactor": 4,
  "PartialFourier": 1,
  "PatientPosition": "HFS",
  "PercentPhaseFOV": 100,
  "PhaseEncodingDirection": "j",
  "PhaseEncodingSteps": 104,
  "PhaseResolution": 1,
  "PixelBandwidth": 2290,
  "ProcedureStepDescription": "memory_things",
  "ProtocolName": "func_task-things_run-6",
  "PulseSequenceDetails": "%CustomerSeq%_cmrr_mbep2d_bold",
  "ReceiveCoilActiveElements": "HC1-7;NC1,2",
  "ReceiveCoilName": "HeadNeck_64",
  "ReconMatrixPE": 104,
  "RepetitionTime": 1.49,
  "SAR": 0.0372094,
  "ScanOptions": "FS",
  "ScanningSequence": "EP",
  "SequenceName": "epfid2d1_104",
  "SequenceVariant": "SK_SS",
  "SeriesDescription": "func_task-things_run-6",
  "SeriesNumber": 26,
  "ShimSetting": [641, -7187, -8825, 600, 91, -6, -46, 3],
  "SliceThickness": 2,
  "SliceTiming": [0, 0.785, 0.0975, 0.8825, 0.1975, 0.98, 0.295, 1.0775, 0.3925, 1.1775, 0.49, 1.275, 0.5875, 1.3725, 0.6875, 0, 0.785, 0.0975, 0.8825, 0.1975, 0.98, 0.295, 1.0775, 0.3925, 1.1775, 0.49, 1.275, 0.5875, 1.3725, 0.6875, 0, 0.785, 0.0975, 0.8825, 0.1975, 0.98, 0.295, 1.0775, 0.3925, 1.1775, 0.49, 1.275, 0.5875, 1.3725, 0.6875, 0, 0.785, 0.0975, 0.8825, 0.1975, 0.98, 0.295, 1.0775, 0.3925, 1.1775, 0.49, 1.275, 0.5875, 1.3725, 0.6875],
  "SoftwareVersions": "syngo_MR_E11",
  "SpacingBetweenSlices": 2,
  "StationName": "MRC35049",
  "TaskName": "things",
  "TotalReadoutTime": 0.0576811,
  "TxRefAmp": 249.594,
  "WipMemBlock": "d8bc0f8b-1f02-410b-a4a9-0dc5a578bf5e||Sequence: R016 ve11c/master r/e634e98; Dec 19 2017 11:00:25 by eja",
  "dcmmeta_affine": [
    [-1.993338942527771, -0.06647421419620514, 0.1489325761795044, 106.43148040771484],
    [-0.12510636448860168, 1.7949020862579346, -0.8733125925064087, -47.87421417236328],
    [0.10463330149650574, 0.8797202110290527, 1.793082356452942, -72.94076538085938],
    [0.0, 0.0, 0.0, 1.0]
],
  "dcmmeta_reorient_transform": [
    [0.0, -1.0, 0.0, 103.0],
    [1.0, 0.0, 0.0, 0.0],
    [0.0, 0.0, 1.0, 0.0],
    [0.0, 0.0, 0.0, 1.0]
],
  "dcmmeta_shape": [104, 104, 60, 190],
  "dcmmeta_slice_dim": 2,
  "dcmmeta_version": 0.6,
  "global": {
    "const": {
      "AcquisitionMatrix": [104, 0, 0, 104],
      "AngioFlag": "N",
      "BitsAllocated": 16,
      "BitsStored": 16,
      "BodyPartExamined": "BRAIN",
      "Columns": 832,
      "EchoNumbers": 1,
      "EchoTime": 37.0,
      "EchoTrainLength": 104,
      "FlipAngle": 52.0,
      "HighBit": 15,
      "ImageOrientationPatient": [0.99666948768755, 0.06255317983251, 0.05231665132141, -0.0332371058491, 0.89745104895912, -0.4398601022109],
      "ImagePositionPatient": [-800.96341274299, -835.88378141616, 299.8020511797],
      "ImageType": [
        "ORIGINAL",
        "PRIMARY",
        "P",
        "MB",
        "ND",
        "MOSAIC"
],
      "ImagedNucleus": "1H",
      "ImagingFrequency": 123.258964,
      "InPlanePhaseEncodingDirection": "COL",
      "LargestImagePixelValue": 4095,
      "MRAcquisitionType": "2D",
      "MagneticFieldStrength": 3.0,
      "Manufacturer": "SIEMENS",
      "ManufacturerModelName": "Prisma_fit",
      "Modality": "MR",
      "NumberOfAverages": 1.0,
      "NumberOfPhaseEncodingSteps": 104,
      "PercentPhaseFieldOfView": 100.0,
      "PercentSampling": 100.0,
      "PerformedProcedureStepStartTime": "165302.487000",
      "PhotometricInterpretation": "MONOCHROME2",
      "PixelBandwidth": 2290.0,
      "PixelRepresentation": 0,
      "PixelSpacing": [2.0, 2.0],
      "ProtocolName": "func_task-things_run-6",
      "RepetitionTime": 1490.0,
      "RescaleIntercept": -4096.0,
      "RescaleSlope": 2.0,
      "RescaleType": "US",
      "Rows": 832,
      "SAR": 0.03720944334455,
      "SamplesPerPixel": 1,
      "ScanOptions": "FS",
      "ScanningSequence": "EP",
      "SequenceName": "epfid2d1_104",
      "SequenceVariant": [
        "SK",
        "SS"
],
      "SeriesDescription": "func_task-things_run-6",
      "SeriesNumber": 26,
      "SeriesTime": "182010.185000",
      "SliceLocation": -36.564262734541,
      "SliceThickness": 2.0,
      "SmallestImagePixelValue": 0,
      "SoftwareVersions": "syngo MR E11",
      "SpacingBetweenSlices": 2.0000000766485,
      "SpecificCharacterSet": "ISO_IR 100",
      "StudyID": "1",
      "StudyTime": "165302.425000",
      "TransmitCoilName": "Body",
      "VariableFlipAngleFlag": "N",
      "WindowCenterWidthExplanation": "Algo1",
      "dBdt": 0.0},
    "slices": {}
  },
  "time": {
    "samples": {
      "AcquisitionNumber": [1, 2, 3, 4, 5, 6, 7, 8, 9, 10, 11, 12, 13, 14, 15, 16, 17, 18, 19, 20, 21, 22, 23, 24, 25, 26, 27, 28, 29, 30, 31, 32, 33, 34, 35, 36, 37, 38, 39, 40, 41, 42, 43, 44, 45, 46, 47, 48, 49, 50, 51, 52, 53, 54, 55, 56, 57, 58, 59, 60, 61, 62, 63, 64, 65, 66, 67, 68, 69, 70, 71, 72, 73, 74, 75, 76, 77, 78, 79, 80, 81, 82, 83, 84, 85, 86, 87, 88, 89, 90, 91, 92, 93, 94, 95, 96, 97, 98, 99, 100, 101, 102, 103, 104, 105, 106, 107, 108, 109, 110, 111, 112, 113, 114, 115, 116, 117, 118, 119, 120, 121, 122, 123, 124, 125, 126, 127, 128, 129, 130, 131, 132, 133, 134, 135, 136, 137, 138, 139, 140, 141, 142, 143, 144, 145, 146, 147, 148, 149, 150, 151, 152, 153, 154, 155, 156, 157, 158, 159, 160, 161, 162, 163, 164, 165, 166, 167, 168, 169, 170, 171, 172, 173, 174, 175, 176, 177, 178, 179, 180, 181, 182, 183, 184, 185, 186, 187, 188, 189, 190],
      "AcquisitionTime": ["181851.222500", "181852.712500", "181854.202500", "181855.692500", "181857.182500", "181858.672500", "181900.162500", "181901.652500", "181903.142500", "181904.632500", "181906.122500", "181907.612500", "181909.102500", "181910.592500", "181912.082500", "181913.572500", "181915.062500", "181916.552500", "181918.042500", "181919.532500", "181921.022500", "181922.512500", "181924.002500", "181925.492500", "181926.982500", "181928.472500", "181929.962500", "181931.452500", "181932.942500", "181934.432500", "181935.922500", "181937.412500", "181938.902500", "181940.392500", "181941.882500", "181943.372500", "181944.862500", "181946.352500", "181947.842500", "181949.332500", "181950.822500", "181952.312500", "181953.802500", "181955.292500", "181956.782500", "181958.272500", "181959.762500", "182001.252500", "182002.742500", "182004.232500", "182005.722500", "182007.212500", "182008.702500", "182010.192500", "182011.682500", "182013.172500", "182014.662500", "182016.152500", "182017.642500", "182019.132500", "182020.622500", "182022.112500", "182023.602500", "182025.092500", "182026.582500", "182028.072500", "182029.562500", "182031.052500", "182032.542500", "182034.032500", "182035.522500", "182037.012500", "182038.502500", "182039.992500", "182041.482500", "182042.972500", "182044.462500", "182045.952500", "182047.442500", "182048.932500", "182050.422500", "182051.912500", "182053.402500", "182054.892500", "182056.382500", "182057.872500", "182059.362500", "182100.852500", "182102.342500", "182103.832500", "182105.322500", "182106.812500", "182108.302500", "182109.792500", "182111.282500", "182112.772500", "182114.262500", "182115.752500", "182117.242500", "182118.732500", "182120.222500", "182121.712500", "182123.202500", "182124.692500", "182126.182500", "182127.672500", "182129.162500", "182130.652500", "182132.142500", "182133.632500", "182135.122500", "182136.612500", "182138.102500", "182139.592500", "182141.082500", "182142.572500", "182144.062500", "182145.552500", "182147.042500", "182148.532500", "182150.022500", "182151.512500", "182153.002500", "182154.492500", "182155.982500", "182157.472500", "182158.962500", "182200.452500", "182201.942500", "182203.432500", "182204.922500", "182206.412500", "182207.902500", "182209.392500", "182210.882500", "182212.372500", "182213.862500", "182215.352500", "182216.842500", "182218.332500", "182219.822500", "182221.312500", "182222.802500", "182224.292500", "182225.782500", "182227.272500", "182228.762500", "182230.252500", "182231.742500", "182233.232500", "182234.722500", "182236.212500", "182237.702500", "182239.192500", "182240.682500", "182242.172500", "182243.662500", "182245.152500", "182246.642500", "182248.132500", "182249.622500", "182251.112500", "182252.602500", "182254.092500", "182255.582500", "182257.072500", "182258.562500", "182300.052500", "182301.542500", "182303.032500", "182304.522500", "182306.012500", "182307.502500", "182308.992500", "182310.482500", "182311.972500", "182313.462500", "182314.952500", "182316.442500", "182317.932500", "182319.422500", "182320.912500", "182322.402500", "182323.892500", "182325.382500", "182326.872500", "182328.362500", "182329.852500", "182331.342500", "182332.832500"],
      "ContentTime": ["182010.187000", "182010.190000", "182010.192000", "182010.195000", "182010.198000", "182010.200000", "182010.202000", "182010.205000", "182010.207000", "182010.210000", "182010.212000", "182010.215000", "182010.217000", "182010.220000", "182010.222000", "182010.225000", "182010.227000", "182010.229000", "182010.232000", "182010.234000", "182010.237000", "182010.239000", "182030.146000", "182030.148000", "182030.151000", "182030.153000", "182030.156000", "182030.158000", "182030.161000", "182030.163000", "182030.166000", "182030.168000", "182030.170000", "182030.173000", "182030.176000", "182030.178000", "182030.181000", "182030.184000", "182030.186000", "182030.189000", "182030.191000", "182030.194000", "182030.196000", "182050.116000", "182050.119000", "182050.121000", "182050.124000", "182050.126000", "182050.129000", "182050.131000", "182050.134000", "182050.136000", "182050.138000", "182050.141000", "182050.144000", "182050.146000", "182050.148000", "182050.151000", "182050.153000", "182050.156000", "182050.158000", "182050.161000", "182050.163000", "182110.115000", "182110.118000", "182110.120000", "182110.123000", "182110.125000", "182110.128000", "182110.131000", "182110.133000", "182110.135000", "182110.138000", "182110.140000", "182110.143000", "182110.145000", "182110.148000", "182110.151000", "182110.153000", "182110.155000", "182110.158000", "182110.160000", "182110.163000", "182130.125000", "182130.128000", "182130.131000", "182130.133000", "182130.136000", "182130.138000", "182130.141000", "182130.143000", "182130.146000", "182130.148000", "182130.151000", "182130.153000", "182130.156000", "182130.158000", "182130.161000", "182130.163000", "182130.166000", "182130.168000", "182130.171000", "182130.173000", "182210.174000", "182210.176000", "182210.179000", "182210.181000", "182210.184000", "182210.186000", "182210.189000", "182210.191000", "182210.194000", "182210.196000", "182210.199000", "182210.201000", "182210.204000", "182210.206000", "182210.209000", "182210.211000", "182210.214000", "182210.216000", "182210.219000", "182210.221000", "182210.224000", "182210.226000", "182210.229000", "182210.231000", "182210.234000", "182210.236000", "182210.239000", "182210.241000", "182210.244000", "182210.246000", "182250.147000", "182250.150000", "182250.152000", "182250.155000", "182250.157000", "182250.160000", "182250.162000", "182250.165000", "182250.167000", "182250.170000", "182250.172000", "182250.175000", "182250.177000", "182250.180000", "182250.182000", "182250.185000", "182250.187000", "182250.190000", "182250.192000", "182250.195000", "182250.197000", "182250.200000", "182250.202000", "182250.205000", "182250.207000", "182250.210000", "182330.144000", "182330.146000", "182330.149000", "182330.152000", "182330.154000", "182330.157000", "182330.159000", "182330.162000", "182330.164000", "182330.167000", "182330.169000", "182330.172000", "182330.174000", "182330.177000", "182330.179000", "182330.182000", "182330.184000", "182330.187000", "182330.189000", "182330.192000", "182330.194000", "182330.197000", "182330.199000", "182330.202000", "182330.204000", "182330.207000", "182330.209000", "182334.840000", "182334.843000", "182334.845000", "182334.848000"],
      "InstanceCreationTime": ["182010.187000", "182010.190000", "182010.192000", "182010.195000", "182010.198000", "182010.200000", "182010.202000", "182010.205000", "182010.207000", "182010.210000", "182010.212000", "182010.215000", "182010.217000", "182010.220000", "182010.222000", "182010.225000", "182010.227000", "182010.229000", "182010.232000", "182010.234000", "182010.237000", "182010.239000", "182030.146000", "182030.148000", "182030.151000", "182030.153000", "182030.156000", "182030.158000", "182030.161000", "182030.163000", "182030.166000", "182030.168000", "182030.170000", "182030.173000", "182030.176000", "182030.178000", "182030.181000", "182030.184000", "182030.186000", "182030.189000", "182030.191000", "182030.194000", "182030.196000", "182050.116000", "182050.119000", "182050.121000", "182050.124000", "182050.126000", "182050.129000", "182050.131000", "182050.134000", "182050.136000", "182050.138000", "182050.141000", "182050.144000", "182050.146000", "182050.148000", "182050.151000", "182050.153000", "182050.156000", "182050.158000", "182050.161000", "182050.163000", "182110.115000", "182110.118000", "182110.120000", "182110.123000", "182110.125000", "182110.128000", "182110.131000", "182110.133000", "182110.135000", "182110.138000", "182110.140000", "182110.143000", "182110.145000", "182110.148000", "182110.151000", "182110.153000", "182110.155000", "182110.158000", "182110.160000", "182110.163000", "182130.125000", "182130.128000", "182130.131000", "182130.133000", "182130.136000", "182130.138000", "182130.141000", "182130.143000", "182130.146000", "182130.148000", "182130.151000", "182130.153000", "182130.156000", "182130.158000", "182130.161000", "182130.163000", "182130.166000", "182130.168000", "182130.171000", "182130.173000", "182210.174000", "182210.176000", "182210.179000", "182210.181000", "182210.184000", "182210.186000", "182210.189000", "182210.191000", "182210.194000", "182210.196000", "182210.199000", "182210.201000", "182210.204000", "182210.206000", "182210.209000", "182210.211000", "182210.214000", "182210.216000", "182210.219000", "182210.221000", "182210.224000", "182210.226000", "182210.229000", "182210.231000", "182210.234000", "182210.236000", "182210.239000", "182210.241000", "182210.244000", "182210.246000", "182250.147000", "182250.150000", "182250.152000", "182250.155000", "182250.157000", "182250.160000", "182250.162000", "182250.165000", "182250.167000", "182250.170000", "182250.172000", "182250.175000", "182250.177000", "182250.180000", "182250.182000", "182250.185000", "182250.187000", "182250.190000", "182250.192000", "182250.195000", "182250.197000", "182250.200000", "182250.202000", "182250.205000", "182250.207000", "182250.210000", "182330.144000", "182330.146000", "182330.149000", "182330.152000", "182330.154000", "182330.157000", "182330.159000", "182330.162000", "182330.164000", "182330.167000", "182330.169000", "182330.172000", "182330.174000", "182330.177000", "182330.179000", "182330.182000", "182330.184000", "182330.187000", "182330.189000", "182330.192000", "182330.194000", "182330.197000", "182330.199000", "182330.202000", "182330.204000", "182330.207000", "182330.209000", "182334.840000", "182334.843000", "182334.845000", "182334.848000"],
      "InstanceNumber": [1, 2, 3, 4, 5, 6, 7, 8, 9, 10, 11, 12, 13, 14, 15, 16, 17, 18, 19, 20, 21, 22, 23, 24, 25, 26, 27, 28, 29, 30, 31, 32, 33, 34, 35, 36, 37, 38, 39, 40, 41, 42, 43, 44, 45, 46, 47, 48, 49, 50, 51, 52, 53, 54, 55, 56, 57, 58, 59, 60, 61, 62, 63, 64, 65, 66, 67, 68, 69, 70, 71, 72, 73, 74, 75, 76, 77, 78, 79, 80, 81, 82, 83, 84, 85, 86, 87, 88, 89, 90, 91, 92, 93, 94, 95, 96, 97, 98, 99, 100, 101, 102, 103, 104, 105, 106, 107, 108, 109, 110, 111, 112, 113, 114, 115, 116, 117, 118, 119, 120, 121, 122, 123, 124, 125, 126, 127, 128, 129, 130, 131, 132, 133, 134, 135, 136, 137, 138, 139, 140, 141, 142, 143, 144, 145, 146, 147, 148, 149, 150, 151, 152, 153, 154, 155, 156, 157, 158, 159, 160, 161, 162, 163, 164, 165, 166, 167, 168, 169, 170, 171, 172, 173, 174, 175, 176, 177, 178, 179, 180, 181, 182, 183, 184, 185, 186, 187, 188, 189, 190],
      "WindowCenter": [4824.0, 4828.0, 4848.0, 4824.0, 4818.0, 4818.0, 4818.0, 4824.0, 4824.0, 4824.0, 4822.0, 4822.0, 4818.0, 4820.0, 4822.0, 4822.0, 4824.0, 4820.0, 4816.0, 4820.0, 4822.0, 4850.0, 4848.0, 4820.0, 4822.0, 4818.0, 4818.0, 4822.0, 4826.0, 4848.0, 4822.0, 4816.0, 4814.0, 4824.0, 4824.0, 4850.0, 4850.0, 4850.0, 4822.0, 4818.0, 4818.0, 4816.0, 4822.0, 4822.0, 4848.0, 4850.0, 4826.0, 4794.0, 4818.0, 4816.0, 4822.0, 4820.0, 4822.0, 4822.0, 4820.0, 4820.0, 4818.0, 4824.0, 4850.0, 4852.0, 4850.0, 4828.0, 4818.0, 4814.0, 4812.0, 4818.0, 4820.0, 4848.0, 4848.0, 4826.0, 4818.0, 4816.0, 4818.0, 4818.0, 4818.0, 4822.0, 4820.0, 4820.0, 4816.0, 4818.0, 4820.0, 4850.0, 4852.0, 4826.0, 4816.0, 4816.0, 4812.0, 4814.0, 4818.0, 4824.0, 4852.0, 4872.0, 4870.0, 4850.0, 4822.0, 4816.0, 4810.0, 4810.0, 4822.0, 4826.0, 4848.0, 4820.0, 4818.0, 4818.0, 4816.0, 4794.0, 4820.0, 4824.0, 4822.0, 4820.0, 4820.0, 4820.0, 4826.0, 4852.0, 4856.0, 4850.0, 4850.0, 4820.0, 4812.0, 4810.0, 4818.0, 4822.0, 4824.0, 4824.0, 4824.0, 4820.0, 4818.0, 4820.0, 4820.0, 4816.0, 4818.0, 4816.0, 4818.0, 4822.0, 4850.0, 4828.0, 4822.0, 4824.0, 4818.0, 4822.0, 4826.0, 4850.0, 4850.0, 4824.0, 4820.0, 4814.0, 4816.0, 4822.0, 4824.0, 4824.0, 4826.0, 4822.0, 4820.0, 4822.0, 4820.0, 4818.0, 4816.0, 4818.0, 4822.0, 4826.0, 4824.0, 4822.0, 4818.0, 4818.0, 4820.0, 4820.0, 4854.0, 4850.0, 4822.0, 4816.0, 4816.0, 4816.0, 4812.0, 4824.0, 4854.0, 4852.0, 4824.0, 4814.0, 4814.0, 4824.0, 4848.0, 4852.0, 4824.0, 4816.0, 4820.0, 4820.0, 4822.0, 4826.0, 4852.0, 4824.0],
      "WindowWidth": [18586.0, 18588.0, 18614.0, 18584.0, 18592.0, 18608.0, 18596.0, 18588.0, 18580.0, 18588.0, 18582.0, 18586.0, 18588.0, 18592.0, 18594.0, 18590.0, 18586.0, 18586.0, 18588.0, 18588.0, 18586.0, 18628.0, 18616.0, 18584.0, 18598.0, 18598.0, 18596.0, 18592.0, 18584.0, 18618.0, 18584.0, 18578.0, 18576.0, 18582.0, 18584.0, 18618.0, 18620.0, 18614.0, 18590.0, 18596.0, 18606.0, 18608.0, 18598.0, 18580.0, 18628.0, 18628.0, 18586.0, 18548.0, 18592.0, 18600.0, 18600.0, 18590.0, 18582.0, 18590.0, 18590.0, 18598.0, 18586.0, 18586.0, 18630.0, 18632.0, 18622.0, 18588.0, 18598.0, 18608.0, 18610.0, 18600.0, 18582.0, 18620.0, 18622.0, 18586.0, 18582.0, 18592.0, 18598.0, 18602.0, 18588.0, 18580.0, 18586.0, 18586.0, 18582.0, 18588.0, 18586.0, 18616.0, 18624.0, 18588.0, 18594.0, 18604.0, 18610.0, 18606.0, 18588.0, 18592.0, 18638.0, 18676.0, 18664.0, 18618.0, 18588.0, 18610.0, 18608.0, 18610.0, 18598.0, 18584.0, 18622.0, 18586.0, 18578.0, 18582.0, 18588.0, 18554.0, 18584.0, 18582.0, 18588.0, 18600.0, 18604.0, 18590.0, 18590.0, 18630.0, 18630.0, 18622.0, 18618.0, 18600.0, 18608.0, 18612.0, 18602.0, 18582.0, 18588.0, 18582.0, 18584.0, 18582.0, 18578.0, 18582.0, 18586.0, 18584.0, 18600.0, 18606.0, 18592.0, 18580.0, 18622.0, 18588.0, 18582.0, 18582.0, 18584.0, 18584.0, 18586.0, 18618.0, 18622.0, 18588.0, 18598.0, 18596.0, 18600.0, 18594.0, 18582.0, 18590.0, 18588.0, 18584.0, 18580.0, 18582.0, 18582.0, 18600.0, 18596.0, 18596.0, 18586.0, 18582.0, 18588.0, 18586.0, 18582.0, 18592.0, 18590.0, 18588.0, 18628.0, 18622.0, 18584.0, 18602.0, 18604.0, 18602.0, 18588.0, 18584.0, 18634.0, 18624.0, 18580.0, 18588.0, 18588.0, 18588.0, 18624.0, 18624.0, 18588.0, 18598.0, 18602.0, 18604.0, 18586.0, 18590.0, 18626.0, 18584.0]
    },
    "slices": {}
  }
}