{
  "AcquisitionMatrixPE": 104,
  "AcquisitionNumber": 1,
  "AcquisitionTime": "17:51:2.925000",
  "BandwidthPerPixelPhaseEncode": 17.17,
  "BaseResolution": 104,
  "BodyPartExamined": "BRAIN",
  "CoilString": "HC1-7;NC1_2",
  "ConsistencyInfo": "N4_VE11C_LATEST_20160120",
  "ConversionSoftware": "dcm2niix",
  "ConversionSoftwareVersion": "v1.0.20190902",
  "DerivedVendorReportedEchoSpacing": 0.000560011,
  "DeviceSerialNumber": "167006",
  "DwellTime": 2.1e-06,
  "EchoTime": 0.037,
  "EchoTrainLength": 104,
  "EffectiveEchoSpacing": 0.000560011,
  "FlipAngle": 52,
  "ImageComments": "Unaliased_MB4_PE3_LB",
  "ImageOrientationPatientDICOM": [0.996669, 0.0625532, 0.0523167, -0.0332371, 0.897451, -0.43986],
  "ImageType": [
    "ORIGINAL",
    "PRIMARY",
    "M",
    "MB",
    "ND",
    "MOSAIC"
],
  "ImagingFrequency": 123.259,
  "InPlanePhaseEncodingDirectionDICOM": "COL",
  "InstitutionAddress": "Chemin_Queen-Mary_4565_Montreal_District_CA_H3W_1W5",
  "InstitutionName": "IUGM",
  "InstitutionalDepartmentName": "Department",
  "MRAcquisitionType": "2D",
  "MagneticFieldStrength": 3,
  "Manufacturer": "Siemens",
  "ManufacturersModelName": "Prisma_fit",
  "Modality": "MR",
  "MultibandAccelerationFactor": 4,
  "PartialFourier": 1,
  "PatientPosition": "HFS",
  "PercentPhaseFOV": 100,
  "PhaseEncodingDirection": "j",
  "PhaseEncodingSteps": 104,
  "PhaseResolution": 1,
  "PixelBandwidth": 2290,
  "ProcedureStepDescription": "memory_things",
  "ProtocolName": "func_task-things_run-2",
  "PulseSequenceDetails": "%CustomerSeq%_cmrr_mbep2d_bold",
  "ReceiveCoilActiveElements": "HC1-7;NC1,2",
  "ReceiveCoilName": "HeadNeck_64",
  "ReconMatrixPE": 104,
  "RepetitionTime": 1.49,
  "SAR": 0.0372094,
  "ScanOptions": "FS",
  "ScanningSequence": "EP",
  "SequenceName": "epfid2d1_104",
  "SequenceVariant": "SK_SS",
  "SeriesDescription": "func_task-things_run-2",
  "SeriesNumber": 13,
  "ShimSetting": [641, -7187, -8825, 600, 91, -6, -46, 3],
  "SliceThickness": 2,
  "SliceTiming": [0, 0.785, 0.0975, 0.8825, 0.1975, 0.98, 0.295, 1.0775, 0.3925, 1.1775, 0.49, 1.275, 0.5875, 1.3725, 0.6875, 0, 0.785, 0.0975, 0.8825, 0.1975, 0.98, 0.295, 1.0775, 0.3925, 1.1775, 0.49, 1.275, 0.5875, 1.3725, 0.6875, 0, 0.785, 0.0975, 0.8825, 0.1975, 0.98, 0.295, 1.0775, 0.3925, 1.1775, 0.49, 1.275, 0.5875, 1.3725, 0.6875, 0, 0.785, 0.0975, 0.8825, 0.1975, 0.98, 0.295, 1.0775, 0.3925, 1.1775, 0.49, 1.275, 0.5875, 1.3725, 0.6875],
  "SoftwareVersions": "syngo_MR_E11",
  "SpacingBetweenSlices": 2,
  "StationName": "MRC35049",
  "TaskName": "things",
  "TotalReadoutTime": 0.0576811,
  "TxRefAmp": 249.594,
  "WipMemBlock": "7bcc3ada-5a16-4aea-8a0b-b5bf8f1d9648||Sequence: R016 ve11c/master r/e634e98; Dec 19 2017 11:00:25 by eja",
  "dcmmeta_affine": [
    [-1.993338942527771, -0.06647421419620514, 0.1489325761795044, 106.43148040771484],
    [-0.12510636448860168, 1.7949020862579346, -0.8733125925064087, -47.87421417236328],
    [0.10463330149650574, 0.8797202110290527, 1.793082356452942, -72.94076538085938],
    [0.0, 0.0, 0.0, 1.0]
],
  "dcmmeta_reorient_transform": [
    [0.0, -1.0, 0.0, 103.0],
    [1.0, 0.0, 0.0, 0.0],
    [0.0, 0.0, 1.0, 0.0],
    [0.0, 0.0, 0.0, 1.0]
],
  "dcmmeta_shape": [104, 104, 60, 190],
  "dcmmeta_slice_dim": 2,
  "dcmmeta_version": 0.6,
  "global": {
    "const": {
      "AcquisitionMatrix": [104, 0, 0, 104],
      "AngioFlag": "N",
      "BitsAllocated": 16,
      "BitsStored": 16,
      "BodyPartExamined": "BRAIN",
      "Columns": 832,
      "EchoNumbers": 1,
      "EchoTime": 37.0,
      "EchoTrainLength": 104,
      "FlipAngle": 52.0,
      "HighBit": 15,
      "ImageOrientationPatient": [0.99666948768755, 0.06255317983251, 0.05231665132141, -0.0332371058491, 0.89745104895912, -0.4398601022109],
      "ImagePositionPatient": [-800.96341274299, -835.88378141616, 299.8020511797],
      "ImageType": [
        "ORIGINAL",
        "PRIMARY",
        "M",
        "MB",
        "ND",
        "MOSAIC"
],
      "ImagedNucleus": "1H",
      "ImagingFrequency": 123.25895,
      "InPlanePhaseEncodingDirection": "COL",
      "MRAcquisitionType": "2D",
      "MagneticFieldStrength": 3.0,
      "Manufacturer": "SIEMENS",
      "ManufacturerModelName": "Prisma_fit",
      "Modality": "MR",
      "NumberOfAverages": 1.0,
      "NumberOfPhaseEncodingSteps": 104,
      "PercentPhaseFieldOfView": 100.0,
      "PercentSampling": 100.0,
      "PerformedProcedureStepStartTime": "165302.487000",
      "PhotometricInterpretation": "MONOCHROME2",
      "PixelBandwidth": 2290.0,
      "PixelRepresentation": 0,
      "PixelSpacing": [2.0, 2.0],
      "ProtocolName": "func_task-things_run-2",
      "RepetitionTime": 1490.0,
      "Rows": 832,
      "SAR": 0.03720944334455,
      "SamplesPerPixel": 1,
      "ScanOptions": "FS",
      "ScanningSequence": "EP",
      "SequenceName": "epfid2d1_104",
      "SequenceVariant": [
        "SK",
        "SS"
],
      "SeriesDescription": "func_task-things_run-2",
      "SeriesNumber": 13,
      "SeriesTime": "175203.694000",
      "SliceLocation": -36.564262734541,
      "SliceThickness": 2.0,
      "SmallestImagePixelValue": 0,
      "SoftwareVersions": "syngo MR E11",
      "SpacingBetweenSlices": 2.0000000766485,
      "SpecificCharacterSet": "ISO_IR 100",
      "StudyID": "1",
      "StudyTime": "165302.425000",
      "TransmitCoilName": "Body",
      "VariableFlipAngleFlag": "N",
      "WindowCenterWidthExplanation": "Algo1",
      "dBdt": 0.0},
    "slices": {}
  },
  "time": {
    "samples": {
      "AcquisitionNumber": [1, 2, 3, 4, 5, 6, 7, 8, 9, 10, 11, 12, 13, 14, 15, 16, 17, 18, 19, 20, 21, 22, 23, 24, 25, 26, 27, 28, 29, 30, 31, 32, 33, 34, 35, 36, 37, 38, 39, 40, 41, 42, 43, 44, 45, 46, 47, 48, 49, 50, 51, 52, 53, 54, 55, 56, 57, 58, 59, 60, 61, 62, 63, 64, 65, 66, 67, 68, 69, 70, 71, 72, 73, 74, 75, 76, 77, 78, 79, 80, 81, 82, 83, 84, 85, 86, 87, 88, 89, 90, 91, 92, 93, 94, 95, 96, 97, 98, 99, 100, 101, 102, 103, 104, 105, 106, 107, 108, 109, 110, 111, 112, 113, 114, 115, 116, 117, 118, 119, 120, 121, 122, 123, 124, 125, 126, 127, 128, 129, 130, 131, 132, 133, 134, 135, 136, 137, 138, 139, 140, 141, 142, 143, 144, 145, 146, 147, 148, 149, 150, 151, 152, 153, 154, 155, 156, 157, 158, 159, 160, 161, 162, 163, 164, 165, 166, 167, 168, 169, 170, 171, 172, 173, 174, 175, 176, 177, 178, 179, 180, 181, 182, 183, 184, 185, 186, 187, 188, 189, 190],
      "AcquisitionTime": ["175102.925000", "175104.415000", "175105.905000", "175107.395000", "175108.885000", "175110.375000", "175111.865000", "175113.355000", "175114.845000", "175116.335000", "175117.825000", "175119.315000", "175120.805000", "175122.295000", "175123.785000", "175125.275000", "175126.765000", "175128.255000", "175129.745000", "175131.235000", "175132.725000", "175134.215000", "175135.705000", "175137.195000", "175138.685000", "175140.175000", "175141.665000", "175143.155000", "175144.645000", "175146.135000", "175147.625000", "175149.115000", "175150.605000", "175152.095000", "175153.585000", "175155.075000", "175156.565000", "175158.055000", "175159.545000", "175201.035000", "175202.525000", "175204.015000", "175205.505000", "175206.995000", "175208.485000", "175209.975000", "175211.465000", "175212.955000", "175214.445000", "175215.935000", "175217.425000", "175218.915000", "175220.405000", "175221.895000", "175223.385000", "175224.875000", "175226.365000", "175227.855000", "175229.345000", "175230.835000", "175232.325000", "175233.815000", "175235.305000", "175236.795000", "175238.285000", "175239.775000", "175241.265000", "175242.755000", "175244.245000", "175245.735000", "175247.225000", "175248.715000", "175250.205000", "175251.695000", "175253.185000", "175254.675000", "175256.165000", "175257.655000", "175259.145000", "175300.635000", "175302.125000", "175303.615000", "175305.105000", "175306.595000", "175308.085000", "175309.575000", "175311.065000", "175312.555000", "175314.045000", "175315.535000", "175317.025000", "175318.515000", "175320.005000", "175321.495000", "175322.985000", "175324.475000", "175325.965000", "175327.455000", "175328.945000", "175330.435000", "175331.925000", "175333.415000", "175334.905000", "175336.395000", "175337.885000", "175339.375000", "175340.865000", "175342.355000", "175343.845000", "175345.335000", "175346.825000", "175348.315000", "175349.805000", "175351.295000", "175352.785000", "175354.275000", "175355.765000", "175357.255000", "175358.745000", "175400.235000", "175401.725000", "175403.215000", "175404.705000", "175406.195000", "175407.685000", "175409.175000", "175410.665000", "175412.155000", "175413.645000", "175415.135000", "175416.625000", "175418.115000", "175419.605000", "175421.095000", "175422.585000", "175424.075000", "175425.565000", "175427.055000", "175428.545000", "175430.035000", "175431.525000", "175433.015000", "175434.505000", "175435.995000", "175437.485000", "175438.975000", "175440.465000", "175441.955000", "175443.445000", "175444.935000", "175446.425000", "175447.915000", "175449.405000", "175450.895000", "175452.385000", "175453.875000", "175455.365000", "175456.855000", "175458.345000", "175459.835000", "175501.325000", "175502.815000", "175504.305000", "175505.795000", "175507.285000", "175508.775000", "175510.265000", "175511.755000", "175513.245000", "175514.735000", "175516.225000", "175517.715000", "175519.205000", "175520.695000", "175522.185000", "175523.675000", "175525.165000", "175526.655000", "175528.145000", "175529.635000", "175531.125000", "175532.615000", "175534.105000", "175535.595000", "175537.085000", "175538.575000", "175540.065000", "175541.555000", "175543.045000", "175544.535000"],
      "ContentTime": ["175203.697000", "175203.701000", "175203.714000", "175203.717000", "175203.721000", "175203.724000", "175223.647000", "175223.651000", "175223.654000", "175223.657000", "175223.667000", "175223.670000", "175223.674000", "175223.677000", "175223.680000", "175223.684000", "175223.687000", "175223.690000", "175223.693000", "175223.697000", "175223.700000", "175223.703000", "175223.706000", "175223.710000", "175223.713000", "175223.716000", "175243.647000", "175243.651000", "175243.654000", "175243.657000", "175243.661000", "175243.664000", "175243.667000", "175243.670000", "175243.674000", "175243.677000", "175243.680000", "175243.683000", "175243.687000", "175243.690000", "175243.693000", "175243.701000", "175243.705000", "175243.708000", "175243.711000", "175243.715000", "175303.647000", "175303.650000", "175303.654000", "175303.657000", "175303.660000", "175303.664000", "175303.667000", "175303.670000", "175303.674000", "175303.678000", "175303.681000", "175303.684000", "175303.688000", "175303.691000", "175303.694000", "175303.698000", "175303.701000", "175303.704000", "175303.708000", "175303.711000", "175323.648000", "175323.652000", "175323.655000", "175323.658000", "175323.662000", "175323.665000", "175323.668000", "175323.672000", "175323.675000", "175323.678000", "175323.682000", "175323.685000", "175323.688000", "175323.691000", "175323.695000", "175323.698000", "175323.701000", "175323.705000", "175323.708000", "175323.711000", "175323.714000", "175343.648000", "175343.652000", "175343.655000", "175343.658000", "175343.662000", "175343.665000", "175343.668000", "175343.672000", "175343.675000", "175343.678000", "175343.681000", "175343.685000", "175343.688000", "175343.702000", "175343.705000", "175343.709000", "175343.712000", "175343.715000", "175343.718000", "175343.722000", "175423.647000", "175423.651000", "175423.664000", "175423.667000", "175423.670000", "175423.674000", "175423.677000", "175423.680000", "175423.684000", "175423.687000", "175423.690000", "175423.694000", "175423.697000", "175423.700000", "175423.704000", "175423.707000", "175423.711000", "175423.714000", "175423.717000", "175423.721000", "175423.724000", "175423.727000", "175423.731000", "175423.734000", "175423.737000", "175423.741000", "175423.744000", "175503.647000", "175503.651000", "175503.654000", "175503.657000", "175503.661000", "175503.664000", "175503.667000", "175503.671000", "175503.674000", "175503.678000", "175503.681000", "175503.684000", "175503.688000", "175503.691000", "175503.694000", "175503.697000", "175503.701000", "175503.704000", "175503.707000", "175503.710000", "175503.714000", "175503.717000", "175503.720000", "175503.724000", "175503.727000", "175503.730000", "175503.733000", "175543.648000", "175543.652000", "175543.655000", "175543.658000", "175543.662000", "175543.665000", "175543.669000", "175543.672000", "175543.675000", "175543.678000", "175543.682000", "175543.685000", "175543.688000", "175543.692000", "175543.695000", "175543.699000", "175543.702000", "175543.705000", "175543.708000", "175543.712000", "175543.715000", "175543.718000", "175543.722000", "175543.725000", "175543.728000", "175543.731000", "175543.735000", "175546.275000", "175546.279000"],
      "InstanceCreationTime": ["175203.697000", "175203.701000", "175203.714000", "175203.717000", "175203.721000", "175203.724000", "175223.647000", "175223.651000", "175223.654000", "175223.657000", "175223.667000", "175223.670000", "175223.674000", "175223.677000", "175223.680000", "175223.684000", "175223.687000", "175223.690000", "175223.693000", "175223.697000", "175223.700000", "175223.703000", "175223.706000", "175223.710000", "175223.713000", "175223.716000", "175243.647000", "175243.651000", "175243.654000", "175243.657000", "175243.661000", "175243.664000", "175243.667000", "175243.670000", "175243.674000", "175243.677000", "175243.680000", "175243.683000", "175243.687000", "175243.690000", "175243.693000", "175243.701000", "175243.705000", "175243.708000", "175243.711000", "175243.715000", "175303.647000", "175303.650000", "175303.654000", "175303.657000", "175303.660000", "175303.664000", "175303.667000", "175303.670000", "175303.674000", "175303.678000", "175303.681000", "175303.684000", "175303.688000", "175303.691000", "175303.694000", "175303.698000", "175303.701000", "175303.704000", "175303.708000", "175303.711000", "175323.648000", "175323.652000", "175323.655000", "175323.658000", "175323.662000", "175323.665000", "175323.668000", "175323.672000", "175323.675000", "175323.678000", "175323.682000", "175323.685000", "175323.688000", "175323.691000", "175323.695000", "175323.698000", "175323.701000", "175323.705000", "175323.708000", "175323.711000", "175323.714000", "175343.648000", "175343.652000", "175343.655000", "175343.658000", "175343.662000", "175343.665000", "175343.668000", "175343.672000", "175343.675000", "175343.678000", "175343.681000", "175343.685000", "175343.688000", "175343.702000", "175343.705000", "175343.709000", "175343.712000", "175343.715000", "175343.718000", "175343.722000", "175423.647000", "175423.651000", "175423.664000", "175423.667000", "175423.670000", "175423.674000", "175423.677000", "175423.680000", "175423.684000", "175423.687000", "175423.690000", "175423.694000", "175423.697000", "175423.700000", "175423.704000", "175423.707000", "175423.711000", "175423.714000", "175423.717000", "175423.721000", "175423.724000", "175423.727000", "175423.731000", "175423.734000", "175423.737000", "175423.741000", "175423.744000", "175503.647000", "175503.651000", "175503.654000", "175503.657000", "175503.661000", "175503.664000", "175503.667000", "175503.671000", "175503.674000", "175503.678000", "175503.681000", "175503.684000", "175503.688000", "175503.691000", "175503.694000", "175503.697000", "175503.701000", "175503.704000", "175503.707000", "175503.710000", "175503.714000", "175503.717000", "175503.720000", "175503.724000", "175503.727000", "175503.730000", "175503.733000", "175543.648000", "175543.652000", "175543.655000", "175543.658000", "175543.662000", "175543.665000", "175543.669000", "175543.672000", "175543.675000", "175543.678000", "175543.682000", "175543.685000", "175543.688000", "175543.692000", "175543.695000", "175543.699000", "175543.702000", "175543.705000", "175543.708000", "175543.712000", "175543.715000", "175543.718000", "175543.722000", "175543.725000", "175543.728000", "175543.731000", "175543.735000", "175546.275000", "175546.279000"],
      "InstanceNumber": [1, 2, 3, 4, 5, 6, 7, 8, 9, 10, 11, 12, 13, 14, 15, 16, 17, 18, 19, 20, 21, 22, 23, 24, 25, 26, 27, 28, 29, 30, 31, 32, 33, 34, 35, 36, 37, 38, 39, 40, 41, 42, 43, 44, 45, 46, 47, 48, 49, 50, 51, 52, 53, 54, 55, 56, 57, 58, 59, 60, 61, 62, 63, 64, 65, 66, 67, 68, 69, 70, 71, 72, 73, 74, 75, 76, 77, 78, 79, 80, 81, 82, 83, 84, 85, 86, 87, 88, 89, 90, 91, 92, 93, 94, 95, 96, 97, 98, 99, 100, 101, 102, 103, 104, 105, 106, 107, 108, 109, 110, 111, 112, 113, 114, 115, 116, 117, 118, 119, 120, 121, 122, 123, 124, 125, 126, 127, 128, 129, 130, 131, 132, 133, 134, 135, 136, 137, 138, 139, 140, 141, 142, 143, 144, 145, 146, 147, 148, 149, 150, 151, 152, 153, 154, 155, 156, 157, 158, 159, 160, 161, 162, 163, 164, 165, 166, 167, 168, 169, 170, 171, 172, 173, 174, 175, 176, 177, 178, 179, 180, 181, 182, 183, 184, 185, 186, 187, 188, 189, 190],
      "LargestImagePixelValue": [42771, 41544, 41876, 41864, 41737, 41508, 41634, 42213, 39733, 40355, 41144, 41554, 41943, 41810, 41252, 41878, 41613, 42005, 42210, 41210, 40933, 41348, 41683, 41617, 41949, 42367, 41532, 41971, 42352, 43166, 42709, 43179, 42721, 40923, 41774, 41880, 42766, 43133, 42599, 42233, 42349, 42066, 42517, 41914, 41722, 41308, 42025, 42369, 42299, 42169, 41810, 41881, 42159, 42233, 42179, 41536, 41831, 42052, 42623, 42472, 42528, 42188, 42909, 42141, 42154, 41338, 42065, 41564, 41288, 41454, 42115, 41484, 41997, 41553, 41920, 42574, 41171, 42082, 41550, 41568, 41034, 41582, 43476, 41851, 42093, 42067, 42621, 41058, 42138, 42087, 41774, 41635, 42052, 41718, 42681, 41747, 40953, 41917, 43003, 41530, 42350, 42197, 42434, 42349, 41904, 41930, 43388, 41894, 42492, 41853, 41841, 40796, 41193, 40042, 40923, 41279, 41397, 40736, 40092, 41252, 41754, 40956, 41413, 40887, 40603, 40555, 41527, 41143, 41799, 41299, 40120, 41533, 40340, 41268, 41170, 41395, 40041, 40185, 40564, 43799, 40202, 39493, 44298, 43081, 41761, 41220, 40474, 39767, 40127, 40649, 40241, 40952, 39795, 40284, 37763, 38777, 38954, 41365, 39291, 39595, 39478, 39966, 40107, 40185, 39652, 40212, 40294, 40148, 40196, 40350, 40171, 40141, 45531, 39807, 40268, 40317, 40596, 39974, 43487, 39800, 39826, 40045, 40517, 39839, 39848, 40011, 39979, 47597, 39869, 39551],
      "WindowCenter": [10473.0, 10424.0, 10400.0, 10381.0, 10371.0, 10371.0, 10382.0, 10413.0, 10395.0, 10388.0, 10380.0, 10371.0, 10383.0, 10391.0, 10384.0, 10382.0, 10374.0, 10378.0, 10370.0, 10354.0, 10356.0, 10363.0, 10362.0, 10362.0, 10384.0, 10394.0, 10403.0, 10413.0, 10427.0, 10424.0, 10412.0, 10437.0, 10436.0, 10402.0, 10388.0, 10382.0, 10395.0, 10404.0, 10416.0, 10430.0, 10414.0, 10410.0, 10408.0, 10389.0, 10381.0, 10375.0, 10388.0, 10379.0, 10377.0, 10378.0, 10379.0, 10389.0, 10402.0, 10395.0, 10408.0, 10400.0, 10414.0, 10413.0, 10415.0, 10407.0, 10413.0, 10420.0, 10436.0, 10415.0, 10406.0, 10399.0, 10414.0, 10419.0, 10425.0, 10409.0, 10419.0, 10407.0, 10398.0, 10395.0, 10412.0, 10425.0, 10402.0, 10399.0, 10403.0, 10396.0, 10384.0, 10395.0, 10426.0, 10410.0, 10398.0, 10393.0, 10398.0, 10399.0, 10410.0, 10408.0, 10404.0, 10381.0, 10372.0, 10372.0, 10410.0, 10430.0, 10403.0, 10400.0, 10403.0, 10383.0, 10388.0, 10382.0, 10386.0, 10390.0, 10382.0, 10373.0, 10401.0, 10382.0, 10412.0, 10416.0, 10429.0, 10411.0, 10405.0, 10387.0, 10389.0, 10387.0, 10381.0, 10373.0, 10387.0, 10422.0, 10430.0, 10416.0, 10410.0, 10424.0, 10431.0, 10412.0, 10403.0, 10379.0, 10380.0, 10374.0, 10358.0, 10373.0, 10355.0, 10359.0, 10352.0, 10365.0, 10366.0, 10390.0, 10397.0, 10409.0, 10358.0, 10351.0, 10310.0, 10436.0, 10407.0, 10425.0, 10410.0, 10390.0, 10383.0, 10391.0, 10379.0, 10386.0, 10368.0, 10399.0, 10363.0, 10393.0, 10383.0, 10410.0, 10398.0, 10400.0, 10375.0, 10380.0, 10391.0, 10408.0, 10397.0, 10379.0, 10373.0, 10372.0, 10387.0, 10396.0, 10406.0, 10391.0, 10431.0, 10360.0, 10363.0, 10377.0, 10395.0, 10401.0, 10431.0, 10387.0, 10378.0, 10397.0, 10414.0, 10404.0, 10388.0, 10378.0, 10385.0, 10455.0, 10386.0, 10395.0],
      "WindowWidth": [22244.0, 22116.0, 22051.0, 22004.0, 21973.0, 21969.0, 21999.0, 22067.0, 22037.0, 22015.0, 21996.0, 21971.0, 21996.0, 22017.0, 22002.0, 21995.0, 21978.0, 21986.0, 21966.0, 21932.0, 21939.0, 21957.0, 21953.0, 21951.0, 22012.0, 22031.0, 22051.0, 22073.0, 22107.0, 22089.0, 22061.0, 22120.0, 22116.0, 22045.0, 22014.0, 21998.0, 22027.0, 22045.0, 22077.0, 22115.0, 22078.0, 22065.0, 22061.0, 22015.0, 21998.0, 21985.0, 22009.0, 21983.0, 21977.0, 21985.0, 21989.0, 22014.0, 22043.0, 22022.0, 22049.0, 22041.0, 22071.0, 22068.0, 22073.0, 22055.0, 22068.0, 22085.0, 22116.0, 22070.0, 22046.0, 22037.0, 22074.0, 22086.0, 22095.0, 22054.0, 22078.0, 22054.0, 22033.0, 22025.0, 22067.0, 22093.0, 22043.0, 22029.0, 22049.0, 22029.0, 22005.0, 22025.0, 22096.0, 22058.0, 22024.0, 22019.0, 22038.0, 22036.0, 22058.0, 22049.0, 22044.0, 21993.0, 21965.0, 21967.0, 22057.0, 22112.0, 22050.0, 22034.0, 22040.0, 21994.0, 22005.0, 21990.0, 21999.0, 22012.0, 21993.0, 21969.0, 22038.0, 21993.0, 22066.0, 22069.0, 22102.0, 22064.0, 22047.0, 22009.0, 22012.0, 22008.0, 21994.0, 21979.0, 22020.0, 22100.0, 22119.0, 22083.0, 22063.0, 22100.0, 22120.0, 22071.0, 22042.0, 21992.0, 21984.0, 21975.0, 21945.0, 21970.0, 21940.0, 21947.0, 21926.0, 21957.0, 21965.0, 22018.0, 22031.0, 22053.0, 21941.0, 21932.0, 21834.0, 22126.0, 22056.0, 22100.0, 22067.0, 22024.0, 22002.0, 22034.0, 21992.0, 22013.0, 21974.0, 22044.0, 21974.0, 22032.0, 22006.0, 22068.0, 22044.0, 22053.0, 21990.0, 21992.0, 22025.0, 22062.0, 22041.0, 22001.0, 21985.0, 21983.0, 22017.0, 22035.0, 22061.0, 22026.0, 22101.0, 21955.0, 21963.0, 21993.0, 22035.0, 22059.0, 22113.0, 22016.0, 21999.0, 22035.0, 22076.0, 22062.0, 22011.0, 21989.0, 22009.0, 22154.0, 22012.0, 22035.0]
    },
    "slices": {}
  }
}