{
  "AcquisitionMatrixPE": 104,
  "AcquisitionNumber": 1,
  "AcquisitionTime": "18:03:23.515000",
  "BandwidthPerPixelPhaseEncode": 17.17,
  "BaseResolution": 104,
  "BodyPartExamined": "BRAIN",
  "CoilString": "HC1-7;NC1_2",
  "ConsistencyInfo": "N4_VE11C_LATEST_20160120",
  "ConversionSoftware": "dcm2niix",
  "ConversionSoftwareVersion": "v1.0.20190902",
  "DerivedVendorReportedEchoSpacing": 0.000560011,
  "DeviceSerialNumber": "167006",
  "DwellTime": 2.1e-06,
  "EchoTime": 0.037,
  "EchoTrainLength": 104,
  "EffectiveEchoSpacing": 0.000560011,
  "FlipAngle": 52,
  "ImageComments": "Unaliased_MB4_PE3_LB",
  "ImageOrientationPatientDICOM": [0.996669, 0.0625532, 0.0523167, -0.0332371, 0.897451, -0.43986],
  "ImageType": [
    "ORIGINAL",
    "PRIMARY",
    "P",
    "MB",
    "ND",
    "MOSAIC"
],
  "ImagingFrequency": 123.259,
  "InPlanePhaseEncodingDirectionDICOM": "COL",
  "InstitutionAddress": "Chemin_Queen-Mary_4565_Montreal_District_CA_H3W_1W5",
  "InstitutionName": "IUGM",
  "InstitutionalDepartmentName": "Department",
  "MRAcquisitionType": "2D",
  "MagneticFieldStrength": 3,
  "Manufacturer": "Siemens",
  "ManufacturersModelName": "Prisma_fit",
  "Modality": "MR",
  "MultibandAccelerationFactor": 4,
  "PartialFourier": 1,
  "PatientPosition": "HFS",
  "PercentPhaseFOV": 100,
  "PhaseEncodingDirection": "j",
  "PhaseEncodingSteps": 104,
  "PhaseResolution": 1,
  "PixelBandwidth": 2290,
  "ProcedureStepDescription": "memory_things",
  "ProtocolName": "func_task-things_run-4",
  "PulseSequenceDetails": "%CustomerSeq%_cmrr_mbep2d_bold",
  "ReceiveCoilActiveElements": "HC1-7;NC1,2",
  "ReceiveCoilName": "HeadNeck_64",
  "ReconMatrixPE": 104,
  "RepetitionTime": 1.49,
  "SAR": 0.0372094,
  "ScanOptions": "FS",
  "ScanningSequence": "EP",
  "SequenceName": "epfid2d1_104",
  "SequenceVariant": "SK_SS",
  "SeriesDescription": "func_task-things_run-4",
  "SeriesNumber": 20,
  "ShimSetting": [641, -7187, -8825, 600, 91, -6, -46, 3],
  "SliceThickness": 2,
  "SliceTiming": [0, 0.785, 0.0975, 0.8825, 0.1975, 0.98, 0.295, 1.0775, 0.3925, 1.175, 0.49, 1.275, 0.5875, 1.3725, 0.685, 0, 0.785, 0.0975, 0.8825, 0.1975, 0.98, 0.295, 1.0775, 0.3925, 1.175, 0.49, 1.275, 0.5875, 1.3725, 0.685, 0, 0.785, 0.0975, 0.8825, 0.1975, 0.98, 0.295, 1.0775, 0.3925, 1.175, 0.49, 1.275, 0.5875, 1.3725, 0.685, 0, 0.785, 0.0975, 0.8825, 0.1975, 0.98, 0.295, 1.0775, 0.3925, 1.175, 0.49, 1.275, 0.5875, 1.3725, 0.685],
  "SoftwareVersions": "syngo_MR_E11",
  "SpacingBetweenSlices": 2,
  "StationName": "MRC35049",
  "TaskName": "things",
  "TotalReadoutTime": 0.0576811,
  "TxRefAmp": 249.594,
  "WipMemBlock": "be736018-1ac6-4dd0-b304-b7eda934af78||Sequence: R016 ve11c/master r/e634e98; Dec 19 2017 11:00:25 by eja",
  "dcmmeta_affine": [
    [-1.993338942527771, -0.06647421419620514, 0.1489325761795044, 106.43148040771484],
    [-0.12510636448860168, 1.7949020862579346, -0.8733125925064087, -47.87421417236328],
    [0.10463330149650574, 0.8797202110290527, 1.793082356452942, -72.94076538085938],
    [0.0, 0.0, 0.0, 1.0]
],
  "dcmmeta_reorient_transform": [
    [0.0, -1.0, 0.0, 103.0],
    [1.0, 0.0, 0.0, 0.0],
    [0.0, 0.0, 1.0, 0.0],
    [0.0, 0.0, 0.0, 1.0]
],
  "dcmmeta_shape": [104, 104, 60, 190],
  "dcmmeta_slice_dim": 2,
  "dcmmeta_version": 0.6,
  "global": {
    "const": {
      "AcquisitionMatrix": [104, 0, 0, 104],
      "AngioFlag": "N",
      "BitsAllocated": 16,
      "BitsStored": 16,
      "BodyPartExamined": "BRAIN",
      "Columns": 832,
      "EchoNumbers": 1,
      "EchoTime": 37.0,
      "EchoTrainLength": 104,
      "FlipAngle": 52.0,
      "HighBit": 15,
      "ImageOrientationPatient": [0.99666948768755, 0.06255317983251, 0.05231665132141, -0.0332371058491, 0.89745104895912, -0.4398601022109],
      "ImagePositionPatient": [-800.96341274299, -835.88378141616, 299.8020511797],
      "ImageType": [
        "ORIGINAL",
        "PRIMARY",
        "P",
        "MB",
        "ND",
        "MOSAIC"
],
      "ImagedNucleus": "1H",
      "ImagingFrequency": 123.258957,
      "InPlanePhaseEncodingDirection": "COL",
      "LargestImagePixelValue": 4095,
      "MRAcquisitionType": "2D",
      "MagneticFieldStrength": 3.0,
      "Manufacturer": "SIEMENS",
      "ManufacturerModelName": "Prisma_fit",
      "Modality": "MR",
      "NumberOfAverages": 1.0,
      "NumberOfPhaseEncodingSteps": 104,
      "PercentPhaseFieldOfView": 100.0,
      "PercentSampling": 100.0,
      "PerformedProcedureStepStartTime": "165302.487000",
      "PhotometricInterpretation": "MONOCHROME2",
      "PixelBandwidth": 2290.0,
      "PixelRepresentation": 0,
      "PixelSpacing": [2.0, 2.0],
      "ProtocolName": "func_task-things_run-4",
      "RepetitionTime": 1490.0,
      "RescaleIntercept": -4096.0,
      "RescaleSlope": 2.0,
      "RescaleType": "US",
      "Rows": 832,
      "SAR": 0.03720944334455,
      "SamplesPerPixel": 1,
      "ScanOptions": "FS",
      "ScanningSequence": "EP",
      "SequenceName": "epfid2d1_104",
      "SequenceVariant": [
        "SK",
        "SS"
],
      "SeriesDescription": "func_task-things_run-4",
      "SeriesNumber": 20,
      "SeriesTime": "180451.186000",
      "SliceLocation": -36.564262734541,
      "SliceThickness": 2.0,
      "SmallestImagePixelValue": 0,
      "SoftwareVersions": "syngo MR E11",
      "SpacingBetweenSlices": 2.0000000766485,
      "SpecificCharacterSet": "ISO_IR 100",
      "StudyID": "1",
      "StudyTime": "165302.425000",
      "TransmitCoilName": "Body",
      "VariableFlipAngleFlag": "N",
      "WindowCenterWidthExplanation": "Algo1",
      "dBdt": 0.0},
    "slices": {}
  },
  "time": {
    "samples": {
      "AcquisitionNumber": [1, 2, 3, 4, 5, 6, 7, 8, 9, 10, 11, 12, 13, 14, 15, 16, 17, 18, 19, 20, 21, 22, 23, 24, 25, 26, 27, 28, 29, 30, 31, 32, 33, 34, 35, 36, 37, 38, 39, 40, 41, 42, 43, 44, 45, 46, 47, 48, 49, 50, 51, 52, 53, 54, 55, 56, 57, 58, 59, 60, 61, 62, 63, 64, 65, 66, 67, 68, 69, 70, 71, 72, 73, 74, 75, 76, 77, 78, 79, 80, 81, 82, 83, 84, 85, 86, 87, 88, 89, 90, 91, 92, 93, 94, 95, 96, 97, 98, 99, 100, 101, 102, 103, 104, 105, 106, 107, 108, 109, 110, 111, 112, 113, 114, 115, 116, 117, 118, 119, 120, 121, 122, 123, 124, 125, 126, 127, 128, 129, 130, 131, 132, 133, 134, 135, 136, 137, 138, 139, 140, 141, 142, 143, 144, 145, 146, 147, 148, 149, 150, 151, 152, 153, 154, 155, 156, 157, 158, 159, 160, 161, 162, 163, 164, 165, 166, 167, 168, 169, 170, 171, 172, 173, 174, 175, 176, 177, 178, 179, 180, 181, 182, 183, 184, 185, 186, 187, 188, 189, 190],
      "AcquisitionTime": ["180323.515000", "180325.005000", "180326.495000", "180327.985000", "180329.475000", "180330.965000", "180332.455000", "180333.945000", "180335.435000", "180336.925000", "180338.415000", "180339.905000", "180341.395000", "180342.885000", "180344.375000", "180345.865000", "180347.355000", "180348.845000", "180350.335000", "180351.825000", "180353.315000", "180354.805000", "180356.295000", "180357.785000", "180359.275000", "180400.765000", "180402.255000", "180403.745000", "180405.235000", "180406.725000", "180408.215000", "180409.705000", "180411.195000", "180412.685000", "180414.175000", "180415.665000", "180417.155000", "180418.645000", "180420.135000", "180421.625000", "180423.115000", "180424.605000", "180426.095000", "180427.585000", "180429.075000", "180430.565000", "180432.055000", "180433.545000", "180435.035000", "180436.525000", "180438.015000", "180439.505000", "180440.995000", "180442.485000", "180443.975000", "180445.465000", "180446.955000", "180448.445000", "180449.935000", "180451.425000", "180452.915000", "180454.405000", "180455.895000", "180457.385000", "180458.875000", "180500.365000", "180501.855000", "180503.345000", "180504.835000", "180506.325000", "180507.815000", "180509.305000", "180510.795000", "180512.285000", "180513.775000", "180515.265000", "180516.755000", "180518.245000", "180519.735000", "180521.225000", "180522.715000", "180524.205000", "180525.695000", "180527.185000", "180528.675000", "180530.165000", "180531.655000", "180533.145000", "180534.635000", "180536.125000", "180537.615000", "180539.105000", "180540.595000", "180542.085000", "180543.575000", "180545.065000", "180546.555000", "180548.045000", "180549.535000", "180551.025000", "180552.515000", "180554.005000", "180555.495000", "180556.985000", "180558.475000", "180559.965000", "180601.455000", "180602.945000", "180604.435000", "180605.925000", "180607.415000", "180608.905000", "180610.395000", "180611.885000", "180613.375000", "180614.865000", "180616.355000", "180617.845000", "180619.335000", "180620.825000", "180622.315000", "180623.805000", "180625.295000", "180626.785000", "180628.275000", "180629.765000", "180631.255000", "180632.745000", "180634.235000", "180635.725000", "180637.215000", "180638.705000", "180640.195000", "180641.685000", "180643.175000", "180644.665000", "180646.155000", "180647.645000", "180649.135000", "180650.625000", "180652.115000", "180653.605000", "180655.095000", "180656.585000", "180658.075000", "180659.565000", "180701.055000", "180702.545000", "180704.035000", "180705.525000", "180707.015000", "180708.505000", "180709.995000", "180711.485000", "180712.975000", "180714.465000", "180715.955000", "180717.445000", "180718.935000", "180720.425000", "180721.915000", "180723.405000", "180724.895000", "180726.385000", "180727.875000", "180729.365000", "180730.855000", "180732.345000", "180733.835000", "180735.325000", "180736.815000", "180738.305000", "180739.795000", "180741.285000", "180742.775000", "180744.265000", "180745.755000", "180747.245000", "180748.735000", "180750.225000", "180751.715000", "180753.205000", "180754.695000", "180756.185000", "180757.675000", "180759.165000", "180800.655000", "180802.145000", "180803.635000", "180805.125000"],
      "ContentTime": ["180451.188000", "180451.191000", "180451.193000", "180451.196000", "180451.198000", "180451.201000", "180451.203000", "180451.206000", "180451.208000", "180451.211000", "180451.216000", "180451.218000", "180451.221000", "180451.223000", "180451.225000", "180451.228000", "180451.230000", "180451.233000", "180451.235000", "180451.238000", "180451.240000", "180451.243000", "180451.245000", "180451.248000", "180451.250000", "180451.252000", "180451.255000", "180451.257000", "180451.260000", "180451.262000", "180451.265000", "180451.267000", "180451.270000", "180511.094000", "180511.097000", "180511.099000", "180511.102000", "180511.104000", "180511.107000", "180511.109000", "180511.112000", "180511.114000", "180511.124000", "180511.126000", "180511.129000", "180511.131000", "180511.134000", "180511.136000", "180511.139000", "180511.141000", "180511.144000", "180511.146000", "180511.149000", "180511.151000", "180531.081000", "180531.084000", "180531.087000", "180531.090000", "180531.092000", "180531.095000", "180531.097000", "180531.100000", "180531.102000", "180531.105000", "180531.107000", "180531.110000", "180531.112000", "180531.115000", "180531.117000", "180531.120000", "180531.122000", "180531.125000", "180531.127000", "180531.130000", "180551.075000", "180551.077000", "180551.080000", "180551.082000", "180551.085000", "180551.087000", "180551.090000", "180551.092000", "180551.095000", "180551.097000", "180551.100000", "180551.102000", "180551.105000", "180551.107000", "180551.110000", "180551.112000", "180551.115000", "180551.117000", "180551.120000", "180551.122000", "180631.164000", "180631.166000", "180631.169000", "180631.171000", "180631.174000", "180631.176000", "180631.179000", "180631.181000", "180631.184000", "180631.186000", "180631.189000", "180631.191000", "180631.194000", "180631.196000", "180631.199000", "180631.201000", "180631.203000", "180631.206000", "180631.208000", "180631.211000", "180631.213000", "180631.216000", "180631.218000", "180631.221000", "180631.223000", "180631.226000", "180631.228000", "180631.231000", "180631.233000", "180631.236000", "180631.238000", "180711.114000", "180711.117000", "180711.119000", "180711.122000", "180711.124000", "180711.127000", "180711.129000", "180711.132000", "180711.134000", "180711.137000", "180711.139000", "180711.142000", "180711.144000", "180711.147000", "180711.149000", "180711.152000", "180711.155000", "180711.157000", "180711.209000", "180711.212000", "180711.214000", "180711.217000", "180711.219000", "180711.222000", "180711.224000", "180711.227000", "180711.229000", "180751.104000", "180751.107000", "180751.109000", "180751.112000", "180751.114000", "180751.117000", "180751.119000", "180751.122000", "180751.124000", "180751.127000", "180751.129000", "180751.132000", "180751.134000", "180751.137000", "180751.139000", "180751.142000", "180751.144000", "180751.147000", "180751.149000", "180751.152000", "180751.154000", "180751.157000", "180751.202000", "180751.205000", "180751.207000", "180751.210000", "180751.212000", "180807.115000", "180807.118000", "180807.121000", "180807.124000", "180807.126000", "180807.128000", "180807.131000", "180807.134000", "180807.136000", "180807.139000", "180807.141000"],
      "InstanceCreationTime": ["180451.188000", "180451.191000", "180451.193000", "180451.196000", "180451.198000", "180451.201000", "180451.203000", "180451.206000", "180451.208000", "180451.211000", "180451.216000", "180451.218000", "180451.221000", "180451.223000", "180451.225000", "180451.228000", "180451.230000", "180451.233000", "180451.235000", "180451.238000", "180451.240000", "180451.243000", "180451.245000", "180451.248000", "180451.250000", "180451.252000", "180451.255000", "180451.257000", "180451.260000", "180451.262000", "180451.265000", "180451.267000", "180451.270000", "180511.094000", "180511.097000", "180511.099000", "180511.102000", "180511.104000", "180511.107000", "180511.109000", "180511.112000", "180511.114000", "180511.124000", "180511.126000", "180511.129000", "180511.131000", "180511.134000", "180511.136000", "180511.139000", "180511.141000", "180511.144000", "180511.146000", "180511.149000", "180511.151000", "180531.081000", "180531.084000", "180531.087000", "180531.090000", "180531.092000", "180531.095000", "180531.097000", "180531.100000", "180531.102000", "180531.105000", "180531.107000", "180531.110000", "180531.112000", "180531.115000", "180531.117000", "180531.120000", "180531.122000", "180531.125000", "180531.127000", "180531.130000", "180551.075000", "180551.077000", "180551.080000", "180551.082000", "180551.085000", "180551.087000", "180551.090000", "180551.092000", "180551.095000", "180551.097000", "180551.100000", "180551.102000", "180551.105000", "180551.107000", "180551.110000", "180551.112000", "180551.115000", "180551.117000", "180551.120000", "180551.122000", "180631.164000", "180631.166000", "180631.169000", "180631.171000", "180631.174000", "180631.176000", "180631.179000", "180631.181000", "180631.184000", "180631.186000", "180631.189000", "180631.191000", "180631.194000", "180631.196000", "180631.199000", "180631.201000", "180631.203000", "180631.206000", "180631.208000", "180631.211000", "180631.213000", "180631.216000", "180631.218000", "180631.221000", "180631.223000", "180631.226000", "180631.228000", "180631.231000", "180631.233000", "180631.236000", "180631.238000", "180711.114000", "180711.117000", "180711.119000", "180711.122000", "180711.124000", "180711.127000", "180711.129000", "180711.132000", "180711.134000", "180711.137000", "180711.139000", "180711.142000", "180711.144000", "180711.147000", "180711.149000", "180711.152000", "180711.155000", "180711.157000", "180711.209000", "180711.212000", "180711.214000", "180711.217000", "180711.219000", "180711.222000", "180711.224000", "180711.227000", "180711.229000", "180751.104000", "180751.107000", "180751.109000", "180751.112000", "180751.114000", "180751.117000", "180751.119000", "180751.122000", "180751.124000", "180751.127000", "180751.129000", "180751.132000", "180751.134000", "180751.137000", "180751.139000", "180751.142000", "180751.144000", "180751.147000", "180751.149000", "180751.152000", "180751.154000", "180751.157000", "180751.202000", "180751.205000", "180751.207000", "180751.210000", "180751.212000", "180807.115000", "180807.118000", "180807.121000", "180807.124000", "180807.126000", "180807.128000", "180807.131000", "180807.134000", "180807.136000", "180807.139000", "180807.141000"],
      "InstanceNumber": [1, 2, 3, 4, 5, 6, 7, 8, 9, 10, 11, 12, 13, 14, 15, 16, 17, 18, 19, 20, 21, 22, 23, 24, 25, 26, 27, 28, 29, 30, 31, 32, 33, 34, 35, 36, 37, 38, 39, 40, 41, 42, 43, 44, 45, 46, 47, 48, 49, 50, 51, 52, 53, 54, 55, 56, 57, 58, 59, 60, 61, 62, 63, 64, 65, 66, 67, 68, 69, 70, 71, 72, 73, 74, 75, 76, 77, 78, 79, 80, 81, 82, 83, 84, 85, 86, 87, 88, 89, 90, 91, 92, 93, 94, 95, 96, 97, 98, 99, 100, 101, 102, 103, 104, 105, 106, 107, 108, 109, 110, 111, 112, 113, 114, 115, 116, 117, 118, 119, 120, 121, 122, 123, 124, 125, 126, 127, 128, 129, 130, 131, 132, 133, 134, 135, 136, 137, 138, 139, 140, 141, 142, 143, 144, 145, 146, 147, 148, 149, 150, 151, 152, 153, 154, 155, 156, 157, 158, 159, 160, 161, 162, 163, 164, 165, 166, 167, 168, 169, 170, 171, 172, 173, 174, 175, 176, 177, 178, 179, 180, 181, 182, 183, 184, 185, 186, 187, 188, 189, 190],
      "WindowCenter": [4814.0, 4814.0, 4814.0, 4814.0, 4818.0, 4814.0, 4782.0, 4782.0, 4794.0, 4816.0, 4794.0, 4792.0, 4814.0, 4812.0, 4812.0, 4814.0, 4816.0, 4820.0, 4820.0, 4792.0, 4794.0, 4790.0, 4812.0, 4792.0, 4816.0, 4816.0, 4816.0, 4814.0, 4816.0, 4816.0, 4816.0, 4794.0, 4812.0, 4794.0, 4816.0, 4816.0, 4814.0, 4790.0, 4790.0, 4792.0, 4818.0, 4796.0, 4794.0, 4814.0, 4814.0, 4816.0, 4816.0, 4796.0, 4820.0, 4818.0, 4792.0, 4790.0, 4794.0, 4816.0, 4818.0, 4816.0, 4814.0, 4814.0, 4816.0, 4812.0, 4790.0, 4796.0, 4818.0, 4792.0, 4790.0, 4814.0, 4816.0, 4814.0, 4816.0, 4812.0, 4792.0, 4814.0, 4812.0, 4816.0, 4794.0, 4790.0, 4816.0, 4816.0, 4818.0, 4794.0, 4814.0, 4818.0, 4816.0, 4818.0, 4794.0, 4816.0, 4794.0, 4792.0, 4820.0, 4790.0, 4814.0, 4790.0, 4816.0, 4814.0, 4820.0, 4792.0, 4816.0, 4820.0, 4816.0, 4816.0, 4794.0, 4816.0, 4792.0, 4792.0, 4814.0, 4792.0, 4816.0, 4816.0, 4816.0, 4790.0, 4822.0, 4818.0, 4820.0, 4818.0, 4818.0, 4816.0, 4818.0, 4820.0, 4820.0, 4820.0, 4816.0, 4814.0, 4818.0, 4818.0, 4820.0, 4822.0, 4820.0, 4818.0, 4816.0, 4820.0, 4820.0, 4818.0, 4820.0, 4816.0, 4818.0, 4818.0, 4818.0, 4820.0, 4818.0, 4820.0, 4818.0, 4820.0, 4820.0, 4820.0, 4820.0, 4822.0, 4818.0, 4822.0, 4822.0, 4820.0, 4818.0, 4816.0, 4820.0, 4820.0, 4820.0, 4820.0, 4820.0, 4818.0, 4820.0, 4818.0, 4818.0, 4822.0, 4820.0, 4818.0, 4822.0, 4818.0, 4822.0, 4820.0, 4820.0, 4818.0, 4822.0, 4818.0, 4816.0, 4818.0, 4816.0, 4820.0, 4824.0, 4822.0, 4822.0, 4820.0, 4824.0, 4826.0, 4826.0, 4818.0, 4824.0, 4816.0, 4820.0, 4824.0, 4822.0, 4820.0],
      "WindowWidth": [18590.0, 18592.0, 18594.0, 18586.0, 18590.0, 18594.0, 18562.0, 18560.0, 18550.0, 18580.0, 18554.0, 18560.0, 18598.0, 18608.0, 18608.0, 18606.0, 18590.0, 18582.0, 18582.0, 18552.0, 18556.0, 18560.0, 18584.0, 18556.0, 18592.0, 18590.0, 18592.0, 18602.0, 18598.0, 18588.0, 18588.0, 18556.0, 18588.0, 18558.0, 18586.0, 18592.0, 18592.0, 18560.0, 18558.0, 18546.0, 18578.0, 18552.0, 18556.0, 18610.0, 18618.0, 18608.0, 18590.0, 18552.0, 18584.0, 18580.0, 18550.0, 18554.0, 18560.0, 18588.0, 18594.0, 18600.0, 18604.0, 18604.0, 18600.0, 18588.0, 18552.0, 18554.0, 18582.0, 18560.0, 18558.0, 18590.0, 18590.0, 18592.0, 18598.0, 18588.0, 18552.0, 18582.0, 18584.0, 18586.0, 18556.0, 18552.0, 18590.0, 18586.0, 18586.0, 18554.0, 18586.0, 18586.0, 18582.0, 18582.0, 18558.0, 18590.0, 18554.0, 18550.0, 18586.0, 18552.0, 18588.0, 18552.0, 18580.0, 18582.0, 18580.0, 18554.0, 18590.0, 18594.0, 18588.0, 18584.0, 18554.0, 18584.0, 18552.0, 18550.0, 18580.0, 18552.0, 18586.0, 18588.0, 18590.0, 18558.0, 18588.0, 18586.0, 18584.0, 18584.0, 18584.0, 18576.0, 18584.0, 18584.0, 18588.0, 18584.0, 18582.0, 18580.0, 18582.0, 18582.0, 18578.0, 18586.0, 18586.0, 18584.0, 18582.0, 18584.0, 18586.0, 18586.0, 18586.0, 18584.0, 18584.0, 18584.0, 18584.0, 18590.0, 18580.0, 18590.0, 18590.0, 18588.0, 18582.0, 18580.0, 18582.0, 18586.0, 18586.0, 18584.0, 18582.0, 18584.0, 18584.0, 18586.0, 18588.0, 18582.0, 18586.0, 18584.0, 18580.0, 18580.0, 18586.0, 18584.0, 18584.0, 18588.0, 18586.0, 18586.0, 18590.0, 18582.0, 18588.0, 18586.0, 18584.0, 18580.0, 18580.0, 18586.0, 18584.0, 18586.0, 18582.0, 18578.0, 18582.0, 18584.0, 18580.0, 18582.0, 18582.0, 18580.0, 18586.0, 18580.0, 18590.0, 18580.0, 18584.0, 18580.0, 18584.0, 18580.0]
    },
    "slices": {}
  }
}