{
  "AcquisitionMatrixPE": 104,
  "AcquisitionNumber": 1,
  "AcquisitionTime": "17:44:50.265000",
  "BandwidthPerPixelPhaseEncode": 17.17,
  "BaseResolution": 104,
  "BodyPartExamined": "BRAIN",
  "CoilString": "HC1-7;NC1_2",
  "ConsistencyInfo": "N4_VE11C_LATEST_20160120",
  "ConversionSoftware": "dcm2niix",
  "ConversionSoftwareVersion": "v1.0.20190902",
  "DerivedVendorReportedEchoSpacing": 0.000560011,
  "DeviceSerialNumber": "167006",
  "DwellTime": 2.1e-06,
  "EchoTime": 0.037,
  "EchoTrainLength": 104,
  "EffectiveEchoSpacing": 0.000560011,
  "FlipAngle": 52,
  "ImageComments": "Unaliased_MB4_PE3_LB",
  "ImageOrientationPatientDICOM": [0.996669, 0.0625532, 0.0523167, -0.0332371, 0.897451, -0.43986],
  "ImageType": [
    "ORIGINAL",
    "PRIMARY",
    "M",
    "MB",
    "ND",
    "MOSAIC"
],
  "ImagingFrequency": 123.259,
  "InPlanePhaseEncodingDirectionDICOM": "COL",
  "InstitutionAddress": "Chemin_Queen-Mary_4565_Montreal_District_CA_H3W_1W5",
  "InstitutionName": "IUGM",
  "InstitutionalDepartmentName": "Department",
  "MRAcquisitionType": "2D",
  "MagneticFieldStrength": 3,
  "Manufacturer": "Siemens",
  "ManufacturersModelName": "Prisma_fit",
  "Modality": "MR",
  "MultibandAccelerationFactor": 4,
  "PartialFourier": 1,
  "PatientPosition": "HFS",
  "PercentPhaseFOV": 100,
  "PhaseEncodingDirection": "j",
  "PhaseEncodingSteps": 104,
  "PhaseResolution": 1,
  "PixelBandwidth": 2290,
  "ProcedureStepDescription": "memory_things",
  "ProtocolName": "func_task-things_run-1",
  "PulseSequenceDetails": "%CustomerSeq%_cmrr_mbep2d_bold",
  "ReceiveCoilActiveElements": "HC1-7;NC1,2",
  "ReceiveCoilName": "HeadNeck_64",
  "ReconMatrixPE": 104,
  "RepetitionTime": 1.49,
  "SAR": 0.0372094,
  "ScanOptions": "FS",
  "ScanningSequence": "EP",
  "SequenceName": "epfid2d1_104",
  "SequenceVariant": "SK_SS",
  "SeriesDescription": "func_task-things_run-1",
  "SeriesNumber": 10,
  "ShimSetting": [641, -7187, -8825, 600, 91, -6, -46, 3],
  "SliceThickness": 2,
  "SliceTiming": [0, 0.785, 0.0975, 0.8825, 0.195, 0.98, 0.295, 1.0775, 0.3925, 1.175, 0.49, 1.275, 0.5875, 1.3725, 0.685, 0, 0.785, 0.0975, 0.8825, 0.195, 0.98, 0.295, 1.0775, 0.3925, 1.175, 0.49, 1.275, 0.5875, 1.3725, 0.685, 0, 0.785, 0.0975, 0.8825, 0.195, 0.98, 0.295, 1.0775, 0.3925, 1.175, 0.49, 1.275, 0.5875, 1.3725, 0.685, 0, 0.785, 0.0975, 0.8825, 0.195, 0.98, 0.295, 1.0775, 0.3925, 1.175, 0.49, 1.275, 0.5875, 1.3725, 0.685],
  "SoftwareVersions": "syngo_MR_E11",
  "SpacingBetweenSlices": 2,
  "StationName": "MRC35049",
  "TaskName": "things",
  "TotalReadoutTime": 0.0576811,
  "TxRefAmp": 249.594,
  "WipMemBlock": "1e872fdd-576a-4823-bb18-4b6fad971aa2||Sequence: R016 ve11c/master r/e634e98; Dec 19 2017 11:00:25 by eja",
  "dcmmeta_affine": [
    [-1.993338942527771, -0.06647421419620514, 0.1489325761795044, 106.43148040771484],
    [-0.12510636448860168, 1.7949020862579346, -0.8733125925064087, -47.87421417236328],
    [0.10463330149650574, 0.8797202110290527, 1.793082356452942, -72.94076538085938],
    [0.0, 0.0, 0.0, 1.0]
],
  "dcmmeta_reorient_transform": [
    [0.0, -1.0, 0.0, 103.0],
    [1.0, 0.0, 0.0, 0.0],
    [0.0, 0.0, 1.0, 0.0],
    [0.0, 0.0, 0.0, 1.0]
],
  "dcmmeta_shape": [104, 104, 60, 190],
  "dcmmeta_slice_dim": 2,
  "dcmmeta_version": 0.6,
  "global": {
    "const": {
      "AcquisitionMatrix": [104, 0, 0, 104],
      "AngioFlag": "N",
      "BitsAllocated": 16,
      "BitsStored": 16,
      "BodyPartExamined": "BRAIN",
      "Columns": 832,
      "EchoNumbers": 1,
      "EchoTime": 37.0,
      "EchoTrainLength": 104,
      "FlipAngle": 52.0,
      "HighBit": 15,
      "ImageOrientationPatient": [0.99666948768755, 0.06255317983251, 0.05231665132141, -0.0332371058491, 0.89745104895912, -0.4398601022109],
      "ImagePositionPatient": [-800.96341274299, -835.88378141616, 299.8020511797],
      "ImageType": [
        "ORIGINAL",
        "PRIMARY",
        "M",
        "MB",
        "ND",
        "MOSAIC"
],
      "ImagedNucleus": "1H",
      "ImagingFrequency": 123.258945,
      "InPlanePhaseEncodingDirection": "COL",
      "MRAcquisitionType": "2D",
      "MagneticFieldStrength": 3.0,
      "Manufacturer": "SIEMENS",
      "ManufacturerModelName": "Prisma_fit",
      "Modality": "MR",
      "NumberOfAverages": 1.0,
      "NumberOfPhaseEncodingSteps": 104,
      "PercentPhaseFieldOfView": 100.0,
      "PercentSampling": 100.0,
      "PerformedProcedureStepStartTime": "165302.487000",
      "PhotometricInterpretation": "MONOCHROME2",
      "PixelBandwidth": 2290.0,
      "PixelRepresentation": 0,
      "PixelSpacing": [2.0, 2.0],
      "ProtocolName": "func_task-things_run-1",
      "RepetitionTime": 1490.0,
      "Rows": 832,
      "SAR": 0.03720944334455,
      "SamplesPerPixel": 1,
      "ScanOptions": "FS",
      "ScanningSequence": "EP",
      "SequenceName": "epfid2d1_104",
      "SequenceVariant": [
        "SK",
        "SS"
],
      "SeriesDescription": "func_task-things_run-1",
      "SeriesNumber": 10,
      "SeriesTime": "174610.997000",
      "SliceLocation": -36.564262734541,
      "SliceThickness": 2.0,
      "SmallestImagePixelValue": 0,
      "SoftwareVersions": "syngo MR E11",
      "SpacingBetweenSlices": 2.0000000766485,
      "SpecificCharacterSet": "ISO_IR 100",
      "StudyID": "1",
      "StudyTime": "165302.425000",
      "TransmitCoilName": "Body",
      "VariableFlipAngleFlag": "N",
      "WindowCenterWidthExplanation": "Algo1",
      "dBdt": 0.0},
    "slices": {}
  },
  "time": {
    "samples": {
      "AcquisitionNumber": [1, 2, 3, 4, 5, 6, 7, 8, 9, 10, 11, 12, 13, 14, 15, 16, 17, 18, 19, 20, 21, 22, 23, 24, 25, 26, 27, 28, 29, 30, 31, 32, 33, 34, 35, 36, 37, 38, 39, 40, 41, 42, 43, 44, 45, 46, 47, 48, 49, 50, 51, 52, 53, 54, 55, 56, 57, 58, 59, 60, 61, 62, 63, 64, 65, 66, 67, 68, 69, 70, 71, 72, 73, 74, 75, 76, 77, 78, 79, 80, 81, 82, 83, 84, 85, 86, 87, 88, 89, 90, 91, 92, 93, 94, 95, 96, 97, 98, 99, 100, 101, 102, 103, 104, 105, 106, 107, 108, 109, 110, 111, 112, 113, 114, 115, 116, 117, 118, 119, 120, 121, 122, 123, 124, 125, 126, 127, 128, 129, 130, 131, 132, 133, 134, 135, 136, 137, 138, 139, 140, 141, 142, 143, 144, 145, 146, 147, 148, 149, 150, 151, 152, 153, 154, 155, 156, 157, 158, 159, 160, 161, 162, 163, 164, 165, 166, 167, 168, 169, 170, 171, 172, 173, 174, 175, 176, 177, 178, 179, 180, 181, 182, 183, 184, 185, 186, 187, 188, 189, 190],
      "AcquisitionTime": ["174450.265000", "174451.755000", "174453.245000", "174454.735000", "174456.225000", "174457.715000", "174459.205000", "174500.695000", "174502.185000", "174503.675000", "174505.165000", "174506.655000", "174508.145000", "174509.635000", "174511.125000", "174512.615000", "174514.105000", "174515.595000", "174517.085000", "174518.575000", "174520.065000", "174521.555000", "174523.045000", "174524.535000", "174526.025000", "174527.515000", "174529.005000", "174530.495000", "174531.985000", "174533.475000", "174534.965000", "174536.455000", "174537.945000", "174539.435000", "174540.925000", "174542.415000", "174543.905000", "174545.395000", "174546.885000", "174548.375000", "174549.865000", "174551.355000", "174552.845000", "174554.335000", "174555.825000", "174557.315000", "174558.805000", "174600.295000", "174601.785000", "174603.275000", "174604.765000", "174606.255000", "174607.745000", "174609.235000", "174610.725000", "174612.215000", "174613.705000", "174615.195000", "174616.685000", "174618.175000", "174619.665000", "174621.155000", "174622.645000", "174624.135000", "174625.625000", "174627.115000", "174628.605000", "174630.095000", "174631.585000", "174633.075000", "174634.565000", "174636.055000", "174637.545000", "174639.035000", "174640.525000", "174642.015000", "174643.505000", "174644.995000", "174646.485000", "174647.975000", "174649.465000", "174650.955000", "174652.445000", "174653.935000", "174655.425000", "174656.915000", "174658.405000", "174659.895000", "174701.385000", "174702.875000", "174704.365000", "174705.855000", "174707.345000", "174708.835000", "174710.325000", "174711.815000", "174713.305000", "174714.795000", "174716.285000", "174717.775000", "174719.265000", "174720.755000", "174722.245000", "174723.735000", "174725.225000", "174726.715000", "174728.205000", "174729.695000", "174731.185000", "174732.675000", "174734.165000", "174735.655000", "174737.145000", "174738.635000", "174740.125000", "174741.615000", "174743.105000", "174744.595000", "174746.085000", "174747.575000", "174749.065000", "174750.555000", "174752.045000", "174753.535000", "174755.025000", "174756.515000", "174758.005000", "174759.495000", "174800.985000", "174802.475000", "174803.965000", "174805.455000", "174806.945000", "174808.435000", "174809.925000", "174811.415000", "174812.905000", "174814.395000", "174815.885000", "174817.375000", "174818.865000", "174820.355000", "174821.845000", "174823.335000", "174824.825000", "174826.315000", "174827.805000", "174829.295000", "174830.785000", "174832.275000", "174833.765000", "174835.255000", "174836.745000", "174838.235000", "174839.725000", "174841.215000", "174842.705000", "174844.195000", "174845.685000", "174847.175000", "174848.665000", "174850.155000", "174851.645000", "174853.135000", "174854.625000", "174856.115000", "174857.605000", "174859.095000", "174900.585000", "174902.075000", "174903.565000", "174905.055000", "174906.545000", "174908.035000", "174909.525000", "174911.015000", "174912.505000", "174913.995000", "174915.485000", "174916.975000", "174918.465000", "174919.955000", "174921.445000", "174922.935000", "174924.425000", "174925.915000", "174927.405000", "174928.895000", "174930.385000", "174931.875000"],
      "ContentTime": ["174611.001000", "174611.004000", "174611.008000", "174611.011000", "174611.014000", "174611.018000", "174611.021000", "174611.024000", "174611.028000", "174611.031000", "174611.034000", "174611.037000", "174611.041000", "174611.044000", "174611.047000", "174611.051000", "174611.054000", "174611.057000", "174611.060000", "174611.064000", "174611.067000", "174611.070000", "174611.080000", "174611.083000", "174611.087000", "174611.090000", "174611.093000", "174611.096000", "174630.968000", "174630.972000", "174630.975000", "174630.978000", "174630.982000", "174630.985000", "174630.988000", "174630.991000", "174630.995000", "174630.998000", "174631.002000", "174631.006000", "174631.017000", "174631.020000", "174631.023000", "174631.026000", "174631.030000", "174631.033000", "174631.036000", "174631.039000", "174650.968000", "174650.971000", "174650.979000", "174650.983000", "174650.986000", "174650.989000", "174650.992000", "174650.996000", "174651.000000", "174651.003000", "174651.007000", "174651.010000", "174651.013000", "174651.016000", "174651.020000", "174651.023000", "174651.026000", "174651.030000", "174651.042000", "174651.045000", "174651.048000", "174710.968000", "174710.972000", "174710.975000", "174710.978000", "174710.982000", "174710.985000", "174710.988000", "174710.991000", "174710.995000", "174710.998000", "174711.002000", "174711.006000", "174711.009000", "174711.012000", "174711.015000", "174711.021000", "174711.025000", "174711.028000", "174711.031000", "174711.035000", "174750.968000", "174750.972000", "174750.975000", "174750.988000", "174750.991000", "174750.994000", "174750.998000", "174751.001000", "174751.004000", "174751.008000", "174751.016000", "174751.019000", "174751.023000", "174751.026000", "174751.029000", "174751.032000", "174751.036000", "174751.039000", "174751.042000", "174751.046000", "174751.049000", "174751.052000", "174751.055000", "174751.059000", "174751.062000", "174751.065000", "174751.068000", "174751.072000", "174751.076000", "174751.080000", "174751.083000", "174830.968000", "174830.972000", "174830.975000", "174830.979000", "174830.982000", "174830.985000", "174830.988000", "174830.992000", "174830.995000", "174830.998000", "174831.003000", "174831.006000", "174831.009000", "174831.012000", "174831.016000", "174831.019000", "174831.022000", "174831.026000", "174831.029000", "174831.032000", "174831.036000", "174831.039000", "174831.042000", "174831.046000", "174831.049000", "174831.052000", "174831.055000", "174910.968000", "174910.972000", "174910.975000", "174910.979000", "174910.982000", "174910.985000", "174910.989000", "174910.992000", "174910.996000", "174911.000000", "174911.003000", "174911.006000", "174911.010000", "174911.013000", "174911.016000", "174911.019000", "174911.023000", "174911.026000", "174911.029000", "174911.032000", "174911.036000", "174911.048000", "174911.051000", "174911.054000", "174911.058000", "174911.061000", "174911.064000", "174933.955000", "174933.959000", "174933.962000", "174933.966000", "174933.969000", "174933.972000", "174933.976000", "174933.979000", "174933.983000", "174933.986000", "174933.989000", "174933.993000", "174933.996000", "174934.000000", "174934.004000", "174934.007000"],
      "InstanceCreationTime": ["174611.001000", "174611.004000", "174611.008000", "174611.011000", "174611.014000", "174611.018000", "174611.021000", "174611.024000", "174611.028000", "174611.031000", "174611.034000", "174611.037000", "174611.041000", "174611.044000", "174611.047000", "174611.051000", "174611.054000", "174611.057000", "174611.060000", "174611.064000", "174611.067000", "174611.070000", "174611.080000", "174611.083000", "174611.087000", "174611.090000", "174611.093000", "174611.096000", "174630.968000", "174630.972000", "174630.975000", "174630.978000", "174630.982000", "174630.985000", "174630.988000", "174630.991000", "174630.995000", "174630.998000", "174631.002000", "174631.006000", "174631.017000", "174631.020000", "174631.023000", "174631.026000", "174631.030000", "174631.033000", "174631.036000", "174631.039000", "174650.968000", "174650.971000", "174650.979000", "174650.983000", "174650.986000", "174650.989000", "174650.992000", "174650.996000", "174651.000000", "174651.003000", "174651.007000", "174651.010000", "174651.013000", "174651.016000", "174651.020000", "174651.023000", "174651.026000", "174651.030000", "174651.042000", "174651.045000", "174651.048000", "174710.968000", "174710.972000", "174710.975000", "174710.978000", "174710.982000", "174710.985000", "174710.988000", "174710.991000", "174710.995000", "174710.998000", "174711.002000", "174711.006000", "174711.009000", "174711.012000", "174711.015000", "174711.021000", "174711.025000", "174711.028000", "174711.031000", "174711.035000", "174750.968000", "174750.972000", "174750.975000", "174750.988000", "174750.991000", "174750.994000", "174750.998000", "174751.001000", "174751.004000", "174751.008000", "174751.016000", "174751.019000", "174751.023000", "174751.026000", "174751.029000", "174751.032000", "174751.036000", "174751.039000", "174751.042000", "174751.046000", "174751.049000", "174751.052000", "174751.055000", "174751.059000", "174751.062000", "174751.065000", "174751.068000", "174751.072000", "174751.076000", "174751.080000", "174751.083000", "174830.968000", "174830.972000", "174830.975000", "174830.979000", "174830.982000", "174830.985000", "174830.988000", "174830.992000", "174830.995000", "174830.998000", "174831.003000", "174831.006000", "174831.009000", "174831.012000", "174831.016000", "174831.019000", "174831.022000", "174831.026000", "174831.029000", "174831.032000", "174831.036000", "174831.039000", "174831.042000", "174831.046000", "174831.049000", "174831.052000", "174831.055000", "174910.968000", "174910.972000", "174910.975000", "174910.979000", "174910.982000", "174910.985000", "174910.989000", "174910.992000", "174910.996000", "174911.000000", "174911.003000", "174911.006000", "174911.010000", "174911.013000", "174911.016000", "174911.019000", "174911.023000", "174911.026000", "174911.029000", "174911.032000", "174911.036000", "174911.048000", "174911.051000", "174911.054000", "174911.058000", "174911.061000", "174911.064000", "174933.955000", "174933.959000", "174933.962000", "174933.966000", "174933.969000", "174933.972000", "174933.976000", "174933.979000", "174933.983000", "174933.986000", "174933.989000", "174933.993000", "174933.996000", "174934.000000", "174934.004000", "174934.007000"],
      "InstanceNumber": [1, 2, 3, 4, 5, 6, 7, 8, 9, 10, 11, 12, 13, 14, 15, 16, 17, 18, 19, 20, 21, 22, 23, 24, 25, 26, 27, 28, 29, 30, 31, 32, 33, 34, 35, 36, 37, 38, 39, 40, 41, 42, 43, 44, 45, 46, 47, 48, 49, 50, 51, 52, 53, 54, 55, 56, 57, 58, 59, 60, 61, 62, 63, 64, 65, 66, 67, 68, 69, 70, 71, 72, 73, 74, 75, 76, 77, 78, 79, 80, 81, 82, 83, 84, 85, 86, 87, 88, 89, 90, 91, 92, 93, 94, 95, 96, 97, 98, 99, 100, 101, 102, 103, 104, 105, 106, 107, 108, 109, 110, 111, 112, 113, 114, 115, 116, 117, 118, 119, 120, 121, 122, 123, 124, 125, 126, 127, 128, 129, 130, 131, 132, 133, 134, 135, 136, 137, 138, 139, 140, 141, 142, 143, 144, 145, 146, 147, 148, 149, 150, 151, 152, 153, 154, 155, 156, 157, 158, 159, 160, 161, 162, 163, 164, 165, 166, 167, 168, 169, 170, 171, 172, 173, 174, 175, 176, 177, 178, 179, 180, 181, 182, 183, 184, 185, 186, 187, 188, 189, 190],
      "LargestImagePixelValue": [41812, 40893, 40612, 40527, 40614, 40481, 39079, 39228, 39155, 39287, 39874, 39422, 39656, 39699, 39314, 39406, 39310, 40457, 40235, 39693, 40055, 39728, 39983, 39844, 39808, 39673, 42821, 40626, 40315, 40455, 40464, 41331, 41255, 40922, 40882, 40882, 41210, 39651, 41455, 39983, 40587, 40717, 41274, 41355, 41588, 41359, 40080, 39914, 40315, 40753, 41315, 40722, 41142, 40678, 40621, 42805, 42618, 42619, 40533, 42777, 42063, 43062, 41907, 41581, 43596, 42833, 43252, 42819, 43659, 43532, 43253, 43499, 42948, 43782, 43185, 43870, 43804, 44088, 43663, 43574, 45129, 43023, 42029, 43691, 44601, 44344, 45116, 44876, 44258, 43621, 44252, 43968, 43253, 42366, 42978, 42985, 43143, 42629, 43250, 42448, 42711, 43025, 42656, 43564, 43147, 43497, 42477, 42191, 42308, 43463, 44255, 44030, 42080, 42965, 42835, 41871, 41610, 40546, 40859, 41063, 40055, 40634, 40640, 40758, 40452, 41260, 41018, 41569, 40868, 40286, 39983, 38555, 39357, 40267, 41050, 39325, 38291, 38188, 39763, 38867, 38532, 38323, 38696, 40585, 38229, 40134, 40598, 38001, 38296, 37898, 37188, 37811, 37324, 41776, 40638, 39658, 39504, 39317, 38378, 39393, 38102, 39484, 37462, 37638, 38263, 38055, 37830, 39186, 38225, 38020, 38519, 38460, 38430, 38329, 38658, 39209, 38694, 37452, 38025, 37992, 38146, 37906, 38753, 38926, 39004, 38700, 39951, 40231, 40677, 40695],
      "WindowCenter": [10435.0, 10401.0, 10383.0, 10372.0, 10376.0, 10377.0, 10370.0, 10384.0, 10379.0, 10372.0, 10375.0, 10378.0, 10385.0, 10367.0, 10350.0, 10345.0, 10346.0, 10354.0, 10353.0, 10355.0, 10370.0, 10366.0, 10366.0, 10362.0, 10371.0, 10373.0, 10402.0, 10381.0, 10380.0, 10362.0, 10355.0, 10371.0, 10377.0, 10389.0, 10408.0, 10398.0, 10382.0, 10364.0, 10387.0, 10367.0, 10375.0, 10389.0, 10401.0, 10389.0, 10388.0, 10379.0, 10362.0, 10378.0, 10385.0, 10400.0, 10413.0, 10403.0, 10420.0, 10417.0, 10408.0, 10433.0, 10427.0, 10437.0, 10415.0, 10430.0, 10404.0, 10413.0, 10394.0, 10397.0, 10420.0, 10424.0, 10428.0, 10425.0, 10427.0, 10412.0, 10400.0, 10399.0, 10392.0, 10403.0, 10401.0, 10428.0, 10441.0, 10456.0, 10452.0, 10446.0, 10446.0, 10411.0, 10412.0, 10413.0, 10425.0, 10432.0, 10431.0, 10414.0, 10419.0, 10425.0, 10425.0, 10424.0, 10418.0, 10420.0, 10433.0, 10425.0, 10428.0, 10402.0, 10394.0, 10389.0, 10396.0, 10388.0, 10388.0, 10408.0, 10403.0, 10421.0, 10404.0, 10385.0, 10375.0, 10394.0, 10413.0, 10420.0, 10400.0, 10397.0, 10393.0, 10391.0, 10394.0, 10383.0, 10373.0, 10371.0, 10377.0, 10401.0, 10386.0, 10369.0, 10369.0, 10387.0, 10387.0, 10387.0, 10376.0, 10378.0, 10373.0, 10345.0, 10366.0, 10384.0, 10404.0, 10395.0, 10387.0, 10370.0, 10383.0, 10379.0, 10399.0, 10394.0, 10382.0, 10397.0, 10366.0, 10381.0, 10394.0, 10374.0, 10401.0, 10389.0, 10374.0, 10363.0, 10336.0, 10375.0, 10372.0, 10370.0, 10375.0, 10394.0, 10377.0, 10395.0, 10379.0, 10398.0, 10385.0, 10373.0, 10364.0, 10341.0, 10341.0, 10367.0, 10381.0, 10393.0, 10391.0, 10377.0, 10373.0, 10371.0, 10379.0, 10375.0, 10367.0, 10359.0, 10393.0, 10404.0, 10386.0, 10371.0, 10380.0, 10380.0, 10379.0, 10388.0, 10399.0, 10412.0, 10420.0, 10423.0],
      "WindowWidth": [22153.0, 22061.0, 22014.0, 21981.0, 21985.0, 21989.0, 21976.0, 22010.0, 22000.0, 21979.0, 21974.0, 21988.0, 22012.0, 21969.0, 21930.0, 21914.0, 21921.0, 21935.0, 21931.0, 21940.0, 21974.0, 21971.0, 21967.0, 21957.0, 21982.0, 21988.0, 22035.0, 21996.0, 21998.0, 21962.0, 21938.0, 21973.0, 21983.0, 22015.0, 22062.0, 22038.0, 21997.0, 21966.0, 22011.0, 21969.0, 21987.0, 22020.0, 22048.0, 22017.0, 22011.0, 21990.0, 21959.0, 21998.0, 22015.0, 22047.0, 22072.0, 22052.0, 22087.0, 22082.0, 22063.0, 22105.0, 22093.0, 22116.0, 22078.0, 22100.0, 22050.0, 22069.0, 22025.0, 22030.0, 22079.0, 22091.0, 22099.0, 22092.0, 22093.0, 22059.0, 22031.0, 22026.0, 22012.0, 22034.0, 22033.0, 22092.0, 22126.0, 22158.0, 22149.0, 22137.0, 22126.0, 22056.0, 22061.0, 22055.0, 22082.0, 22097.0, 22095.0, 22053.0, 22065.0, 22089.0, 22087.0, 22082.0, 22073.0, 22082.0, 22107.0, 22090.0, 22090.0, 22035.0, 22008.0, 22012.0, 22023.0, 22002.0, 22004.0, 22044.0, 22036.0, 22077.0, 22042.0, 21994.0, 21971.0, 22009.0, 22050.0, 22068.0, 22038.0, 22024.0, 22011.0, 22010.0, 22018.0, 21999.0, 21973.0, 21967.0, 21990.0, 22043.0, 22007.0, 21970.0, 21972.0, 22009.0, 22013.0, 22008.0, 21988.0, 21995.0, 21982.0, 21926.0, 21970.0, 22006.0, 22061.0, 22038.0, 22027.0, 21984.0, 22005.0, 22003.0, 22053.0, 22042.0, 22008.0, 22040.0, 21973.0, 22008.0, 22032.0, 21994.0, 22059.0, 22032.0, 21998.0, 21969.0, 21907.0, 21982.0, 21981.0, 21977.0, 21990.0, 22039.0, 22000.0, 22040.0, 22006.0, 22048.0, 22027.0, 21995.0, 21973.0, 21917.0, 21919.0, 21973.0, 22011.0, 22045.0, 22030.0, 22002.0, 21988.0, 21983.0, 22007.0, 21991.0, 21974.0, 21965.0, 22040.0, 22064.0, 22022.0, 21990.0, 22005.0, 22003.0, 22006.0, 22024.0, 22040.0, 22067.0, 22087.0, 22093.0]
    },
    "slices": {}
  }
}