{
  "AcquisitionMatrixPE": 104,
  "AcquisitionNumber": 1,
  "AcquisitionTime": "17:57:11.157500",
  "BandwidthPerPixelPhaseEncode": 17.17,
  "BaseResolution": 104,
  "BodyPartExamined": "BRAIN",
  "CoilString": "HC1-7;NC1_2",
  "ConsistencyInfo": "N4_VE11C_LATEST_20160120",
  "ConversionSoftware": "dcm2niix",
  "ConversionSoftwareVersion": "v1.0.20190902",
  "DerivedVendorReportedEchoSpacing": 0.000560011,
  "DeviceSerialNumber": "167006",
  "DwellTime": 2.1e-06,
  "EchoTime": 0.037,
  "EchoTrainLength": 104,
  "EffectiveEchoSpacing": 0.000560011,
  "FlipAngle": 52,
  "ImageComments": "Unaliased_MB4_PE3_LB",
  "ImageOrientationPatientDICOM": [0.996669, 0.0625532, 0.0523167, -0.0332371, 0.897451, -0.43986],
  "ImageType": [
    "ORIGINAL",
    "PRIMARY",
    "P",
    "MB",
    "ND",
    "MOSAIC"
],
  "ImagingFrequency": 123.259,
  "InPlanePhaseEncodingDirectionDICOM": "COL",
  "InstitutionAddress": "Chemin_Queen-Mary_4565_Montreal_District_CA_H3W_1W5",
  "InstitutionName": "IUGM",
  "InstitutionalDepartmentName": "Department",
  "MRAcquisitionType": "2D",
  "MagneticFieldStrength": 3,
  "Manufacturer": "Siemens",
  "ManufacturersModelName": "Prisma_fit",
  "Modality": "MR",
  "MultibandAccelerationFactor": 4,
  "PartialFourier": 1,
  "PatientPosition": "HFS",
  "PercentPhaseFOV": 100,
  "PhaseEncodingDirection": "j",
  "PhaseEncodingSteps": 104,
  "PhaseResolution": 1,
  "PixelBandwidth": 2290,
  "ProcedureStepDescription": "memory_things",
  "ProtocolName": "func_task-things_run-3",
  "PulseSequenceDetails": "%CustomerSeq%_cmrr_mbep2d_bold",
  "ReceiveCoilActiveElements": "HC1-7;NC1,2",
  "ReceiveCoilName": "HeadNeck_64",
  "ReconMatrixPE": 104,
  "RepetitionTime": 1.49,
  "SAR": 0.0372094,
  "ScanOptions": "FS",
  "ScanningSequence": "EP",
  "SequenceName": "epfid2d1_104",
  "SequenceVariant": "SK_SS",
  "SeriesDescription": "func_task-things_run-3",
  "SeriesNumber": 17,
  "ShimSetting": [641, -7187, -8825, 600, 91, -6, -46, 3],
  "SliceThickness": 2,
  "SliceTiming": [0, 0.785, 0.1, 0.8825, 0.1975, 0.98, 0.295, 1.08, 0.3925, 1.1775, 0.49, 1.275, 0.59, 1.3725, 0.6875, 0, 0.785, 0.1, 0.8825, 0.1975, 0.98, 0.295, 1.08, 0.3925, 1.1775, 0.49, 1.275, 0.59, 1.3725, 0.6875, 0, 0.785, 0.1, 0.8825, 0.1975, 0.98, 0.295, 1.08, 0.3925, 1.1775, 0.49, 1.275, 0.59, 1.3725, 0.6875, 0, 0.785, 0.1, 0.8825, 0.1975, 0.98, 0.295, 1.08, 0.3925, 1.1775, 0.49, 1.275, 0.59, 1.3725, 0.6875],
  "SoftwareVersions": "syngo_MR_E11",
  "SpacingBetweenSlices": 2,
  "StationName": "MRC35049",
  "TaskName": "things",
  "TotalReadoutTime": 0.0576811,
  "TxRefAmp": 249.594,
  "WipMemBlock": "0fbeb093-6601-4613-911f-89e229ff1822||Sequence: R016 ve11c/master r/e634e98; Dec 19 2017 11:00:25 by eja",
  "dcmmeta_affine": [
    [-1.993338942527771, -0.06647421419620514, 0.1489325761795044, 106.43148040771484],
    [-0.12510636448860168, 1.7949020862579346, -0.8733125925064087, -47.87421417236328],
    [0.10463330149650574, 0.8797202110290527, 1.793082356452942, -72.94076538085938],
    [0.0, 0.0, 0.0, 1.0]
],
  "dcmmeta_reorient_transform": [
    [0.0, -1.0, 0.0, 103.0],
    [1.0, 0.0, 0.0, 0.0],
    [0.0, 0.0, 1.0, 0.0],
    [0.0, 0.0, 0.0, 1.0]
],
  "dcmmeta_shape": [104, 104, 60, 190],
  "dcmmeta_slice_dim": 2,
  "dcmmeta_version": 0.6,
  "global": {
    "const": {
      "AcquisitionMatrix": [104, 0, 0, 104],
      "AngioFlag": "N",
      "BitsAllocated": 16,
      "BitsStored": 16,
      "BodyPartExamined": "BRAIN",
      "Columns": 832,
      "EchoNumbers": 1,
      "EchoTime": 37.0,
      "EchoTrainLength": 104,
      "FlipAngle": 52.0,
      "HighBit": 15,
      "ImageOrientationPatient": [0.99666948768755, 0.06255317983251, 0.05231665132141, -0.0332371058491, 0.89745104895912, -0.4398601022109],
      "ImagePositionPatient": [-800.96341274299, -835.88378141616, 299.8020511797],
      "ImageType": [
        "ORIGINAL",
        "PRIMARY",
        "P",
        "MB",
        "ND",
        "MOSAIC"
],
      "ImagedNucleus": "1H",
      "ImagingFrequency": 123.258953,
      "InPlanePhaseEncodingDirection": "COL",
      "LargestImagePixelValue": 4095,
      "MRAcquisitionType": "2D",
      "MagneticFieldStrength": 3.0,
      "Manufacturer": "SIEMENS",
      "ManufacturerModelName": "Prisma_fit",
      "Modality": "MR",
      "NumberOfAverages": 1.0,
      "NumberOfPhaseEncodingSteps": 104,
      "PercentPhaseFieldOfView": 100.0,
      "PercentSampling": 100.0,
      "PerformedProcedureStepStartTime": "165302.487000",
      "PhotometricInterpretation": "MONOCHROME2",
      "PixelBandwidth": 2290.0,
      "PixelRepresentation": 0,
      "PixelSpacing": [2.0, 2.0],
      "ProtocolName": "func_task-things_run-3",
      "RepetitionTime": 1490.0,
      "RescaleIntercept": -4096.0,
      "RescaleSlope": 2.0,
      "RescaleType": "US",
      "Rows": 832,
      "SAR": 0.03720944334455,
      "SamplesPerPixel": 1,
      "ScanOptions": "FS",
      "ScanningSequence": "EP",
      "SequenceName": "epfid2d1_104",
      "SequenceVariant": [
        "SK",
        "SS"
],
      "SeriesDescription": "func_task-things_run-3",
      "SeriesNumber": 17,
      "SeriesTime": "175830.169000",
      "SliceLocation": -36.564262734541,
      "SliceThickness": 2.0,
      "SmallestImagePixelValue": 0,
      "SoftwareVersions": "syngo MR E11",
      "SpacingBetweenSlices": 2.0000000766485,
      "SpecificCharacterSet": "ISO_IR 100",
      "StudyID": "1",
      "StudyTime": "165302.425000",
      "TransmitCoilName": "Body",
      "VariableFlipAngleFlag": "N",
      "WindowCenterWidthExplanation": "Algo1",
      "dBdt": 0.0},
    "slices": {}
  },
  "time": {
    "samples": {
      "AcquisitionNumber": [1, 2, 3, 4, 5, 6, 7, 8, 9, 10, 11, 12, 13, 14, 15, 16, 17, 18, 19, 20, 21, 22, 23, 24, 25, 26, 27, 28, 29, 30, 31, 32, 33, 34, 35, 36, 37, 38, 39, 40, 41, 42, 43, 44, 45, 46, 47, 48, 49, 50, 51, 52, 53, 54, 55, 56, 57, 58, 59, 60, 61, 62, 63, 64, 65, 66, 67, 68, 69, 70, 71, 72, 73, 74, 75, 76, 77, 78, 79, 80, 81, 82, 83, 84, 85, 86, 87, 88, 89, 90, 91, 92, 93, 94, 95, 96, 97, 98, 99, 100, 101, 102, 103, 104, 105, 106, 107, 108, 109, 110, 111, 112, 113, 114, 115, 116, 117, 118, 119, 120, 121, 122, 123, 124, 125, 126, 127, 128, 129, 130, 131, 132, 133, 134, 135, 136, 137, 138, 139, 140, 141, 142, 143, 144, 145, 146, 147, 148, 149, 150, 151, 152, 153, 154, 155, 156, 157, 158, 159, 160, 161, 162, 163, 164, 165, 166, 167, 168, 169, 170, 171, 172, 173, 174, 175, 176, 177, 178, 179, 180, 181, 182, 183, 184, 185, 186, 187, 188, 189, 190],
      "AcquisitionTime": ["175711.157500", "175712.647500", "175714.137500", "175715.627500", "175717.117500", "175718.607500", "175720.097500", "175721.587500", "175723.077500", "175724.567500", "175726.057500", "175727.547500", "175729.037500", "175730.527500", "175732.017500", "175733.507500", "175734.997500", "175736.487500", "175737.977500", "175739.467500", "175740.957500", "175742.447500", "175743.937500", "175745.427500", "175746.917500", "175748.407500", "175749.897500", "175751.387500", "175752.877500", "175754.367500", "175755.857500", "175757.347500", "175758.837500", "175800.327500", "175801.817500", "175803.307500", "175804.797500", "175806.287500", "175807.777500", "175809.267500", "175810.757500", "175812.247500", "175813.737500", "175815.227500", "175816.717500", "175818.207500", "175819.697500", "175821.187500", "175822.677500", "175824.167500", "175825.657500", "175827.147500", "175828.637500", "175830.127500", "175831.617500", "175833.107500", "175834.597500", "175836.087500", "175837.577500", "175839.067500", "175840.557500", "175842.047500", "175843.537500", "175845.027500", "175846.517500", "175848.007500", "175849.497500", "175850.987500", "175852.477500", "175853.967500", "175855.457500", "175856.947500", "175858.437500", "175859.927500", "175901.417500", "175902.907500", "175904.397500", "175905.887500", "175907.377500", "175908.867500", "175910.357500", "175911.847500", "175913.337500", "175914.827500", "175916.317500", "175917.807500", "175919.297500", "175920.787500", "175922.277500", "175923.767500", "175925.257500", "175926.747500", "175928.237500", "175929.727500", "175931.217500", "175932.707500", "175934.197500", "175935.687500", "175937.177500", "175938.667500", "175940.157500", "175941.647500", "175943.137500", "175944.627500", "175946.117500", "175947.607500", "175949.097500", "175950.587500", "175952.077500", "175953.567500", "175955.057500", "175956.547500", "175958.037500", "175959.527500", "180001.017500", "180002.507500", "180003.997500", "180005.487500", "180006.977500", "180008.467500", "180009.957500", "180011.447500", "180012.937500", "180014.427500", "180015.917500", "180017.407500", "180018.897500", "180020.387500", "180021.877500", "180023.367500", "180024.857500", "180026.347500", "180027.837500", "180029.327500", "180030.817500", "180032.307500", "180033.797500", "180035.287500", "180036.777500", "180038.267500", "180039.757500", "180041.247500", "180042.737500", "180044.227500", "180045.717500", "180047.207500", "180048.697500", "180050.187500", "180051.677500", "180053.167500", "180054.657500", "180056.147500", "180057.637500", "180059.127500", "180100.617500", "180102.107500", "180103.597500", "180105.087500", "180106.577500", "180108.067500", "180109.557500", "180111.047500", "180112.537500", "180114.027500", "180115.517500", "180117.007500", "180118.497500", "180119.987500", "180121.477500", "180122.967500", "180124.457500", "180125.947500", "180127.437500", "180128.927500", "180130.417500", "180131.907500", "180133.397500", "180134.887500", "180136.377500", "180137.867500", "180139.357500", "180140.847500", "180142.337500", "180143.827500", "180145.317500", "180146.807500", "180148.297500", "180149.787500", "180151.277500", "180152.767500"],
      "ContentTime": ["175830.171000", "175830.174000", "175830.177000", "175830.179000", "175830.182000", "175830.184000", "175830.186000", "175830.189000", "175830.192000", "175830.194000", "175830.203000", "175830.206000", "175830.208000", "175830.210000", "175830.213000", "175830.215000", "175830.218000", "175830.220000", "175830.223000", "175830.225000", "175830.228000", "175830.230000", "175830.233000", "175830.235000", "175850.117000", "175850.138000", "175850.140000", "175850.143000", "175850.145000", "175850.148000", "175850.150000", "175850.153000", "175850.155000", "175850.158000", "175850.160000", "175850.163000", "175850.165000", "175850.168000", "175850.170000", "175850.173000", "175850.175000", "175850.177000", "175850.180000", "175850.182000", "175910.122000", "175910.124000", "175910.127000", "175910.129000", "175910.132000", "175910.134000", "175910.137000", "175910.139000", "175910.142000", "175910.144000", "175910.147000", "175910.149000", "175910.152000", "175910.154000", "175910.157000", "175910.159000", "175910.162000", "175910.164000", "175910.167000", "175910.169000", "175910.171000", "175930.122000", "175930.124000", "175930.127000", "175930.129000", "175930.132000", "175930.134000", "175930.137000", "175930.139000", "175930.142000", "175930.144000", "175930.147000", "175930.149000", "175930.152000", "175930.154000", "175930.157000", "175930.159000", "175930.162000", "175930.164000", "175930.167000", "175930.169000", "175950.126000", "175950.129000", "175950.132000", "175950.134000", "175950.137000", "175950.139000", "175950.142000", "175950.144000", "175950.147000", "175950.149000", "175950.152000", "175950.154000", "175950.157000", "175950.159000", "175950.162000", "175950.164000", "175950.167000", "175950.169000", "175950.171000", "175950.174000", "180030.168000", "180030.171000", "180030.173000", "180030.176000", "180030.179000", "180030.181000", "180030.183000", "180030.186000", "180030.189000", "180030.191000", "180030.193000", "180030.196000", "180030.198000", "180030.201000", "180030.203000", "180030.206000", "180030.208000", "180030.211000", "180030.213000", "180030.216000", "180030.218000", "180030.221000", "180030.223000", "180030.226000", "180030.229000", "180030.231000", "180030.233000", "180030.236000", "180050.086000", "180050.089000", "180050.091000", "180050.094000", "180050.097000", "180050.099000", "180050.101000", "180050.104000", "180050.107000", "180050.109000", "180050.111000", "180050.114000", "180050.117000", "180130.151000", "180130.154000", "180130.156000", "180130.159000", "180130.161000", "180130.164000", "180130.166000", "180130.169000", "180130.173000", "180130.176000", "180130.178000", "180130.181000", "180130.183000", "180130.186000", "180130.188000", "180130.191000", "180130.193000", "180130.196000", "180130.198000", "180130.201000", "180130.203000", "180130.206000", "180130.208000", "180130.211000", "180130.213000", "180130.216000", "180130.218000", "180155.021000", "180155.024000", "180155.027000", "180155.033000", "180155.036000", "180155.038000", "180155.041000", "180155.044000", "180155.046000", "180155.049000", "180155.051000", "180155.054000", "180155.057000", "180155.060000", "180155.062000", "180155.065000", "180155.067000"],
      "InstanceCreationTime": ["175830.171000", "175830.174000", "175830.177000", "175830.179000", "175830.182000", "175830.184000", "175830.186000", "175830.189000", "175830.192000", "175830.194000", "175830.203000", "175830.206000", "175830.208000", "175830.210000", "175830.213000", "175830.215000", "175830.218000", "175830.220000", "175830.223000", "175830.225000", "175830.228000", "175830.230000", "175830.233000", "175830.235000", "175850.117000", "175850.138000", "175850.140000", "175850.143000", "175850.145000", "175850.148000", "175850.150000", "175850.153000", "175850.155000", "175850.158000", "175850.160000", "175850.163000", "175850.165000", "175850.168000", "175850.170000", "175850.173000", "175850.175000", "175850.177000", "175850.180000", "175850.182000", "175910.122000", "175910.124000", "175910.127000", "175910.129000", "175910.132000", "175910.134000", "175910.137000", "175910.139000", "175910.142000", "175910.144000", "175910.147000", "175910.149000", "175910.152000", "175910.154000", "175910.157000", "175910.159000", "175910.162000", "175910.164000", "175910.167000", "175910.169000", "175910.171000", "175930.122000", "175930.124000", "175930.127000", "175930.129000", "175930.132000", "175930.134000", "175930.137000", "175930.139000", "175930.142000", "175930.144000", "175930.147000", "175930.149000", "175930.152000", "175930.154000", "175930.157000", "175930.159000", "175930.162000", "175930.164000", "175930.167000", "175930.169000", "175950.126000", "175950.129000", "175950.132000", "175950.134000", "175950.137000", "175950.139000", "175950.142000", "175950.144000", "175950.147000", "175950.149000", "175950.152000", "175950.154000", "175950.157000", "175950.159000", "175950.162000", "175950.164000", "175950.167000", "175950.169000", "175950.171000", "175950.174000", "180030.168000", "180030.171000", "180030.173000", "180030.176000", "180030.179000", "180030.181000", "180030.183000", "180030.186000", "180030.189000", "180030.191000", "180030.193000", "180030.196000", "180030.198000", "180030.201000", "180030.203000", "180030.206000", "180030.208000", "180030.211000", "180030.213000", "180030.216000", "180030.218000", "180030.221000", "180030.223000", "180030.226000", "180030.229000", "180030.231000", "180030.233000", "180030.236000", "180050.086000", "180050.089000", "180050.091000", "180050.094000", "180050.097000", "180050.099000", "180050.101000", "180050.104000", "180050.107000", "180050.109000", "180050.111000", "180050.114000", "180050.117000", "180130.151000", "180130.154000", "180130.156000", "180130.159000", "180130.161000", "180130.164000", "180130.166000", "180130.169000", "180130.173000", "180130.176000", "180130.178000", "180130.181000", "180130.183000", "180130.186000", "180130.188000", "180130.191000", "180130.193000", "180130.196000", "180130.198000", "180130.201000", "180130.203000", "180130.206000", "180130.208000", "180130.211000", "180130.213000", "180130.216000", "180130.218000", "180155.021000", "180155.024000", "180155.027000", "180155.033000", "180155.036000", "180155.038000", "180155.041000", "180155.044000", "180155.046000", "180155.049000", "180155.051000", "180155.054000", "180155.057000", "180155.060000", "180155.062000", "180155.065000", "180155.067000"],
      "InstanceNumber": [1, 2, 3, 4, 5, 6, 7, 8, 9, 10, 11, 12, 13, 14, 15, 16, 17, 18, 19, 20, 21, 22, 23, 24, 25, 26, 27, 28, 29, 30, 31, 32, 33, 34, 35, 36, 37, 38, 39, 40, 41, 42, 43, 44, 45, 46, 47, 48, 49, 50, 51, 52, 53, 54, 55, 56, 57, 58, 59, 60, 61, 62, 63, 64, 65, 66, 67, 68, 69, 70, 71, 72, 73, 74, 75, 76, 77, 78, 79, 80, 81, 82, 83, 84, 85, 86, 87, 88, 89, 90, 91, 92, 93, 94, 95, 96, 97, 98, 99, 100, 101, 102, 103, 104, 105, 106, 107, 108, 109, 110, 111, 112, 113, 114, 115, 116, 117, 118, 119, 120, 121, 122, 123, 124, 125, 126, 127, 128, 129, 130, 131, 132, 133, 134, 135, 136, 137, 138, 139, 140, 141, 142, 143, 144, 145, 146, 147, 148, 149, 150, 151, 152, 153, 154, 155, 156, 157, 158, 159, 160, 161, 162, 163, 164, 165, 166, 167, 168, 169, 170, 171, 172, 173, 174, 175, 176, 177, 178, 179, 180, 181, 182, 183, 184, 185, 186, 187, 188, 189, 190],
      "WindowCenter": [4792.0, 4822.0, 4826.0, 4822.0, 4816.0, 4810.0, 4806.0, 4808.0, 4788.0, 4794.0, 4826.0, 4826.0, 4798.0, 4792.0, 4790.0, 4810.0, 4810.0, 4788.0, 4792.0, 4792.0, 4796.0, 4818.0, 4796.0, 4792.0, 4790.0, 4790.0, 4792.0, 4810.0, 4814.0, 4814.0, 4792.0, 4814.0, 4792.0, 4794.0, 4794.0, 4794.0, 4792.0, 4788.0, 4794.0, 4814.0, 4788.0, 4788.0, 4792.0, 4820.0, 4822.0, 4818.0, 4796.0, 4816.0, 4810.0, 4816.0, 4812.0, 4810.0, 4788.0, 4822.0, 4830.0, 4822.0, 4792.0, 4820.0, 4794.0, 4794.0, 4790.0, 4812.0, 4814.0, 4784.0, 4790.0, 4820.0, 4854.0, 4852.0, 4826.0, 4818.0, 4780.0, 4812.0, 4814.0, 4810.0, 4816.0, 4792.0, 4794.0, 4796.0, 4798.0, 4796.0, 4790.0, 4790.0, 4788.0, 4788.0, 4786.0, 4794.0, 4796.0, 4794.0, 4794.0, 4790.0, 4792.0, 4818.0, 4794.0, 4788.0, 4810.0, 4786.0, 4794.0, 4848.0, 4854.0, 4848.0, 4818.0, 4786.0, 4812.0, 4814.0, 4810.0, 4792.0, 4798.0, 4796.0, 4792.0, 4794.0, 4796.0, 4792.0, 4790.0, 4790.0, 4790.0, 4790.0, 4790.0, 4818.0, 4796.0, 4790.0, 4788.0, 4792.0, 4792.0, 4798.0, 4824.0, 4848.0, 4820.0, 4786.0, 4812.0, 4810.0, 4808.0, 4790.0, 4822.0, 4824.0, 4796.0, 4794.0, 4794.0, 4790.0, 4788.0, 4792.0, 4786.0, 4786.0, 4788.0, 4794.0, 4796.0, 4822.0, 4820.0, 4788.0, 4790.0, 4790.0, 4792.0, 4786.0, 4790.0, 4822.0, 4852.0, 4852.0, 4828.0, 4788.0, 4812.0, 4810.0, 4812.0, 4790.0, 4820.0, 4826.0, 4798.0, 4792.0, 4788.0, 4790.0, 4790.0, 4792.0, 4790.0, 4786.0, 4788.0, 4792.0, 4792.0, 4818.0, 4824.0, 4848.0, 4850.0, 4820.0, 4788.0, 4808.0, 4812.0, 4786.0, 4790.0, 4796.0, 4822.0, 4822.0, 4798.0, 4796.0],
      "WindowWidth": [18556.0, 18588.0, 18592.0, 18590.0, 18596.0, 18600.0, 18602.0, 18602.0, 18564.0, 18552.0, 18598.0, 18596.0, 18556.0, 18558.0, 18564.0, 18592.0, 18594.0, 18562.0, 18562.0, 18552.0, 18554.0, 18584.0, 18558.0, 18556.0, 18552.0, 18552.0, 18560.0, 18586.0, 18596.0, 18590.0, 18560.0, 18586.0, 18552.0, 18556.0, 18556.0, 18554.0, 18556.0, 18552.0, 18556.0, 18590.0, 18560.0, 18556.0, 18550.0, 18588.0, 18588.0, 18582.0, 18552.0, 18582.0, 18582.0, 18606.0, 18610.0, 18602.0, 18554.0, 18586.0, 18592.0, 18586.0, 18552.0, 18586.0, 18558.0, 18558.0, 18562.0, 18602.0, 18602.0, 18562.0, 18554.0, 18586.0, 18624.0, 18634.0, 18592.0, 18586.0, 18568.0, 18614.0, 18614.0, 18600.0, 18588.0, 18554.0, 18552.0, 18556.0, 18554.0, 18546.0, 18548.0, 18554.0, 18564.0, 18564.0, 18562.0, 18560.0, 18550.0, 18556.0, 18556.0, 18552.0, 18544.0, 18580.0, 18554.0, 18560.0, 18602.0, 18558.0, 18554.0, 18628.0, 18638.0, 18626.0, 18586.0, 18566.0, 18614.0, 18618.0, 18594.0, 18554.0, 18556.0, 18554.0, 18548.0, 18554.0, 18552.0, 18556.0, 18560.0, 18556.0, 18556.0, 18562.0, 18554.0, 18586.0, 18550.0, 18554.0, 18558.0, 18558.0, 18548.0, 18558.0, 18588.0, 18620.0, 18588.0, 18562.0, 18612.0, 18618.0, 18600.0, 18548.0, 18584.0, 18586.0, 18554.0, 18546.0, 18554.0, 18556.0, 18554.0, 18554.0, 18562.0, 18566.0, 18560.0, 18556.0, 18558.0, 18584.0, 18584.0, 18552.0, 18554.0, 18556.0, 18560.0, 18558.0, 18556.0, 18590.0, 18626.0, 18628.0, 18590.0, 18558.0, 18616.0, 18618.0, 18616.0, 18554.0, 18588.0, 18590.0, 18550.0, 18558.0, 18550.0, 18558.0, 18554.0, 18560.0, 18560.0, 18560.0, 18558.0, 18558.0, 18554.0, 18582.0, 18588.0, 18624.0, 18620.0, 18592.0, 18562.0, 18600.0, 18614.0, 18570.0, 18562.0, 18558.0, 18588.0, 18582.0, 18554.0, 18552.0]
    },
    "slices": {}
  }
}