{
  "AcquisitionMatrixPE": 104,
  "AcquisitionNumber": 1,
  "AcquisitionTime": "18:18:51.222500",
  "BandwidthPerPixelPhaseEncode": 17.17,
  "BaseResolution": 104,
  "BodyPartExamined": "BRAIN",
  "CoilString": "HC1-7;NC1_2",
  "ConsistencyInfo": "N4_VE11C_LATEST_20160120",
  "ConversionSoftware": "dcm2niix",
  "ConversionSoftwareVersion": "v1.0.20190902",
  "DerivedVendorReportedEchoSpacing": 0.000560011,
  "DeviceSerialNumber": "167006",
  "DwellTime": 2.1e-06,
  "EchoTime": 0.037,
  "EchoTrainLength": 104,
  "EffectiveEchoSpacing": 0.000560011,
  "FlipAngle": 52,
  "ImageComments": "Unaliased_MB4_PE3_LB",
  "ImageOrientationPatientDICOM": [0.996669, 0.0625532, 0.0523167, -0.0332371, 0.897451, -0.43986],
  "ImageType": [
    "ORIGINAL",
    "PRIMARY",
    "M",
    "MB",
    "ND",
    "MOSAIC"
],
  "ImagingFrequency": 123.259,
  "InPlanePhaseEncodingDirectionDICOM": "COL",
  "InstitutionAddress": "Chemin_Queen-Mary_4565_Montreal_District_CA_H3W_1W5",
  "InstitutionName": "IUGM",
  "InstitutionalDepartmentName": "Department",
  "MRAcquisitionType": "2D",
  "MagneticFieldStrength": 3,
  "Manufacturer": "Siemens",
  "ManufacturersModelName": "Prisma_fit",
  "Modality": "MR",
  "MultibandAccelerationFactor": 4,
  "PartialFourier": 1,
  "PatientPosition": "HFS",
  "PercentPhaseFOV": 100,
  "PhaseEncodingDirection": "j",
  "PhaseEncodingSteps": 104,
  "PhaseResolution": 1,
  "PixelBandwidth": 2290,
  "ProcedureStepDescription": "memory_things",
  "ProtocolName": "func_task-things_run-6",
  "PulseSequenceDetails": "%CustomerSeq%_cmrr_mbep2d_bold",
  "ReceiveCoilActiveElements": "HC1-7;NC1,2",
  "ReceiveCoilName": "HeadNeck_64",
  "ReconMatrixPE": 104,
  "RepetitionTime": 1.49,
  "SAR": 0.0372094,
  "ScanOptions": "FS",
  "ScanningSequence": "EP",
  "SequenceName": "epfid2d1_104",
  "SequenceVariant": "SK_SS",
  "SeriesDescription": "func_task-things_run-6",
  "SeriesNumber": 25,
  "ShimSetting": [641, -7187, -8825, 600, 91, -6, -46, 3],
  "SliceThickness": 2,
  "SliceTiming": [0, 0.785, 0.0975, 0.8825, 0.1975, 0.98, 0.295, 1.0775, 0.3925, 1.1775, 0.49, 1.275, 0.5875, 1.3725, 0.6875, 0, 0.785, 0.0975, 0.8825, 0.1975, 0.98, 0.295, 1.0775, 0.3925, 1.1775, 0.49, 1.275, 0.5875, 1.3725, 0.6875, 0, 0.785, 0.0975, 0.8825, 0.1975, 0.98, 0.295, 1.0775, 0.3925, 1.1775, 0.49, 1.275, 0.5875, 1.3725, 0.6875, 0, 0.785, 0.0975, 0.8825, 0.1975, 0.98, 0.295, 1.0775, 0.3925, 1.1775, 0.49, 1.275, 0.5875, 1.3725, 0.6875],
  "SoftwareVersions": "syngo_MR_E11",
  "SpacingBetweenSlices": 2,
  "StationName": "MRC35049",
  "TaskName": "things",
  "TotalReadoutTime": 0.0576811,
  "TxRefAmp": 249.594,
  "WipMemBlock": "d8bc0f8b-1f02-410b-a4a9-0dc5a578bf5e||Sequence: R016 ve11c/master r/e634e98; Dec 19 2017 11:00:25 by eja",
  "dcmmeta_affine": [
    [-1.993338942527771, -0.06647421419620514, 0.1489325761795044, 106.43148040771484],
    [-0.12510636448860168, 1.7949020862579346, -0.8733125925064087, -47.87421417236328],
    [0.10463330149650574, 0.8797202110290527, 1.793082356452942, -72.94076538085938],
    [0.0, 0.0, 0.0, 1.0]
],
  "dcmmeta_reorient_transform": [
    [0.0, -1.0, 0.0, 103.0],
    [1.0, 0.0, 0.0, 0.0],
    [0.0, 0.0, 1.0, 0.0],
    [0.0, 0.0, 0.0, 1.0]
],
  "dcmmeta_shape": [104, 104, 60, 190],
  "dcmmeta_slice_dim": 2,
  "dcmmeta_version": 0.6,
  "global": {
    "const": {
      "AcquisitionMatrix": [104, 0, 0, 104],
      "AngioFlag": "N",
      "BitsAllocated": 16,
      "BitsStored": 16,
      "BodyPartExamined": "BRAIN",
      "Columns": 832,
      "EchoNumbers": 1,
      "EchoTime": 37.0,
      "EchoTrainLength": 104,
      "FlipAngle": 52.0,
      "HighBit": 15,
      "ImageOrientationPatient": [0.99666948768755, 0.06255317983251, 0.05231665132141, -0.0332371058491, 0.89745104895912, -0.4398601022109],
      "ImagePositionPatient": [-800.96341274299, -835.88378141616, 299.8020511797],
      "ImageType": [
        "ORIGINAL",
        "PRIMARY",
        "M",
        "MB",
        "ND",
        "MOSAIC"
],
      "ImagedNucleus": "1H",
      "ImagingFrequency": 123.258964,
      "InPlanePhaseEncodingDirection": "COL",
      "MRAcquisitionType": "2D",
      "MagneticFieldStrength": 3.0,
      "Manufacturer": "SIEMENS",
      "ManufacturerModelName": "Prisma_fit",
      "Modality": "MR",
      "NumberOfAverages": 1.0,
      "NumberOfPhaseEncodingSteps": 104,
      "PercentPhaseFieldOfView": 100.0,
      "PercentSampling": 100.0,
      "PerformedProcedureStepStartTime": "165302.487000",
      "PhotometricInterpretation": "MONOCHROME2",
      "PixelBandwidth": 2290.0,
      "PixelRepresentation": 0,
      "PixelSpacing": [2.0, 2.0],
      "ProtocolName": "func_task-things_run-6",
      "RepetitionTime": 1490.0,
      "Rows": 832,
      "SAR": 0.03720944334455,
      "SamplesPerPixel": 1,
      "ScanOptions": "FS",
      "ScanningSequence": "EP",
      "SequenceName": "epfid2d1_104",
      "SequenceVariant": [
        "SK",
        "SS"
],
      "SeriesDescription": "func_task-things_run-6",
      "SeriesNumber": 25,
      "SeriesTime": "182010.045000",
      "SliceLocation": -36.564262734541,
      "SliceThickness": 2.0,
      "SmallestImagePixelValue": 0,
      "SoftwareVersions": "syngo MR E11",
      "SpacingBetweenSlices": 2.0000000766485,
      "SpecificCharacterSet": "ISO_IR 100",
      "StudyID": "1",
      "StudyTime": "165302.425000",
      "TransmitCoilName": "Body",
      "VariableFlipAngleFlag": "N",
      "WindowCenterWidthExplanation": "Algo1",
      "dBdt": 0.0},
    "slices": {}
  },
  "time": {
    "samples": {
      "AcquisitionNumber": [1, 2, 3, 4, 5, 6, 7, 8, 9, 10, 11, 12, 13, 14, 15, 16, 17, 18, 19, 20, 21, 22, 23, 24, 25, 26, 27, 28, 29, 30, 31, 32, 33, 34, 35, 36, 37, 38, 39, 40, 41, 42, 43, 44, 45, 46, 47, 48, 49, 50, 51, 52, 53, 54, 55, 56, 57, 58, 59, 60, 61, 62, 63, 64, 65, 66, 67, 68, 69, 70, 71, 72, 73, 74, 75, 76, 77, 78, 79, 80, 81, 82, 83, 84, 85, 86, 87, 88, 89, 90, 91, 92, 93, 94, 95, 96, 97, 98, 99, 100, 101, 102, 103, 104, 105, 106, 107, 108, 109, 110, 111, 112, 113, 114, 115, 116, 117, 118, 119, 120, 121, 122, 123, 124, 125, 126, 127, 128, 129, 130, 131, 132, 133, 134, 135, 136, 137, 138, 139, 140, 141, 142, 143, 144, 145, 146, 147, 148, 149, 150, 151, 152, 153, 154, 155, 156, 157, 158, 159, 160, 161, 162, 163, 164, 165, 166, 167, 168, 169, 170, 171, 172, 173, 174, 175, 176, 177, 178, 179, 180, 181, 182, 183, 184, 185, 186, 187, 188, 189, 190],
      "AcquisitionTime": ["181851.222500", "181852.712500", "181854.202500", "181855.692500", "181857.182500", "181858.672500", "181900.162500", "181901.652500", "181903.142500", "181904.632500", "181906.122500", "181907.612500", "181909.102500", "181910.592500", "181912.082500", "181913.572500", "181915.062500", "181916.552500", "181918.042500", "181919.532500", "181921.022500", "181922.512500", "181924.002500", "181925.492500", "181926.982500", "181928.472500", "181929.962500", "181931.452500", "181932.942500", "181934.432500", "181935.922500", "181937.412500", "181938.902500", "181940.392500", "181941.882500", "181943.372500", "181944.862500", "181946.352500", "181947.842500", "181949.332500", "181950.822500", "181952.312500", "181953.802500", "181955.292500", "181956.782500", "181958.272500", "181959.762500", "182001.252500", "182002.742500", "182004.232500", "182005.722500", "182007.212500", "182008.702500", "182010.192500", "182011.682500", "182013.172500", "182014.662500", "182016.152500", "182017.642500", "182019.132500", "182020.622500", "182022.112500", "182023.602500", "182025.092500", "182026.582500", "182028.072500", "182029.562500", "182031.052500", "182032.542500", "182034.032500", "182035.522500", "182037.012500", "182038.502500", "182039.992500", "182041.482500", "182042.972500", "182044.462500", "182045.952500", "182047.442500", "182048.932500", "182050.422500", "182051.912500", "182053.402500", "182054.892500", "182056.382500", "182057.872500", "182059.362500", "182100.852500", "182102.342500", "182103.832500", "182105.322500", "182106.812500", "182108.302500", "182109.792500", "182111.282500", "182112.772500", "182114.262500", "182115.752500", "182117.242500", "182118.732500", "182120.222500", "182121.712500", "182123.202500", "182124.692500", "182126.182500", "182127.672500", "182129.162500", "182130.652500", "182132.142500", "182133.632500", "182135.122500", "182136.612500", "182138.102500", "182139.592500", "182141.082500", "182142.572500", "182144.062500", "182145.552500", "182147.042500", "182148.532500", "182150.022500", "182151.512500", "182153.002500", "182154.492500", "182155.982500", "182157.472500", "182158.962500", "182200.452500", "182201.942500", "182203.432500", "182204.922500", "182206.412500", "182207.902500", "182209.392500", "182210.882500", "182212.372500", "182213.862500", "182215.352500", "182216.842500", "182218.332500", "182219.822500", "182221.312500", "182222.802500", "182224.292500", "182225.782500", "182227.272500", "182228.762500", "182230.252500", "182231.742500", "182233.232500", "182234.722500", "182236.212500", "182237.702500", "182239.192500", "182240.682500", "182242.172500", "182243.662500", "182245.152500", "182246.642500", "182248.132500", "182249.622500", "182251.112500", "182252.602500", "182254.092500", "182255.582500", "182257.072500", "182258.562500", "182300.052500", "182301.542500", "182303.032500", "182304.522500", "182306.012500", "182307.502500", "182308.992500", "182310.482500", "182311.972500", "182313.462500", "182314.952500", "182316.442500", "182317.932500", "182319.422500", "182320.912500", "182322.402500", "182323.892500", "182325.382500", "182326.872500", "182328.362500", "182329.852500", "182331.342500", "182332.832500"],
      "ContentTime": ["182010.048000", "182010.052000", "182010.056000", "182010.070000", "182010.073000", "182010.077000", "182010.080000", "182010.083000", "182010.086000", "182010.090000", "182010.093000", "182010.096000", "182010.100000", "182010.103000", "182010.106000", "182010.110000", "182010.113000", "182010.116000", "182010.119000", "182010.122000", "182010.127000", "182010.145000", "182030.007000", "182030.011000", "182030.014000", "182030.017000", "182030.021000", "182030.024000", "182030.027000", "182030.030000", "182030.034000", "182030.037000", "182030.040000", "182030.043000", "182030.047000", "182030.050000", "182030.053000", "182030.057000", "182030.060000", "182030.063000", "182030.066000", "182030.070000", "182030.073000", "182050.007000", "182050.016000", "182050.019000", "182050.022000", "182050.026000", "182050.029000", "182050.032000", "182050.035000", "182050.039000", "182050.042000", "182050.045000", "182050.049000", "182050.052000", "182050.055000", "182050.058000", "182050.062000", "182050.065000", "182050.068000", "182050.072000", "182050.075000", "182110.007000", "182110.011000", "182110.014000", "182110.017000", "182110.020000", "182110.024000", "182110.027000", "182110.030000", "182110.033000", "182110.037000", "182110.040000", "182110.043000", "182110.047000", "182110.050000", "182110.053000", "182110.057000", "182110.060000", "182110.063000", "182110.067000", "182110.070000", "182130.007000", "182130.011000", "182130.014000", "182130.017000", "182130.021000", "182130.024000", "182130.027000", "182130.031000", "182130.034000", "182130.037000", "182130.040000", "182130.044000", "182130.047000", "182130.050000", "182130.060000", "182130.064000", "182130.067000", "182130.070000", "182130.074000", "182130.078000", "182210.007000", "182210.011000", "182210.014000", "182210.018000", "182210.021000", "182210.024000", "182210.027000", "182210.031000", "182210.034000", "182210.037000", "182210.041000", "182210.044000", "182210.047000", "182210.050000", "182210.054000", "182210.057000", "182210.060000", "182210.064000", "182210.067000", "182210.070000", "182210.074000", "182210.077000", "182210.080000", "182210.083000", "182210.087000", "182210.103000", "182210.106000", "182210.109000", "182210.113000", "182210.116000", "182250.007000", "182250.011000", "182250.014000", "182250.018000", "182250.021000", "182250.024000", "182250.028000", "182250.031000", "182250.035000", "182250.038000", "182250.042000", "182250.045000", "182250.049000", "182250.052000", "182250.056000", "182250.059000", "182250.062000", "182250.065000", "182250.069000", "182250.072000", "182250.075000", "182250.079000", "182250.082000", "182250.085000", "182250.089000", "182250.092000", "182330.007000", "182330.011000", "182330.014000", "182330.018000", "182330.021000", "182330.024000", "182330.028000", "182330.031000", "182330.034000", "182330.037000", "182330.041000", "182330.044000", "182330.047000", "182330.051000", "182330.054000", "182330.057000", "182330.061000", "182330.064000", "182330.067000", "182330.071000", "182330.074000", "182330.077000", "182330.080000", "182330.084000", "182330.087000", "182330.090000", "182330.094000", "182334.791000", "182334.795000", "182334.798000", "182334.801000"],
      "InstanceCreationTime": ["182010.048000", "182010.052000", "182010.056000", "182010.070000", "182010.073000", "182010.077000", "182010.080000", "182010.083000", "182010.086000", "182010.090000", "182010.093000", "182010.096000", "182010.100000", "182010.103000", "182010.106000", "182010.110000", "182010.113000", "182010.116000", "182010.119000", "182010.122000", "182010.127000", "182010.145000", "182030.007000", "182030.011000", "182030.014000", "182030.017000", "182030.021000", "182030.024000", "182030.027000", "182030.030000", "182030.034000", "182030.037000", "182030.040000", "182030.043000", "182030.047000", "182030.050000", "182030.053000", "182030.057000", "182030.060000", "182030.063000", "182030.066000", "182030.070000", "182030.073000", "182050.007000", "182050.016000", "182050.019000", "182050.022000", "182050.026000", "182050.029000", "182050.032000", "182050.035000", "182050.039000", "182050.042000", "182050.045000", "182050.049000", "182050.052000", "182050.055000", "182050.058000", "182050.062000", "182050.065000", "182050.068000", "182050.072000", "182050.075000", "182110.007000", "182110.011000", "182110.014000", "182110.017000", "182110.020000", "182110.024000", "182110.027000", "182110.030000", "182110.033000", "182110.037000", "182110.040000", "182110.043000", "182110.047000", "182110.050000", "182110.053000", "182110.057000", "182110.060000", "182110.063000", "182110.067000", "182110.070000", "182130.007000", "182130.011000", "182130.014000", "182130.017000", "182130.021000", "182130.024000", "182130.027000", "182130.031000", "182130.034000", "182130.037000", "182130.040000", "182130.044000", "182130.047000", "182130.050000", "182130.060000", "182130.064000", "182130.067000", "182130.070000", "182130.074000", "182130.078000", "182210.007000", "182210.011000", "182210.014000", "182210.018000", "182210.021000", "182210.024000", "182210.027000", "182210.031000", "182210.034000", "182210.037000", "182210.041000", "182210.044000", "182210.047000", "182210.050000", "182210.054000", "182210.057000", "182210.060000", "182210.064000", "182210.067000", "182210.070000", "182210.074000", "182210.077000", "182210.080000", "182210.083000", "182210.087000", "182210.103000", "182210.106000", "182210.109000", "182210.113000", "182210.116000", "182250.007000", "182250.011000", "182250.014000", "182250.018000", "182250.021000", "182250.024000", "182250.028000", "182250.031000", "182250.035000", "182250.038000", "182250.042000", "182250.045000", "182250.049000", "182250.052000", "182250.056000", "182250.059000", "182250.062000", "182250.065000", "182250.069000", "182250.072000", "182250.075000", "182250.079000", "182250.082000", "182250.085000", "182250.089000", "182250.092000", "182330.007000", "182330.011000", "182330.014000", "182330.018000", "182330.021000", "182330.024000", "182330.028000", "182330.031000", "182330.034000", "182330.037000", "182330.041000", "182330.044000", "182330.047000", "182330.051000", "182330.054000", "182330.057000", "182330.061000", "182330.064000", "182330.067000", "182330.071000", "182330.074000", "182330.077000", "182330.080000", "182330.084000", "182330.087000", "182330.090000", "182330.094000", "182334.791000", "182334.795000", "182334.798000", "182334.801000"],
      "InstanceNumber": [1, 2, 3, 4, 5, 6, 7, 8, 9, 10, 11, 12, 13, 14, 15, 16, 17, 18, 19, 20, 21, 22, 23, 24, 25, 26, 27, 28, 29, 30, 31, 32, 33, 34, 35, 36, 37, 38, 39, 40, 41, 42, 43, 44, 45, 46, 47, 48, 49, 50, 51, 52, 53, 54, 55, 56, 57, 58, 59, 60, 61, 62, 63, 64, 65, 66, 67, 68, 69, 70, 71, 72, 73, 74, 75, 76, 77, 78, 79, 80, 81, 82, 83, 84, 85, 86, 87, 88, 89, 90, 91, 92, 93, 94, 95, 96, 97, 98, 99, 100, 101, 102, 103, 104, 105, 106, 107, 108, 109, 110, 111, 112, 113, 114, 115, 116, 117, 118, 119, 120, 121, 122, 123, 124, 125, 126, 127, 128, 129, 130, 131, 132, 133, 134, 135, 136, 137, 138, 139, 140, 141, 142, 143, 144, 145, 146, 147, 148, 149, 150, 151, 152, 153, 154, 155, 156, 157, 158, 159, 160, 161, 162, 163, 164, 165, 166, 167, 168, 169, 170, 171, 172, 173, 174, 175, 176, 177, 178, 179, 180, 181, 182, 183, 184, 185, 186, 187, 188, 189, 190],
      "LargestImagePixelValue": [42620, 42140, 41461, 42820, 42683, 40588, 42271, 43492, 42930, 42454, 42122, 40603, 41500, 41567, 42261, 42704, 42208, 41421, 42337, 42526, 43055, 39957, 41799, 41910, 41375, 40393, 40740, 42602, 41696, 41069, 40030, 39808, 40876, 39958, 40097, 39698, 39401, 39304, 39596, 43789, 41578, 38820, 38977, 39701, 39342, 39426, 41092, 40376, 40498, 39376, 38988, 39073, 38976, 40237, 39076, 38916, 39047, 39323, 39190, 39912, 39599, 41472, 41306, 39984, 39647, 40136, 40331, 38985, 39463, 39593, 40339, 39285, 40841, 40445, 39732, 39919, 39643, 39379, 40004, 40111, 39972, 40777, 39657, 41162, 40607, 40771, 39656, 39489, 40000, 40227, 39861, 40281, 41007, 41193, 42466, 42010, 39995, 38450, 41207, 41839, 38796, 38488, 38820, 38968, 39377, 38789, 38155, 38491, 38952, 39643, 39986, 40733, 40070, 39325, 41317, 41547, 41704, 41270, 42495, 37658, 41945, 42378, 38802, 41736, 41882, 41036, 41234, 41022, 39980, 40868, 41898, 41250, 41375, 39970, 40082, 42603, 41285, 41070, 40953, 39859, 39339, 42157, 43241, 43009, 42276, 40087, 41886, 41495, 40174, 41391, 42870, 43372, 42706, 43048, 42843, 39898, 39890, 40128, 39898, 40261, 41519, 42423, 42690, 41515, 41749, 40506, 42230, 43655, 43611, 44159, 44248, 41812, 40745, 39649, 42599, 43222, 45537, 44574, 43969, 42247, 42439, 43587, 44269, 43189, 44056, 41970, 42110, 41870, 42997, 44548],
      "WindowCenter": [10286.0, 10257.0, 10243.0, 10270.0, 10277.0, 10237.0, 10255.0, 10267.0, 10254.0, 10249.0, 10233.0, 10209.0, 10212.0, 10211.0, 10224.0, 10227.0, 10227.0, 10229.0, 10243.0, 10243.0, 10247.0, 10214.0, 10256.0, 10265.0, 10251.0, 10226.0, 10218.0, 10231.0, 10221.0, 10217.0, 10220.0, 10212.0, 10206.0, 10187.0, 10192.0, 10216.0, 10219.0, 10213.0, 10211.0, 10249.0, 10227.0, 10187.0, 10194.0, 10194.0, 10198.0, 10215.0, 10231.0, 10227.0, 10225.0, 10213.0, 10216.0, 10214.0, 10223.0, 10241.0, 10223.0, 10222.0, 10216.0, 10208.0, 10196.0, 10229.0, 10241.0, 10257.0, 10243.0, 10226.0, 10211.0, 10211.0, 10196.0, 10190.0, 10217.0, 10226.0, 10220.0, 10207.0, 10232.0, 10219.0, 10213.0, 10214.0, 10209.0, 10218.0, 10222.0, 10212.0, 10214.0, 10228.0, 10236.0, 10278.0, 10263.0, 10244.0, 10220.0, 10213.0, 10220.0, 10213.0, 10212.0, 10220.0, 10237.0, 10239.0, 10233.0, 10228.0, 10208.0, 10178.0, 10203.0, 10212.0, 10204.0, 10214.0, 10225.0, 10225.0, 10222.0, 10206.0, 10180.0, 10185.0, 10224.0, 10233.0, 10222.0, 10219.0, 10201.0, 10208.0, 10251.0, 10265.0, 10251.0, 10238.0, 10244.0, 10165.0, 10200.0, 10209.0, 10186.0, 10223.0, 10220.0, 10207.0, 10216.0, 10222.0, 10222.0, 10243.0, 10233.0, 10212.0, 10212.0, 10200.0, 10220.0, 10263.0, 10250.0, 10228.0, 10217.0, 10211.0, 10214.0, 10244.0, 10246.0, 10237.0, 10226.0, 10207.0, 10218.0, 10214.0, 10210.0, 10223.0, 10243.0, 10238.0, 10225.0, 10222.0, 10228.0, 10207.0, 10239.0, 10245.0, 10235.0, 10225.0, 10241.0, 10264.0, 10254.0, 10233.0, 10223.0, 10221.0, 10244.0, 10278.0, 10266.0, 10250.0, 10231.0, 10220.0, 10215.0, 10208.0, 10234.0, 10250.0, 10263.0, 10245.0, 10223.0, 10206.0, 10215.0, 10250.0, 10269.0, 10258.0, 10237.0, 10202.0, 10192.0, 10181.0, 10218.0, 10244.0],
      "WindowWidth": [21797.0, 21712.0, 21678.0, 21727.0, 21741.0, 21659.0, 21688.0, 21711.0, 21679.0, 21672.0, 21638.0, 21590.0, 21594.0, 21594.0, 21620.0, 21626.0, 21624.0, 21632.0, 21664.0, 21662.0, 21666.0, 21609.0, 21697.0, 21719.0, 21686.0, 21629.0, 21614.0, 21631.0, 21611.0, 21604.0, 21617.0, 21601.0, 21582.0, 21543.0, 21552.0, 21611.0, 21619.0, 21607.0, 21604.0, 21670.0, 21631.0, 21551.0, 21564.0, 21561.0, 21570.0, 21611.0, 21642.0, 21636.0, 21634.0, 21610.0, 21620.0, 21613.0, 21630.0, 21665.0, 21632.0, 21629.0, 21618.0, 21598.0, 21570.0, 21641.0, 21673.0, 21699.0, 21667.0, 21634.0, 21604.0, 21598.0, 21561.0, 21553.0, 21615.0, 21636.0, 21618.0, 21596.0, 21646.0, 21621.0, 21604.0, 21610.0, 21599.0, 21621.0, 21628.0, 21604.0, 21609.0, 21641.0, 21661.0, 21753.0, 21723.0, 21677.0, 21630.0, 21608.0, 21618.0, 21600.0, 21598.0, 21617.0, 21657.0, 21661.0, 21645.0, 21633.0, 21598.0, 21532.0, 21569.0, 21588.0, 21586.0, 21615.0, 21642.0, 21638.0, 21629.0, 21596.0, 21544.0, 21551.0, 21635.0, 21654.0, 21626.0, 21617.0, 21575.0, 21594.0, 21688.0, 21719.0, 21687.0, 21667.0, 21665.0, 21508.0, 21565.0, 21580.0, 21544.0, 21618.0, 21606.0, 21582.0, 21609.0, 21620.0, 21627.0, 21674.0, 21641.0, 21594.0, 21596.0, 21573.0, 21618.0, 21718.0, 21685.0, 21637.0, 21611.0, 21603.0, 21612.0, 21670.0, 21667.0, 21648.0, 21628.0, 21591.0, 21605.0, 21600.0, 21593.0, 21619.0, 21658.0, 21643.0, 21616.0, 21611.0, 21626.0, 21595.0, 21668.0, 21684.0, 21655.0, 21629.0, 21662.0, 21713.0, 21693.0, 21645.0, 21623.0, 21630.0, 21666.0, 21739.0, 21711.0, 21672.0, 21630.0, 21623.0, 21609.0, 21596.0, 21639.0, 21675.0, 21696.0, 21657.0, 21608.0, 21577.0, 21599.0, 21675.0, 21718.0, 21698.0, 21638.0, 21565.0, 21545.0, 21517.0, 21598.0, 21656.0]
    },
    "slices": {}
  }
}