{
  "AcquisitionMatrixPE": 104,
  "AcquisitionNumber": 1,
  "AcquisitionTime": "18:09:27.372500",
  "BandwidthPerPixelPhaseEncode": 17.17,
  "BaseResolution": 104,
  "BodyPartExamined": "BRAIN",
  "CoilString": "HC1-7;NC1_2",
  "ConsistencyInfo": "N4_VE11C_LATEST_20160120",
  "ConversionSoftware": "dcm2niix",
  "ConversionSoftwareVersion": "v1.0.20190902",
  "DerivedVendorReportedEchoSpacing": 0.000560011,
  "DeviceSerialNumber": "167006",
  "DwellTime": 2.1e-06,
  "EchoTime": 0.037,
  "EchoTrainLength": 104,
  "EffectiveEchoSpacing": 0.000560011,
  "FlipAngle": 52,
  "ImageComments": "Unaliased_MB4_PE3_LB",
  "ImageOrientationPatientDICOM": [0.996669, 0.0625532, 0.0523167, -0.0332371, 0.897451, -0.43986],
  "ImageType": [
    "ORIGINAL",
    "PRIMARY",
    "P",
    "MB",
    "ND",
    "MOSAIC"
],
  "ImagingFrequency": 123.259,
  "InPlanePhaseEncodingDirectionDICOM": "COL",
  "InstitutionAddress": "Chemin_Queen-Mary_4565_Montreal_District_CA_H3W_1W5",
  "InstitutionName": "IUGM",
  "InstitutionalDepartmentName": "Department",
  "MRAcquisitionType": "2D",
  "MagneticFieldStrength": 3,
  "Manufacturer": "Siemens",
  "ManufacturersModelName": "Prisma_fit",
  "Modality": "MR",
  "MultibandAccelerationFactor": 4,
  "PartialFourier": 1,
  "PatientPosition": "HFS",
  "PercentPhaseFOV": 100,
  "PhaseEncodingDirection": "j",
  "PhaseEncodingSteps": 104,
  "PhaseResolution": 1,
  "PixelBandwidth": 2290,
  "ProcedureStepDescription": "memory_things",
  "ProtocolName": "func_task-things_run-5",
  "PulseSequenceDetails": "%CustomerSeq%_cmrr_mbep2d_bold",
  "ReceiveCoilActiveElements": "HC1-7;NC1,2",
  "ReceiveCoilName": "HeadNeck_64",
  "ReconMatrixPE": 104,
  "RepetitionTime": 1.49,
  "SAR": 0.0372094,
  "ScanOptions": "FS",
  "ScanningSequence": "EP",
  "SequenceName": "epfid2d1_104",
  "SequenceVariant": "SK_SS",
  "SeriesDescription": "func_task-things_run-5",
  "SeriesNumber": 23,
  "ShimSetting": [641, -7187, -8825, 600, 91, -6, -46, 3],
  "SliceThickness": 2,
  "SliceTiming": [0, 0.785, 0.0975, 0.8825, 0.195, 0.98, 0.295, 1.0775, 0.3925, 1.175, 0.49, 1.275, 0.5875, 1.3725, 0.685, 0, 0.785, 0.0975, 0.8825, 0.195, 0.98, 0.295, 1.0775, 0.3925, 1.175, 0.49, 1.275, 0.5875, 1.3725, 0.685, 0, 0.785, 0.0975, 0.8825, 0.195, 0.98, 0.295, 1.0775, 0.3925, 1.175, 0.49, 1.275, 0.5875, 1.3725, 0.685, 0, 0.785, 0.0975, 0.8825, 0.195, 0.98, 0.295, 1.0775, 0.3925, 1.175, 0.49, 1.275, 0.5875, 1.3725, 0.685],
  "SoftwareVersions": "syngo_MR_E11",
  "SpacingBetweenSlices": 2,
  "StationName": "MRC35049",
  "TaskName": "things",
  "TotalReadoutTime": 0.0576811,
  "TxRefAmp": 249.594,
  "WipMemBlock": "922260f6-8cbb-48f8-ab49-059422765381||Sequence: R016 ve11c/master r/e634e98; Dec 19 2017 11:00:25 by eja",
  "dcmmeta_affine": [
    [-1.993338942527771, -0.06647421419620514, 0.1489325761795044, 106.43148040771484],
    [-0.12510636448860168, 1.7949020862579346, -0.8733125925064087, -47.87421417236328],
    [0.10463330149650574, 0.8797202110290527, 1.793082356452942, -72.94076538085938],
    [0.0, 0.0, 0.0, 1.0]
],
  "dcmmeta_reorient_transform": [
    [0.0, -1.0, 0.0, 103.0],
    [1.0, 0.0, 0.0, 0.0],
    [0.0, 0.0, 1.0, 0.0],
    [0.0, 0.0, 0.0, 1.0]
],
  "dcmmeta_shape": [104, 104, 60, 190],
  "dcmmeta_slice_dim": 2,
  "dcmmeta_version": 0.6,
  "global": {
    "const": {
      "AcquisitionMatrix": [104, 0, 0, 104],
      "AngioFlag": "N",
      "BitsAllocated": 16,
      "BitsStored": 16,
      "BodyPartExamined": "BRAIN",
      "Columns": 832,
      "EchoNumbers": 1,
      "EchoTime": 37.0,
      "EchoTrainLength": 104,
      "FlipAngle": 52.0,
      "HighBit": 15,
      "ImageOrientationPatient": [0.99666948768755, 0.06255317983251, 0.05231665132141, -0.0332371058491, 0.89745104895912, -0.4398601022109],
      "ImagePositionPatient": [-800.96341274299, -835.88378141616, 299.8020511797],
      "ImageType": [
        "ORIGINAL",
        "PRIMARY",
        "P",
        "MB",
        "ND",
        "MOSAIC"
],
      "ImagedNucleus": "1H",
      "ImagingFrequency": 123.258959,
      "InPlanePhaseEncodingDirection": "COL",
      "LargestImagePixelValue": 4095,
      "MRAcquisitionType": "2D",
      "MagneticFieldStrength": 3.0,
      "Manufacturer": "SIEMENS",
      "ManufacturerModelName": "Prisma_fit",
      "Modality": "MR",
      "NumberOfAverages": 1.0,
      "NumberOfPhaseEncodingSteps": 104,
      "PercentPhaseFieldOfView": 100.0,
      "PercentSampling": 100.0,
      "PerformedProcedureStepStartTime": "165302.487000",
      "PhotometricInterpretation": "MONOCHROME2",
      "PixelBandwidth": 2290.0,
      "PixelRepresentation": 0,
      "PixelSpacing": [2.0, 2.0],
      "ProtocolName": "func_task-things_run-5",
      "RepetitionTime": 1490.0,
      "RescaleIntercept": -4096.0,
      "RescaleSlope": 2.0,
      "RescaleType": "US",
      "Rows": 832,
      "SAR": 0.03720944334455,
      "SamplesPerPixel": 1,
      "ScanOptions": "FS",
      "ScanningSequence": "EP",
      "SequenceName": "epfid2d1_104",
      "SequenceVariant": [
        "SK",
        "SS"
],
      "SeriesDescription": "func_task-things_run-5",
      "SeriesNumber": 23,
      "SeriesTime": "181043.824000",
      "SliceLocation": -36.564262734541,
      "SliceThickness": 2.0,
      "SmallestImagePixelValue": 0,
      "SoftwareVersions": "syngo MR E11",
      "SpacingBetweenSlices": 2.0000000766485,
      "SpecificCharacterSet": "ISO_IR 100",
      "StudyID": "1",
      "StudyTime": "165302.425000",
      "TransmitCoilName": "Body",
      "VariableFlipAngleFlag": "N",
      "WindowCenterWidthExplanation": "Algo1",
      "dBdt": 0.0},
    "slices": {}
  },
  "time": {
    "samples": {
      "AcquisitionNumber": [1, 2, 3, 4, 5, 6, 7, 8, 9, 10, 11, 12, 13, 14, 15, 16, 17, 18, 19, 20, 21, 22, 23, 24, 25, 26, 27, 28, 29, 30, 31, 32, 33, 34, 35, 36, 37, 38, 39, 40, 41, 42, 43, 44, 45, 46, 47, 48, 49, 50, 51, 52, 53, 54, 55, 56, 57, 58, 59, 60, 61, 62, 63, 64, 65, 66, 67, 68, 69, 70, 71, 72, 73, 74, 75, 76, 77, 78, 79, 80, 81, 82, 83, 84, 85, 86, 87, 88, 89, 90, 91, 92, 93, 94, 95, 96, 97, 98, 99, 100, 101, 102, 103, 104, 105, 106, 107, 108, 109, 110, 111, 112, 113, 114, 115, 116, 117, 118, 119, 120, 121, 122, 123, 124, 125, 126, 127, 128, 129, 130, 131, 132, 133, 134, 135, 136, 137, 138, 139, 140, 141, 142, 143, 144, 145, 146, 147, 148, 149, 150, 151, 152, 153, 154, 155, 156, 157, 158, 159, 160, 161, 162, 163, 164, 165, 166, 167, 168, 169, 170, 171, 172, 173, 174, 175, 176, 177, 178, 179, 180, 181, 182, 183, 184, 185, 186, 187, 188, 189, 190],
      "AcquisitionTime": ["180927.372500", "180928.862500", "180930.352500", "180931.842500", "180933.332500", "180934.822500", "180936.312500", "180937.802500", "180939.292500", "180940.782500", "180942.272500", "180943.762500", "180945.252500", "180946.742500", "180948.232500", "180949.722500", "180951.212500", "180952.702500", "180954.192500", "180955.682500", "180957.172500", "180958.662500", "181000.152500", "181001.642500", "181003.132500", "181004.622500", "181006.112500", "181007.602500", "181009.092500", "181010.582500", "181012.072500", "181013.562500", "181015.052500", "181016.542500", "181018.032500", "181019.522500", "181021.012500", "181022.502500", "181023.992500", "181025.482500", "181026.972500", "181028.462500", "181029.952500", "181031.442500", "181032.932500", "181034.422500", "181035.912500", "181037.402500", "181038.892500", "181040.382500", "181041.872500", "181043.362500", "181044.852500", "181046.342500", "181047.832500", "181049.322500", "181050.812500", "181052.302500", "181053.792500", "181055.282500", "181056.772500", "181058.262500", "181059.752500", "181101.242500", "181102.732500", "181104.222500", "181105.712500", "181107.202500", "181108.692500", "181110.182500", "181111.672500", "181113.162500", "181114.652500", "181116.142500", "181117.632500", "181119.122500", "181120.612500", "181122.102500", "181123.592500", "181125.082500", "181126.572500", "181128.062500", "181129.552500", "181131.042500", "181132.532500", "181134.022500", "181135.512500", "181137.002500", "181138.492500", "181139.982500", "181141.472500", "181142.962500", "181144.452500", "181145.942500", "181147.432500", "181148.922500", "181150.412500", "181151.902500", "181153.392500", "181154.882500", "181156.372500", "181157.862500", "181159.352500", "181200.842500", "181202.332500", "181203.822500", "181205.312500", "181206.802500", "181208.292500", "181209.782500", "181211.272500", "181212.762500", "181214.252500", "181215.742500", "181217.232500", "181218.722500", "181220.212500", "181221.702500", "181223.192500", "181224.682500", "181226.172500", "181227.662500", "181229.152500", "181230.642500", "181232.132500", "181233.622500", "181235.112500", "181236.602500", "181238.092500", "181239.582500", "181241.072500", "181242.562500", "181244.052500", "181245.542500", "181247.032500", "181248.522500", "181250.012500", "181251.502500", "181252.992500", "181254.482500", "181255.972500", "181257.462500", "181258.952500", "181300.442500", "181301.932500", "181303.422500", "181304.912500", "181306.402500", "181307.892500", "181309.382500", "181310.872500", "181312.362500", "181313.852500", "181315.342500", "181316.832500", "181318.322500", "181319.812500", "181321.302500", "181322.792500", "181324.282500", "181325.772500", "181327.262500", "181328.752500", "181330.242500", "181331.732500", "181333.222500", "181334.712500", "181336.202500", "181337.692500", "181339.182500", "181340.672500", "181342.162500", "181343.652500", "181345.142500", "181346.632500", "181348.122500", "181349.612500", "181351.102500", "181352.592500", "181354.082500", "181355.572500", "181357.062500", "181358.552500", "181400.042500", "181401.532500", "181403.022500", "181404.512500", "181406.002500", "181407.492500", "181408.982500"],
      "ContentTime": ["181043.826000", "181043.836000", "181043.839000", "181043.841000", "181043.844000", "181043.846000", "181043.849000", "181043.851000", "181043.854000", "181043.863000", "181043.866000", "181043.868000", "181043.870000", "181043.873000", "181043.875000", "181043.878000", "181043.880000", "181043.883000", "181043.885000", "181043.888000", "181043.890000", "181043.893000", "181103.761000", "181103.763000", "181103.766000", "181103.769000", "181103.771000", "181103.773000", "181103.776000", "181103.778000", "181103.781000", "181103.783000", "181103.786000", "181103.788000", "181103.791000", "181103.793000", "181103.796000", "181103.798000", "181103.801000", "181103.803000", "181103.806000", "181103.808000", "181123.777000", "181123.780000", "181123.782000", "181123.785000", "181123.787000", "181123.790000", "181123.792000", "181123.795000", "181123.797000", "181123.800000", "181123.802000", "181123.805000", "181123.807000", "181123.810000", "181123.812000", "181123.814000", "181123.817000", "181123.819000", "181123.822000", "181123.824000", "181123.827000", "181143.753000", "181143.757000", "181143.759000", "181143.769000", "181143.771000", "181143.774000", "181143.776000", "181143.779000", "181143.782000", "181143.784000", "181143.786000", "181143.789000", "181143.791000", "181143.794000", "181143.796000", "181143.799000", "181143.801000", "181143.804000", "181143.806000", "181143.809000", "181203.769000", "181203.772000", "181203.774000", "181203.777000", "181203.779000", "181203.782000", "181203.784000", "181203.786000", "181203.789000", "181203.792000", "181203.794000", "181203.796000", "181203.799000", "181203.801000", "181203.804000", "181203.806000", "181203.809000", "181203.811000", "181203.814000", "181203.816000", "181243.805000", "181243.808000", "181243.818000", "181243.820000", "181243.823000", "181243.825000", "181243.828000", "181243.830000", "181243.833000", "181243.835000", "181243.838000", "181243.840000", "181243.843000", "181243.845000", "181243.848000", "181243.850000", "181243.853000", "181243.855000", "181243.858000", "181243.860000", "181243.863000", "181243.865000", "181243.868000", "181243.870000", "181243.873000", "181243.875000", "181243.878000", "181243.880000", "181324.183000", "181324.186000", "181324.188000", "181324.191000", "181324.193000", "181324.196000", "181324.199000", "181324.201000", "181324.203000", "181324.206000", "181324.209000", "181324.211000", "181324.213000", "181324.216000", "181324.218000", "181324.221000", "181324.223000", "181324.226000", "181324.228000", "181324.231000", "181324.233000", "181324.236000", "181324.238000", "181324.241000", "181324.243000", "181324.246000", "181324.248000", "181403.792000", "181403.795000", "181403.798000", "181403.800000", "181403.803000", "181403.805000", "181403.808000", "181403.810000", "181403.813000", "181403.815000", "181403.818000", "181403.820000", "181403.823000", "181403.825000", "181403.828000", "181403.830000", "181403.833000", "181403.835000", "181403.838000", "181403.840000", "181403.843000", "181403.845000", "181403.848000", "181403.850000", "181403.853000", "181403.855000", "181403.858000", "181410.989000", "181410.992000", "181410.996000", "181411.000000", "181411.003000"],
      "InstanceCreationTime": ["181043.826000", "181043.836000", "181043.839000", "181043.841000", "181043.844000", "181043.846000", "181043.849000", "181043.851000", "181043.854000", "181043.863000", "181043.866000", "181043.868000", "181043.870000", "181043.873000", "181043.875000", "181043.878000", "181043.880000", "181043.883000", "181043.885000", "181043.888000", "181043.890000", "181043.893000", "181103.761000", "181103.763000", "181103.766000", "181103.769000", "181103.771000", "181103.773000", "181103.776000", "181103.778000", "181103.781000", "181103.783000", "181103.786000", "181103.788000", "181103.791000", "181103.793000", "181103.796000", "181103.798000", "181103.801000", "181103.803000", "181103.806000", "181103.808000", "181123.777000", "181123.780000", "181123.782000", "181123.785000", "181123.787000", "181123.790000", "181123.792000", "181123.795000", "181123.797000", "181123.800000", "181123.802000", "181123.805000", "181123.807000", "181123.810000", "181123.812000", "181123.814000", "181123.817000", "181123.819000", "181123.822000", "181123.824000", "181123.827000", "181143.753000", "181143.757000", "181143.759000", "181143.769000", "181143.771000", "181143.774000", "181143.776000", "181143.779000", "181143.782000", "181143.784000", "181143.786000", "181143.789000", "181143.791000", "181143.794000", "181143.796000", "181143.799000", "181143.801000", "181143.804000", "181143.806000", "181143.809000", "181203.769000", "181203.772000", "181203.774000", "181203.777000", "181203.779000", "181203.782000", "181203.784000", "181203.786000", "181203.789000", "181203.792000", "181203.794000", "181203.796000", "181203.799000", "181203.801000", "181203.804000", "181203.806000", "181203.809000", "181203.811000", "181203.814000", "181203.816000", "181243.805000", "181243.808000", "181243.818000", "181243.820000", "181243.823000", "181243.825000", "181243.828000", "181243.830000", "181243.833000", "181243.835000", "181243.838000", "181243.840000", "181243.843000", "181243.845000", "181243.848000", "181243.850000", "181243.853000", "181243.855000", "181243.858000", "181243.860000", "181243.863000", "181243.865000", "181243.868000", "181243.870000", "181243.873000", "181243.875000", "181243.878000", "181243.880000", "181324.183000", "181324.186000", "181324.188000", "181324.191000", "181324.193000", "181324.196000", "181324.199000", "181324.201000", "181324.203000", "181324.206000", "181324.209000", "181324.211000", "181324.213000", "181324.216000", "181324.218000", "181324.221000", "181324.223000", "181324.226000", "181324.228000", "181324.231000", "181324.233000", "181324.236000", "181324.238000", "181324.241000", "181324.243000", "181324.246000", "181324.248000", "181403.792000", "181403.795000", "181403.798000", "181403.800000", "181403.803000", "181403.805000", "181403.808000", "181403.810000", "181403.813000", "181403.815000", "181403.818000", "181403.820000", "181403.823000", "181403.825000", "181403.828000", "181403.830000", "181403.833000", "181403.835000", "181403.838000", "181403.840000", "181403.843000", "181403.845000", "181403.848000", "181403.850000", "181403.853000", "181403.855000", "181403.858000", "181410.989000", "181410.992000", "181410.996000", "181411.000000", "181411.003000"],
      "InstanceNumber": [1, 2, 3, 4, 5, 6, 7, 8, 9, 10, 11, 12, 13, 14, 15, 16, 17, 18, 19, 20, 21, 22, 23, 24, 25, 26, 27, 28, 29, 30, 31, 32, 33, 34, 35, 36, 37, 38, 39, 40, 41, 42, 43, 44, 45, 46, 47, 48, 49, 50, 51, 52, 53, 54, 55, 56, 57, 58, 59, 60, 61, 62, 63, 64, 65, 66, 67, 68, 69, 70, 71, 72, 73, 74, 75, 76, 77, 78, 79, 80, 81, 82, 83, 84, 85, 86, 87, 88, 89, 90, 91, 92, 93, 94, 95, 96, 97, 98, 99, 100, 101, 102, 103, 104, 105, 106, 107, 108, 109, 110, 111, 112, 113, 114, 115, 116, 117, 118, 119, 120, 121, 122, 123, 124, 125, 126, 127, 128, 129, 130, 131, 132, 133, 134, 135, 136, 137, 138, 139, 140, 141, 142, 143, 144, 145, 146, 147, 148, 149, 150, 151, 152, 153, 154, 155, 156, 157, 158, 159, 160, 161, 162, 163, 164, 165, 166, 167, 168, 169, 170, 171, 172, 173, 174, 175, 176, 177, 178, 179, 180, 181, 182, 183, 184, 185, 186, 187, 188, 189, 190],
      "WindowCenter": [4790.0, 4796.0, 4852.0, 4850.0, 4826.0, 4816.0, 4816.0, 4812.0, 4816.0, 4814.0, 4818.0, 4822.0, 4852.0, 4822.0, 4792.0, 4816.0, 4814.0, 4814.0, 4816.0, 4814.0, 4816.0, 4794.0, 4796.0, 4824.0, 4798.0, 4798.0, 4794.0, 4792.0, 4818.0, 4792.0, 4816.0, 4788.0, 4820.0, 4828.0, 4828.0, 4828.0, 4794.0, 4818.0, 4814.0, 4814.0, 4792.0, 4818.0, 4826.0, 4852.0, 4822.0, 4796.0, 4796.0, 4818.0, 4818.0, 4814.0, 4792.0, 4816.0, 4814.0, 4820.0, 4820.0, 4818.0, 4796.0, 4794.0, 4818.0, 4818.0, 4792.0, 4816.0, 4816.0, 4788.0, 4794.0, 4820.0, 4822.0, 4824.0, 4818.0, 4816.0, 4814.0, 4792.0, 4796.0, 4820.0, 4824.0, 4824.0, 4822.0, 4820.0, 4818.0, 4818.0, 4820.0, 4824.0, 4820.0, 4820.0, 4818.0, 4816.0, 4816.0, 4818.0, 4818.0, 4818.0, 4820.0, 4820.0, 4820.0, 4826.0, 4828.0, 4850.0, 4852.0, 4824.0, 4822.0, 4820.0, 4822.0, 4814.0, 4792.0, 4816.0, 4824.0, 4850.0, 4852.0, 4824.0, 4822.0, 4820.0, 4794.0, 4816.0, 4814.0, 4820.0, 4816.0, 4820.0, 4796.0, 4818.0, 4824.0, 4824.0, 4822.0, 4820.0, 4820.0, 4824.0, 4824.0, 4822.0, 4822.0, 4820.0, 4824.0, 4828.0, 4848.0, 4824.0, 4820.0, 4822.0, 4822.0, 4822.0, 4822.0, 4824.0, 4824.0, 4848.0, 4826.0, 4824.0, 4820.0, 4820.0, 4822.0, 4826.0, 4826.0, 4850.0, 4878.0, 4876.0, 4824.0, 4820.0, 4820.0, 4816.0, 4818.0, 4826.0, 4854.0, 4852.0, 4824.0, 4822.0, 4822.0, 4822.0, 4820.0, 4822.0, 4818.0, 4818.0, 4824.0, 4826.0, 4822.0, 4820.0, 4824.0, 4820.0, 4822.0, 4820.0, 4824.0, 4820.0, 4822.0, 4822.0, 4828.0, 4822.0, 4820.0, 4822.0, 4822.0, 4824.0, 4822.0, 4822.0, 4824.0, 4822.0, 4820.0, 4822.0],
      "WindowWidth": [18554.0, 18552.0, 18630.0, 18624.0, 18584.0, 18594.0, 18614.0, 18612.0, 18612.0, 18590.0, 18584.0, 18586.0, 18630.0, 18584.0, 18554.0, 18596.0, 18592.0, 18590.0, 18594.0, 18590.0, 18590.0, 18556.0, 18556.0, 18584.0, 18550.0, 18554.0, 18552.0, 18550.0, 18588.0, 18554.0, 18592.0, 18560.0, 18586.0, 18580.0, 18584.0, 18582.0, 18558.0, 18602.0, 18610.0, 18602.0, 18554.0, 18580.0, 18588.0, 18622.0, 18584.0, 18554.0, 18552.0, 18588.0, 18590.0, 18588.0, 18554.0, 18580.0, 18584.0, 18584.0, 18584.0, 18578.0, 18550.0, 18550.0, 18584.0, 18582.0, 18554.0, 18588.0, 18590.0, 18558.0, 18552.0, 18576.0, 18588.0, 18580.0, 18582.0, 18588.0, 18588.0, 18556.0, 18556.0, 18584.0, 18580.0, 18580.0, 18582.0, 18582.0, 18576.0, 18580.0, 18584.0, 18578.0, 18580.0, 18578.0, 18578.0, 18578.0, 18580.0, 18576.0, 18576.0, 18592.0, 18586.0, 18584.0, 18584.0, 18584.0, 18588.0, 18622.0, 18618.0, 18580.0, 18580.0, 18596.0, 18600.0, 18604.0, 18560.0, 18584.0, 18586.0, 18624.0, 18620.0, 18582.0, 18584.0, 18586.0, 18554.0, 18596.0, 18584.0, 18582.0, 18578.0, 18578.0, 18548.0, 18580.0, 18582.0, 18582.0, 18582.0, 18582.0, 18584.0, 18584.0, 18584.0, 18580.0, 18586.0, 18586.0, 18584.0, 18586.0, 18620.0, 18574.0, 18580.0, 18586.0, 18584.0, 18590.0, 18582.0, 18584.0, 18580.0, 18620.0, 18586.0, 18582.0, 18596.0, 18588.0, 18582.0, 18588.0, 18588.0, 18624.0, 18664.0, 18662.0, 18586.0, 18606.0, 18608.0, 18602.0, 18588.0, 18586.0, 18626.0, 18626.0, 18588.0, 18582.0, 18580.0, 18584.0, 18578.0, 18588.0, 18584.0, 18580.0, 18578.0, 18586.0, 18580.0, 18580.0, 18582.0, 18578.0, 18580.0, 18580.0, 18588.0, 18580.0, 18580.0, 18584.0, 18584.0, 18580.0, 18576.0, 18578.0, 18584.0, 18586.0, 18578.0, 18578.0, 18588.0, 18586.0, 18582.0, 18582.0]
    },
    "slices": {}
  }
}