{
  "AcquisitionMatrixPE": 104,
  "AcquisitionNumber": 1,
  "AcquisitionTime": "17:48:36.222500",
  "BandwidthPerPixelPhaseEncode": 17.17,
  "BaseResolution": 104,
  "BodyPartExamined": "BRAIN",
  "CoilString": "HC1-7;NC1_2",
  "ConsistencyInfo": "N4_VE11C_LATEST_20160120",
  "ConversionSoftware": "dcm2niix",
  "ConversionSoftwareVersion": "v1.0.20190902",
  "DerivedVendorReportedEchoSpacing": 0.000560011,
  "DeviceSerialNumber": "167006",
  "DwellTime": 2.1e-06,
  "EchoTime": 0.037,
  "EchoTrainLength": 104,
  "EffectiveEchoSpacing": 0.000560011,
  "FlipAngle": 52,
  "ImageComments": "Unaliased_MB4_PE3_LB",
  "ImageOrientationPatientDICOM": [0.996257, 0.0670992, 0.0544873, -0.0426265, 0.92979, -0.365613],
  "ImageType": [
    "ORIGINAL",
    "PRIMARY",
    "P",
    "MB",
    "ND",
    "MOSAIC"
],
  "ImagingFrequency": 123.259,
  "InPlanePhaseEncodingDirectionDICOM": "COL",
  "InstitutionAddress": "Chemin_Queen-Mary_4565_Montreal_District_CA_H3W_1W5",
  "InstitutionName": "IUGM",
  "InstitutionalDepartmentName": "Department",
  "MRAcquisitionType": "2D",
  "MagneticFieldStrength": 3,
  "Manufacturer": "Siemens",
  "ManufacturersModelName": "Prisma_fit",
  "Modality": "MR",
  "MultibandAccelerationFactor": 4,
  "PartialFourier": 1,
  "PatientPosition": "HFS",
  "PercentPhaseFOV": 100,
  "PhaseEncodingDirection": "j",
  "PhaseEncodingSteps": 104,
  "PhaseResolution": 1,
  "PixelBandwidth": 2290,
  "ProcedureStepDescription": "memory_things",
  "ProtocolName": "func_task-things_run-2",
  "PulseSequenceDetails": "%CustomerSeq%_cmrr_mbep2d_bold",
  "ReceiveCoilActiveElements": "HC1-7;NC1,2",
  "ReceiveCoilName": "HeadNeck_64",
  "ReconMatrixPE": 104,
  "RepetitionTime": 1.49,
  "SAR": 0.0347761,
  "ScanOptions": "FS",
  "ScanningSequence": "EP",
  "SequenceName": "epfid2d1_104",
  "SequenceVariant": "SK_SS",
  "SeriesDescription": "func_task-things_run-2",
  "SeriesNumber": 17,
  "ShimSetting": [644, -7199, -8813, 682, 100, -5, -14, 15],
  "SliceThickness": 2,
  "SliceTiming": [0, 0.785, 0.0975, 0.8825, 0.195, 0.98, 0.295, 1.0775, 0.3925, 1.175, 0.49, 1.275, 0.5875, 1.3725, 0.685, 0, 0.785, 0.0975, 0.8825, 0.195, 0.98, 0.295, 1.0775, 0.3925, 1.175, 0.49, 1.275, 0.5875, 1.3725, 0.685, 0, 0.785, 0.0975, 0.8825, 0.195, 0.98, 0.295, 1.0775, 0.3925, 1.175, 0.49, 1.275, 0.5875, 1.3725, 0.685, 0, 0.785, 0.0975, 0.8825, 0.195, 0.98, 0.295, 1.0775, 0.3925, 1.175, 0.49, 1.275, 0.5875, 1.3725, 0.685],
  "SoftwareVersions": "syngo_MR_E11",
  "SpacingBetweenSlices": 2,
  "StationName": "MRC35049",
  "TaskName": "things",
  "TotalReadoutTime": 0.0576811,
  "TxRefAmp": 240.483,
  "WipMemBlock": "fbd5ba79-fdef-45ba-8bfa-4235cf6e3535||Sequence: R016 ve11c/master r/e634e98; Dec 19 2017 11:00:25 by eja",
  "dcmmeta_affine": [
    [-1.9925148487091064, -0.08525291085243225, 0.1503881812095642, 107.42437744140625],
    [-0.13419842720031738, 1.8595805168151855, -0.7238447666168213, -52.56715393066406],
    [0.10897451639175415, 0.7312266230583191, 1.8583412170410156, -65.17709350585938],
    [0.0, 0.0, 0.0, 1.0]
],
  "dcmmeta_reorient_transform": [
    [0.0, -1.0, 0.0, 103.0],
    [1.0, 0.0, 0.0, 0.0],
    [0.0, 0.0, 1.0, 0.0],
    [0.0, 0.0, 0.0, 1.0]
],
  "dcmmeta_shape": [104, 104, 60, 190],
  "dcmmeta_slice_dim": 2,
  "dcmmeta_version": 0.6,
  "global": {
    "const": {
      "AcquisitionMatrix": [104, 0, 0, 104],
      "AngioFlag": "N",
      "BitsAllocated": 16,
      "BitsStored": 16,
      "BodyPartExamined": "BRAIN",
      "Columns": 832,
      "EchoNumbers": 1,
      "EchoTime": 37.0,
      "EchoTrainLength": 104,
      "FlipAngle": 52.0,
      "HighBit": 15,
      "ImageOrientationPatient": [0.99625741380245, 0.06709921007674, 0.05448725952672, -0.0426264568423, 0.92979024240257, -0.3656133070746],
      "ImagePositionPatient": [-792.88666092994, -864.70515724477, 236.63900656963],
      "ImageType": [
        "ORIGINAL",
        "PRIMARY",
        "P",
        "MB",
        "ND",
        "MOSAIC"
],
      "ImagedNucleus": "1H",
      "ImagingFrequency": 123.258942,
      "InPlanePhaseEncodingDirection": "COL",
      "LargestImagePixelValue": 4095,
      "MRAcquisitionType": "2D",
      "MagneticFieldStrength": 3.0,
      "Manufacturer": "SIEMENS",
      "ManufacturerModelName": "Prisma_fit",
      "Modality": "MR",
      "NumberOfAverages": 1.0,
      "NumberOfPhaseEncodingSteps": 104,
      "PercentPhaseFieldOfView": 100.0,
      "PercentSampling": 100.0,
      "PerformedProcedureStepStartTime": "170211.107000",
      "PhotometricInterpretation": "MONOCHROME2",
      "PixelBandwidth": 2290.0,
      "PixelRepresentation": 0,
      "PixelSpacing": [2.0, 2.0],
      "ProtocolName": "func_task-things_run-2",
      "RepetitionTime": 1490.0,
      "RescaleIntercept": -4096.0,
      "RescaleSlope": 2.0,
      "RescaleType": "US",
      "Rows": 832,
      "SAR": 0.03477614318925,
      "SamplesPerPixel": 1,
      "ScanOptions": "FS",
      "ScanningSequence": "EP",
      "SequenceName": "epfid2d1_104",
      "SequenceVariant": [
        "SK",
        "SS"
],
      "SeriesDescription": "func_task-things_run-2",
      "SeriesNumber": 17,
      "SeriesTime": "175003.732000",
      "SliceLocation": -33.457737541545,
      "SliceThickness": 2.0,
      "SmallestImagePixelValue": 0,
      "SoftwareVersions": "syngo MR E11",
      "SpacingBetweenSlices": 2.0000000223496,
      "SpecificCharacterSet": "ISO_IR 100",
      "StudyID": "1",
      "StudyTime": "170211.043000",
      "TransmitCoilName": "Body",
      "VariableFlipAngleFlag": "N",
      "WindowCenterWidthExplanation": "Algo1",
      "dBdt": 0.0},
    "slices": {}
  },
  "time": {
    "samples": {
      "AcquisitionNumber": [1, 2, 3, 4, 5, 6, 7, 8, 9, 10, 11, 12, 13, 14, 15, 16, 17, 18, 19, 20, 21, 22, 23, 24, 25, 26, 27, 28, 29, 30, 31, 32, 33, 34, 35, 36, 37, 38, 39, 40, 41, 42, 43, 44, 45, 46, 47, 48, 49, 50, 51, 52, 53, 54, 55, 56, 57, 58, 59, 60, 61, 62, 63, 64, 65, 66, 67, 68, 69, 70, 71, 72, 73, 74, 75, 76, 77, 78, 79, 80, 81, 82, 83, 84, 85, 86, 87, 88, 89, 90, 91, 92, 93, 94, 95, 96, 97, 98, 99, 100, 101, 102, 103, 104, 105, 106, 107, 108, 109, 110, 111, 112, 113, 114, 115, 116, 117, 118, 119, 120, 121, 122, 123, 124, 125, 126, 127, 128, 129, 130, 131, 132, 133, 134, 135, 136, 137, 138, 139, 140, 141, 142, 143, 144, 145, 146, 147, 148, 149, 150, 151, 152, 153, 154, 155, 156, 157, 158, 159, 160, 161, 162, 163, 164, 165, 166, 167, 168, 169, 170, 171, 172, 173, 174, 175, 176, 177, 178, 179, 180, 181, 182, 183, 184, 185, 186, 187, 188, 189, 190],
      "AcquisitionTime": ["174836.222500", "174837.712500", "174839.202500", "174840.692500", "174842.182500", "174843.672500", "174845.162500", "174846.652500", "174848.142500", "174849.632500", "174851.122500", "174852.612500", "174854.102500", "174855.592500", "174857.082500", "174858.572500", "174900.062500", "174901.552500", "174903.042500", "174904.532500", "174906.022500", "174907.512500", "174909.002500", "174910.492500", "174911.982500", "174913.472500", "174914.962500", "174916.452500", "174917.942500", "174919.432500", "174920.922500", "174922.412500", "174923.902500", "174925.392500", "174926.882500", "174928.372500", "174929.862500", "174931.352500", "174932.842500", "174934.332500", "174935.822500", "174937.312500", "174938.802500", "174940.292500", "174941.782500", "174943.272500", "174944.762500", "174946.252500", "174947.742500", "174949.232500", "174950.722500", "174952.212500", "174953.702500", "174955.192500", "174956.682500", "174958.172500", "174959.662500", "175001.152500", "175002.642500", "175004.132500", "175005.622500", "175007.112500", "175008.602500", "175010.092500", "175011.582500", "175013.072500", "175014.562500", "175016.052500", "175017.542500", "175019.032500", "175020.522500", "175022.012500", "175023.502500", "175024.992500", "175026.482500", "175027.972500", "175029.462500", "175030.952500", "175032.442500", "175033.932500", "175035.422500", "175036.912500", "175038.402500", "175039.892500", "175041.382500", "175042.872500", "175044.362500", "175045.852500", "175047.342500", "175048.832500", "175050.322500", "175051.812500", "175053.302500", "175054.792500", "175056.282500", "175057.772500", "175059.262500", "175100.752500", "175102.242500", "175103.732500", "175105.222500", "175106.712500", "175108.202500", "175109.692500", "175111.182500", "175112.672500", "175114.162500", "175115.652500", "175117.142500", "175118.632500", "175120.122500", "175121.612500", "175123.102500", "175124.592500", "175126.082500", "175127.572500", "175129.062500", "175130.552500", "175132.042500", "175133.532500", "175135.022500", "175136.512500", "175138.002500", "175139.492500", "175140.982500", "175142.472500", "175143.962500", "175145.452500", "175146.942500", "175148.432500", "175149.922500", "175151.412500", "175152.902500", "175154.392500", "175155.882500", "175157.372500", "175158.862500", "175200.352500", "175201.842500", "175203.332500", "175204.822500", "175206.312500", "175207.802500", "175209.292500", "175210.782500", "175212.272500", "175213.762500", "175215.252500", "175216.742500", "175218.232500", "175219.722500", "175221.212500", "175222.702500", "175224.192500", "175225.682500", "175227.172500", "175228.662500", "175230.152500", "175231.642500", "175233.132500", "175234.622500", "175236.112500", "175237.602500", "175239.092500", "175240.582500", "175242.072500", "175243.562500", "175245.052500", "175246.542500", "175248.032500", "175249.522500", "175251.012500", "175252.502500", "175253.992500", "175255.482500", "175256.972500", "175258.462500", "175259.952500", "175301.442500", "175302.932500", "175304.422500", "175305.912500", "175307.402500", "175308.892500", "175310.382500", "175311.872500", "175313.362500", "175314.852500", "175316.342500", "175317.832500"],
      "ContentTime": ["175003.734000", "175003.737000", "175003.739000", "175003.742000", "175003.745000", "175003.747000", "175003.750000", "175003.752000", "175003.755000", "175003.758000", "175003.760000", "175003.763000", "175003.765000", "175003.773000", "175003.776000", "175003.778000", "175003.781000", "175003.783000", "175003.786000", "175003.789000", "175003.791000", "175003.794000", "175003.797000", "175003.799000", "175003.802000", "175003.804000", "175003.807000", "175003.809000", "175003.812000", "175003.815000", "175003.817000", "175003.820000", "175023.645000", "175023.648000", "175023.651000", "175023.653000", "175023.656000", "175023.658000", "175023.661000", "175023.663000", "175023.666000", "175023.669000", "175023.671000", "175023.674000", "175023.676000", "175023.679000", "175023.681000", "175023.684000", "175023.687000", "175023.689000", "175023.692000", "175023.694000", "175043.633000", "175043.636000", "175043.638000", "175043.641000", "175043.643000", "175043.646000", "175043.648000", "175043.651000", "175043.654000", "175043.656000", "175043.659000", "175043.661000", "175043.664000", "175043.667000", "175043.669000", "175043.672000", "175043.674000", "175043.677000", "175043.679000", "175043.682000", "175103.667000", "175103.670000", "175103.672000", "175103.675000", "175103.678000", "175103.680000", "175103.683000", "175103.685000", "175103.688000", "175103.691000", "175103.693000", "175103.696000", "175103.698000", "175103.701000", "175103.703000", "175103.706000", "175103.709000", "175103.711000", "175103.714000", "175103.716000", "175123.637000", "175123.640000", "175123.643000", "175123.646000", "175123.648000", "175123.651000", "175123.653000", "175123.656000", "175123.658000", "175123.661000", "175123.664000", "175123.666000", "175123.669000", "175123.671000", "175123.674000", "175123.677000", "175123.679000", "175123.682000", "175123.684000", "175123.687000", "175143.613000", "175143.615000", "175143.618000", "175143.621000", "175143.623000", "175143.626000", "175143.628000", "175143.631000", "175143.634000", "175143.636000", "175143.639000", "175143.641000", "175143.644000", "175223.678000", "175223.681000", "175223.683000", "175223.686000", "175223.688000", "175223.691000", "175223.693000", "175223.696000", "175223.699000", "175223.701000", "175223.704000", "175223.706000", "175223.709000", "175223.711000", "175223.714000", "175223.717000", "175223.719000", "175223.722000", "175223.724000", "175223.727000", "175223.730000", "175223.732000", "175223.735000", "175223.737000", "175223.740000", "175223.743000", "175223.745000", "175303.674000", "175303.677000", "175303.679000", "175303.682000", "175303.684000", "175303.687000", "175303.689000", "175303.692000", "175303.695000", "175303.697000", "175303.700000", "175303.702000", "175303.705000", "175303.708000", "175303.710000", "175303.713000", "175303.715000", "175303.718000", "175303.721000", "175303.723000", "175303.726000", "175303.728000", "175303.731000", "175303.733000", "175303.736000", "175303.739000", "175303.742000", "175319.856000", "175319.859000", "175319.862000", "175319.865000", "175319.868000", "175319.870000", "175319.873000", "175319.876000", "175319.878000", "175319.881000", "175319.883000"],
      "InstanceCreationTime": ["175003.734000", "175003.737000", "175003.739000", "175003.742000", "175003.745000", "175003.747000", "175003.750000", "175003.752000", "175003.755000", "175003.758000", "175003.760000", "175003.763000", "175003.765000", "175003.773000", "175003.776000", "175003.778000", "175003.781000", "175003.783000", "175003.786000", "175003.789000", "175003.791000", "175003.794000", "175003.797000", "175003.799000", "175003.802000", "175003.804000", "175003.807000", "175003.809000", "175003.812000", "175003.815000", "175003.817000", "175003.820000", "175023.645000", "175023.648000", "175023.651000", "175023.653000", "175023.656000", "175023.658000", "175023.661000", "175023.663000", "175023.666000", "175023.669000", "175023.671000", "175023.674000", "175023.676000", "175023.679000", "175023.681000", "175023.684000", "175023.687000", "175023.689000", "175023.692000", "175023.694000", "175043.633000", "175043.636000", "175043.638000", "175043.641000", "175043.643000", "175043.646000", "175043.648000", "175043.651000", "175043.654000", "175043.656000", "175043.659000", "175043.661000", "175043.664000", "175043.667000", "175043.669000", "175043.672000", "175043.674000", "175043.677000", "175043.679000", "175043.682000", "175103.667000", "175103.670000", "175103.672000", "175103.675000", "175103.678000", "175103.680000", "175103.683000", "175103.685000", "175103.688000", "175103.691000", "175103.693000", "175103.696000", "175103.698000", "175103.701000", "175103.703000", "175103.706000", "175103.709000", "175103.711000", "175103.714000", "175103.716000", "175123.637000", "175123.640000", "175123.643000", "175123.646000", "175123.648000", "175123.651000", "175123.653000", "175123.656000", "175123.658000", "175123.661000", "175123.664000", "175123.666000", "175123.669000", "175123.671000", "175123.674000", "175123.677000", "175123.679000", "175123.682000", "175123.684000", "175123.687000", "175143.613000", "175143.615000", "175143.618000", "175143.621000", "175143.623000", "175143.626000", "175143.628000", "175143.631000", "175143.634000", "175143.636000", "175143.639000", "175143.641000", "175143.644000", "175223.678000", "175223.681000", "175223.683000", "175223.686000", "175223.688000", "175223.691000", "175223.693000", "175223.696000", "175223.699000", "175223.701000", "175223.704000", "175223.706000", "175223.709000", "175223.711000", "175223.714000", "175223.717000", "175223.719000", "175223.722000", "175223.724000", "175223.727000", "175223.730000", "175223.732000", "175223.735000", "175223.737000", "175223.740000", "175223.743000", "175223.745000", "175303.674000", "175303.677000", "175303.679000", "175303.682000", "175303.684000", "175303.687000", "175303.689000", "175303.692000", "175303.695000", "175303.697000", "175303.700000", "175303.702000", "175303.705000", "175303.708000", "175303.710000", "175303.713000", "175303.715000", "175303.718000", "175303.721000", "175303.723000", "175303.726000", "175303.728000", "175303.731000", "175303.733000", "175303.736000", "175303.739000", "175303.742000", "175319.856000", "175319.859000", "175319.862000", "175319.865000", "175319.868000", "175319.870000", "175319.873000", "175319.876000", "175319.878000", "175319.881000", "175319.883000"],
      "InstanceNumber": [1, 2, 3, 4, 5, 6, 7, 8, 9, 10, 11, 12, 13, 14, 15, 16, 17, 18, 19, 20, 21, 22, 23, 24, 25, 26, 27, 28, 29, 30, 31, 32, 33, 34, 35, 36, 37, 38, 39, 40, 41, 42, 43, 44, 45, 46, 47, 48, 49, 50, 51, 52, 53, 54, 55, 56, 57, 58, 59, 60, 61, 62, 63, 64, 65, 66, 67, 68, 69, 70, 71, 72, 73, 74, 75, 76, 77, 78, 79, 80, 81, 82, 83, 84, 85, 86, 87, 88, 89, 90, 91, 92, 93, 94, 95, 96, 97, 98, 99, 100, 101, 102, 103, 104, 105, 106, 107, 108, 109, 110, 111, 112, 113, 114, 115, 116, 117, 118, 119, 120, 121, 122, 123, 124, 125, 126, 127, 128, 129, 130, 131, 132, 133, 134, 135, 136, 137, 138, 139, 140, 141, 142, 143, 144, 145, 146, 147, 148, 149, 150, 151, 152, 153, 154, 155, 156, 157, 158, 159, 160, 161, 162, 163, 164, 165, 166, 167, 168, 169, 170, 171, 172, 173, 174, 175, 176, 177, 178, 179, 180, 181, 182, 183, 184, 185, 186, 187, 188, 189, 190],
      "WindowCenter": [4836.0, 4838.0, 4842.0, 4838.0, 4840.0, 4838.0, 4840.0, 4838.0, 4812.0, 4810.0, 4838.0, 4834.0, 4846.0, 4848.0, 4846.0, 4836.0, 4838.0, 4814.0, 4838.0, 4838.0, 4838.0, 4838.0, 4838.0, 4838.0, 4840.0, 4838.0, 4814.0, 4814.0, 4836.0, 4836.0, 4840.0, 4838.0, 4838.0, 4848.0, 4854.0, 4846.0, 4838.0, 4812.0, 4808.0, 4836.0, 4844.0, 4842.0, 4844.0, 4842.0, 4836.0, 4838.0, 4842.0, 4840.0, 4842.0, 4842.0, 4840.0, 4836.0, 4814.0, 4838.0, 4842.0, 4846.0, 4846.0, 4842.0, 4838.0, 4840.0, 4838.0, 4840.0, 4812.0, 4812.0, 4842.0, 4848.0, 4852.0, 4848.0, 4848.0, 4844.0, 4840.0, 4836.0, 4810.0, 4808.0, 4840.0, 4868.0, 4870.0, 4850.0, 4874.0, 4870.0, 4840.0, 4814.0, 4834.0, 4842.0, 4846.0, 4868.0, 4844.0, 4840.0, 4814.0, 4810.0, 4836.0, 4848.0, 4850.0, 4846.0, 4840.0, 4846.0, 4844.0, 4844.0, 4840.0, 4812.0, 4838.0, 4844.0, 4848.0, 4872.0, 4842.0, 4812.0, 4840.0, 4866.0, 4850.0, 4850.0, 4870.0, 4842.0, 4836.0, 4810.0, 4808.0, 4810.0, 4846.0, 4848.0, 4854.0, 4848.0, 4846.0, 4838.0, 4840.0, 4840.0, 4844.0, 4840.0, 4840.0, 4838.0, 4840.0, 4870.0, 4872.0, 4870.0, 4840.0, 4842.0, 4842.0, 4842.0, 4840.0, 4866.0, 4840.0, 4836.0, 4840.0, 4868.0, 4868.0, 4840.0, 4812.0, 4834.0, 4870.0, 4850.0, 4852.0, 4844.0, 4840.0, 4846.0, 4868.0, 4844.0, 4842.0, 4838.0, 4838.0, 4836.0, 4846.0, 4874.0, 4854.0, 4876.0, 4848.0, 4870.0, 4870.0, 4840.0, 4834.0, 4830.0, 4832.0, 4868.0, 4876.0, 4852.0, 4840.0, 4840.0, 4846.0, 4868.0, 4868.0, 4836.0, 4812.0, 4812.0, 4846.0, 4852.0, 4882.0, 4860.0, 4848.0, 4838.0, 4838.0, 4834.0, 4862.0, 4866.0],
      "WindowWidth": [18644.0, 18632.0, 18630.0, 18624.0, 18626.0, 18630.0, 18640.0, 18642.0, 18612.0, 18614.0, 18646.0, 18630.0, 18630.0, 18634.0, 18628.0, 18624.0, 18644.0, 18614.0, 18646.0, 18640.0, 18632.0, 18634.0, 18632.0, 18624.0, 18624.0, 18634.0, 18612.0, 18614.0, 18644.0, 18634.0, 18640.0, 18640.0, 18636.0, 18626.0, 18630.0, 18630.0, 18638.0, 18614.0, 18610.0, 18644.0, 18642.0, 18630.0, 18628.0, 18632.0, 18636.0, 18644.0, 18638.0, 18624.0, 18626.0, 18630.0, 18638.0, 18644.0, 18610.0, 18640.0, 18634.0, 18632.0, 18628.0, 18638.0, 18642.0, 18638.0, 18640.0, 18638.0, 18608.0, 18608.0, 18642.0, 18634.0, 18632.0, 18626.0, 18632.0, 18632.0, 18642.0, 18646.0, 18612.0, 18610.0, 18642.0, 18656.0, 18662.0, 18628.0, 18660.0, 18662.0, 18632.0, 18612.0, 18642.0, 18642.0, 18630.0, 18664.0, 18626.0, 18636.0, 18612.0, 18610.0, 18640.0, 18632.0, 18628.0, 18628.0, 18630.0, 18636.0, 18632.0, 18630.0, 18640.0, 18610.0, 18642.0, 18642.0, 18634.0, 18656.0, 18634.0, 18606.0, 18642.0, 18664.0, 18626.0, 18630.0, 18662.0, 18642.0, 18642.0, 18604.0, 18600.0, 18602.0, 18638.0, 18626.0, 18626.0, 18620.0, 18634.0, 18642.0, 18642.0, 18644.0, 18638.0, 18646.0, 18648.0, 18648.0, 18640.0, 18662.0, 18662.0, 18662.0, 18636.0, 18640.0, 18634.0, 18636.0, 18636.0, 18672.0, 18642.0, 18644.0, 18638.0, 18660.0, 18664.0, 18644.0, 18604.0, 18636.0, 18664.0, 18632.0, 18630.0, 18632.0, 18638.0, 18644.0, 18672.0, 18644.0, 18648.0, 18646.0, 18644.0, 18646.0, 18636.0, 18660.0, 18628.0, 18654.0, 18632.0, 18670.0, 18662.0, 18642.0, 18646.0, 18642.0, 18644.0, 18666.0, 18658.0, 18626.0, 18632.0, 18638.0, 18634.0, 18658.0, 18666.0, 18640.0, 18610.0, 18610.0, 18642.0, 18632.0, 18656.0, 18622.0, 18626.0, 18644.0, 18648.0, 18646.0, 18674.0, 18674.0]
    },
    "slices": {}
  }
}