{
  "AcquisitionMatrixPE": 104,
  "AcquisitionNumber": 1,
  "AcquisitionTime": "17:58:43.792500",
  "BandwidthPerPixelPhaseEncode": 17.17,
  "BaseResolution": 104,
  "BodyPartExamined": "BRAIN",
  "CoilString": "HC1-7;NC1_2",
  "ConsistencyInfo": "N4_VE11C_LATEST_20160120",
  "ConversionSoftware": "dcm2niix",
  "ConversionSoftwareVersion": "v1.0.20190902",
  "DerivedVendorReportedEchoSpacing": 0.000560011,
  "DeviceSerialNumber": "167006",
  "DwellTime": 2.1e-06,
  "EchoTime": 0.037,
  "EchoTrainLength": 104,
  "EffectiveEchoSpacing": 0.000560011,
  "FlipAngle": 52,
  "ImageComments": "Unaliased_MB4_PE3_LB",
  "ImageOrientationPatientDICOM": [0.996257, 0.0670992, 0.0544873, -0.0426265, 0.92979, -0.365613],
  "ImageType": [
    "ORIGINAL",
    "PRIMARY",
    "M",
    "MB",
    "ND",
    "MOSAIC"
],
  "ImagingFrequency": 123.259,
  "InPlanePhaseEncodingDirectionDICOM": "COL",
  "InstitutionAddress": "Chemin_Queen-Mary_4565_Montreal_District_CA_H3W_1W5",
  "InstitutionName": "IUGM",
  "InstitutionalDepartmentName": "Department",
  "MRAcquisitionType": "2D",
  "MagneticFieldStrength": 3,
  "Manufacturer": "Siemens",
  "ManufacturersModelName": "Prisma_fit",
  "Modality": "MR",
  "MultibandAccelerationFactor": 4,
  "PartialFourier": 1,
  "PatientPosition": "HFS",
  "PercentPhaseFOV": 100,
  "PhaseEncodingDirection": "j",
  "PhaseEncodingSteps": 104,
  "PhaseResolution": 1,
  "PixelBandwidth": 2290,
  "ProcedureStepDescription": "memory_things",
  "ProtocolName": "func_task-things_run-4",
  "PulseSequenceDetails": "%CustomerSeq%_cmrr_mbep2d_bold",
  "ReceiveCoilActiveElements": "HC1-7;NC1,2",
  "ReceiveCoilName": "HeadNeck_64",
  "ReconMatrixPE": 104,
  "RepetitionTime": 1.49,
  "SAR": 0.0347761,
  "ScanOptions": "FS",
  "ScanningSequence": "EP",
  "SequenceName": "epfid2d1_104",
  "SequenceVariant": "SK_SS",
  "SeriesDescription": "func_task-things_run-4",
  "SeriesNumber": 22,
  "ShimSetting": [644, -7199, -8813, 682, 100, -5, -14, 15],
  "SliceThickness": 2,
  "SliceTiming": [0, 0.7825, 0.0975, 0.8825, 0.195, 0.98, 0.2925, 1.0775, 0.3925, 1.175, 0.49, 1.2725, 0.5875, 1.3725, 0.685, 0, 0.7825, 0.0975, 0.8825, 0.195, 0.98, 0.2925, 1.0775, 0.3925, 1.175, 0.49, 1.2725, 0.5875, 1.3725, 0.685, 0, 0.7825, 0.0975, 0.8825, 0.195, 0.98, 0.2925, 1.0775, 0.3925, 1.175, 0.49, 1.2725, 0.5875, 1.3725, 0.685, 0, 0.7825, 0.0975, 0.8825, 0.195, 0.98, 0.2925, 1.0775, 0.3925, 1.175, 0.49, 1.2725, 0.5875, 1.3725, 0.685],
  "SoftwareVersions": "syngo_MR_E11",
  "SpacingBetweenSlices": 2,
  "StationName": "MRC35049",
  "TaskName": "things",
  "TotalReadoutTime": 0.0576811,
  "TxRefAmp": 240.483,
  "WipMemBlock": "02c6855e-8921-4b9c-8d24-bbbe304f413d||Sequence: R016 ve11c/master r/e634e98; Dec 19 2017 11:00:25 by eja",
  "dcmmeta_affine": [
    [-1.9925148487091064, -0.08525291085243225, 0.1503881812095642, 107.42437744140625],
    [-0.13419842720031738, 1.8595805168151855, -0.7238447666168213, -52.56715393066406],
    [0.10897451639175415, 0.7312266230583191, 1.8583412170410156, -65.17709350585938],
    [0.0, 0.0, 0.0, 1.0]
],
  "dcmmeta_reorient_transform": [
    [0.0, -1.0, 0.0, 103.0],
    [1.0, 0.0, 0.0, 0.0],
    [0.0, 0.0, 1.0, 0.0],
    [0.0, 0.0, 0.0, 1.0]
],
  "dcmmeta_shape": [104, 104, 60, 190],
  "dcmmeta_slice_dim": 2,
  "dcmmeta_version": 0.6,
  "global": {
    "const": {
      "AcquisitionMatrix": [104, 0, 0, 104],
      "AngioFlag": "N",
      "BitsAllocated": 16,
      "BitsStored": 16,
      "BodyPartExamined": "BRAIN",
      "Columns": 832,
      "EchoNumbers": 1,
      "EchoTime": 37.0,
      "EchoTrainLength": 104,
      "FlipAngle": 52.0,
      "HighBit": 15,
      "ImageOrientationPatient": [0.99625741380245, 0.06709921007674, 0.05448725952672, -0.0426264568423, 0.92979024240257, -0.3656133070746],
      "ImagePositionPatient": [-792.88666092994, -864.70515724477, 236.63900656963],
      "ImageType": [
        "ORIGINAL",
        "PRIMARY",
        "M",
        "MB",
        "ND",
        "MOSAIC"
],
      "ImagedNucleus": "1H",
      "ImagingFrequency": 123.258948,
      "InPlanePhaseEncodingDirection": "COL",
      "MRAcquisitionType": "2D",
      "MagneticFieldStrength": 3.0,
      "Manufacturer": "SIEMENS",
      "ManufacturerModelName": "Prisma_fit",
      "Modality": "MR",
      "NumberOfAverages": 1.0,
      "NumberOfPhaseEncodingSteps": 104,
      "PercentPhaseFieldOfView": 100.0,
      "PercentSampling": 100.0,
      "PerformedProcedureStepStartTime": "170211.107000",
      "PhotometricInterpretation": "MONOCHROME2",
      "PixelBandwidth": 2290.0,
      "PixelRepresentation": 0,
      "PixelSpacing": [2.0, 2.0],
      "ProtocolName": "func_task-things_run-4",
      "RepetitionTime": 1490.0,
      "Rows": 832,
      "SAR": 0.03477614318925,
      "SamplesPerPixel": 1,
      "ScanOptions": "FS",
      "ScanningSequence": "EP",
      "SequenceName": "epfid2d1_104",
      "SequenceVariant": [
        "SK",
        "SS"
],
      "SeriesDescription": "func_task-things_run-4",
      "SeriesNumber": 22,
      "SeriesTime": "180011.457000",
      "SliceLocation": -33.457737541545,
      "SliceThickness": 2.0,
      "SmallestImagePixelValue": 0,
      "SoftwareVersions": "syngo MR E11",
      "SpacingBetweenSlices": 2.0000000223496,
      "SpecificCharacterSet": "ISO_IR 100",
      "StudyID": "1",
      "StudyTime": "170211.043000",
      "TransmitCoilName": "Body",
      "VariableFlipAngleFlag": "N",
      "WindowCenterWidthExplanation": "Algo1",
      "dBdt": 0.0},
    "slices": {}
  },
  "time": {
    "samples": {
      "AcquisitionNumber": [1, 2, 3, 4, 5, 6, 7, 8, 9, 10, 11, 12, 13, 14, 15, 16, 17, 18, 19, 20, 21, 22, 23, 24, 25, 26, 27, 28, 29, 30, 31, 32, 33, 34, 35, 36, 37, 38, 39, 40, 41, 42, 43, 44, 45, 46, 47, 48, 49, 50, 51, 52, 53, 54, 55, 56, 57, 58, 59, 60, 61, 62, 63, 64, 65, 66, 67, 68, 69, 70, 71, 72, 73, 74, 75, 76, 77, 78, 79, 80, 81, 82, 83, 84, 85, 86, 87, 88, 89, 90, 91, 92, 93, 94, 95, 96, 97, 98, 99, 100, 101, 102, 103, 104, 105, 106, 107, 108, 109, 110, 111, 112, 113, 114, 115, 116, 117, 118, 119, 120, 121, 122, 123, 124, 125, 126, 127, 128, 129, 130, 131, 132, 133, 134, 135, 136, 137, 138, 139, 140, 141, 142, 143, 144, 145, 146, 147, 148, 149, 150, 151, 152, 153, 154, 155, 156, 157, 158, 159, 160, 161, 162, 163, 164, 165, 166, 167, 168, 169, 170, 171, 172, 173, 174, 175, 176, 177, 178, 179, 180, 181, 182, 183, 184, 185, 186, 187, 188, 189, 190],
      "AcquisitionTime": ["175843.792500", "175845.282500", "175846.772500", "175848.262500", "175849.752500", "175851.242500", "175852.732500", "175854.222500", "175855.712500", "175857.202500", "175858.692500", "175900.182500", "175901.672500", "175903.162500", "175904.652500", "175906.142500", "175907.632500", "175909.122500", "175910.612500", "175912.102500", "175913.592500", "175915.082500", "175916.572500", "175918.062500", "175919.552500", "175921.042500", "175922.532500", "175924.022500", "175925.512500", "175927.002500", "175928.492500", "175929.982500", "175931.472500", "175932.962500", "175934.452500", "175935.942500", "175937.432500", "175938.922500", "175940.412500", "175941.902500", "175943.392500", "175944.882500", "175946.372500", "175947.862500", "175949.352500", "175950.842500", "175952.332500", "175953.822500", "175955.312500", "175956.802500", "175958.292500", "175959.782500", "180001.272500", "180002.762500", "180004.252500", "180005.742500", "180007.232500", "180008.722500", "180010.212500", "180011.702500", "180013.192500", "180014.682500", "180016.172500", "180017.662500", "180019.152500", "180020.642500", "180022.132500", "180023.622500", "180025.112500", "180026.602500", "180028.092500", "180029.582500", "180031.072500", "180032.562500", "180034.052500", "180035.542500", "180037.032500", "180038.522500", "180040.012500", "180041.502500", "180042.992500", "180044.482500", "180045.972500", "180047.462500", "180048.952500", "180050.442500", "180051.932500", "180053.422500", "180054.912500", "180056.402500", "180057.892500", "180059.382500", "180100.872500", "180102.362500", "180103.852500", "180105.342500", "180106.832500", "180108.322500", "180109.812500", "180111.302500", "180112.792500", "180114.282500", "180115.772500", "180117.262500", "180118.752500", "180120.242500", "180121.732500", "180123.222500", "180124.712500", "180126.202500", "180127.692500", "180129.182500", "180130.672500", "180132.162500", "180133.652500", "180135.142500", "180136.632500", "180138.122500", "180139.612500", "180141.102500", "180142.592500", "180144.082500", "180145.572500", "180147.062500", "180148.552500", "180150.042500", "180151.532500", "180153.022500", "180154.512500", "180156.002500", "180157.492500", "180158.982500", "180200.472500", "180201.962500", "180203.452500", "180204.942500", "180206.432500", "180207.922500", "180209.412500", "180210.902500", "180212.392500", "180213.882500", "180215.372500", "180216.862500", "180218.352500", "180219.842500", "180221.332500", "180222.822500", "180224.312500", "180225.802500", "180227.292500", "180228.782500", "180230.272500", "180231.762500", "180233.252500", "180234.742500", "180236.232500", "180237.722500", "180239.212500", "180240.702500", "180242.192500", "180243.682500", "180245.172500", "180246.662500", "180248.152500", "180249.642500", "180251.132500", "180252.622500", "180254.112500", "180255.602500", "180257.092500", "180258.582500", "180300.072500", "180301.562500", "180303.052500", "180304.542500", "180306.032500", "180307.522500", "180309.012500", "180310.502500", "180311.992500", "180313.482500", "180314.972500", "180316.462500", "180317.952500", "180319.442500", "180320.932500", "180322.422500", "180323.912500", "180325.402500"],
      "ContentTime": ["180011.460000", "180011.464000", "180011.468000", "180011.471000", "180011.475000", "180011.478000", "180011.481000", "180011.485000", "180011.488000", "180011.492000", "180011.495000", "180011.499000", "180011.502000", "180011.506000", "180011.509000", "180011.513000", "180011.516000", "180011.519000", "180011.523000", "180011.526000", "180011.530000", "180011.533000", "180011.537000", "180011.540000", "180011.544000", "180011.547000", "180011.551000", "180011.554000", "180011.557000", "180011.561000", "180011.564000", "180011.568000", "180011.571000", "180031.420000", "180031.424000", "180031.427000", "180031.431000", "180031.434000", "180031.438000", "180031.441000", "180031.445000", "180031.448000", "180031.451000", "180031.455000", "180031.458000", "180031.462000", "180031.465000", "180031.469000", "180031.472000", "180031.476000", "180031.479000", "180031.482000", "180031.486000", "180031.489000", "180051.420000", "180051.424000", "180051.428000", "180051.431000", "180051.434000", "180051.438000", "180051.441000", "180051.445000", "180051.448000", "180051.451000", "180051.455000", "180051.458000", "180051.462000", "180051.465000", "180051.469000", "180051.472000", "180051.475000", "180051.479000", "180051.482000", "180051.485000", "180111.419000", "180111.423000", "180111.427000", "180111.430000", "180111.434000", "180111.437000", "180111.441000", "180111.444000", "180111.447000", "180111.451000", "180111.471000", "180111.475000", "180111.478000", "180111.482000", "180111.485000", "180111.488000", "180111.492000", "180111.495000", "180111.499000", "180111.502000", "180151.421000", "180151.424000", "180151.428000", "180151.431000", "180151.435000", "180151.438000", "180151.442000", "180151.445000", "180151.449000", "180151.452000", "180151.456000", "180151.459000", "180151.463000", "180151.466000", "180151.470000", "180151.473000", "180151.476000", "180151.480000", "180151.483000", "180151.487000", "180151.490000", "180151.494000", "180151.497000", "180151.501000", "180151.504000", "180151.508000", "180151.511000", "180151.515000", "180151.518000", "180151.521000", "180151.525000", "180231.420000", "180231.424000", "180231.427000", "180231.431000", "180231.435000", "180231.438000", "180231.441000", "180231.445000", "180231.448000", "180231.452000", "180231.455000", "180231.459000", "180231.462000", "180231.466000", "180231.469000", "180231.473000", "180231.476000", "180231.479000", "180231.483000", "180231.487000", "180231.490000", "180231.493000", "180231.497000", "180231.500000", "180231.504000", "180231.507000", "180231.510000", "180311.420000", "180311.424000", "180311.428000", "180311.431000", "180311.435000", "180311.438000", "180311.442000", "180311.445000", "180311.448000", "180311.452000", "180311.456000", "180311.459000", "180311.463000", "180311.466000", "180311.470000", "180311.473000", "180311.476000", "180311.480000", "180311.483000", "180311.487000", "180311.490000", "180311.494000", "180311.497000", "180311.501000", "180311.504000", "180311.508000", "180311.511000", "180327.586000", "180327.589000", "180327.605000", "180327.609000", "180327.613000", "180327.616000", "180327.620000", "180327.624000", "180327.628000", "180327.632000", "180327.635000"],
      "InstanceCreationTime": ["180011.460000", "180011.464000", "180011.468000", "180011.471000", "180011.475000", "180011.478000", "180011.481000", "180011.485000", "180011.488000", "180011.492000", "180011.495000", "180011.499000", "180011.502000", "180011.506000", "180011.509000", "180011.513000", "180011.516000", "180011.519000", "180011.523000", "180011.526000", "180011.530000", "180011.533000", "180011.537000", "180011.540000", "180011.544000", "180011.547000", "180011.551000", "180011.554000", "180011.557000", "180011.561000", "180011.564000", "180011.568000", "180011.571000", "180031.420000", "180031.424000", "180031.427000", "180031.431000", "180031.434000", "180031.438000", "180031.441000", "180031.445000", "180031.448000", "180031.451000", "180031.455000", "180031.458000", "180031.462000", "180031.465000", "180031.469000", "180031.472000", "180031.476000", "180031.479000", "180031.482000", "180031.486000", "180031.489000", "180051.420000", "180051.424000", "180051.428000", "180051.431000", "180051.434000", "180051.438000", "180051.441000", "180051.445000", "180051.448000", "180051.451000", "180051.455000", "180051.458000", "180051.462000", "180051.465000", "180051.469000", "180051.472000", "180051.475000", "180051.479000", "180051.482000", "180051.485000", "180111.419000", "180111.423000", "180111.427000", "180111.430000", "180111.434000", "180111.437000", "180111.441000", "180111.444000", "180111.447000", "180111.451000", "180111.471000", "180111.475000", "180111.478000", "180111.482000", "180111.485000", "180111.488000", "180111.492000", "180111.495000", "180111.499000", "180111.502000", "180151.421000", "180151.424000", "180151.428000", "180151.431000", "180151.435000", "180151.438000", "180151.442000", "180151.445000", "180151.449000", "180151.452000", "180151.456000", "180151.459000", "180151.463000", "180151.466000", "180151.470000", "180151.473000", "180151.476000", "180151.480000", "180151.483000", "180151.487000", "180151.490000", "180151.494000", "180151.497000", "180151.501000", "180151.504000", "180151.508000", "180151.511000", "180151.515000", "180151.518000", "180151.521000", "180151.525000", "180231.420000", "180231.424000", "180231.427000", "180231.431000", "180231.435000", "180231.438000", "180231.441000", "180231.445000", "180231.448000", "180231.452000", "180231.455000", "180231.459000", "180231.462000", "180231.466000", "180231.469000", "180231.473000", "180231.476000", "180231.479000", "180231.483000", "180231.487000", "180231.490000", "180231.493000", "180231.497000", "180231.500000", "180231.504000", "180231.507000", "180231.510000", "180311.420000", "180311.424000", "180311.428000", "180311.431000", "180311.435000", "180311.438000", "180311.442000", "180311.445000", "180311.448000", "180311.452000", "180311.456000", "180311.459000", "180311.463000", "180311.466000", "180311.470000", "180311.473000", "180311.476000", "180311.480000", "180311.483000", "180311.487000", "180311.490000", "180311.494000", "180311.497000", "180311.501000", "180311.504000", "180311.508000", "180311.511000", "180327.586000", "180327.589000", "180327.605000", "180327.609000", "180327.613000", "180327.616000", "180327.620000", "180327.624000", "180327.628000", "180327.632000", "180327.635000"],
      "InstanceNumber": [1, 2, 3, 4, 5, 6, 7, 8, 9, 10, 11, 12, 13, 14, 15, 16, 17, 18, 19, 20, 21, 22, 23, 24, 25, 26, 27, 28, 29, 30, 31, 32, 33, 34, 35, 36, 37, 38, 39, 40, 41, 42, 43, 44, 45, 46, 47, 48, 49, 50, 51, 52, 53, 54, 55, 56, 57, 58, 59, 60, 61, 62, 63, 64, 65, 66, 67, 68, 69, 70, 71, 72, 73, 74, 75, 76, 77, 78, 79, 80, 81, 82, 83, 84, 85, 86, 87, 88, 89, 90, 91, 92, 93, 94, 95, 96, 97, 98, 99, 100, 101, 102, 103, 104, 105, 106, 107, 108, 109, 110, 111, 112, 113, 114, 115, 116, 117, 118, 119, 120, 121, 122, 123, 124, 125, 126, 127, 128, 129, 130, 131, 132, 133, 134, 135, 136, 137, 138, 139, 140, 141, 142, 143, 144, 145, 146, 147, 148, 149, 150, 151, 152, 153, 154, 155, 156, 157, 158, 159, 160, 161, 162, 163, 164, 165, 166, 167, 168, 169, 170, 171, 172, 173, 174, 175, 176, 177, 178, 179, 180, 181, 182, 183, 184, 185, 186, 187, 188, 189, 190],
      "LargestImagePixelValue": [50088, 47385, 47165, 47679, 48431, 47163, 48166, 46459, 45719, 43973, 46150, 48915, 48092, 47245, 44785, 41910, 44688, 47496, 47003, 48637, 46905, 44854, 42513, 43623, 43614, 47794, 47039, 46515, 46405, 45140, 43116, 44883, 44623, 43802, 44796, 44747, 42590, 42504, 43039, 43482, 44865, 45893, 44989, 43621, 45200, 45776, 45625, 45882, 43434, 46518, 46516, 47403, 44603, 46731, 48750, 47449, 47185, 46017, 45381, 45242, 46340, 46306, 46923, 46323, 44553, 44421, 43887, 45677, 46383, 44972, 43430, 45083, 45496, 45833, 44149, 47060, 49160, 48972, 48110, 44786, 45153, 45696, 45953, 45796, 45555, 46294, 45947, 47337, 46828, 45642, 43743, 45020, 45481, 45743, 47096, 43302, 42695, 44945, 45599, 46600, 46395, 46357, 44360, 45994, 44137, 43562, 43568, 47117, 48032, 48206, 47461, 44661, 43457, 46627, 45786, 46438, 46526, 45477, 43367, 44459, 47184, 46027, 47193, 46599, 46074, 43837, 43854, 45616, 45938, 46064, 47151, 45125, 44012, 44676, 43752, 47360, 48307, 45985, 46472, 46784, 47079, 44089, 41463, 43495, 44672, 45391, 46764, 46908, 45868, 44497, 44680, 44342, 45042, 44485, 43236, 41327, 40282, 43460, 44531, 45445, 45053, 45215, 42211, 44374, 42567, 42530, 44986, 45362, 45855, 48019, 46546, 43398, 42645, 43269, 44050, 44618, 43864, 44358, 42985, 41424, 42108, 41941, 41764, 43225, 43915, 40608, 42145, 42076, 43685, 43774],
      "WindowCenter": [10475.0, 10432.0, 10424.0, 10437.0, 10440.0, 10408.0, 10400.0, 10390.0, 10401.0, 10391.0, 10424.0, 10452.0, 10422.0, 10391.0, 10364.0, 10351.0, 10391.0, 10433.0, 10426.0, 10429.0, 10392.0, 10361.0, 10353.0, 10363.0, 10381.0, 10420.0, 10384.0, 10367.0, 10372.0, 10378.0, 10375.0, 10401.0, 10405.0, 10391.0, 10386.0, 10375.0, 10369.0, 10390.0, 10398.0, 10402.0, 10424.0, 10407.0, 10386.0, 10363.0, 10386.0, 10412.0, 10427.0, 10450.0, 10414.0, 10423.0, 10398.0, 10390.0, 10359.0, 10381.0, 10401.0, 10408.0, 10427.0, 10406.0, 10374.0, 10372.0, 10402.0, 10414.0, 10418.0, 10415.0, 10400.0, 10386.0, 10362.0, 10375.0, 10394.0, 10420.0, 10435.0, 10436.0, 10402.0, 10393.0, 10360.0, 10376.0, 10389.0, 10392.0, 10406.0, 10397.0, 10389.0, 10382.0, 10388.0, 10390.0, 10392.0, 10397.0, 10392.0, 10407.0, 10414.0, 10418.0, 10408.0, 10413.0, 10412.0, 10418.0, 10464.0, 10446.0, 10408.0, 10393.0, 10388.0, 10402.0, 10414.0, 10427.0, 10422.0, 10433.0, 10396.0, 10362.0, 10349.0, 10379.0, 10386.0, 10403.0, 10416.0, 10393.0, 10374.0, 10388.0, 10387.0, 10395.0, 10396.0, 10401.0, 10411.0, 10420.0, 10421.0, 10399.0, 10402.0, 10406.0, 10417.0, 10420.0, 10404.0, 10401.0, 10396.0, 10403.0, 10421.0, 10423.0, 10414.0, 10414.0, 10399.0, 10408.0, 10403.0, 10377.0, 10384.0, 10404.0, 10425.0, 10412.0, 10367.0, 10361.0, 10375.0, 10396.0, 10431.0, 10436.0, 10426.0, 10408.0, 10381.0, 10363.0, 10375.0, 10389.0, 10399.0, 10385.0, 10351.0, 10347.0, 10358.0, 10372.0, 10393.0, 10416.0, 10390.0, 10385.0, 10342.0, 10333.0, 10351.0, 10362.0, 10365.0, 10396.0, 10396.0, 10359.0, 10341.0, 10347.0, 10374.0, 10391.0, 10382.0, 10389.0, 10369.0, 10336.0, 10329.0, 10344.0, 10365.0, 10405.0, 10426.0, 10364.0, 10342.0, 10340.0, 10362.0, 10381.0],
      "WindowWidth": [22256.0, 22147.0, 22121.0, 22142.0, 22145.0, 22070.0, 22048.0, 22029.0, 22057.0, 22044.0, 22111.0, 22168.0, 22102.0, 22030.0, 21974.0, 21960.0, 22043.0, 22129.0, 22116.0, 22118.0, 22034.0, 21972.0, 21962.0, 21984.0, 22027.0, 22101.0, 22017.0, 21978.0, 21992.0, 22012.0, 22014.0, 22063.0, 22076.0, 22046.0, 22028.0, 22005.0, 21998.0, 22049.0, 22069.0, 22077.0, 22122.0, 22078.0, 22027.0, 21985.0, 22028.0, 22093.0, 22128.0, 22182.0, 22106.0, 22107.0, 22055.0, 22033.0, 21973.0, 22015.0, 22055.0, 22075.0, 22119.0, 22074.0, 21999.0, 21996.0, 22063.0, 22095.0, 22095.0, 22089.0, 22066.0, 22033.0, 21983.0, 22003.0, 22046.0, 22109.0, 22155.0, 22147.0, 22067.0, 22039.0, 21973.0, 21995.0, 22016.0, 22025.0, 22063.0, 22054.0, 22033.0, 22014.0, 22028.0, 22035.0, 22041.0, 22047.0, 22033.0, 22065.0, 22088.0, 22096.0, 22089.0, 22091.0, 22086.0, 22101.0, 22200.0, 22176.0, 22092.0, 22045.0, 22028.0, 22054.0, 22083.0, 22113.0, 22113.0, 22136.0, 22055.0, 21976.0, 21944.0, 21999.0, 22012.0, 22049.0, 22084.0, 22045.0, 21998.0, 22023.0, 22027.0, 22042.0, 22043.0, 22057.0, 22092.0, 22112.0, 22098.0, 22051.0, 22053.0, 22064.0, 22095.0, 22112.0, 22077.0, 22057.0, 22043.0, 22059.0, 22101.0, 22116.0, 22108.0, 22100.0, 22066.0, 22074.0, 22049.0, 21997.0, 22013.0, 22062.0, 22110.0, 22092.0, 22002.0, 21978.0, 22003.0, 22048.0, 22123.0, 22132.0, 22109.0, 22075.0, 22009.0, 21971.0, 21998.0, 22035.0, 22070.0, 22046.0, 21970.0, 21944.0, 21963.0, 21993.0, 22041.0, 22099.0, 22052.0, 22028.0, 21939.0, 21915.0, 21941.0, 21968.0, 21975.0, 22038.0, 22042.0, 21971.0, 21932.0, 21945.0, 22002.0, 22039.0, 22022.0, 22034.0, 21995.0, 21928.0, 21907.0, 21941.0, 21991.0, 22084.0, 22140.0, 22000.0, 21936.0, 21930.0, 21975.0, 22020.0]
    },
    "slices": {}
  }
}