{
  "AcquisitionMatrixPE": 104,
  "AcquisitionNumber": 1,
  "AcquisitionTime": "18:09:12.505000",
  "BandwidthPerPixelPhaseEncode": 17.17,
  "BaseResolution": 104,
  "BodyPartExamined": "BRAIN",
  "CoilString": "HC1-7;NC1_2",
  "ConsistencyInfo": "N4_VE11C_LATEST_20160120",
  "ConversionSoftware": "dcm2niix",
  "ConversionSoftwareVersion": "v1.0.20190902",
  "DerivedVendorReportedEchoSpacing": 0.000560011,
  "DeviceSerialNumber": "167006",
  "DwellTime": 2.1e-06,
  "EchoTime": 0.037,
  "EchoTrainLength": 104,
  "EffectiveEchoSpacing": 0.000560011,
  "FlipAngle": 52,
  "ImageComments": "Unaliased_MB4_PE3_LB",
  "ImageOrientationPatientDICOM": [0.996257, 0.0670992, 0.0544873, -0.0426265, 0.92979, -0.365613],
  "ImageType": [
    "ORIGINAL",
    "PRIMARY",
    "M",
    "MB",
    "ND",
    "MOSAIC"
],
  "ImagingFrequency": 123.259,
  "InPlanePhaseEncodingDirectionDICOM": "COL",
  "InstitutionAddress": "Chemin_Queen-Mary_4565_Montreal_District_CA_H3W_1W5",
  "InstitutionName": "IUGM",
  "InstitutionalDepartmentName": "Department",
  "MRAcquisitionType": "2D",
  "MagneticFieldStrength": 3,
  "Manufacturer": "Siemens",
  "ManufacturersModelName": "Prisma_fit",
  "Modality": "MR",
  "MultibandAccelerationFactor": 4,
  "PartialFourier": 1,
  "PatientPosition": "HFS",
  "PercentPhaseFOV": 100,
  "PhaseEncodingDirection": "j",
  "PhaseEncodingSteps": 104,
  "PhaseResolution": 1,
  "PixelBandwidth": 2290,
  "ProcedureStepDescription": "memory_things",
  "ProtocolName": "func_task-things_run-6",
  "PulseSequenceDetails": "%CustomerSeq%_cmrr_mbep2d_bold",
  "ReceiveCoilActiveElements": "HC1-7;NC1,2",
  "ReceiveCoilName": "HeadNeck_64",
  "ReconMatrixPE": 104,
  "RepetitionTime": 1.49,
  "SAR": 0.0347761,
  "ScanOptions": "FS",
  "ScanningSequence": "EP",
  "SequenceName": "epfid2d1_104",
  "SequenceVariant": "SK_SS",
  "SeriesDescription": "func_task-things_run-6",
  "SeriesNumber": 28,
  "ShimSetting": [644, -7199, -8813, 682, 100, -5, -14, 15],
  "SliceThickness": 2,
  "SliceTiming": [0, 0.7825, 0.0975, 0.88, 0.195, 0.98, 0.2925, 1.0775, 0.3925, 1.175, 0.49, 1.2725, 0.5875, 1.37, 0.685, 0, 0.7825, 0.0975, 0.88, 0.195, 0.98, 0.2925, 1.0775, 0.3925, 1.175, 0.49, 1.2725, 0.5875, 1.37, 0.685, 0, 0.7825, 0.0975, 0.88, 0.195, 0.98, 0.2925, 1.0775, 0.3925, 1.175, 0.49, 1.2725, 0.5875, 1.37, 0.685, 0, 0.7825, 0.0975, 0.88, 0.195, 0.98, 0.2925, 1.0775, 0.3925, 1.175, 0.49, 1.2725, 0.5875, 1.37, 0.685],
  "SoftwareVersions": "syngo_MR_E11",
  "SpacingBetweenSlices": 2,
  "StationName": "MRC35049",
  "TaskName": "things",
  "TotalReadoutTime": 0.0576811,
  "TxRefAmp": 240.483,
  "WipMemBlock": "a22738ec-743b-410b-9227-6d605bf8be5a||Sequence: R016 ve11c/master r/e634e98; Dec 19 2017 11:00:25 by eja",
  "dcmmeta_affine": [
    [-1.9925148487091064, -0.08525291085243225, 0.1503881812095642, 107.42437744140625],
    [-0.13419842720031738, 1.8595805168151855, -0.7238447666168213, -52.56715393066406],
    [0.10897451639175415, 0.7312266230583191, 1.8583412170410156, -65.17709350585938],
    [0.0, 0.0, 0.0, 1.0]
],
  "dcmmeta_reorient_transform": [
    [0.0, -1.0, 0.0, 103.0],
    [1.0, 0.0, 0.0, 0.0],
    [0.0, 0.0, 1.0, 0.0],
    [0.0, 0.0, 0.0, 1.0]
],
  "dcmmeta_shape": [104, 104, 60, 190],
  "dcmmeta_slice_dim": 2,
  "dcmmeta_version": 0.6,
  "global": {
    "const": {
      "AcquisitionMatrix": [104, 0, 0, 104],
      "AngioFlag": "N",
      "BitsAllocated": 16,
      "BitsStored": 16,
      "BodyPartExamined": "BRAIN",
      "Columns": 832,
      "EchoNumbers": 1,
      "EchoTime": 37.0,
      "EchoTrainLength": 104,
      "FlipAngle": 52.0,
      "HighBit": 15,
      "ImageOrientationPatient": [0.99625741380245, 0.06709921007674, 0.05448725952672, -0.0426264568423, 0.92979024240257, -0.3656133070746],
      "ImagePositionPatient": [-792.88666092994, -864.70515724477, 236.63900656963],
      "ImageType": [
        "ORIGINAL",
        "PRIMARY",
        "M",
        "MB",
        "ND",
        "MOSAIC"
],
      "ImagedNucleus": "1H",
      "ImagingFrequency": 123.258951,
      "InPlanePhaseEncodingDirection": "COL",
      "MRAcquisitionType": "2D",
      "MagneticFieldStrength": 3.0,
      "Manufacturer": "SIEMENS",
      "ManufacturerModelName": "Prisma_fit",
      "Modality": "MR",
      "NumberOfAverages": 1.0,
      "NumberOfPhaseEncodingSteps": 104,
      "PercentPhaseFieldOfView": 100.0,
      "PercentSampling": 100.0,
      "PerformedProcedureStepStartTime": "170211.107000",
      "PhotometricInterpretation": "MONOCHROME2",
      "PixelBandwidth": 2290.0,
      "PixelRepresentation": 0,
      "PixelSpacing": [2.0, 2.0],
      "ProtocolName": "func_task-things_run-6",
      "RepetitionTime": 1490.0,
      "Rows": 832,
      "SAR": 0.03477614318925,
      "SamplesPerPixel": 1,
      "ScanOptions": "FS",
      "ScanningSequence": "EP",
      "SequenceName": "epfid2d1_104",
      "SequenceVariant": [
        "SK",
        "SS"
],
      "SeriesDescription": "func_task-things_run-6",
      "SeriesNumber": 28,
      "SeriesTime": "181045.318000",
      "SliceLocation": -33.457737541545,
      "SliceThickness": 2.0,
      "SmallestImagePixelValue": 0,
      "SoftwareVersions": "syngo MR E11",
      "SpacingBetweenSlices": 2.0000000223496,
      "SpecificCharacterSet": "ISO_IR 100",
      "StudyID": "1",
      "StudyTime": "170211.043000",
      "TransmitCoilName": "Body",
      "VariableFlipAngleFlag": "N",
      "WindowCenterWidthExplanation": "Algo1",
      "dBdt": 0.0},
    "slices": {}
  },
  "time": {
    "samples": {
      "AcquisitionNumber": [1, 2, 3, 4, 5, 6, 7, 8, 9, 10, 11, 12, 13, 14, 15, 16, 17, 18, 19, 20, 21, 22, 23, 24, 25, 26, 27, 28, 29, 30, 31, 32, 33, 34, 35, 36, 37, 38, 39, 40, 41, 42, 43, 44, 45, 46, 47, 48, 49, 50, 51, 52, 53, 54, 55, 56, 57, 58, 59, 60, 61, 62, 63, 64, 65, 66, 67, 68, 69, 70, 71, 72, 73, 74, 75, 76, 77, 78, 79, 80, 81, 82, 83, 84, 85, 86, 87, 88, 89, 90, 91, 92, 93, 94, 95, 96, 97, 98, 99, 100, 101, 102, 103, 104, 105, 106, 107, 108, 109, 110, 111, 112, 113, 114, 115, 116, 117, 118, 119, 120, 121, 122, 123, 124, 125, 126, 127, 128, 129, 130, 131, 132, 133, 134, 135, 136, 137, 138, 139, 140, 141, 142, 143, 144, 145, 146, 147, 148, 149, 150, 151, 152, 153, 154, 155, 156, 157, 158, 159, 160, 161, 162, 163, 164, 165, 166, 167, 168, 169, 170, 171, 172, 173, 174, 175, 176, 177, 178, 179, 180, 181, 182, 183, 184, 185, 186, 187, 188, 189, 190],
      "AcquisitionTime": ["180912.505000", "180913.995000", "180915.485000", "180916.975000", "180918.465000", "180919.955000", "180921.445000", "180922.935000", "180924.425000", "180925.915000", "180927.405000", "180928.895000", "180930.385000", "180931.875000", "180933.365000", "180934.855000", "180936.345000", "180937.835000", "180939.325000", "180940.815000", "180942.305000", "180943.795000", "180945.285000", "180946.775000", "180948.265000", "180949.755000", "180951.245000", "180952.735000", "180954.225000", "180955.715000", "180957.205000", "180958.695000", "181000.185000", "181001.675000", "181003.165000", "181004.655000", "181006.145000", "181007.635000", "181009.125000", "181010.615000", "181012.105000", "181013.595000", "181015.085000", "181016.575000", "181018.065000", "181019.555000", "181021.045000", "181022.535000", "181024.025000", "181025.515000", "181027.005000", "181028.495000", "181029.985000", "181031.475000", "181032.965000", "181034.455000", "181035.945000", "181037.435000", "181038.925000", "181040.415000", "181041.905000", "181043.395000", "181044.885000", "181046.375000", "181047.865000", "181049.355000", "181050.845000", "181052.335000", "181053.825000", "181055.315000", "181056.805000", "181058.295000", "181059.785000", "181101.275000", "181102.765000", "181104.255000", "181105.745000", "181107.235000", "181108.725000", "181110.215000", "181111.705000", "181113.195000", "181114.685000", "181116.175000", "181117.665000", "181119.155000", "181120.645000", "181122.135000", "181123.625000", "181125.115000", "181126.605000", "181128.095000", "181129.585000", "181131.075000", "181132.565000", "181134.055000", "181135.545000", "181137.035000", "181138.525000", "181140.015000", "181141.505000", "181142.995000", "181144.485000", "181145.975000", "181147.465000", "181148.955000", "181150.445000", "181151.935000", "181153.425000", "181154.915000", "181156.405000", "181157.895000", "181159.385000", "181200.875000", "181202.365000", "181203.855000", "181205.345000", "181206.835000", "181208.325000", "181209.815000", "181211.305000", "181212.795000", "181214.285000", "181215.775000", "181217.265000", "181218.755000", "181220.245000", "181221.735000", "181223.225000", "181224.715000", "181226.205000", "181227.695000", "181229.185000", "181230.675000", "181232.165000", "181233.655000", "181235.145000", "181236.635000", "181238.125000", "181239.615000", "181241.105000", "181242.595000", "181244.085000", "181245.575000", "181247.065000", "181248.555000", "181250.045000", "181251.535000", "181253.025000", "181254.515000", "181256.005000", "181257.495000", "181258.985000", "181300.475000", "181301.965000", "181303.455000", "181304.945000", "181306.435000", "181307.925000", "181309.415000", "181310.905000", "181312.395000", "181313.885000", "181315.375000", "181316.865000", "181318.355000", "181319.845000", "181321.335000", "181322.825000", "181324.315000", "181325.805000", "181327.295000", "181328.785000", "181330.275000", "181331.765000", "181333.255000", "181334.745000", "181336.235000", "181337.725000", "181339.215000", "181340.705000", "181342.195000", "181343.685000", "181345.175000", "181346.665000", "181348.155000", "181349.645000", "181351.135000", "181352.625000", "181354.115000"],
      "ContentTime": ["181045.321000", "181045.325000", "181045.328000", "181045.332000", "181045.335000", "181045.338000", "181045.342000", "181045.352000", "181045.356000", "181045.359000", "181045.363000", "181045.366000", "181045.370000", "181045.373000", "181045.376000", "181045.380000", "181045.383000", "181045.387000", "181045.390000", "181045.394000", "181045.397000", "181045.401000", "181045.404000", "181045.408000", "181045.411000", "181045.415000", "181045.418000", "181045.422000", "181045.425000", "181045.428000", "181045.432000", "181045.435000", "181045.439000", "181045.442000", "181045.446000", "181045.449000", "181045.453000", "181045.456000", "181045.459000", "181105.284000", "181105.288000", "181105.291000", "181105.301000", "181105.305000", "181105.308000", "181105.311000", "181105.315000", "181105.318000", "181105.322000", "181105.325000", "181105.329000", "181105.332000", "181105.336000", "181105.339000", "181105.343000", "181105.346000", "181105.349000", "181105.353000", "181105.356000", "181125.284000", "181125.288000", "181125.292000", "181125.295000", "181125.299000", "181125.302000", "181125.306000", "181125.309000", "181125.313000", "181125.316000", "181125.320000", "181125.324000", "181125.327000", "181125.331000", "181125.334000", "181125.337000", "181125.341000", "181125.344000", "181125.348000", "181125.351000", "181145.285000", "181145.289000", "181145.292000", "181145.296000", "181145.299000", "181145.316000", "181145.319000", "181145.323000", "181145.326000", "181145.329000", "181145.333000", "181145.336000", "181145.340000", "181145.343000", "181145.347000", "181145.350000", "181145.354000", "181145.357000", "181145.360000", "181145.364000", "181145.368000", "181225.285000", "181225.289000", "181225.293000", "181225.296000", "181225.300000", "181225.303000", "181225.307000", "181225.310000", "181225.313000", "181225.317000", "181225.320000", "181225.324000", "181225.327000", "181225.331000", "181225.334000", "181225.338000", "181225.341000", "181225.345000", "181225.348000", "181225.352000", "181225.355000", "181225.358000", "181225.362000", "181225.365000", "181225.369000", "181225.372000", "181225.376000", "181225.379000", "181225.383000", "181305.284000", "181305.288000", "181305.292000", "181305.295000", "181305.299000", "181305.302000", "181305.305000", "181305.309000", "181305.313000", "181305.316000", "181305.319000", "181305.323000", "181305.326000", "181305.330000", "181305.334000", "181305.337000", "181305.341000", "181305.345000", "181305.351000", "181305.354000", "181305.358000", "181305.361000", "181305.365000", "181305.368000", "181305.372000", "181305.375000", "181345.284000", "181345.288000", "181345.292000", "181345.295000", "181345.299000", "181345.302000", "181345.306000", "181345.309000", "181345.313000", "181345.316000", "181345.319000", "181345.323000", "181345.327000", "181345.330000", "181345.333000", "181345.337000", "181345.340000", "181345.344000", "181345.347000", "181345.351000", "181345.354000", "181345.357000", "181345.361000", "181345.364000", "181345.368000", "181345.371000", "181345.375000", "181356.065000", "181356.069000", "181356.073000", "181356.076000", "181356.080000", "181356.083000", "181356.087000", "181356.090000"],
      "InstanceCreationTime": ["181045.321000", "181045.325000", "181045.328000", "181045.332000", "181045.335000", "181045.338000", "181045.342000", "181045.352000", "181045.356000", "181045.359000", "181045.363000", "181045.366000", "181045.370000", "181045.373000", "181045.376000", "181045.380000", "181045.383000", "181045.387000", "181045.390000", "181045.394000", "181045.397000", "181045.401000", "181045.404000", "181045.408000", "181045.411000", "181045.415000", "181045.418000", "181045.422000", "181045.425000", "181045.428000", "181045.432000", "181045.435000", "181045.439000", "181045.442000", "181045.446000", "181045.449000", "181045.453000", "181045.456000", "181045.459000", "181105.284000", "181105.288000", "181105.291000", "181105.301000", "181105.305000", "181105.308000", "181105.311000", "181105.315000", "181105.318000", "181105.322000", "181105.325000", "181105.329000", "181105.332000", "181105.336000", "181105.339000", "181105.343000", "181105.346000", "181105.349000", "181105.353000", "181105.356000", "181125.284000", "181125.288000", "181125.292000", "181125.295000", "181125.299000", "181125.302000", "181125.306000", "181125.309000", "181125.313000", "181125.316000", "181125.320000", "181125.324000", "181125.327000", "181125.331000", "181125.334000", "181125.337000", "181125.341000", "181125.344000", "181125.348000", "181125.351000", "181145.285000", "181145.289000", "181145.292000", "181145.296000", "181145.299000", "181145.316000", "181145.319000", "181145.323000", "181145.326000", "181145.329000", "181145.333000", "181145.336000", "181145.340000", "181145.343000", "181145.347000", "181145.350000", "181145.354000", "181145.357000", "181145.360000", "181145.364000", "181145.368000", "181225.285000", "181225.289000", "181225.293000", "181225.296000", "181225.300000", "181225.303000", "181225.307000", "181225.310000", "181225.313000", "181225.317000", "181225.320000", "181225.324000", "181225.327000", "181225.331000", "181225.334000", "181225.338000", "181225.341000", "181225.345000", "181225.348000", "181225.352000", "181225.355000", "181225.358000", "181225.362000", "181225.365000", "181225.369000", "181225.372000", "181225.376000", "181225.379000", "181225.383000", "181305.284000", "181305.288000", "181305.292000", "181305.295000", "181305.299000", "181305.302000", "181305.305000", "181305.309000", "181305.313000", "181305.316000", "181305.319000", "181305.323000", "181305.326000", "181305.330000", "181305.334000", "181305.337000", "181305.341000", "181305.345000", "181305.351000", "181305.354000", "181305.358000", "181305.361000", "181305.365000", "181305.368000", "181305.372000", "181305.375000", "181345.284000", "181345.288000", "181345.292000", "181345.295000", "181345.299000", "181345.302000", "181345.306000", "181345.309000", "181345.313000", "181345.316000", "181345.319000", "181345.323000", "181345.327000", "181345.330000", "181345.333000", "181345.337000", "181345.340000", "181345.344000", "181345.347000", "181345.351000", "181345.354000", "181345.357000", "181345.361000", "181345.364000", "181345.368000", "181345.371000", "181345.375000", "181356.065000", "181356.069000", "181356.073000", "181356.076000", "181356.080000", "181356.083000", "181356.087000", "181356.090000"],
      "InstanceNumber": [1, 2, 3, 4, 5, 6, 7, 8, 9, 10, 11, 12, 13, 14, 15, 16, 17, 18, 19, 20, 21, 22, 23, 24, 25, 26, 27, 28, 29, 30, 31, 32, 33, 34, 35, 36, 37, 38, 39, 40, 41, 42, 43, 44, 45, 46, 47, 48, 49, 50, 51, 52, 53, 54, 55, 56, 57, 58, 59, 60, 61, 62, 63, 64, 65, 66, 67, 68, 69, 70, 71, 72, 73, 74, 75, 76, 77, 78, 79, 80, 81, 82, 83, 84, 85, 86, 87, 88, 89, 90, 91, 92, 93, 94, 95, 96, 97, 98, 99, 100, 101, 102, 103, 104, 105, 106, 107, 108, 109, 110, 111, 112, 113, 114, 115, 116, 117, 118, 119, 120, 121, 122, 123, 124, 125, 126, 127, 128, 129, 130, 131, 132, 133, 134, 135, 136, 137, 138, 139, 140, 141, 142, 143, 144, 145, 146, 147, 148, 149, 150, 151, 152, 153, 154, 155, 156, 157, 158, 159, 160, 161, 162, 163, 164, 165, 166, 167, 168, 169, 170, 171, 172, 173, 174, 175, 176, 177, 178, 179, 180, 181, 182, 183, 184, 185, 186, 187, 188, 189, 190],
      "LargestImagePixelValue": [45410, 41269, 40248, 40157, 40349, 39299, 39093, 39085, 39701, 39171, 39476, 39783, 39468, 39591, 39949, 40519, 40262, 39384, 38639, 38724, 39882, 39752, 40559, 41250, 39764, 38954, 39206, 39122, 38808, 40051, 41347, 39761, 39082, 39497, 40381, 41767, 39846, 39124, 40177, 40857, 40494, 40364, 40312, 39581, 41121, 42307, 41865, 39577, 38606, 38636, 39253, 40411, 41908, 42174, 41585, 39219, 39109, 39014, 39177, 39864, 40331, 41404, 41487, 39791, 39474, 39529, 39753, 40463, 41245, 41365, 38770, 38797, 39587, 39698, 40950, 40306, 39278, 39837, 39810, 40378, 40202, 40914, 41753, 39651, 39488, 40165, 40130, 40228, 41319, 42555, 42300, 40728, 39418, 39266, 39202, 40908, 41282, 41406, 39903, 39379, 39387, 39581, 39893, 40045, 40693, 40863, 40370, 39444, 38801, 39837, 40281, 40620, 39941, 39374, 39769, 40747, 42123, 42512, 43213, 41672, 40785, 41578, 42441, 42719, 43738, 42703, 41856, 42238, 42384, 42718, 43294, 39897, 40460, 40902, 41433, 43596, 43734, 41660, 39421, 40302, 40502, 41261, 42857, 43095, 43393, 42494, 42942, 42354, 41059, 40239, 41348, 42853, 42735, 44588, 43244, 41494, 42542, 42243, 42804, 43335, 41206, 40345, 40966, 42957, 43216, 43157, 41735, 42552, 42504, 42571, 43256, 43131, 42120, 41491, 41875, 42776, 42951, 43631, 41354, 42060, 43229, 42424, 41224, 41199, 40009, 39813, 39847, 40931, 42066, 42483],
      "WindowCenter": [10404.0, 10318.0, 10277.0, 10258.0, 10261.0, 10276.0, 10282.0, 10278.0, 10274.0, 10254.0, 10258.0, 10262.0, 10258.0, 10263.0, 10271.0, 10287.0, 10316.0, 10313.0, 10264.0, 10243.0, 10262.0, 10280.0, 10311.0, 10320.0, 10314.0, 10292.0, 10268.0, 10250.0, 10244.0, 10269.0, 10298.0, 10291.0, 10279.0, 10260.0, 10262.0, 10283.0, 10290.0, 10295.0, 10289.0, 10284.0, 10263.0, 10253.0, 10241.0, 10227.0, 10251.0, 10263.0, 10283.0, 10290.0, 10278.0, 10253.0, 10255.0, 10276.0, 10314.0, 10315.0, 10293.0, 10269.0, 10245.0, 10225.0, 10222.0, 10256.0, 10277.0, 10289.0, 10280.0, 10272.0, 10268.0, 10255.0, 10251.0, 10259.0, 10278.0, 10289.0, 10280.0, 10289.0, 10274.0, 10256.0, 10265.0, 10268.0, 10281.0, 10306.0, 10286.0, 10272.0, 10261.0, 10282.0, 10297.0, 10308.0, 10325.0, 10309.0, 10283.0, 10280.0, 10292.0, 10311.0, 10322.0, 10323.0, 10306.0, 10280.0, 10266.0, 10282.0, 10290.0, 10316.0, 10337.0, 10315.0, 10269.0, 10263.0, 10262.0, 10270.0, 10277.0, 10276.0, 10275.0, 10267.0, 10254.0, 10255.0, 10259.0, 10273.0, 10280.0, 10291.0, 10289.0, 10290.0, 10307.0, 10329.0, 10345.0, 10338.0, 10326.0, 10307.0, 10309.0, 10318.0, 10345.0, 10337.0, 10323.0, 10304.0, 10285.0, 10293.0, 10313.0, 10315.0, 10324.0, 10302.0, 10290.0, 10305.0, 10314.0, 10310.0, 10288.0, 10259.0, 10253.0, 10274.0, 10311.0, 10331.0, 10324.0, 10286.0, 10274.0, 10282.0, 10291.0, 10302.0, 10299.0, 10297.0, 10300.0, 10341.0, 10341.0, 10325.0, 10313.0, 10296.0, 10308.0, 10326.0, 10324.0, 10306.0, 10284.0, 10294.0, 10310.0, 10322.0, 10315.0, 10310.0, 10291.0, 10288.0, 10294.0, 10304.0, 10309.0, 10304.0, 10296.0, 10295.0, 10307.0, 10356.0, 10342.0, 10305.0, 10292.0, 10285.0, 10291.0, 10318.0, 10311.0, 10278.0, 10253.0, 10255.0, 10269.0, 10289.0],
      "WindowWidth": [22108.0, 21901.0, 21800.0, 21747.0, 21748.0, 21789.0, 21809.0, 21796.0, 21778.0, 21739.0, 21746.0, 21751.0, 21745.0, 21754.0, 21771.0, 21804.0, 21874.0, 21874.0, 21767.0, 21719.0, 21757.0, 21798.0, 21863.0, 21875.0, 21867.0, 21823.0, 21765.0, 21725.0, 21718.0, 21767.0, 21825.0, 21817.0, 21794.0, 21753.0, 21748.0, 21789.0, 21816.0, 21835.0, 21813.0, 21795.0, 21752.0, 21726.0, 21695.0, 21666.0, 21714.0, 21740.0, 21788.0, 21820.0, 21799.0, 21741.0, 21739.0, 21780.0, 21860.0, 21858.0, 21804.0, 21760.0, 21711.0, 21671.0, 21661.0, 21733.0, 21785.0, 21805.0, 21779.0, 21770.0, 21765.0, 21735.0, 21724.0, 21742.0, 21779.0, 21806.0, 21800.0, 21820.0, 21780.0, 21736.0, 21749.0, 21759.0, 21797.0, 21853.0, 21807.0, 21769.0, 21745.0, 21795.0, 21823.0, 21860.0, 21906.0, 21859.0, 21799.0, 21790.0, 21816.0, 21854.0, 21874.0, 21887.0, 21857.0, 21796.0, 21762.0, 21790.0, 21809.0, 21866.0, 21927.0, 21875.0, 21769.0, 21750.0, 21752.0, 21769.0, 21783.0, 21777.0, 21776.0, 21765.0, 21741.0, 21737.0, 21742.0, 21771.0, 21796.0, 21823.0, 21815.0, 21812.0, 21843.0, 21896.0, 21930.0, 21923.0, 21906.0, 21850.0, 21848.0, 21871.0, 21927.0, 21910.0, 21884.0, 21835.0, 21790.0, 21810.0, 21852.0, 21873.0, 21902.0, 21840.0, 21808.0, 21833.0, 21851.0, 21851.0, 21819.0, 21742.0, 21726.0, 21772.0, 21851.0, 21896.0, 21874.0, 21788.0, 21756.0, 21781.0, 21813.0, 21842.0, 21833.0, 21820.0, 21826.0, 21924.0, 21919.0, 21893.0, 21858.0, 21820.0, 21843.0, 21883.0, 21885.0, 21850.0, 21797.0, 21808.0, 21841.0, 21871.0, 21865.0, 21850.0, 21804.0, 21796.0, 21810.0, 21834.0, 21847.0, 21840.0, 21828.0, 21811.0, 21840.0, 21952.0, 21932.0, 21842.0, 21806.0, 21790.0, 21807.0, 21878.0, 21871.0, 21794.0, 21731.0, 21728.0, 21759.0, 21799.0]
    },
    "slices": {}
  }
}