{
  "AcquisitionMatrixPE": 104,
  "AcquisitionNumber": 1,
  "AcquisitionTime": "18:04:7.760000",
  "BandwidthPerPixelPhaseEncode": 17.17,
  "BaseResolution": 104,
  "BodyPartExamined": "BRAIN",
  "CoilString": "HC1-7;NC1_2",
  "ConsistencyInfo": "N4_VE11C_LATEST_20160120",
  "ConversionSoftware": "dcm2niix",
  "ConversionSoftwareVersion": "v1.0.20190902",
  "DerivedVendorReportedEchoSpacing": 0.000560011,
  "DeviceSerialNumber": "167006",
  "DwellTime": 2.1e-06,
  "EchoTime": 0.037,
  "EchoTrainLength": 104,
  "EffectiveEchoSpacing": 0.000560011,
  "FlipAngle": 52,
  "ImageComments": "Unaliased_MB4_PE3_LB",
  "ImageOrientationPatientDICOM": [0.996257, 0.0670992, 0.0544873, -0.0426265, 0.92979, -0.365613],
  "ImageType": [
    "ORIGINAL",
    "PRIMARY",
    "P",
    "MB",
    "ND",
    "MOSAIC"
],
  "ImagingFrequency": 123.259,
  "InPlanePhaseEncodingDirectionDICOM": "COL",
  "InstitutionAddress": "Chemin_Queen-Mary_4565_Montreal_District_CA_H3W_1W5",
  "InstitutionName": "IUGM",
  "InstitutionalDepartmentName": "Department",
  "MRAcquisitionType": "2D",
  "MagneticFieldStrength": 3,
  "Manufacturer": "Siemens",
  "ManufacturersModelName": "Prisma_fit",
  "Modality": "MR",
  "MultibandAccelerationFactor": 4,
  "PartialFourier": 1,
  "PatientPosition": "HFS",
  "PercentPhaseFOV": 100,
  "PhaseEncodingDirection": "j",
  "PhaseEncodingSteps": 104,
  "PhaseResolution": 1,
  "PixelBandwidth": 2290,
  "ProcedureStepDescription": "memory_things",
  "ProtocolName": "func_task-things_run-5",
  "PulseSequenceDetails": "%CustomerSeq%_cmrr_mbep2d_bold",
  "ReceiveCoilActiveElements": "HC1-7;NC1,2",
  "ReceiveCoilName": "HeadNeck_64",
  "ReconMatrixPE": 104,
  "RepetitionTime": 1.49,
  "SAR": 0.0347761,
  "ScanOptions": "FS",
  "ScanningSequence": "EP",
  "SequenceName": "epfid2d1_104",
  "SequenceVariant": "SK_SS",
  "SeriesDescription": "func_task-things_run-5",
  "SeriesNumber": 26,
  "ShimSetting": [644, -7199, -8813, 682, 100, -5, -14, 15],
  "SliceThickness": 2,
  "SliceTiming": [0, 0.785, 0.1, 0.8825, 0.1975, 0.98, 0.295, 1.08, 0.3925, 1.1775, 0.49, 1.275, 0.59, 1.3725, 0.6875, 0, 0.785, 0.1, 0.8825, 0.1975, 0.98, 0.295, 1.08, 0.3925, 1.1775, 0.49, 1.275, 0.59, 1.3725, 0.6875, 0, 0.785, 0.1, 0.8825, 0.1975, 0.98, 0.295, 1.08, 0.3925, 1.1775, 0.49, 1.275, 0.59, 1.3725, 0.6875, 0, 0.785, 0.1, 0.8825, 0.1975, 0.98, 0.295, 1.08, 0.3925, 1.1775, 0.49, 1.275, 0.59, 1.3725, 0.6875],
  "SoftwareVersions": "syngo_MR_E11",
  "SpacingBetweenSlices": 2,
  "StationName": "MRC35049",
  "TaskName": "things",
  "TotalReadoutTime": 0.0576811,
  "TxRefAmp": 240.483,
  "WipMemBlock": "2b232a80-b513-4c03-a3e0-91a161c5e074||Sequence: R016 ve11c/master r/e634e98; Dec 19 2017 11:00:25 by eja",
  "dcmmeta_affine": [
    [-1.9925148487091064, -0.08525291085243225, 0.1503881812095642, 107.42437744140625],
    [-0.13419842720031738, 1.8595805168151855, -0.7238447666168213, -52.56715393066406],
    [0.10897451639175415, 0.7312266230583191, 1.8583412170410156, -65.17709350585938],
    [0.0, 0.0, 0.0, 1.0]
],
  "dcmmeta_reorient_transform": [
    [0.0, -1.0, 0.0, 103.0],
    [1.0, 0.0, 0.0, 0.0],
    [0.0, 0.0, 1.0, 0.0],
    [0.0, 0.0, 0.0, 1.0]
],
  "dcmmeta_shape": [104, 104, 60, 190],
  "dcmmeta_slice_dim": 2,
  "dcmmeta_version": 0.6,
  "global": {
    "const": {
      "AcquisitionMatrix": [104, 0, 0, 104],
      "AngioFlag": "N",
      "BitsAllocated": 16,
      "BitsStored": 16,
      "BodyPartExamined": "BRAIN",
      "Columns": 832,
      "EchoNumbers": 1,
      "EchoTime": 37.0,
      "EchoTrainLength": 104,
      "FlipAngle": 52.0,
      "HighBit": 15,
      "ImageOrientationPatient": [0.99625741380245, 0.06709921007674, 0.05448725952672, -0.0426264568423, 0.92979024240257, -0.3656133070746],
      "ImagePositionPatient": [-792.88666092994, -864.70515724477, 236.63900656963],
      "ImageType": [
        "ORIGINAL",
        "PRIMARY",
        "P",
        "MB",
        "ND",
        "MOSAIC"
],
      "ImagedNucleus": "1H",
      "ImagingFrequency": 123.258949,
      "InPlanePhaseEncodingDirection": "COL",
      "LargestImagePixelValue": 4095,
      "MRAcquisitionType": "2D",
      "MagneticFieldStrength": 3.0,
      "Manufacturer": "SIEMENS",
      "ManufacturerModelName": "Prisma_fit",
      "Modality": "MR",
      "NumberOfAverages": 1.0,
      "NumberOfPhaseEncodingSteps": 104,
      "PercentPhaseFieldOfView": 100.0,
      "PercentSampling": 100.0,
      "PerformedProcedureStepStartTime": "170211.107000",
      "PhotometricInterpretation": "MONOCHROME2",
      "PixelBandwidth": 2290.0,
      "PixelRepresentation": 0,
      "PixelSpacing": [2.0, 2.0],
      "ProtocolName": "func_task-things_run-5",
      "RepetitionTime": 1490.0,
      "RescaleIntercept": -4096.0,
      "RescaleSlope": 2.0,
      "RescaleType": "US",
      "Rows": 832,
      "SAR": 0.03477614318925,
      "SamplesPerPixel": 1,
      "ScanOptions": "FS",
      "ScanningSequence": "EP",
      "SequenceName": "epfid2d1_104",
      "SequenceVariant": [
        "SK",
        "SS"
],
      "SeriesDescription": "func_task-things_run-5",
      "SeriesNumber": 26,
      "SeriesTime": "180523.689000",
      "SliceLocation": -33.457737541545,
      "SliceThickness": 2.0,
      "SmallestImagePixelValue": 0,
      "SoftwareVersions": "syngo MR E11",
      "SpacingBetweenSlices": 2.0000000223496,
      "SpecificCharacterSet": "ISO_IR 100",
      "StudyID": "1",
      "StudyTime": "170211.043000",
      "TransmitCoilName": "Body",
      "VariableFlipAngleFlag": "N",
      "WindowCenterWidthExplanation": "Algo1",
      "dBdt": 0.0},
    "slices": {}
  },
  "time": {
    "samples": {
      "AcquisitionNumber": [1, 2, 3, 4, 5, 6, 7, 8, 9, 10, 11, 12, 13, 14, 15, 16, 17, 18, 19, 20, 21, 22, 23, 24, 25, 26, 27, 28, 29, 30, 31, 32, 33, 34, 35, 36, 37, 38, 39, 40, 41, 42, 43, 44, 45, 46, 47, 48, 49, 50, 51, 52, 53, 54, 55, 56, 57, 58, 59, 60, 61, 62, 63, 64, 65, 66, 67, 68, 69, 70, 71, 72, 73, 74, 75, 76, 77, 78, 79, 80, 81, 82, 83, 84, 85, 86, 87, 88, 89, 90, 91, 92, 93, 94, 95, 96, 97, 98, 99, 100, 101, 102, 103, 104, 105, 106, 107, 108, 109, 110, 111, 112, 113, 114, 115, 116, 117, 118, 119, 120, 121, 122, 123, 124, 125, 126, 127, 128, 129, 130, 131, 132, 133, 134, 135, 136, 137, 138, 139, 140, 141, 142, 143, 144, 145, 146, 147, 148, 149, 150, 151, 152, 153, 154, 155, 156, 157, 158, 159, 160, 161, 162, 163, 164, 165, 166, 167, 168, 169, 170, 171, 172, 173, 174, 175, 176, 177, 178, 179, 180, 181, 182, 183, 184, 185, 186, 187, 188, 189, 190],
      "AcquisitionTime": ["180407.760000", "180409.250000", "180410.740000", "180412.230000", "180413.720000", "180415.210000", "180416.700000", "180418.190000", "180419.680000", "180421.170000", "180422.660000", "180424.150000", "180425.640000", "180427.130000", "180428.620000", "180430.110000", "180431.600000", "180433.090000", "180434.580000", "180436.070000", "180437.560000", "180439.050000", "180440.540000", "180442.030000", "180443.520000", "180445.010000", "180446.500000", "180447.990000", "180449.480000", "180450.970000", "180452.460000", "180453.950000", "180455.440000", "180456.930000", "180458.420000", "180459.910000", "180501.400000", "180502.890000", "180504.380000", "180505.870000", "180507.360000", "180508.850000", "180510.340000", "180511.830000", "180513.320000", "180514.810000", "180516.300000", "180517.790000", "180519.280000", "180520.770000", "180522.260000", "180523.750000", "180525.240000", "180526.730000", "180528.220000", "180529.710000", "180531.200000", "180532.690000", "180534.180000", "180535.670000", "180537.160000", "180538.650000", "180540.140000", "180541.630000", "180543.120000", "180544.610000", "180546.100000", "180547.590000", "180549.080000", "180550.570000", "180552.060000", "180553.550000", "180555.040000", "180556.530000", "180558.020000", "180559.510000", "180601.000000", "180602.490000", "180603.980000", "180605.470000", "180606.960000", "180608.450000", "180609.940000", "180611.430000", "180612.920000", "180614.410000", "180615.900000", "180617.390000", "180618.880000", "180620.370000", "180621.860000", "180623.350000", "180624.840000", "180626.330000", "180627.820000", "180629.310000", "180630.800000", "180632.290000", "180633.780000", "180635.270000", "180636.760000", "180638.250000", "180639.740000", "180641.230000", "180642.720000", "180644.210000", "180645.700000", "180647.190000", "180648.680000", "180650.170000", "180651.660000", "180653.150000", "180654.640000", "180656.130000", "180657.620000", "180659.110000", "180700.600000", "180702.090000", "180703.580000", "180705.070000", "180706.560000", "180708.050000", "180709.540000", "180711.030000", "180712.520000", "180714.010000", "180715.500000", "180716.990000", "180718.480000", "180719.970000", "180721.460000", "180722.950000", "180724.440000", "180725.930000", "180727.420000", "180728.910000", "180730.400000", "180731.890000", "180733.380000", "180734.870000", "180736.360000", "180737.850000", "180739.340000", "180740.830000", "180742.320000", "180743.810000", "180745.300000", "180746.790000", "180748.280000", "180749.770000", "180751.260000", "180752.750000", "180754.240000", "180755.730000", "180757.220000", "180758.710000", "180800.200000", "180801.690000", "180803.180000", "180804.670000", "180806.160000", "180807.650000", "180809.140000", "180810.630000", "180812.120000", "180813.610000", "180815.100000", "180816.590000", "180818.080000", "180819.570000", "180821.060000", "180822.550000", "180824.040000", "180825.530000", "180827.020000", "180828.510000", "180830.000000", "180831.490000", "180832.980000", "180834.470000", "180835.960000", "180837.450000", "180838.940000", "180840.430000", "180841.920000", "180843.410000", "180844.900000", "180846.390000", "180847.880000", "180849.370000"],
      "ContentTime": ["180523.691000", "180523.694000", "180523.696000", "180523.699000", "180523.701000", "180523.704000", "180523.707000", "180523.719000", "180523.721000", "180523.724000", "180523.727000", "180523.729000", "180523.732000", "180523.735000", "180523.737000", "180523.740000", "180523.742000", "180523.745000", "180523.748000", "180523.750000", "180523.753000", "180523.755000", "180523.758000", "180543.666000", "180543.669000", "180543.671000", "180543.674000", "180543.676000", "180543.679000", "180543.681000", "180543.684000", "180543.687000", "180543.689000", "180543.692000", "180543.694000", "180543.697000", "180543.699000", "180543.702000", "180543.705000", "180543.707000", "180543.710000", "180543.712000", "180543.715000", "180603.636000", "180603.639000", "180603.641000", "180603.644000", "180603.646000", "180603.649000", "180603.652000", "180603.654000", "180603.657000", "180603.659000", "180603.662000", "180603.665000", "180603.667000", "180603.670000", "180603.672000", "180603.675000", "180603.678000", "180603.680000", "180603.683000", "180603.686000", "180623.641000", "180623.643000", "180623.646000", "180623.649000", "180623.651000", "180623.654000", "180623.656000", "180623.659000", "180623.662000", "180623.664000", "180623.667000", "180623.669000", "180623.672000", "180623.675000", "180623.677000", "180623.680000", "180623.682000", "180623.685000", "180623.688000", "180623.690000", "180643.652000", "180643.656000", "180643.658000", "180643.661000", "180643.663000", "180643.666000", "180643.669000", "180643.671000", "180643.674000", "180643.677000", "180643.679000", "180643.682000", "180643.684000", "180643.687000", "180643.689000", "180643.692000", "180643.695000", "180643.697000", "180643.700000", "180643.710000", "180723.683000", "180723.693000", "180723.696000", "180723.698000", "180723.701000", "180723.703000", "180723.706000", "180723.709000", "180723.711000", "180723.714000", "180723.717000", "180723.719000", "180723.722000", "180723.725000", "180723.727000", "180723.730000", "180723.732000", "180723.735000", "180723.738000", "180723.740000", "180723.743000", "180723.746000", "180723.748000", "180723.751000", "180723.753000", "180723.756000", "180723.759000", "180723.761000", "180803.684000", "180803.687000", "180803.690000", "180803.692000", "180803.695000", "180803.698000", "180803.700000", "180803.703000", "180803.706000", "180803.709000", "180803.713000", "180803.717000", "180803.720000", "180803.723000", "180803.726000", "180803.728000", "180803.731000", "180803.734000", "180803.736000", "180803.739000", "180803.742000", "180803.745000", "180803.747000", "180803.750000", "180803.753000", "180803.755000", "180843.680000", "180843.683000", "180843.686000", "180843.688000", "180843.691000", "180843.693000", "180843.696000", "180843.699000", "180843.701000", "180843.704000", "180843.706000", "180843.709000", "180843.711000", "180843.714000", "180843.717000", "180843.719000", "180843.722000", "180843.724000", "180843.727000", "180843.729000", "180843.732000", "180843.735000", "180843.737000", "180843.740000", "180843.742000", "180843.745000", "180843.748000", "180851.518000", "180851.521000", "180851.524000", "180851.527000", "180851.530000", "180851.532000"],
      "InstanceCreationTime": ["180523.691000", "180523.694000", "180523.696000", "180523.699000", "180523.701000", "180523.704000", "180523.707000", "180523.719000", "180523.721000", "180523.724000", "180523.727000", "180523.729000", "180523.732000", "180523.735000", "180523.737000", "180523.740000", "180523.742000", "180523.745000", "180523.748000", "180523.750000", "180523.753000", "180523.755000", "180523.758000", "180543.666000", "180543.669000", "180543.671000", "180543.674000", "180543.676000", "180543.679000", "180543.681000", "180543.684000", "180543.687000", "180543.689000", "180543.692000", "180543.694000", "180543.697000", "180543.699000", "180543.702000", "180543.705000", "180543.707000", "180543.710000", "180543.712000", "180543.715000", "180603.636000", "180603.639000", "180603.641000", "180603.644000", "180603.646000", "180603.649000", "180603.652000", "180603.654000", "180603.657000", "180603.659000", "180603.662000", "180603.665000", "180603.667000", "180603.670000", "180603.672000", "180603.675000", "180603.678000", "180603.680000", "180603.683000", "180603.686000", "180623.641000", "180623.643000", "180623.646000", "180623.649000", "180623.651000", "180623.654000", "180623.656000", "180623.659000", "180623.662000", "180623.664000", "180623.667000", "180623.669000", "180623.672000", "180623.675000", "180623.677000", "180623.680000", "180623.682000", "180623.685000", "180623.688000", "180623.690000", "180643.652000", "180643.656000", "180643.658000", "180643.661000", "180643.663000", "180643.666000", "180643.669000", "180643.671000", "180643.674000", "180643.677000", "180643.679000", "180643.682000", "180643.684000", "180643.687000", "180643.689000", "180643.692000", "180643.695000", "180643.697000", "180643.700000", "180643.710000", "180723.683000", "180723.693000", "180723.696000", "180723.698000", "180723.701000", "180723.703000", "180723.706000", "180723.709000", "180723.711000", "180723.714000", "180723.717000", "180723.719000", "180723.722000", "180723.725000", "180723.727000", "180723.730000", "180723.732000", "180723.735000", "180723.738000", "180723.740000", "180723.743000", "180723.746000", "180723.748000", "180723.751000", "180723.753000", "180723.756000", "180723.759000", "180723.761000", "180803.684000", "180803.687000", "180803.690000", "180803.692000", "180803.695000", "180803.698000", "180803.700000", "180803.703000", "180803.706000", "180803.709000", "180803.713000", "180803.717000", "180803.720000", "180803.723000", "180803.726000", "180803.728000", "180803.731000", "180803.734000", "180803.736000", "180803.739000", "180803.742000", "180803.745000", "180803.747000", "180803.750000", "180803.753000", "180803.755000", "180843.680000", "180843.683000", "180843.686000", "180843.688000", "180843.691000", "180843.693000", "180843.696000", "180843.699000", "180843.701000", "180843.704000", "180843.706000", "180843.709000", "180843.711000", "180843.714000", "180843.717000", "180843.719000", "180843.722000", "180843.724000", "180843.727000", "180843.729000", "180843.732000", "180843.735000", "180843.737000", "180843.740000", "180843.742000", "180843.745000", "180843.748000", "180851.518000", "180851.521000", "180851.524000", "180851.527000", "180851.530000", "180851.532000"],
      "InstanceNumber": [1, 2, 3, 4, 5, 6, 7, 8, 9, 10, 11, 12, 13, 14, 15, 16, 17, 18, 19, 20, 21, 22, 23, 24, 25, 26, 27, 28, 29, 30, 31, 32, 33, 34, 35, 36, 37, 38, 39, 40, 41, 42, 43, 44, 45, 46, 47, 48, 49, 50, 51, 52, 53, 54, 55, 56, 57, 58, 59, 60, 61, 62, 63, 64, 65, 66, 67, 68, 69, 70, 71, 72, 73, 74, 75, 76, 77, 78, 79, 80, 81, 82, 83, 84, 85, 86, 87, 88, 89, 90, 91, 92, 93, 94, 95, 96, 97, 98, 99, 100, 101, 102, 103, 104, 105, 106, 107, 108, 109, 110, 111, 112, 113, 114, 115, 116, 117, 118, 119, 120, 121, 122, 123, 124, 125, 126, 127, 128, 129, 130, 131, 132, 133, 134, 135, 136, 137, 138, 139, 140, 141, 142, 143, 144, 145, 146, 147, 148, 149, 150, 151, 152, 153, 154, 155, 156, 157, 158, 159, 160, 161, 162, 163, 164, 165, 166, 167, 168, 169, 170, 171, 172, 173, 174, 175, 176, 177, 178, 179, 180, 181, 182, 183, 184, 185, 186, 187, 188, 189, 190],
      "WindowCenter": [4842.0, 4840.0, 4810.0, 4810.0, 4838.0, 4870.0, 4876.0, 4874.0, 4872.0, 4836.0, 4808.0, 4808.0, 4836.0, 4878.0, 4882.0, 4876.0, 4872.0, 4838.0, 4804.0, 4834.0, 4838.0, 4846.0, 4866.0, 4844.0, 4838.0, 4834.0, 4842.0, 4870.0, 4842.0, 4834.0, 4806.0, 4814.0, 4844.0, 4868.0, 4848.0, 4868.0, 4846.0, 4840.0, 4832.0, 4806.0, 4832.0, 4842.0, 4868.0, 4874.0, 4840.0, 4810.0, 4836.0, 4870.0, 4882.0, 4872.0, 4846.0, 4840.0, 4838.0, 4836.0, 4836.0, 4832.0, 4804.0, 4810.0, 4870.0, 4880.0, 4878.0, 4876.0, 4842.0, 4806.0, 4806.0, 4810.0, 4838.0, 4844.0, 4836.0, 4810.0, 4840.0, 4868.0, 4874.0, 4872.0, 4870.0, 4842.0, 4840.0, 4834.0, 4806.0, 4810.0, 4810.0, 4844.0, 4870.0, 4870.0, 4846.0, 4830.0, 4838.0, 4838.0, 4842.0, 4838.0, 4840.0, 4832.0, 4808.0, 4832.0, 4844.0, 4870.0, 4872.0, 4842.0, 4838.0, 4844.0, 4838.0, 4836.0, 4806.0, 4808.0, 4838.0, 4868.0, 4872.0, 4842.0, 4832.0, 4834.0, 4842.0, 4840.0, 4864.0, 4834.0, 4808.0, 4806.0, 4836.0, 4876.0, 4882.0, 4872.0, 4808.0, 4804.0, 4836.0, 4844.0, 4878.0, 4878.0, 4810.0, 4806.0, 4834.0, 4840.0, 4844.0, 4844.0, 4844.0, 4838.0, 4844.0, 4866.0, 4838.0, 4808.0, 4832.0, 4870.0, 4876.0, 4880.0, 4878.0, 4870.0, 4836.0, 4804.0, 4834.0, 4840.0, 4846.0, 4838.0, 4808.0, 4838.0, 4872.0, 4876.0, 4874.0, 4844.0, 4832.0, 4810.0, 4836.0, 4842.0, 4842.0, 4868.0, 4868.0, 4830.0, 4806.0, 4808.0, 4870.0, 4882.0, 4880.0, 4876.0, 4842.0, 4804.0, 4806.0, 4832.0, 4840.0, 4868.0, 4870.0, 4844.0, 4838.0, 4844.0, 4872.0, 4868.0, 4840.0, 4808.0, 4808.0, 4808.0, 4810.0, 4876.0, 4878.0, 4858.0],
      "WindowWidth": [18638.0, 18638.0, 18606.0, 18606.0, 18638.0, 18672.0, 18676.0, 18672.0, 18670.0, 18636.0, 18604.0, 18606.0, 18634.0, 18664.0, 18666.0, 18670.0, 18668.0, 18632.0, 18600.0, 18638.0, 18634.0, 18642.0, 18668.0, 18632.0, 18636.0, 18632.0, 18630.0, 18666.0, 18636.0, 18628.0, 18602.0, 18604.0, 18632.0, 18668.0, 18638.0, 18668.0, 18638.0, 18638.0, 18634.0, 18602.0, 18636.0, 18638.0, 18670.0, 18668.0, 18632.0, 18606.0, 18634.0, 18666.0, 18674.0, 18668.0, 18636.0, 18638.0, 18634.0, 18632.0, 18634.0, 18632.0, 18602.0, 18600.0, 18666.0, 18670.0, 18672.0, 18670.0, 18632.0, 18600.0, 18604.0, 18602.0, 18634.0, 18638.0, 18632.0, 18604.0, 18636.0, 18668.0, 18668.0, 18670.0, 18670.0, 18634.0, 18636.0, 18634.0, 18598.0, 18606.0, 18600.0, 18640.0, 18672.0, 18668.0, 18640.0, 18632.0, 18634.0, 18634.0, 18638.0, 18638.0, 18636.0, 18632.0, 18598.0, 18630.0, 18638.0, 18668.0, 18672.0, 18636.0, 18636.0, 18636.0, 18634.0, 18634.0, 18604.0, 18606.0, 18638.0, 18668.0, 18670.0, 18636.0, 18636.0, 18634.0, 18634.0, 18638.0, 18666.0, 18634.0, 18606.0, 18602.0, 18636.0, 18678.0, 18682.0, 18674.0, 18602.0, 18600.0, 18642.0, 18642.0, 18670.0, 18674.0, 18604.0, 18604.0, 18634.0, 18636.0, 18636.0, 18644.0, 18636.0, 18636.0, 18640.0, 18668.0, 18636.0, 18606.0, 18636.0, 18670.0, 18674.0, 18670.0, 18672.0, 18666.0, 18634.0, 18600.0, 18630.0, 18634.0, 18642.0, 18638.0, 18604.0, 18632.0, 18670.0, 18668.0, 18666.0, 18636.0, 18628.0, 18596.0, 18634.0, 18638.0, 18634.0, 18666.0, 18666.0, 18632.0, 18606.0, 18600.0, 18666.0, 18668.0, 18670.0, 18668.0, 18636.0, 18598.0, 18596.0, 18632.0, 18636.0, 18668.0, 18674.0, 18638.0, 18636.0, 18634.0, 18670.0, 18668.0, 18636.0, 18602.0, 18602.0, 18606.0, 18608.0, 18672.0, 18666.0, 18638.0]
    },
    "slices": {}
  }
}