{
  "AcquisitionMatrixPE": 104,
  "AcquisitionNumber": 1,
  "AcquisitionTime": "18:09:12.505000",
  "BandwidthPerPixelPhaseEncode": 17.17,
  "BaseResolution": 104,
  "BodyPartExamined": "BRAIN",
  "CoilString": "HC1-7;NC1_2",
  "ConsistencyInfo": "N4_VE11C_LATEST_20160120",
  "ConversionSoftware": "dcm2niix",
  "ConversionSoftwareVersion": "v1.0.20190902",
  "DerivedVendorReportedEchoSpacing": 0.000560011,
  "DeviceSerialNumber": "167006",
  "DwellTime": 2.1e-06,
  "EchoTime": 0.037,
  "EchoTrainLength": 104,
  "EffectiveEchoSpacing": 0.000560011,
  "FlipAngle": 52,
  "ImageComments": "Unaliased_MB4_PE3_LB",
  "ImageOrientationPatientDICOM": [0.996257, 0.0670992, 0.0544873, -0.0426265, 0.92979, -0.365613],
  "ImageType": [
    "ORIGINAL",
    "PRIMARY",
    "P",
    "MB",
    "ND",
    "MOSAIC"
],
  "ImagingFrequency": 123.259,
  "InPlanePhaseEncodingDirectionDICOM": "COL",
  "InstitutionAddress": "Chemin_Queen-Mary_4565_Montreal_District_CA_H3W_1W5",
  "InstitutionName": "IUGM",
  "InstitutionalDepartmentName": "Department",
  "MRAcquisitionType": "2D",
  "MagneticFieldStrength": 3,
  "Manufacturer": "Siemens",
  "ManufacturersModelName": "Prisma_fit",
  "Modality": "MR",
  "MultibandAccelerationFactor": 4,
  "PartialFourier": 1,
  "PatientPosition": "HFS",
  "PercentPhaseFOV": 100,
  "PhaseEncodingDirection": "j",
  "PhaseEncodingSteps": 104,
  "PhaseResolution": 1,
  "PixelBandwidth": 2290,
  "ProcedureStepDescription": "memory_things",
  "ProtocolName": "func_task-things_run-6",
  "PulseSequenceDetails": "%CustomerSeq%_cmrr_mbep2d_bold",
  "ReceiveCoilActiveElements": "HC1-7;NC1,2",
  "ReceiveCoilName": "HeadNeck_64",
  "ReconMatrixPE": 104,
  "RepetitionTime": 1.49,
  "SAR": 0.0347761,
  "ScanOptions": "FS",
  "ScanningSequence": "EP",
  "SequenceName": "epfid2d1_104",
  "SequenceVariant": "SK_SS",
  "SeriesDescription": "func_task-things_run-6",
  "SeriesNumber": 29,
  "ShimSetting": [644, -7199, -8813, 682, 100, -5, -14, 15],
  "SliceThickness": 2,
  "SliceTiming": [0, 0.7825, 0.0975, 0.88, 0.195, 0.98, 0.2925, 1.0775, 0.3925, 1.175, 0.49, 1.2725, 0.5875, 1.37, 0.685, 0, 0.7825, 0.0975, 0.88, 0.195, 0.98, 0.2925, 1.0775, 0.3925, 1.175, 0.49, 1.2725, 0.5875, 1.37, 0.685, 0, 0.7825, 0.0975, 0.88, 0.195, 0.98, 0.2925, 1.0775, 0.3925, 1.175, 0.49, 1.2725, 0.5875, 1.37, 0.685, 0, 0.7825, 0.0975, 0.88, 0.195, 0.98, 0.2925, 1.0775, 0.3925, 1.175, 0.49, 1.2725, 0.5875, 1.37, 0.685],
  "SoftwareVersions": "syngo_MR_E11",
  "SpacingBetweenSlices": 2,
  "StationName": "MRC35049",
  "TaskName": "things",
  "TotalReadoutTime": 0.0576811,
  "TxRefAmp": 240.483,
  "WipMemBlock": "a22738ec-743b-410b-9227-6d605bf8be5a||Sequence: R016 ve11c/master r/e634e98; Dec 19 2017 11:00:25 by eja",
  "dcmmeta_affine": [
    [-1.9925148487091064, -0.08525291085243225, 0.1503881812095642, 107.42437744140625],
    [-0.13419842720031738, 1.8595805168151855, -0.7238447666168213, -52.56715393066406],
    [0.10897451639175415, 0.7312266230583191, 1.8583412170410156, -65.17709350585938],
    [0.0, 0.0, 0.0, 1.0]
],
  "dcmmeta_reorient_transform": [
    [0.0, -1.0, 0.0, 103.0],
    [1.0, 0.0, 0.0, 0.0],
    [0.0, 0.0, 1.0, 0.0],
    [0.0, 0.0, 0.0, 1.0]
],
  "dcmmeta_shape": [104, 104, 60, 190],
  "dcmmeta_slice_dim": 2,
  "dcmmeta_version": 0.6,
  "global": {
    "const": {
      "AcquisitionMatrix": [104, 0, 0, 104],
      "AngioFlag": "N",
      "BitsAllocated": 16,
      "BitsStored": 16,
      "BodyPartExamined": "BRAIN",
      "Columns": 832,
      "EchoNumbers": 1,
      "EchoTime": 37.0,
      "EchoTrainLength": 104,
      "FlipAngle": 52.0,
      "HighBit": 15,
      "ImageOrientationPatient": [0.99625741380245, 0.06709921007674, 0.05448725952672, -0.0426264568423, 0.92979024240257, -0.3656133070746],
      "ImagePositionPatient": [-792.88666092994, -864.70515724477, 236.63900656963],
      "ImageType": [
        "ORIGINAL",
        "PRIMARY",
        "P",
        "MB",
        "ND",
        "MOSAIC"
],
      "ImagedNucleus": "1H",
      "ImagingFrequency": 123.258951,
      "InPlanePhaseEncodingDirection": "COL",
      "LargestImagePixelValue": 4095,
      "MRAcquisitionType": "2D",
      "MagneticFieldStrength": 3.0,
      "Manufacturer": "SIEMENS",
      "ManufacturerModelName": "Prisma_fit",
      "Modality": "MR",
      "NumberOfAverages": 1.0,
      "NumberOfPhaseEncodingSteps": 104,
      "PercentPhaseFieldOfView": 100.0,
      "PercentSampling": 100.0,
      "PerformedProcedureStepStartTime": "170211.107000",
      "PhotometricInterpretation": "MONOCHROME2",
      "PixelBandwidth": 2290.0,
      "PixelRepresentation": 0,
      "PixelSpacing": [2.0, 2.0],
      "ProtocolName": "func_task-things_run-6",
      "RepetitionTime": 1490.0,
      "RescaleIntercept": -4096.0,
      "RescaleSlope": 2.0,
      "RescaleType": "US",
      "Rows": 832,
      "SAR": 0.03477614318925,
      "SamplesPerPixel": 1,
      "ScanOptions": "FS",
      "ScanningSequence": "EP",
      "SequenceName": "epfid2d1_104",
      "SequenceVariant": [
        "SK",
        "SS"
],
      "SeriesDescription": "func_task-things_run-6",
      "SeriesNumber": 29,
      "SeriesTime": "181045.506000",
      "SliceLocation": -33.457737541545,
      "SliceThickness": 2.0,
      "SmallestImagePixelValue": 0,
      "SoftwareVersions": "syngo MR E11",
      "SpacingBetweenSlices": 2.0000000223496,
      "SpecificCharacterSet": "ISO_IR 100",
      "StudyID": "1",
      "StudyTime": "170211.043000",
      "TransmitCoilName": "Body",
      "VariableFlipAngleFlag": "N",
      "WindowCenterWidthExplanation": "Algo1",
      "dBdt": 0.0},
    "slices": {}
  },
  "time": {
    "samples": {
      "AcquisitionNumber": [1, 2, 3, 4, 5, 6, 7, 8, 9, 10, 11, 12, 13, 14, 15, 16, 17, 18, 19, 20, 21, 22, 23, 24, 25, 26, 27, 28, 29, 30, 31, 32, 33, 34, 35, 36, 37, 38, 39, 40, 41, 42, 43, 44, 45, 46, 47, 48, 49, 50, 51, 52, 53, 54, 55, 56, 57, 58, 59, 60, 61, 62, 63, 64, 65, 66, 67, 68, 69, 70, 71, 72, 73, 74, 75, 76, 77, 78, 79, 80, 81, 82, 83, 84, 85, 86, 87, 88, 89, 90, 91, 92, 93, 94, 95, 96, 97, 98, 99, 100, 101, 102, 103, 104, 105, 106, 107, 108, 109, 110, 111, 112, 113, 114, 115, 116, 117, 118, 119, 120, 121, 122, 123, 124, 125, 126, 127, 128, 129, 130, 131, 132, 133, 134, 135, 136, 137, 138, 139, 140, 141, 142, 143, 144, 145, 146, 147, 148, 149, 150, 151, 152, 153, 154, 155, 156, 157, 158, 159, 160, 161, 162, 163, 164, 165, 166, 167, 168, 169, 170, 171, 172, 173, 174, 175, 176, 177, 178, 179, 180, 181, 182, 183, 184, 185, 186, 187, 188, 189, 190],
      "AcquisitionTime": ["180912.505000", "180913.995000", "180915.485000", "180916.975000", "180918.465000", "180919.955000", "180921.445000", "180922.935000", "180924.425000", "180925.915000", "180927.405000", "180928.895000", "180930.385000", "180931.875000", "180933.365000", "180934.855000", "180936.345000", "180937.835000", "180939.325000", "180940.815000", "180942.305000", "180943.795000", "180945.285000", "180946.775000", "180948.265000", "180949.755000", "180951.245000", "180952.735000", "180954.225000", "180955.715000", "180957.205000", "180958.695000", "181000.185000", "181001.675000", "181003.165000", "181004.655000", "181006.145000", "181007.635000", "181009.125000", "181010.615000", "181012.105000", "181013.595000", "181015.085000", "181016.575000", "181018.065000", "181019.555000", "181021.045000", "181022.535000", "181024.025000", "181025.515000", "181027.005000", "181028.495000", "181029.985000", "181031.475000", "181032.965000", "181034.455000", "181035.945000", "181037.435000", "181038.925000", "181040.415000", "181041.905000", "181043.395000", "181044.885000", "181046.375000", "181047.865000", "181049.355000", "181050.845000", "181052.335000", "181053.825000", "181055.315000", "181056.805000", "181058.295000", "181059.785000", "181101.275000", "181102.765000", "181104.255000", "181105.745000", "181107.235000", "181108.725000", "181110.215000", "181111.705000", "181113.195000", "181114.685000", "181116.175000", "181117.665000", "181119.155000", "181120.645000", "181122.135000", "181123.625000", "181125.115000", "181126.605000", "181128.095000", "181129.585000", "181131.075000", "181132.565000", "181134.055000", "181135.545000", "181137.035000", "181138.525000", "181140.015000", "181141.505000", "181142.995000", "181144.485000", "181145.975000", "181147.465000", "181148.955000", "181150.445000", "181151.935000", "181153.425000", "181154.915000", "181156.405000", "181157.895000", "181159.385000", "181200.875000", "181202.365000", "181203.855000", "181205.345000", "181206.835000", "181208.325000", "181209.815000", "181211.305000", "181212.795000", "181214.285000", "181215.775000", "181217.265000", "181218.755000", "181220.245000", "181221.735000", "181223.225000", "181224.715000", "181226.205000", "181227.695000", "181229.185000", "181230.675000", "181232.165000", "181233.655000", "181235.145000", "181236.635000", "181238.125000", "181239.615000", "181241.105000", "181242.595000", "181244.085000", "181245.575000", "181247.065000", "181248.555000", "181250.045000", "181251.535000", "181253.025000", "181254.515000", "181256.005000", "181257.495000", "181258.985000", "181300.475000", "181301.965000", "181303.455000", "181304.945000", "181306.435000", "181307.925000", "181309.415000", "181310.905000", "181312.395000", "181313.885000", "181315.375000", "181316.865000", "181318.355000", "181319.845000", "181321.335000", "181322.825000", "181324.315000", "181325.805000", "181327.295000", "181328.785000", "181330.275000", "181331.765000", "181333.255000", "181334.745000", "181336.235000", "181337.725000", "181339.215000", "181340.705000", "181342.195000", "181343.685000", "181345.175000", "181346.665000", "181348.155000", "181349.645000", "181351.135000", "181352.625000", "181354.115000"],
      "ContentTime": ["181045.508000", "181045.514000", "181045.517000", "181045.520000", "181045.522000", "181045.525000", "181045.527000", "181045.530000", "181045.532000", "181045.535000", "181045.538000", "181045.540000", "181045.543000", "181045.546000", "181045.548000", "181045.551000", "181045.554000", "181045.556000", "181045.559000", "181045.562000", "181045.565000", "181045.568000", "181045.571000", "181045.574000", "181045.577000", "181045.579000", "181045.582000", "181045.615000", "181045.618000", "181045.620000", "181045.623000", "181045.626000", "181045.628000", "181045.631000", "181045.633000", "181045.636000", "181045.638000", "181045.641000", "181045.644000", "181105.396000", "181105.399000", "181105.402000", "181105.404000", "181105.407000", "181105.409000", "181105.412000", "181105.415000", "181105.417000", "181105.420000", "181105.422000", "181105.425000", "181105.427000", "181105.430000", "181105.433000", "181105.435000", "181105.438000", "181105.440000", "181105.443000", "181105.446000", "181125.396000", "181125.399000", "181125.401000", "181125.404000", "181125.406000", "181125.409000", "181125.412000", "181125.414000", "181125.417000", "181125.419000", "181125.422000", "181125.425000", "181125.427000", "181125.430000", "181125.432000", "181125.435000", "181125.438000", "181125.440000", "181125.443000", "181125.445000", "181145.407000", "181145.410000", "181145.412000", "181145.415000", "181145.417000", "181145.420000", "181145.423000", "181145.425000", "181145.428000", "181145.431000", "181145.433000", "181145.436000", "181145.438000", "181145.441000", "181145.444000", "181145.446000", "181145.449000", "181145.451000", "181145.455000", "181145.458000", "181145.460000", "181225.438000", "181225.440000", "181225.443000", "181225.446000", "181225.448000", "181225.451000", "181225.453000", "181225.456000", "181225.459000", "181225.461000", "181225.464000", "181225.467000", "181225.469000", "181225.472000", "181225.474000", "181225.477000", "181225.480000", "181225.482000", "181225.485000", "181225.487000", "181225.490000", "181225.493000", "181225.495000", "181225.498000", "181225.500000", "181225.503000", "181225.506000", "181225.508000", "181225.511000", "181305.437000", "181305.440000", "181305.443000", "181305.445000", "181305.448000", "181305.450000", "181305.453000", "181305.456000", "181305.458000", "181305.461000", "181305.464000", "181305.466000", "181305.469000", "181305.471000", "181305.474000", "181305.477000", "181305.479000", "181305.482000", "181305.485000", "181305.487000", "181305.490000", "181305.493000", "181305.495000", "181305.498000", "181305.500000", "181305.503000", "181345.434000", "181345.437000", "181345.440000", "181345.443000", "181345.446000", "181345.449000", "181345.451000", "181345.454000", "181345.457000", "181345.459000", "181345.462000", "181345.464000", "181345.467000", "181345.470000", "181345.472000", "181345.475000", "181345.478000", "181345.480000", "181345.483000", "181345.485000", "181345.494000", "181345.497000", "181345.499000", "181345.502000", "181345.505000", "181345.507000", "181345.510000", "181356.117000", "181356.120000", "181356.123000", "181356.125000", "181356.128000", "181356.138000", "181356.141000", "181356.143000"],
      "InstanceCreationTime": ["181045.508000", "181045.514000", "181045.517000", "181045.520000", "181045.522000", "181045.525000", "181045.527000", "181045.530000", "181045.532000", "181045.535000", "181045.538000", "181045.540000", "181045.543000", "181045.546000", "181045.548000", "181045.551000", "181045.554000", "181045.556000", "181045.559000", "181045.562000", "181045.565000", "181045.568000", "181045.571000", "181045.574000", "181045.577000", "181045.579000", "181045.582000", "181045.615000", "181045.618000", "181045.620000", "181045.623000", "181045.626000", "181045.628000", "181045.631000", "181045.633000", "181045.636000", "181045.638000", "181045.641000", "181045.644000", "181105.396000", "181105.399000", "181105.402000", "181105.404000", "181105.407000", "181105.409000", "181105.412000", "181105.415000", "181105.417000", "181105.420000", "181105.422000", "181105.425000", "181105.427000", "181105.430000", "181105.433000", "181105.435000", "181105.438000", "181105.440000", "181105.443000", "181105.446000", "181125.396000", "181125.399000", "181125.401000", "181125.404000", "181125.406000", "181125.409000", "181125.412000", "181125.414000", "181125.417000", "181125.419000", "181125.422000", "181125.425000", "181125.427000", "181125.430000", "181125.432000", "181125.435000", "181125.438000", "181125.440000", "181125.443000", "181125.445000", "181145.407000", "181145.410000", "181145.412000", "181145.415000", "181145.417000", "181145.420000", "181145.423000", "181145.425000", "181145.428000", "181145.431000", "181145.433000", "181145.436000", "181145.438000", "181145.441000", "181145.444000", "181145.446000", "181145.449000", "181145.451000", "181145.455000", "181145.458000", "181145.460000", "181225.438000", "181225.440000", "181225.443000", "181225.446000", "181225.448000", "181225.451000", "181225.453000", "181225.456000", "181225.459000", "181225.461000", "181225.464000", "181225.467000", "181225.469000", "181225.472000", "181225.474000", "181225.477000", "181225.480000", "181225.482000", "181225.485000", "181225.487000", "181225.490000", "181225.493000", "181225.495000", "181225.498000", "181225.500000", "181225.503000", "181225.506000", "181225.508000", "181225.511000", "181305.437000", "181305.440000", "181305.443000", "181305.445000", "181305.448000", "181305.450000", "181305.453000", "181305.456000", "181305.458000", "181305.461000", "181305.464000", "181305.466000", "181305.469000", "181305.471000", "181305.474000", "181305.477000", "181305.479000", "181305.482000", "181305.485000", "181305.487000", "181305.490000", "181305.493000", "181305.495000", "181305.498000", "181305.500000", "181305.503000", "181345.434000", "181345.437000", "181345.440000", "181345.443000", "181345.446000", "181345.449000", "181345.451000", "181345.454000", "181345.457000", "181345.459000", "181345.462000", "181345.464000", "181345.467000", "181345.470000", "181345.472000", "181345.475000", "181345.478000", "181345.480000", "181345.483000", "181345.485000", "181345.494000", "181345.497000", "181345.499000", "181345.502000", "181345.505000", "181345.507000", "181345.510000", "181356.117000", "181356.120000", "181356.123000", "181356.125000", "181356.128000", "181356.138000", "181356.141000", "181356.143000"],
      "InstanceNumber": [1, 2, 3, 4, 5, 6, 7, 8, 9, 10, 11, 12, 13, 14, 15, 16, 17, 18, 19, 20, 21, 22, 23, 24, 25, 26, 27, 28, 29, 30, 31, 32, 33, 34, 35, 36, 37, 38, 39, 40, 41, 42, 43, 44, 45, 46, 47, 48, 49, 50, 51, 52, 53, 54, 55, 56, 57, 58, 59, 60, 61, 62, 63, 64, 65, 66, 67, 68, 69, 70, 71, 72, 73, 74, 75, 76, 77, 78, 79, 80, 81, 82, 83, 84, 85, 86, 87, 88, 89, 90, 91, 92, 93, 94, 95, 96, 97, 98, 99, 100, 101, 102, 103, 104, 105, 106, 107, 108, 109, 110, 111, 112, 113, 114, 115, 116, 117, 118, 119, 120, 121, 122, 123, 124, 125, 126, 127, 128, 129, 130, 131, 132, 133, 134, 135, 136, 137, 138, 139, 140, 141, 142, 143, 144, 145, 146, 147, 148, 149, 150, 151, 152, 153, 154, 155, 156, 157, 158, 159, 160, 161, 162, 163, 164, 165, 166, 167, 168, 169, 170, 171, 172, 173, 174, 175, 176, 177, 178, 179, 180, 181, 182, 183, 184, 185, 186, 187, 188, 189, 190],
      "WindowCenter": [4834.0, 4838.0, 4836.0, 4806.0, 4804.0, 4810.0, 4840.0, 4868.0, 4844.0, 4842.0, 4838.0, 4840.0, 4836.0, 4832.0, 4806.0, 4804.0, 4804.0, 4830.0, 4870.0, 4878.0, 4878.0, 4874.0, 4836.0, 4806.0, 4808.0, 4806.0, 4834.0, 4842.0, 4868.0, 4864.0, 4812.0, 4836.0, 4842.0, 4846.0, 4830.0, 4806.0, 4810.0, 4842.0, 4876.0, 4876.0, 4874.0, 4846.0, 4836.0, 4830.0, 4810.0, 4806.0, 4806.0, 4808.0, 4876.0, 4882.0, 4878.0, 4878.0, 4868.0, 4806.0, 4810.0, 4808.0, 4806.0, 4834.0, 4844.0, 4870.0, 4872.0, 4842.0, 4808.0, 4834.0, 4838.0, 4840.0, 4840.0, 4836.0, 4810.0, 4808.0, 4808.0, 4840.0, 4872.0, 4846.0, 4838.0, 4832.0, 4834.0, 4842.0, 4842.0, 4840.0, 4838.0, 4812.0, 4804.0, 4834.0, 4844.0, 4844.0, 4844.0, 4846.0, 4844.0, 4808.0, 4806.0, 4802.0, 4834.0, 4844.0, 4868.0, 4844.0, 4832.0, 4810.0, 4806.0, 4830.0, 4844.0, 4868.0, 4870.0, 4844.0, 4832.0, 4808.0, 4806.0, 4832.0, 4838.0, 4840.0, 4838.0, 4808.0, 4836.0, 4842.0, 4868.0, 4870.0, 4868.0, 4836.0, 4804.0, 4806.0, 4834.0, 4866.0, 4870.0, 4868.0, 4840.0, 4834.0, 4840.0, 4840.0, 4840.0, 4808.0, 4806.0, 4834.0, 4844.0, 4868.0, 4870.0, 4836.0, 4806.0, 4806.0, 4810.0, 4868.0, 4874.0, 4872.0, 4870.0, 4842.0, 4834.0, 4812.0, 4808.0, 4806.0, 4810.0, 4840.0, 4872.0, 4876.0, 4842.0, 4808.0, 4806.0, 4836.0, 4838.0, 4838.0, 4812.0, 4802.0, 4808.0, 4838.0, 4870.0, 4866.0, 4810.0, 4808.0, 4836.0, 4840.0, 4836.0, 4840.0, 4834.0, 4810.0, 4808.0, 4836.0, 4838.0, 4840.0, 4806.0, 4808.0, 4838.0, 4868.0, 4842.0, 4810.0, 4804.0, 4804.0, 4810.0, 4868.0, 4872.0, 4876.0, 4846.0, 4842.0],
      "WindowWidth": [18632.0, 18634.0, 18636.0, 18602.0, 18602.0, 18602.0, 18638.0, 18666.0, 18638.0, 18638.0, 18632.0, 18634.0, 18636.0, 18628.0, 18602.0, 18606.0, 18600.0, 18634.0, 18670.0, 18674.0, 18668.0, 18666.0, 18630.0, 18604.0, 18608.0, 18600.0, 18638.0, 18640.0, 18668.0, 18664.0, 18604.0, 18634.0, 18642.0, 18640.0, 18634.0, 18606.0, 18610.0, 18638.0, 18668.0, 18668.0, 18672.0, 18640.0, 18624.0, 18630.0, 18604.0, 18608.0, 18608.0, 18602.0, 18676.0, 18666.0, 18662.0, 18666.0, 18666.0, 18600.0, 18608.0, 18610.0, 18600.0, 18630.0, 18636.0, 18666.0, 18666.0, 18634.0, 18606.0, 18638.0, 18636.0, 18632.0, 18638.0, 18632.0, 18606.0, 18598.0, 18600.0, 18636.0, 18668.0, 18640.0, 18634.0, 18632.0, 18634.0, 18636.0, 18638.0, 18636.0, 18634.0, 18600.0, 18600.0, 18632.0, 18642.0, 18640.0, 18640.0, 18638.0, 18640.0, 18602.0, 18602.0, 18602.0, 18632.0, 18636.0, 18668.0, 18638.0, 18632.0, 18608.0, 18602.0, 18634.0, 18642.0, 18666.0, 18666.0, 18636.0, 18628.0, 18606.0, 18604.0, 18632.0, 18634.0, 18636.0, 18634.0, 18602.0, 18636.0, 18636.0, 18666.0, 18666.0, 18670.0, 18632.0, 18598.0, 18606.0, 18630.0, 18670.0, 18670.0, 18674.0, 18630.0, 18632.0, 18632.0, 18634.0, 18628.0, 18604.0, 18604.0, 18634.0, 18640.0, 18660.0, 18670.0, 18632.0, 18606.0, 18606.0, 18600.0, 18668.0, 18670.0, 18668.0, 18666.0, 18636.0, 18628.0, 18604.0, 18604.0, 18606.0, 18600.0, 18638.0, 18670.0, 18676.0, 18634.0, 18604.0, 18600.0, 18632.0, 18636.0, 18634.0, 18602.0, 18600.0, 18606.0, 18634.0, 18674.0, 18672.0, 18604.0, 18602.0, 18638.0, 18640.0, 18634.0, 18636.0, 18632.0, 18604.0, 18604.0, 18636.0, 18634.0, 18638.0, 18602.0, 18604.0, 18640.0, 18666.0, 18636.0, 18604.0, 18602.0, 18602.0, 18610.0, 18674.0, 18674.0, 18670.0, 18638.0, 18636.0]
    },
    "slices": {}
  }
}