{
  "AcquisitionMatrixPE": 104,
  "AcquisitionNumber": 1,
  "AcquisitionTime": "17:53:39.857500",
  "BandwidthPerPixelPhaseEncode": 17.17,
  "BaseResolution": 104,
  "BodyPartExamined": "BRAIN",
  "CoilString": "HC1-7;NC1_2",
  "ConsistencyInfo": "N4_VE11C_LATEST_20160120",
  "ConversionSoftware": "dcm2niix",
  "ConversionSoftwareVersion": "v1.0.20190902",
  "DerivedVendorReportedEchoSpacing": 0.000560011,
  "DeviceSerialNumber": "167006",
  "DwellTime": 2.1e-06,
  "EchoTime": 0.037,
  "EchoTrainLength": 104,
  "EffectiveEchoSpacing": 0.000560011,
  "FlipAngle": 52,
  "ImageComments": "Unaliased_MB4_PE3_LB",
  "ImageOrientationPatientDICOM": [0.996257, 0.0670992, 0.0544873, -0.0426265, 0.92979, -0.365613],
  "ImageType": [
    "ORIGINAL",
    "PRIMARY",
    "M",
    "MB",
    "ND",
    "MOSAIC"
],
  "ImagingFrequency": 123.259,
  "InPlanePhaseEncodingDirectionDICOM": "COL",
  "InstitutionAddress": "Chemin_Queen-Mary_4565_Montreal_District_CA_H3W_1W5",
  "InstitutionName": "IUGM",
  "InstitutionalDepartmentName": "Department",
  "MRAcquisitionType": "2D",
  "MagneticFieldStrength": 3,
  "Manufacturer": "Siemens",
  "ManufacturersModelName": "Prisma_fit",
  "Modality": "MR",
  "MultibandAccelerationFactor": 4,
  "PartialFourier": 1,
  "PatientPosition": "HFS",
  "PercentPhaseFOV": 100,
  "PhaseEncodingDirection": "j",
  "PhaseEncodingSteps": 104,
  "PhaseResolution": 1,
  "PixelBandwidth": 2290,
  "ProcedureStepDescription": "memory_things",
  "ProtocolName": "func_task-things_run-3",
  "PulseSequenceDetails": "%CustomerSeq%_cmrr_mbep2d_bold",
  "ReceiveCoilActiveElements": "HC1-7;NC1,2",
  "ReceiveCoilName": "HeadNeck_64",
  "ReconMatrixPE": 104,
  "RepetitionTime": 1.49,
  "SAR": 0.0347761,
  "ScanOptions": "FS",
  "ScanningSequence": "EP",
  "SequenceName": "epfid2d1_104",
  "SequenceVariant": "SK_SS",
  "SeriesDescription": "func_task-things_run-3",
  "SeriesNumber": 19,
  "ShimSetting": [644, -7199, -8813, 682, 100, -5, -14, 15],
  "SliceThickness": 2,
  "SliceTiming": [0, 0.7825, 0.0975, 0.8825, 0.195, 0.98, 0.2925, 1.0775, 0.3925, 1.175, 0.49, 1.2725, 0.5875, 1.3725, 0.685, 0, 0.7825, 0.0975, 0.8825, 0.195, 0.98, 0.2925, 1.0775, 0.3925, 1.175, 0.49, 1.2725, 0.5875, 1.3725, 0.685, 0, 0.7825, 0.0975, 0.8825, 0.195, 0.98, 0.2925, 1.0775, 0.3925, 1.175, 0.49, 1.2725, 0.5875, 1.3725, 0.685, 0, 0.7825, 0.0975, 0.8825, 0.195, 0.98, 0.2925, 1.0775, 0.3925, 1.175, 0.49, 1.2725, 0.5875, 1.3725, 0.685],
  "SoftwareVersions": "syngo_MR_E11",
  "SpacingBetweenSlices": 2,
  "StationName": "MRC35049",
  "TaskName": "things",
  "TotalReadoutTime": 0.0576811,
  "TxRefAmp": 240.483,
  "WipMemBlock": "6c47cacc-b1b7-4cb3-a716-9cc35976d24c||Sequence: R016 ve11c/master r/e634e98; Dec 19 2017 11:00:25 by eja",
  "dcmmeta_affine": [
    [-1.9925148487091064, -0.08525291085243225, 0.1503881812095642, 107.42437744140625],
    [-0.13419842720031738, 1.8595805168151855, -0.7238447666168213, -52.56715393066406],
    [0.10897451639175415, 0.7312266230583191, 1.8583412170410156, -65.17709350585938],
    [0.0, 0.0, 0.0, 1.0]
],
  "dcmmeta_reorient_transform": [
    [0.0, -1.0, 0.0, 103.0],
    [1.0, 0.0, 0.0, 0.0],
    [0.0, 0.0, 1.0, 0.0],
    [0.0, 0.0, 0.0, 1.0]
],
  "dcmmeta_shape": [104, 104, 60, 190],
  "dcmmeta_slice_dim": 2,
  "dcmmeta_version": 0.6,
  "global": {
    "const": {
      "AcquisitionMatrix": [104, 0, 0, 104],
      "AngioFlag": "N",
      "BitsAllocated": 16,
      "BitsStored": 16,
      "BodyPartExamined": "BRAIN",
      "Columns": 832,
      "EchoNumbers": 1,
      "EchoTime": 37.0,
      "EchoTrainLength": 104,
      "FlipAngle": 52.0,
      "HighBit": 15,
      "ImageOrientationPatient": [0.99625741380245, 0.06709921007674, 0.05448725952672, -0.0426264568423, 0.92979024240257, -0.3656133070746],
      "ImagePositionPatient": [-792.88666092994, -864.70515724477, 236.63900656963],
      "ImageType": [
        "ORIGINAL",
        "PRIMARY",
        "M",
        "MB",
        "ND",
        "MOSAIC"
],
      "ImagedNucleus": "1H",
      "ImagingFrequency": 123.258942,
      "InPlanePhaseEncodingDirection": "COL",
      "MRAcquisitionType": "2D",
      "MagneticFieldStrength": 3.0,
      "Manufacturer": "SIEMENS",
      "ManufacturerModelName": "Prisma_fit",
      "Modality": "MR",
      "NumberOfAverages": 1.0,
      "NumberOfPhaseEncodingSteps": 104,
      "PercentPhaseFieldOfView": 100.0,
      "PercentSampling": 100.0,
      "PerformedProcedureStepStartTime": "170211.107000",
      "PhotometricInterpretation": "MONOCHROME2",
      "PixelBandwidth": 2290.0,
      "PixelRepresentation": 0,
      "PixelSpacing": [2.0, 2.0],
      "ProtocolName": "func_task-things_run-3",
      "RepetitionTime": 1490.0,
      "Rows": 832,
      "SAR": 0.03477614318925,
      "SamplesPerPixel": 1,
      "ScanOptions": "FS",
      "ScanningSequence": "EP",
      "SequenceName": "epfid2d1_104",
      "SequenceVariant": [
        "SK",
        "SS"
],
      "SeriesDescription": "func_task-things_run-3",
      "SeriesNumber": 19,
      "SeriesTime": "175505.319000",
      "SliceLocation": -33.457737541545,
      "SliceThickness": 2.0,
      "SmallestImagePixelValue": 0,
      "SoftwareVersions": "syngo MR E11",
      "SpacingBetweenSlices": 2.0000000223496,
      "SpecificCharacterSet": "ISO_IR 100",
      "StudyID": "1",
      "StudyTime": "170211.043000",
      "TransmitCoilName": "Body",
      "VariableFlipAngleFlag": "N",
      "WindowCenterWidthExplanation": "Algo1",
      "dBdt": 0.0},
    "slices": {}
  },
  "time": {
    "samples": {
      "AcquisitionNumber": [1, 2, 3, 4, 5, 6, 7, 8, 9, 10, 11, 12, 13, 14, 15, 16, 17, 18, 19, 20, 21, 22, 23, 24, 25, 26, 27, 28, 29, 30, 31, 32, 33, 34, 35, 36, 37, 38, 39, 40, 41, 42, 43, 44, 45, 46, 47, 48, 49, 50, 51, 52, 53, 54, 55, 56, 57, 58, 59, 60, 61, 62, 63, 64, 65, 66, 67, 68, 69, 70, 71, 72, 73, 74, 75, 76, 77, 78, 79, 80, 81, 82, 83, 84, 85, 86, 87, 88, 89, 90, 91, 92, 93, 94, 95, 96, 97, 98, 99, 100, 101, 102, 103, 104, 105, 106, 107, 108, 109, 110, 111, 112, 113, 114, 115, 116, 117, 118, 119, 120, 121, 122, 123, 124, 125, 126, 127, 128, 129, 130, 131, 132, 133, 134, 135, 136, 137, 138, 139, 140, 141, 142, 143, 144, 145, 146, 147, 148, 149, 150, 151, 152, 153, 154, 155, 156, 157, 158, 159, 160, 161, 162, 163, 164, 165, 166, 167, 168, 169, 170, 171, 172, 173, 174, 175, 176, 177, 178, 179, 180, 181, 182, 183, 184, 185, 186, 187, 188, 189, 190],
      "AcquisitionTime": ["175339.857500", "175341.347500", "175342.837500", "175344.327500", "175345.817500", "175347.307500", "175348.797500", "175350.287500", "175351.777500", "175353.267500", "175354.757500", "175356.247500", "175357.737500", "175359.227500", "175400.717500", "175402.207500", "175403.697500", "175405.187500", "175406.677500", "175408.167500", "175409.657500", "175411.147500", "175412.637500", "175414.127500", "175415.617500", "175417.107500", "175418.597500", "175420.087500", "175421.577500", "175423.067500", "175424.557500", "175426.047500", "175427.537500", "175429.027500", "175430.517500", "175432.007500", "175433.497500", "175434.987500", "175436.477500", "175437.967500", "175439.457500", "175440.947500", "175442.437500", "175443.927500", "175445.417500", "175446.907500", "175448.397500", "175449.887500", "175451.377500", "175452.867500", "175454.357500", "175455.847500", "175457.337500", "175458.827500", "175500.317500", "175501.807500", "175503.297500", "175504.787500", "175506.277500", "175507.767500", "175509.257500", "175510.747500", "175512.237500", "175513.727500", "175515.217500", "175516.707500", "175518.197500", "175519.687500", "175521.177500", "175522.667500", "175524.157500", "175525.647500", "175527.137500", "175528.627500", "175530.117500", "175531.607500", "175533.097500", "175534.587500", "175536.077500", "175537.567500", "175539.057500", "175540.547500", "175542.037500", "175543.527500", "175545.017500", "175546.507500", "175547.997500", "175549.487500", "175550.977500", "175552.467500", "175553.957500", "175555.447500", "175556.937500", "175558.427500", "175559.917500", "175601.407500", "175602.897500", "175604.387500", "175605.877500", "175607.367500", "175608.857500", "175610.347500", "175611.837500", "175613.327500", "175614.817500", "175616.307500", "175617.797500", "175619.287500", "175620.777500", "175622.267500", "175623.757500", "175625.247500", "175626.737500", "175628.227500", "175629.717500", "175631.207500", "175632.697500", "175634.187500", "175635.677500", "175637.167500", "175638.657500", "175640.147500", "175641.637500", "175643.127500", "175644.617500", "175646.107500", "175647.597500", "175649.087500", "175650.577500", "175652.067500", "175653.557500", "175655.047500", "175656.537500", "175658.027500", "175659.517500", "175701.007500", "175702.497500", "175703.987500", "175705.477500", "175706.967500", "175708.457500", "175709.947500", "175711.437500", "175712.927500", "175714.417500", "175715.907500", "175717.397500", "175718.887500", "175720.377500", "175721.867500", "175723.357500", "175724.847500", "175726.337500", "175727.827500", "175729.317500", "175730.807500", "175732.297500", "175733.787500", "175735.277500", "175736.767500", "175738.257500", "175739.747500", "175741.237500", "175742.727500", "175744.217500", "175745.707500", "175747.197500", "175748.687500", "175750.177500", "175751.667500", "175753.157500", "175754.647500", "175756.137500", "175757.627500", "175759.117500", "175800.607500", "175802.097500", "175803.587500", "175805.077500", "175806.567500", "175808.057500", "175809.547500", "175811.037500", "175812.527500", "175814.017500", "175815.507500", "175816.997500", "175818.487500", "175819.977500", "175821.467500"],
      "ContentTime": ["175505.322000", "175505.326000", "175505.329000", "175505.332000", "175505.336000", "175505.339000", "175505.352000", "175505.355000", "175505.359000", "175505.362000", "175505.366000", "175505.369000", "175505.372000", "175505.376000", "175505.379000", "175505.383000", "175505.386000", "175505.390000", "175505.393000", "175505.396000", "175505.422000", "175505.426000", "175505.429000", "175505.432000", "175505.436000", "175505.439000", "175505.443000", "175505.446000", "175505.450000", "175505.453000", "175525.285000", "175525.289000", "175525.292000", "175525.296000", "175525.299000", "175525.303000", "175525.306000", "175525.309000", "175525.313000", "175525.316000", "175525.319000", "175525.323000", "175525.326000", "175525.330000", "175525.333000", "175525.336000", "175525.340000", "175525.343000", "175525.347000", "175525.350000", "175545.285000", "175545.289000", "175545.292000", "175545.296000", "175545.299000", "175545.303000", "175545.306000", "175545.310000", "175545.313000", "175545.317000", "175545.320000", "175545.324000", "175545.327000", "175545.330000", "175545.334000", "175545.337000", "175545.341000", "175545.344000", "175545.348000", "175545.351000", "175605.285000", "175605.289000", "175605.292000", "175605.296000", "175605.299000", "175605.303000", "175605.306000", "175605.310000", "175605.313000", "175605.316000", "175605.320000", "175605.323000", "175605.327000", "175605.330000", "175605.333000", "175605.348000", "175605.352000", "175605.355000", "175605.359000", "175605.362000", "175605.365000", "175625.285000", "175625.289000", "175625.292000", "175625.296000", "175625.299000", "175625.303000", "175625.306000", "175625.310000", "175625.313000", "175625.316000", "175625.320000", "175625.323000", "175625.327000", "175625.330000", "175625.334000", "175625.337000", "175625.340000", "175625.344000", "175625.347000", "175705.284000", "175705.288000", "175705.292000", "175705.295000", "175705.298000", "175705.302000", "175705.305000", "175705.309000", "175705.312000", "175705.316000", "175705.319000", "175705.322000", "175705.326000", "175705.329000", "175705.333000", "175705.336000", "175705.340000", "175705.343000", "175705.347000", "175705.350000", "175705.353000", "175705.357000", "175705.360000", "175705.364000", "175705.367000", "175705.371000", "175705.374000", "175745.285000", "175745.289000", "175745.293000", "175745.296000", "175745.299000", "175745.303000", "175745.306000", "175745.310000", "175745.313000", "175745.316000", "175745.320000", "175745.323000", "175745.327000", "175745.330000", "175745.334000", "175745.337000", "175745.340000", "175745.344000", "175745.347000", "175745.351000", "175745.354000", "175745.358000", "175745.361000", "175745.364000", "175745.368000", "175745.371000", "175745.375000", "175823.719000", "175823.723000", "175823.726000", "175823.730000", "175823.733000", "175823.737000", "175823.740000", "175823.745000", "175823.748000", "175823.752000", "175823.755000", "175823.759000", "175823.762000", "175823.766000", "175823.769000", "175823.773000", "175823.776000", "175823.780000", "175823.783000", "175823.787000", "175823.790000", "175823.794000", "175823.797000", "175823.800000", "175823.804000", "175823.807000"],
      "InstanceCreationTime": ["175505.322000", "175505.326000", "175505.329000", "175505.332000", "175505.336000", "175505.339000", "175505.352000", "175505.355000", "175505.359000", "175505.362000", "175505.366000", "175505.369000", "175505.372000", "175505.376000", "175505.379000", "175505.383000", "175505.386000", "175505.390000", "175505.393000", "175505.396000", "175505.422000", "175505.426000", "175505.429000", "175505.432000", "175505.436000", "175505.439000", "175505.443000", "175505.446000", "175505.450000", "175505.453000", "175525.285000", "175525.289000", "175525.292000", "175525.296000", "175525.299000", "175525.303000", "175525.306000", "175525.309000", "175525.313000", "175525.316000", "175525.319000", "175525.323000", "175525.326000", "175525.330000", "175525.333000", "175525.336000", "175525.340000", "175525.343000", "175525.347000", "175525.350000", "175545.285000", "175545.289000", "175545.292000", "175545.296000", "175545.299000", "175545.303000", "175545.306000", "175545.310000", "175545.313000", "175545.317000", "175545.320000", "175545.324000", "175545.327000", "175545.330000", "175545.334000", "175545.337000", "175545.341000", "175545.344000", "175545.348000", "175545.351000", "175605.285000", "175605.289000", "175605.292000", "175605.296000", "175605.299000", "175605.303000", "175605.306000", "175605.310000", "175605.313000", "175605.316000", "175605.320000", "175605.323000", "175605.327000", "175605.330000", "175605.333000", "175605.348000", "175605.352000", "175605.355000", "175605.359000", "175605.362000", "175605.365000", "175625.285000", "175625.289000", "175625.292000", "175625.296000", "175625.299000", "175625.303000", "175625.306000", "175625.310000", "175625.313000", "175625.316000", "175625.320000", "175625.323000", "175625.327000", "175625.330000", "175625.334000", "175625.337000", "175625.340000", "175625.344000", "175625.347000", "175705.284000", "175705.288000", "175705.292000", "175705.295000", "175705.298000", "175705.302000", "175705.305000", "175705.309000", "175705.312000", "175705.316000", "175705.319000", "175705.322000", "175705.326000", "175705.329000", "175705.333000", "175705.336000", "175705.340000", "175705.343000", "175705.347000", "175705.350000", "175705.353000", "175705.357000", "175705.360000", "175705.364000", "175705.367000", "175705.371000", "175705.374000", "175745.285000", "175745.289000", "175745.293000", "175745.296000", "175745.299000", "175745.303000", "175745.306000", "175745.310000", "175745.313000", "175745.316000", "175745.320000", "175745.323000", "175745.327000", "175745.330000", "175745.334000", "175745.337000", "175745.340000", "175745.344000", "175745.347000", "175745.351000", "175745.354000", "175745.358000", "175745.361000", "175745.364000", "175745.368000", "175745.371000", "175745.375000", "175823.719000", "175823.723000", "175823.726000", "175823.730000", "175823.733000", "175823.737000", "175823.740000", "175823.745000", "175823.748000", "175823.752000", "175823.755000", "175823.759000", "175823.762000", "175823.766000", "175823.769000", "175823.773000", "175823.776000", "175823.780000", "175823.783000", "175823.787000", "175823.790000", "175823.794000", "175823.797000", "175823.800000", "175823.804000", "175823.807000"],
      "InstanceNumber": [1, 2, 3, 4, 5, 6, 7, 8, 9, 10, 11, 12, 13, 14, 15, 16, 17, 18, 19, 20, 21, 22, 23, 24, 25, 26, 27, 28, 29, 30, 31, 32, 33, 34, 35, 36, 37, 38, 39, 40, 41, 42, 43, 44, 45, 46, 47, 48, 49, 50, 51, 52, 53, 54, 55, 56, 57, 58, 59, 60, 61, 62, 63, 64, 65, 66, 67, 68, 69, 70, 71, 72, 73, 74, 75, 76, 77, 78, 79, 80, 81, 82, 83, 84, 85, 86, 87, 88, 89, 90, 91, 92, 93, 94, 95, 96, 97, 98, 99, 100, 101, 102, 103, 104, 105, 106, 107, 108, 109, 110, 111, 112, 113, 114, 115, 116, 117, 118, 119, 120, 121, 122, 123, 124, 125, 126, 127, 128, 129, 130, 131, 132, 133, 134, 135, 136, 137, 138, 139, 140, 141, 142, 143, 144, 145, 146, 147, 148, 149, 150, 151, 152, 153, 154, 155, 156, 157, 158, 159, 160, 161, 162, 163, 164, 165, 166, 167, 168, 169, 170, 171, 172, 173, 174, 175, 176, 177, 178, 179, 180, 181, 182, 183, 184, 185, 186, 187, 188, 189, 190],
      "LargestImagePixelValue": [47993, 45863, 44408, 43990, 42739, 43377, 45359, 44850, 43257, 44648, 43473, 43346, 44721, 46438, 44307, 43817, 45379, 44046, 43003, 42631, 44038, 45141, 43349, 45530, 43481, 43043, 42612, 42877, 44513, 45181, 43146, 42768, 44346, 43052, 44299, 44068, 44937, 43485, 44308, 43088, 44007, 44695, 44818, 43342, 42719, 44011, 43573, 42493, 45105, 44716, 44615, 44122, 43533, 43720, 44264, 44290, 43306, 43422, 43177, 43048, 44902, 44541, 44390, 44970, 44502, 42879, 43056, 41980, 44114, 44547, 44261, 46096, 47370, 47907, 48302, 46611, 44686, 45525, 46010, 45886, 45976, 46381, 43642, 45367, 46381, 47495, 47860, 48102, 45032, 43150, 43798, 43427, 45140, 46361, 47858, 48529, 48859, 46976, 43415, 43105, 43875, 46237, 46460, 46180, 45857, 45280, 45769, 46216, 45782, 45183, 43526, 44979, 44976, 46935, 46494, 44600, 45263, 46417, 46632, 46642, 46260, 45854, 44980, 43236, 42888, 47159, 47417, 48021, 47986, 47643, 46486, 43282, 44100, 45272, 46610, 46955, 44754, 45163, 46033, 46585, 46442, 46089, 45935, 44141, 45674, 44909, 44494, 46390, 45872, 44622, 46428, 46439, 46177, 45560, 42977, 45940, 47267, 46435, 44203, 42663, 47286, 48406, 47593, 47193, 47943, 47927, 44413, 43669, 45143, 45832, 46890, 46682, 44977, 46438, 47072, 46416, 46836, 45400, 43660, 45322, 47447, 45747, 44311, 42998, 45130, 47284, 48330, 48290, 46520, 43708],
      "WindowCenter": [10437.0, 10385.0, 10353.0, 10362.0, 10374.0, 10390.0, 10423.0, 10401.0, 10361.0, 10369.0, 10360.0, 10363.0, 10398.0, 10416.0, 10375.0, 10361.0, 10370.0, 10349.0, 10347.0, 10355.0, 10368.0, 10382.0, 10375.0, 10368.0, 10344.0, 10355.0, 10353.0, 10359.0, 10403.0, 10428.0, 10387.0, 10366.0, 10371.0, 10351.0, 10353.0, 10351.0, 10363.0, 10364.0, 10369.0, 10345.0, 10361.0, 10374.0, 10383.0, 10360.0, 10353.0, 10383.0, 10383.0, 10384.0, 10412.0, 10413.0, 10414.0, 10398.0, 10383.0, 10384.0, 10397.0, 10405.0, 10388.0, 10369.0, 10366.0, 10372.0, 10402.0, 10422.0, 10425.0, 10422.0, 10395.0, 10368.0, 10386.0, 10382.0, 10427.0, 10452.0, 10422.0, 10401.0, 10393.0, 10403.0, 10412.0, 10412.0, 10401.0, 10402.0, 10396.0, 10381.0, 10389.0, 10404.0, 10390.0, 10397.0, 10391.0, 10402.0, 10420.0, 10441.0, 10447.0, 10399.0, 10375.0, 10363.0, 10386.0, 10409.0, 10450.0, 10452.0, 10436.0, 10405.0, 10376.0, 10367.0, 10369.0, 10381.0, 10390.0, 10400.0, 10402.0, 10404.0, 10403.0, 10403.0, 10412.0, 10419.0, 10413.0, 10412.0, 10386.0, 10405.0, 10411.0, 10422.0, 10437.0, 10422.0, 10407.0, 10400.0, 10395.0, 10416.0, 10429.0, 10387.0, 10367.0, 10397.0, 10423.0, 10437.0, 10429.0, 10415.0, 10403.0, 10378.0, 10379.0, 10380.0, 10396.0, 10419.0, 10422.0, 10433.0, 10430.0, 10428.0, 10429.0, 10433.0, 10448.0, 10441.0, 10425.0, 10401.0, 10402.0, 10434.0, 10440.0, 10439.0, 10429.0, 10410.0, 10405.0, 10415.0, 10421.0, 10448.0, 10447.0, 10424.0, 10403.0, 10389.0, 10411.0, 10420.0, 10417.0, 10406.0, 10405.0, 10409.0, 10385.0, 10372.0, 10371.0, 10374.0, 10392.0, 10404.0, 10410.0, 10415.0, 10412.0, 10400.0, 10413.0, 10420.0, 10415.0, 10427.0, 10443.0, 10435.0, 10410.0, 10370.0, 10381.0, 10401.0, 10426.0, 10455.0, 10452.0, 10425.0],
      "WindowWidth": [22163.0, 22034.0, 21955.0, 21984.0, 22009.0, 22037.0, 22103.0, 22053.0, 21964.0, 21974.0, 21961.0, 21969.0, 22047.0, 22083.0, 21992.0, 21960.0, 21978.0, 21934.0, 21936.0, 21959.0, 21975.0, 22010.0, 22003.0, 21979.0, 21928.0, 21957.0, 21958.0, 21968.0, 22063.0, 22120.0, 22030.0, 21982.0, 21984.0, 21942.0, 21945.0, 21938.0, 21968.0, 21975.0, 21983.0, 21935.0, 21963.0, 21995.0, 22016.0, 21969.0, 21957.0, 22017.0, 22023.0, 22026.0, 22078.0, 22085.0, 22089.0, 22054.0, 22020.0, 22023.0, 22051.0, 22071.0, 22035.0, 21988.0, 21978.0, 21996.0, 22063.0, 22107.0, 22112.0, 22108.0, 22047.0, 21989.0, 22032.0, 22031.0, 22124.0, 22180.0, 22109.0, 22053.0, 22027.0, 22050.0, 22069.0, 22073.0, 22055.0, 22057.0, 22038.0, 22005.0, 22022.0, 22060.0, 22039.0, 22044.0, 22028.0, 22047.0, 22090.0, 22140.0, 22162.0, 22059.0, 22001.0, 21975.0, 22020.0, 22070.0, 22155.0, 22155.0, 22115.0, 22053.0, 21999.0, 21984.0, 21987.0, 22004.0, 22024.0, 22047.0, 22049.0, 22059.0, 22055.0, 22055.0, 22075.0, 22100.0, 22097.0, 22083.0, 22020.0, 22056.0, 22071.0, 22110.0, 22142.0, 22099.0, 22056.0, 22045.0, 22035.0, 22088.0, 22125.0, 22035.0, 21992.0, 22046.0, 22105.0, 22131.0, 22109.0, 22074.0, 22052.0, 22012.0, 22013.0, 22010.0, 22038.0, 22089.0, 22109.0, 22134.0, 22125.0, 22117.0, 22121.0, 22130.0, 22168.0, 22160.0, 22111.0, 22057.0, 22060.0, 22131.0, 22149.0, 22151.0, 22118.0, 22068.0, 22063.0, 22089.0, 22117.0, 22168.0, 22157.0, 22106.0, 22068.0, 22044.0, 22075.0, 22086.0, 22082.0, 22057.0, 22053.0, 22058.0, 22020.0, 21995.0, 21988.0, 21993.0, 22028.0, 22059.0, 22079.0, 22085.0, 22071.0, 22048.0, 22076.0, 22100.0, 22100.0, 22123.0, 22150.0, 22135.0, 22088.0, 22001.0, 22017.0, 22053.0, 22109.0, 22174.0, 22178.0, 22126.0]
    },
    "slices": {}
  }
}