{
  "AcquisitionMatrixPE": 104,
  "AcquisitionNumber": 1,
  "AcquisitionTime": "13:33:38.820000",
  "BandwidthPerPixelPhaseEncode": 17.17,
  "BaseResolution": 104,
  "BodyPartExamined": "BRAIN",
  "CoilString": "HC1-7;NC1_2",
  "ConsistencyInfo": "N4_VE11C_LATEST_20160120",
  "ConversionSoftware": "dcm2niix",
  "ConversionSoftwareVersion": "v1.0.20190902",
  "DerivedVendorReportedEchoSpacing": 0.000560011,
  "DeviceSerialNumber": "167006",
  "DwellTime": 2.1e-06,
  "EchoTime": 0.037,
  "EchoTrainLength": 104,
  "EffectiveEchoSpacing": 0.000560011,
  "FlipAngle": 52,
  "HeudiconvVersion": "0.10.0",
  "ImageComments": "Unaliased_MB4_PE3_LB",
  "ImageOrientationPatientDICOM": [0.999648, 0.0153767, 0.0216191, -0.00977071, 0.971008, -0.238848],
  "ImageType": [
    "ORIGINAL",
    "PRIMARY",
    "P",
    "MB",
    "ND",
    "MOSAIC"
],
  "ImagingFrequency": 123.259,
  "InPlanePhaseEncodingDirectionDICOM": "COL",
  "InstitutionAddress": "Chemin_Queen-Mary_4565_Montreal_District_CA_H3W_1W5",
  "InstitutionName": "IUGM",
  "InstitutionalDepartmentName": "Department",
  "MRAcquisitionType": "2D",
  "MagneticFieldStrength": 3,
  "Manufacturer": "Siemens",
  "ManufacturersModelName": "Prisma_fit",
  "Modality": "MR",
  "MultibandAccelerationFactor": 4,
  "PartialFourier": 1,
  "PatientPosition": "HFS",
  "PercentPhaseFOV": 100,
  "PhaseEncodingDirection": "j",
  "PhaseEncodingSteps": 104,
  "PhaseResolution": 1,
  "PixelBandwidth": 2290,
  "ProcedureStepDescription": "memory_things",
  "ProtocolName": "func_task-things_run-2",
  "PulseSequenceDetails": "%CustomerSeq%_cmrr_mbep2d_bold",
  "ReceiveCoilActiveElements": "HC1-7;NC1,2",
  "ReceiveCoilName": "HeadNeck_64",
  "ReconMatrixPE": 104,
  "RepetitionTime": 1.49,
  "SAR": 0.0382758,
  "ScanOptions": "FS",
  "ScanningSequence": "EP",
  "SequenceName": "epfid2d1_104",
  "SequenceVariant": "SK_SS",
  "SeriesDescription": "func_task-things_run-2",
  "SeriesNumber": 14,
  "ShimSetting": [628, -7205, -8806, 724, 32, 9, 58, -9],
  "SliceThickness": 2,
  "SliceTiming": [0, 0.785, 0.0975, 0.8825, 0.1975, 0.98, 0.295, 1.0775, 0.3925, 1.1775, 0.49, 1.275, 0.5875, 1.3725, 0.6875, 0, 0.785, 0.0975, 0.8825, 0.1975, 0.98, 0.295, 1.0775, 0.3925, 1.1775, 0.49, 1.275, 0.5875, 1.3725, 0.6875, 0, 0.785, 0.0975, 0.8825, 0.1975, 0.98, 0.295, 1.0775, 0.3925, 1.1775, 0.49, 1.275, 0.5875, 1.3725, 0.6875, 0, 0.785, 0.0975, 0.8825, 0.1975, 0.98, 0.295, 1.0775, 0.3925, 1.1775, 0.49, 1.275, 0.5875, 1.3725, 0.6875],
  "SoftwareVersions": "syngo_MR_E11",
  "SpacingBetweenSlices": 2,
  "StationName": "MRC35049",
  "TaskName": "things",
  "TotalReadoutTime": 0.0576811,
  "TxRefAmp": 214.787,
  "WipMemBlock": "e88bde68-805d-4952-be2d-28dc56e8b63e||Sequence: R016 ve11c/master r/e634e98; Dec 19 2017 11:00:25 by eja",
  "dcmmeta_affine": [
    [-1.9992960691452026, -0.019541412591934204, 0.04932994395494461, 108.52699279785156],
    [-0.03075346164405346, 1.9420158863067627, -0.4771045446395874, -73.57109832763672],
    [0.043238118290901184, 0.47769513726234436, 1.9416327476501465, -65.70069122314453],
    [0.0, 0.0, 0.0, 1.0]
],
  "dcmmeta_reorient_transform": [
    [0.0, -1.0, 0.0, 103.0],
    [1.0, 0.0, 0.0, 0.0],
    [0.0, 0.0, 1.0, 0.0],
    [0.0, 0.0, 0.0, 1.0]
],
  "dcmmeta_shape": [104, 104, 60, 190],
  "dcmmeta_slice_dim": 2,
  "dcmmeta_version": 0.6,
  "global": {
    "const": {
      "AcquisitionMatrix": [104, 0, 0, 104],
      "AngioFlag": "N",
      "BitsAllocated": 16,
      "BitsStored": 16,
      "BodyPartExamined": "BRAIN",
      "Columns": 832,
      "EchoNumbers": 1,
      "EchoTime": 37.0,
      "EchoTrainLength": 104,
      "FlipAngle": 52.0,
      "HighBit": 15,
      "ImageOrientationPatient": [0.99964802429832, 0.01537673036675, 0.02161905825191, -0.0097707063123, 0.97100791427313, -0.2388475742333],
      "ImagePositionPatient": [-827.14491464836, -844.5445543239, 141.64427010239],
      "ImageType": [
        "ORIGINAL",
        "PRIMARY",
        "P",
        "MB",
        "ND",
        "MOSAIC"
],
      "ImagedNucleus": "1H",
      "ImagingFrequency": 123.258896,
      "InPlanePhaseEncodingDirection": "COL",
      "LargestImagePixelValue": 4095,
      "MRAcquisitionType": "2D",
      "MagneticFieldStrength": 3.0,
      "Manufacturer": "SIEMENS",
      "ManufacturerModelName": "Prisma_fit",
      "Modality": "MR",
      "NumberOfAverages": 1.0,
      "NumberOfPhaseEncodingSteps": 104,
      "PercentPhaseFieldOfView": 100.0,
      "PercentSampling": 100.0,
      "PerformedProcedureStepStartTime": "114940.267000",
      "PhotometricInterpretation": "MONOCHROME2",
      "PixelBandwidth": 2290.0,
      "PixelRepresentation": 0,
      "PixelSpacing": [2.0, 2.0],
      "ProtocolName": "func_task-things_run-2",
      "RepetitionTime": 1490.0,
      "RescaleIntercept": -4096.0,
      "RescaleSlope": 2.0,
      "RescaleType": "US",
      "Rows": 832,
      "SAR": 0.03827578318543,
      "SamplesPerPixel": 1,
      "ScanOptions": "FS",
      "ScanningSequence": "EP",
      "SequenceName": "epfid2d1_104",
      "SequenceVariant": [
        "SK",
        "SS"
],
      "SeriesDescription": "func_task-things_run-2",
      "SeriesNumber": 14,
      "SeriesTime": "133445.740000",
      "SliceLocation": -43.555938555445,
      "SliceThickness": 2.0,
      "SmallestImagePixelValue": 0,
      "SoftwareVersions": "syngo MR E11",
      "SpacingBetweenSlices": 1.9999999787322,
      "SpecificCharacterSet": "ISO_IR 100",
      "StudyID": "1",
      "StudyTime": "114940.189000",
      "TransmitCoilName": "Body",
      "VariableFlipAngleFlag": "N",
      "WindowCenterWidthExplanation": "Algo1",
      "dBdt": 0.0},
    "slices": {}
  },
  "time": {
    "samples": {
      "AcquisitionNumber": [1, 2, 3, 4, 5, 6, 7, 8, 9, 10, 11, 12, 13, 14, 15, 16, 17, 18, 19, 20, 21, 22, 23, 24, 25, 26, 27, 28, 29, 30, 31, 32, 33, 34, 35, 36, 37, 38, 39, 40, 41, 42, 43, 44, 45, 46, 47, 48, 49, 50, 51, 52, 53, 54, 55, 56, 57, 58, 59, 60, 61, 62, 63, 64, 65, 66, 67, 68, 69, 70, 71, 72, 73, 74, 75, 76, 77, 78, 79, 80, 81, 82, 83, 84, 85, 86, 87, 88, 89, 90, 91, 92, 93, 94, 95, 96, 97, 98, 99, 100, 101, 102, 103, 104, 105, 106, 107, 108, 109, 110, 111, 112, 113, 114, 115, 116, 117, 118, 119, 120, 121, 122, 123, 124, 125, 126, 127, 128, 129, 130, 131, 132, 133, 134, 135, 136, 137, 138, 139, 140, 141, 142, 143, 144, 145, 146, 147, 148, 149, 150, 151, 152, 153, 154, 155, 156, 157, 158, 159, 160, 161, 162, 163, 164, 165, 166, 167, 168, 169, 170, 171, 172, 173, 174, 175, 176, 177, 178, 179, 180, 181, 182, 183, 184, 185, 186, 187, 188, 189, 190],
      "AcquisitionTime": ["133338.820000", "133340.310000", "133341.800000", "133343.290000", "133344.780000", "133346.270000", "133347.760000", "133349.250000", "133350.740000", "133352.230000", "133353.720000", "133355.210000", "133356.700000", "133358.190000", "133359.680000", "133401.170000", "133402.660000", "133404.150000", "133405.640000", "133407.130000", "133408.620000", "133410.110000", "133411.600000", "133413.090000", "133414.580000", "133416.070000", "133417.560000", "133419.050000", "133420.540000", "133422.030000", "133423.520000", "133425.010000", "133426.500000", "133427.990000", "133429.480000", "133430.970000", "133432.460000", "133433.950000", "133435.440000", "133436.930000", "133438.420000", "133439.910000", "133441.400000", "133442.890000", "133444.380000", "133445.870000", "133447.360000", "133448.850000", "133450.340000", "133451.830000", "133453.320000", "133454.810000", "133456.300000", "133457.790000", "133459.280000", "133500.770000", "133502.260000", "133503.750000", "133505.240000", "133506.730000", "133508.220000", "133509.710000", "133511.200000", "133512.690000", "133514.180000", "133515.670000", "133517.160000", "133518.650000", "133520.140000", "133521.630000", "133523.120000", "133524.610000", "133526.100000", "133527.590000", "133529.080000", "133530.570000", "133532.060000", "133533.550000", "133535.040000", "133536.530000", "133538.020000", "133539.510000", "133541.000000", "133542.490000", "133543.980000", "133545.470000", "133546.960000", "133548.450000", "133549.940000", "133551.430000", "133552.920000", "133554.410000", "133555.900000", "133557.390000", "133558.880000", "133600.370000", "133601.860000", "133603.350000", "133604.840000", "133606.330000", "133607.820000", "133609.310000", "133610.800000", "133612.290000", "133613.780000", "133615.270000", "133616.760000", "133618.250000", "133619.740000", "133621.230000", "133622.720000", "133624.210000", "133625.700000", "133627.190000", "133628.680000", "133630.170000", "133631.660000", "133633.150000", "133634.640000", "133636.130000", "133637.620000", "133639.110000", "133640.600000", "133642.090000", "133643.580000", "133645.070000", "133646.560000", "133648.050000", "133649.540000", "133651.030000", "133652.520000", "133654.010000", "133655.500000", "133656.990000", "133658.480000", "133659.970000", "133701.460000", "133702.950000", "133704.440000", "133705.930000", "133707.420000", "133708.910000", "133710.400000", "133711.890000", "133713.380000", "133714.870000", "133716.360000", "133717.850000", "133719.340000", "133720.830000", "133722.320000", "133723.810000", "133725.300000", "133726.790000", "133728.280000", "133729.770000", "133731.260000", "133732.750000", "133734.240000", "133735.730000", "133737.220000", "133738.710000", "133740.200000", "133741.690000", "133743.180000", "133744.670000", "133746.160000", "133747.650000", "133749.140000", "133750.630000", "133752.120000", "133753.610000", "133755.100000", "133756.590000", "133758.080000", "133759.570000", "133801.060000", "133802.550000", "133804.040000", "133805.530000", "133807.020000", "133808.510000", "133810.000000", "133811.490000", "133812.980000", "133814.470000", "133815.960000", "133817.450000", "133818.940000", "133820.430000"],
      "ContentTime": ["133445.742000", "133445.744000", "133445.747000", "133445.749000", "133445.752000", "133445.754000", "133445.757000", "133445.759000", "133445.762000", "133445.764000", "133505.756000", "133505.759000", "133505.762000", "133505.764000", "133505.767000", "133505.769000", "133505.772000", "133505.774000", "133505.777000", "133505.779000", "133505.782000", "133505.784000", "133505.787000", "133505.789000", "133505.792000", "133505.794000", "133505.797000", "133505.799000", "133505.802000", "133505.804000", "133525.755000", "133525.758000", "133525.761000", "133525.763000", "133525.766000", "133525.768000", "133525.771000", "133525.773000", "133525.776000", "133525.778000", "133525.781000", "133525.783000", "133525.786000", "133525.788000", "133525.791000", "133525.793000", "133525.796000", "133525.798000", "133525.801000", "133525.803000", "133545.754000", "133545.757000", "133545.760000", "133545.762000", "133545.765000", "133545.767000", "133545.770000", "133545.772000", "133545.775000", "133545.777000", "133545.780000", "133545.782000", "133545.785000", "133545.787000", "133545.790000", "133545.792000", "133545.795000", "133545.797000", "133545.800000", "133545.802000", "133605.876000", "133605.879000", "133605.882000", "133605.884000", "133605.887000", "133605.889000", "133605.892000", "133605.894000", "133605.897000", "133605.899000", "133605.902000", "133605.904000", "133605.907000", "133605.909000", "133605.912000", "133605.914000", "133605.917000", "133605.919000", "133605.922000", "133605.924000", "133625.764000", "133625.767000", "133625.806000", "133625.809000", "133625.812000", "133625.814000", "133625.816000", "133625.819000", "133625.822000", "133625.829000", "133625.831000", "133625.833000", "133625.836000", "133625.839000", "133625.841000", "133625.843000", "133625.846000", "133625.848000", "133625.851000", "133625.853000", "133625.856000", "133705.784000", "133705.787000", "133705.789000", "133705.792000", "133705.794000", "133705.797000", "133705.799000", "133705.802000", "133705.805000", "133705.807000", "133705.810000", "133705.812000", "133705.815000", "133705.817000", "133705.820000", "133705.822000", "133705.825000", "133705.827000", "133705.830000", "133705.832000", "133705.835000", "133705.837000", "133705.840000", "133705.842000", "133705.845000", "133705.848000", "133705.850000", "133746.140000", "133746.142000", "133746.145000", "133746.148000", "133746.150000", "133746.153000", "133746.155000", "133746.158000", "133746.160000", "133746.163000", "133746.165000", "133746.168000", "133746.170000", "133746.173000", "133746.176000", "133746.178000", "133746.180000", "133746.183000", "133746.186000", "133746.188000", "133746.191000", "133746.193000", "133746.196000", "133746.198000", "133746.201000", "133746.203000", "133746.206000", "133822.498000", "133822.501000", "133822.504000", "133822.507000", "133822.509000", "133822.512000", "133822.515000", "133822.518000", "133822.521000", "133822.523000", "133822.526000", "133822.529000", "133822.532000", "133822.534000", "133822.537000", "133822.539000", "133822.542000", "133822.544000", "133822.547000", "133822.550000", "133822.552000", "133822.555000", "133822.557000", "133822.560000", "133822.562000"],
      "InstanceCreationTime": ["133445.742000", "133445.744000", "133445.747000", "133445.749000", "133445.752000", "133445.754000", "133445.757000", "133445.759000", "133445.762000", "133445.764000", "133505.756000", "133505.759000", "133505.762000", "133505.764000", "133505.767000", "133505.769000", "133505.772000", "133505.774000", "133505.777000", "133505.779000", "133505.782000", "133505.784000", "133505.787000", "133505.789000", "133505.792000", "133505.794000", "133505.797000", "133505.799000", "133505.802000", "133505.804000", "133525.755000", "133525.758000", "133525.761000", "133525.763000", "133525.766000", "133525.768000", "133525.771000", "133525.773000", "133525.776000", "133525.778000", "133525.781000", "133525.783000", "133525.786000", "133525.788000", "133525.791000", "133525.793000", "133525.796000", "133525.798000", "133525.801000", "133525.803000", "133545.754000", "133545.757000", "133545.760000", "133545.762000", "133545.765000", "133545.767000", "133545.770000", "133545.772000", "133545.775000", "133545.777000", "133545.780000", "133545.782000", "133545.785000", "133545.787000", "133545.790000", "133545.792000", "133545.795000", "133545.797000", "133545.800000", "133545.802000", "133605.876000", "133605.879000", "133605.882000", "133605.884000", "133605.887000", "133605.889000", "133605.892000", "133605.894000", "133605.897000", "133605.899000", "133605.902000", "133605.904000", "133605.907000", "133605.909000", "133605.912000", "133605.914000", "133605.917000", "133605.919000", "133605.922000", "133605.924000", "133625.764000", "133625.767000", "133625.806000", "133625.809000", "133625.812000", "133625.814000", "133625.816000", "133625.819000", "133625.822000", "133625.829000", "133625.831000", "133625.833000", "133625.836000", "133625.839000", "133625.841000", "133625.843000", "133625.846000", "133625.848000", "133625.851000", "133625.853000", "133625.856000", "133705.784000", "133705.787000", "133705.789000", "133705.792000", "133705.794000", "133705.797000", "133705.799000", "133705.802000", "133705.805000", "133705.807000", "133705.810000", "133705.812000", "133705.815000", "133705.817000", "133705.820000", "133705.822000", "133705.825000", "133705.827000", "133705.830000", "133705.832000", "133705.835000", "133705.837000", "133705.840000", "133705.842000", "133705.845000", "133705.848000", "133705.850000", "133746.140000", "133746.142000", "133746.145000", "133746.148000", "133746.150000", "133746.153000", "133746.155000", "133746.158000", "133746.160000", "133746.163000", "133746.165000", "133746.168000", "133746.170000", "133746.173000", "133746.176000", "133746.178000", "133746.180000", "133746.183000", "133746.186000", "133746.188000", "133746.191000", "133746.193000", "133746.196000", "133746.198000", "133746.201000", "133746.203000", "133746.206000", "133822.498000", "133822.501000", "133822.504000", "133822.507000", "133822.509000", "133822.512000", "133822.515000", "133822.518000", "133822.521000", "133822.523000", "133822.526000", "133822.529000", "133822.532000", "133822.534000", "133822.537000", "133822.539000", "133822.542000", "133822.544000", "133822.547000", "133822.550000", "133822.552000", "133822.555000", "133822.557000", "133822.560000", "133822.562000"],
      "InstanceNumber": [1, 2, 3, 4, 5, 6, 7, 8, 9, 10, 11, 12, 13, 14, 15, 16, 17, 18, 19, 20, 21, 22, 23, 24, 25, 26, 27, 28, 29, 30, 31, 32, 33, 34, 35, 36, 37, 38, 39, 40, 41, 42, 43, 44, 45, 46, 47, 48, 49, 50, 51, 52, 53, 54, 55, 56, 57, 58, 59, 60, 61, 62, 63, 64, 65, 66, 67, 68, 69, 70, 71, 72, 73, 74, 75, 76, 77, 78, 79, 80, 81, 82, 83, 84, 85, 86, 87, 88, 89, 90, 91, 92, 93, 94, 95, 96, 97, 98, 99, 100, 101, 102, 103, 104, 105, 106, 107, 108, 109, 110, 111, 112, 113, 114, 115, 116, 117, 118, 119, 120, 121, 122, 123, 124, 125, 126, 127, 128, 129, 130, 131, 132, 133, 134, 135, 136, 137, 138, 139, 140, 141, 142, 143, 144, 145, 146, 147, 148, 149, 150, 151, 152, 153, 154, 155, 156, 157, 158, 159, 160, 161, 162, 163, 164, 165, 166, 167, 168, 169, 170, 171, 172, 173, 174, 175, 176, 177, 178, 179, 180, 181, 182, 183, 184, 185, 186, 187, 188, 189, 190],
      "WindowCenter": [4866.0, 4870.0, 4868.0, 4872.0, 4872.0, 4868.0, 4872.0, 4870.0, 4890.0, 4868.0, 4896.0, 4868.0, 4870.0, 4870.0, 4868.0, 4870.0, 4868.0, 4866.0, 4872.0, 4870.0, 4870.0, 4868.0, 4870.0, 4868.0, 4870.0, 4868.0, 4868.0, 4870.0, 4892.0, 4870.0, 4892.0, 4868.0, 4870.0, 4892.0, 4868.0, 4872.0, 4892.0, 4892.0, 4892.0, 4870.0, 4892.0, 4892.0, 4868.0, 4870.0, 4890.0, 4890.0, 4892.0, 4894.0, 4870.0, 4870.0, 4870.0, 4870.0, 4868.0, 4866.0, 4872.0, 4866.0, 4870.0, 4868.0, 4866.0, 4868.0, 4870.0, 4868.0, 4868.0, 4868.0, 4866.0, 4872.0, 4890.0, 4868.0, 4870.0, 4872.0, 4892.0, 4870.0, 4870.0, 4868.0, 4870.0, 4870.0, 4890.0, 4868.0, 4892.0, 4868.0, 4870.0, 4868.0, 4894.0, 4870.0, 4868.0, 4868.0, 4870.0, 4866.0, 4870.0, 4870.0, 4866.0, 4872.0, 4868.0, 4870.0, 4870.0, 4870.0, 4868.0, 4868.0, 4870.0, 4890.0, 4870.0, 4872.0, 4868.0, 4872.0, 4892.0, 4868.0, 4868.0, 4870.0, 4892.0, 4870.0, 4892.0, 4872.0, 4864.0, 4868.0, 4868.0, 4890.0, 4866.0, 4870.0, 4892.0, 4868.0, 4892.0, 4870.0, 4868.0, 4872.0, 4870.0, 4868.0, 4868.0, 4892.0, 4868.0, 4870.0, 4892.0, 4868.0, 4872.0, 4890.0, 4870.0, 4892.0, 4870.0, 4892.0, 4892.0, 4870.0, 4888.0, 4872.0, 4892.0, 4870.0, 4870.0, 4872.0, 4890.0, 4870.0, 4892.0, 4868.0, 4868.0, 4870.0, 4872.0, 4868.0, 4890.0, 4890.0, 4894.0, 4868.0, 4870.0, 4870.0, 4870.0, 4892.0, 4870.0, 4870.0, 4892.0, 4870.0, 4870.0, 4870.0, 4868.0, 4894.0, 4868.0, 4868.0, 4894.0, 4892.0, 4870.0, 4868.0, 4868.0, 4892.0, 4868.0, 4870.0, 4866.0, 4870.0, 4890.0, 4868.0, 4892.0, 4870.0, 4870.0, 4868.0, 4870.0, 4868.0],
      "WindowWidth": [18688.0, 18690.0, 18690.0, 18690.0, 18690.0, 18684.0, 18690.0, 18686.0, 18722.0, 18692.0, 18724.0, 18688.0, 18688.0, 18692.0, 18688.0, 18690.0, 18690.0, 18688.0, 18692.0, 18696.0, 18688.0, 18696.0, 18690.0, 18690.0, 18686.0, 18686.0, 18690.0, 18690.0, 18722.0, 18694.0, 18722.0, 18690.0, 18688.0, 18720.0, 18682.0, 18690.0, 18720.0, 18728.0, 18722.0, 18692.0, 18724.0, 18718.0, 18696.0, 18688.0, 18720.0, 18718.0, 18720.0, 18720.0, 18690.0, 18692.0, 18694.0, 18690.0, 18692.0, 18696.0, 18694.0, 18692.0, 18692.0, 18690.0, 18684.0, 18684.0, 18688.0, 18688.0, 18692.0, 18692.0, 18688.0, 18694.0, 18718.0, 18688.0, 18690.0, 18688.0, 18724.0, 18688.0, 18696.0, 18686.0, 18694.0, 18692.0, 18720.0, 18690.0, 18722.0, 18692.0, 18692.0, 18692.0, 18722.0, 18692.0, 18690.0, 18686.0, 18696.0, 18690.0, 18692.0, 18686.0, 18690.0, 18688.0, 18692.0, 18690.0, 18688.0, 18686.0, 18696.0, 18688.0, 18694.0, 18724.0, 18690.0, 18692.0, 18698.0, 18694.0, 18728.0, 18692.0, 18690.0, 18686.0, 18724.0, 18686.0, 18724.0, 18692.0, 18690.0, 18694.0, 18692.0, 18722.0, 18688.0, 18690.0, 18724.0, 18694.0, 18722.0, 18692.0, 18696.0, 18688.0, 18692.0, 18694.0, 18692.0, 18720.0, 18690.0, 18694.0, 18720.0, 18692.0, 18692.0, 18728.0, 18690.0, 18722.0, 18694.0, 18720.0, 18724.0, 18690.0, 18724.0, 18692.0, 18720.0, 18692.0, 18690.0, 18698.0, 18720.0, 18692.0, 18726.0, 18690.0, 18690.0, 18686.0, 18688.0, 18686.0, 18716.0, 18718.0, 18724.0, 18696.0, 18690.0, 18696.0, 18690.0, 18720.0, 18688.0, 18696.0, 18722.0, 18688.0, 18694.0, 18690.0, 18694.0, 18724.0, 18688.0, 18688.0, 18724.0, 18722.0, 18692.0, 18694.0, 18692.0, 18720.0, 18686.0, 18690.0, 18690.0, 18690.0, 18722.0, 18692.0, 18726.0, 18692.0, 18694.0, 18696.0, 18690.0, 18690.0]
    },
    "slices": {}
  }
}