{
  "AcquisitionMatrixPE": 104,
  "AcquisitionNumber": 1,
  "AcquisitionTime": "13:52:18.025000",
  "BandwidthPerPixelPhaseEncode": 17.17,
  "BaseResolution": 104,
  "BodyPartExamined": "BRAIN",
  "CoilString": "HC1-7;NC1_2",
  "ConsistencyInfo": "N4_VE11C_LATEST_20160120",
  "ConversionSoftware": "dcm2niix",
  "ConversionSoftwareVersion": "v1.0.20190902",
  "DerivedVendorReportedEchoSpacing": 0.000560011,
  "DeviceSerialNumber": "167006",
  "DwellTime": 2.1e-06,
  "EchoTime": 0.037,
  "EchoTrainLength": 104,
  "EffectiveEchoSpacing": 0.000560011,
  "FlipAngle": 52,
  "HeudiconvVersion": "0.10.0",
  "ImageComments": "Unaliased_MB4_PE3_LB",
  "ImageOrientationPatientDICOM": [0.999648, 0.0153767, 0.0216191, -0.00977071, 0.971008, -0.238848],
  "ImageType": [
    "ORIGINAL",
    "PRIMARY",
    "M",
    "MB",
    "ND",
    "MOSAIC"
],
  "ImagingFrequency": 123.259,
  "InPlanePhaseEncodingDirectionDICOM": "COL",
  "InstitutionAddress": "Chemin_Queen-Mary_4565_Montreal_District_CA_H3W_1W5",
  "InstitutionName": "IUGM",
  "InstitutionalDepartmentName": "Department",
  "MRAcquisitionType": "2D",
  "MagneticFieldStrength": 3,
  "Manufacturer": "Siemens",
  "ManufacturersModelName": "Prisma_fit",
  "Modality": "MR",
  "MultibandAccelerationFactor": 4,
  "PartialFourier": 1,
  "PatientPosition": "HFS",
  "PercentPhaseFOV": 100,
  "PhaseEncodingDirection": "j",
  "PhaseEncodingSteps": 104,
  "PhaseResolution": 1,
  "PixelBandwidth": 2290,
  "ProcedureStepDescription": "memory_things",
  "ProtocolName": "func_task-things_run-5",
  "PulseSequenceDetails": "%CustomerSeq%_cmrr_mbep2d_bold",
  "ReceiveCoilActiveElements": "HC1-7;NC1,2",
  "ReceiveCoilName": "HeadNeck_64",
  "ReconMatrixPE": 104,
  "RepetitionTime": 1.49,
  "SAR": 0.0382758,
  "ScanOptions": "FS",
  "ScanningSequence": "EP",
  "SequenceName": "epfid2d1_104",
  "SequenceVariant": "SK_SS",
  "SeriesDescription": "func_task-things_run-5",
  "SeriesNumber": 22,
  "ShimSetting": [628, -7205, -8806, 724, 32, 9, 58, -9],
  "SliceThickness": 2,
  "SliceTiming": [0, 0.785, 0.1, 0.8825, 0.1975, 0.98, 0.295, 1.0775, 0.3925, 1.1775, 0.49, 1.275, 0.59, 1.3725, 0.6875, 0, 0.785, 0.1, 0.8825, 0.1975, 0.98, 0.295, 1.0775, 0.3925, 1.1775, 0.49, 1.275, 0.59, 1.3725, 0.6875, 0, 0.785, 0.1, 0.8825, 0.1975, 0.98, 0.295, 1.0775, 0.3925, 1.1775, 0.49, 1.275, 0.59, 1.3725, 0.6875, 0, 0.785, 0.1, 0.8825, 0.1975, 0.98, 0.295, 1.0775, 0.3925, 1.1775, 0.49, 1.275, 0.59, 1.3725, 0.6875],
  "SoftwareVersions": "syngo_MR_E11",
  "SpacingBetweenSlices": 2,
  "StationName": "MRC35049",
  "TaskName": "things",
  "TotalReadoutTime": 0.0576811,
  "TxRefAmp": 214.787,
  "WipMemBlock": "940b726f-e2ea-4ae1-9e98-07b0bb6139b1||Sequence: R016 ve11c/master r/e634e98; Dec 19 2017 11:00:25 by eja",
  "dcmmeta_affine": [
    [-1.9992960691452026, -0.019541412591934204, 0.04932994395494461, 108.52699279785156],
    [-0.03075346164405346, 1.9420158863067627, -0.4771045446395874, -73.57109832763672],
    [0.043238118290901184, 0.47769513726234436, 1.9416327476501465, -65.70069122314453],
    [0.0, 0.0, 0.0, 1.0]
],
  "dcmmeta_reorient_transform": [
    [0.0, -1.0, 0.0, 103.0],
    [1.0, 0.0, 0.0, 0.0],
    [0.0, 0.0, 1.0, 0.0],
    [0.0, 0.0, 0.0, 1.0]
],
  "dcmmeta_shape": [104, 104, 60, 190],
  "dcmmeta_slice_dim": 2,
  "dcmmeta_version": 0.6,
  "global": {
    "const": {
      "AcquisitionMatrix": [104, 0, 0, 104],
      "AngioFlag": "N",
      "BitsAllocated": 16,
      "BitsStored": 16,
      "BodyPartExamined": "BRAIN",
      "Columns": 832,
      "EchoNumbers": 1,
      "EchoTime": 37.0,
      "EchoTrainLength": 104,
      "FlipAngle": 52.0,
      "HighBit": 15,
      "ImageOrientationPatient": [0.99964802429832, 0.01537673036675, 0.02161905825191, -0.0097707063123, 0.97100791427313, -0.2388475742333],
      "ImagePositionPatient": [-827.14491464836, -844.5445543239, 141.64427010239],
      "ImageType": [
        "ORIGINAL",
        "PRIMARY",
        "M",
        "MB",
        "ND",
        "MOSAIC"
],
      "ImagedNucleus": "1H",
      "ImagingFrequency": 123.258908,
      "InPlanePhaseEncodingDirection": "COL",
      "MRAcquisitionType": "2D",
      "MagneticFieldStrength": 3.0,
      "Manufacturer": "SIEMENS",
      "ManufacturerModelName": "Prisma_fit",
      "Modality": "MR",
      "NumberOfAverages": 1.0,
      "NumberOfPhaseEncodingSteps": 104,
      "PercentPhaseFieldOfView": 100.0,
      "PercentSampling": 100.0,
      "PerformedProcedureStepStartTime": "114940.267000",
      "PhotometricInterpretation": "MONOCHROME2",
      "PixelBandwidth": 2290.0,
      "PixelRepresentation": 0,
      "PixelSpacing": [2.0, 2.0],
      "ProtocolName": "func_task-things_run-5",
      "RepetitionTime": 1490.0,
      "Rows": 832,
      "SAR": 0.03827578318543,
      "SamplesPerPixel": 1,
      "ScanOptions": "FS",
      "ScanningSequence": "EP",
      "SequenceName": "epfid2d1_104",
      "SequenceVariant": [
        "SK",
        "SS"
],
      "SeriesDescription": "func_task-things_run-5",
      "SeriesNumber": 22,
      "SeriesTime": "135345.672000",
      "SliceLocation": -43.555938555445,
      "SliceThickness": 2.0,
      "SmallestImagePixelValue": 0,
      "SoftwareVersions": "syngo MR E11",
      "SpacingBetweenSlices": 1.9999999787322,
      "SpecificCharacterSet": "ISO_IR 100",
      "StudyID": "1",
      "StudyTime": "114940.189000",
      "TransmitCoilName": "Body",
      "VariableFlipAngleFlag": "N",
      "WindowCenterWidthExplanation": "Algo1",
      "dBdt": 0.0},
    "slices": {}
  },
  "time": {
    "samples": {
      "AcquisitionNumber": [1, 2, 3, 4, 5, 6, 7, 8, 9, 10, 11, 12, 13, 14, 15, 16, 17, 18, 19, 20, 21, 22, 23, 24, 25, 26, 27, 28, 29, 30, 31, 32, 33, 34, 35, 36, 37, 38, 39, 40, 41, 42, 43, 44, 45, 46, 47, 48, 49, 50, 51, 52, 53, 54, 55, 56, 57, 58, 59, 60, 61, 62, 63, 64, 65, 66, 67, 68, 69, 70, 71, 72, 73, 74, 75, 76, 77, 78, 79, 80, 81, 82, 83, 84, 85, 86, 87, 88, 89, 90, 91, 92, 93, 94, 95, 96, 97, 98, 99, 100, 101, 102, 103, 104, 105, 106, 107, 108, 109, 110, 111, 112, 113, 114, 115, 116, 117, 118, 119, 120, 121, 122, 123, 124, 125, 126, 127, 128, 129, 130, 131, 132, 133, 134, 135, 136, 137, 138, 139, 140, 141, 142, 143, 144, 145, 146, 147, 148, 149, 150, 151, 152, 153, 154, 155, 156, 157, 158, 159, 160, 161, 162, 163, 164, 165, 166, 167, 168, 169, 170, 171, 172, 173, 174, 175, 176, 177, 178, 179, 180, 181, 182, 183, 184, 185, 186, 187, 188, 189, 190],
      "AcquisitionTime": ["135218.025000", "135219.515000", "135221.005000", "135222.495000", "135223.985000", "135225.475000", "135226.965000", "135228.455000", "135229.945000", "135231.435000", "135232.925000", "135234.415000", "135235.905000", "135237.395000", "135238.885000", "135240.375000", "135241.865000", "135243.355000", "135244.845000", "135246.335000", "135247.825000", "135249.315000", "135250.805000", "135252.295000", "135253.785000", "135255.275000", "135256.765000", "135258.255000", "135259.745000", "135301.235000", "135302.725000", "135304.215000", "135305.705000", "135307.195000", "135308.685000", "135310.175000", "135311.665000", "135313.155000", "135314.645000", "135316.135000", "135317.625000", "135319.115000", "135320.605000", "135322.095000", "135323.585000", "135325.075000", "135326.565000", "135328.055000", "135329.545000", "135331.035000", "135332.525000", "135334.015000", "135335.505000", "135336.995000", "135338.485000", "135339.975000", "135341.465000", "135342.955000", "135344.445000", "135345.935000", "135347.425000", "135348.915000", "135350.405000", "135351.895000", "135353.385000", "135354.875000", "135356.365000", "135357.855000", "135359.345000", "135400.835000", "135402.325000", "135403.815000", "135405.305000", "135406.795000", "135408.285000", "135409.775000", "135411.265000", "135412.755000", "135414.245000", "135415.735000", "135417.225000", "135418.715000", "135420.205000", "135421.695000", "135423.185000", "135424.675000", "135426.165000", "135427.655000", "135429.145000", "135430.635000", "135432.125000", "135433.615000", "135435.105000", "135436.595000", "135438.085000", "135439.575000", "135441.065000", "135442.555000", "135444.045000", "135445.535000", "135447.025000", "135448.515000", "135450.005000", "135451.495000", "135452.985000", "135454.475000", "135455.965000", "135457.455000", "135458.945000", "135500.435000", "135501.925000", "135503.415000", "135504.905000", "135506.395000", "135507.885000", "135509.375000", "135510.865000", "135512.355000", "135513.845000", "135515.335000", "135516.825000", "135518.315000", "135519.805000", "135521.295000", "135522.785000", "135524.275000", "135525.765000", "135527.255000", "135528.745000", "135530.235000", "135531.725000", "135533.215000", "135534.705000", "135536.195000", "135537.685000", "135539.175000", "135540.665000", "135542.155000", "135543.645000", "135545.135000", "135546.625000", "135548.115000", "135549.605000", "135551.095000", "135552.585000", "135554.075000", "135555.565000", "135557.055000", "135558.545000", "135600.035000", "135601.525000", "135603.015000", "135604.505000", "135605.995000", "135607.485000", "135608.975000", "135610.465000", "135611.955000", "135613.445000", "135614.935000", "135616.425000", "135617.915000", "135619.405000", "135620.895000", "135622.385000", "135623.875000", "135625.365000", "135626.855000", "135628.345000", "135629.835000", "135631.325000", "135632.815000", "135634.305000", "135635.795000", "135637.285000", "135638.775000", "135640.265000", "135641.755000", "135643.245000", "135644.735000", "135646.225000", "135647.715000", "135649.205000", "135650.695000", "135652.185000", "135653.675000", "135655.165000", "135656.655000", "135658.145000", "135659.635000"],
      "ContentTime": ["135345.675000", "135345.679000", "135345.682000", "135345.685000", "135345.696000", "135345.700000", "135345.703000", "135345.706000", "135345.710000", "135345.713000", "135345.716000", "135345.720000", "135345.723000", "135345.726000", "135345.729000", "135345.733000", "135345.736000", "135345.739000", "135345.743000", "135345.746000", "135345.749000", "135345.753000", "135345.756000", "135345.759000", "135345.762000", "135345.766000", "135345.769000", "135345.772000", "135345.776000", "135345.779000", "135345.782000", "135345.786000", "135345.789000", "135345.792000", "135405.641000", "135405.645000", "135405.648000", "135405.652000", "135405.655000", "135405.658000", "135405.661000", "135405.665000", "135405.668000", "135405.672000", "135405.675000", "135405.678000", "135405.682000", "135405.686000", "135405.689000", "135405.693000", "135405.696000", "135405.700000", "135405.704000", "135405.708000", "135425.641000", "135425.645000", "135425.648000", "135425.651000", "135425.655000", "135425.658000", "135425.661000", "135425.665000", "135425.668000", "135425.671000", "135425.675000", "135425.678000", "135425.681000", "135425.685000", "135425.688000", "135425.691000", "135425.695000", "135425.698000", "135425.714000", "135425.718000", "135425.721000", "135445.640000", "135445.644000", "135445.647000", "135445.651000", "135445.654000", "135445.657000", "135445.660000", "135445.664000", "135445.668000", "135445.671000", "135445.675000", "135445.678000", "135445.681000", "135445.684000", "135445.688000", "135445.691000", "135445.694000", "135445.698000", "135445.701000", "135445.704000", "135525.641000", "135525.645000", "135525.648000", "135525.652000", "135525.655000", "135525.658000", "135525.662000", "135525.665000", "135525.668000", "135525.672000", "135525.675000", "135525.678000", "135525.681000", "135525.685000", "135525.688000", "135525.691000", "135525.695000", "135525.698000", "135525.701000", "135525.705000", "135525.708000", "135525.711000", "135525.714000", "135525.718000", "135525.721000", "135525.724000", "135525.728000", "135525.731000", "135525.734000", "135525.737000", "135605.641000", "135605.645000", "135605.648000", "135605.651000", "135605.655000", "135605.658000", "135605.661000", "135605.665000", "135605.668000", "135605.671000", "135605.675000", "135605.678000", "135605.681000", "135605.685000", "135605.688000", "135605.691000", "135605.694000", "135605.698000", "135605.701000", "135605.705000", "135605.708000", "135605.711000", "135605.715000", "135605.718000", "135605.721000", "135605.724000", "135605.728000", "135645.641000", "135645.645000", "135645.648000", "135645.652000", "135645.655000", "135645.658000", "135645.662000", "135645.665000", "135645.668000", "135645.671000", "135645.675000", "135645.678000", "135645.681000", "135645.685000", "135645.688000", "135645.691000", "135645.695000", "135645.698000", "135645.725000", "135645.728000", "135645.732000", "135645.735000", "135645.738000", "135645.742000", "135645.745000", "135645.748000", "135645.752000", "135701.463000", "135701.467000", "135701.470000", "135701.473000", "135701.477000", "135701.480000", "135701.483000", "135701.487000", "135701.490000", "135701.494000", "135701.497000"],
      "InstanceCreationTime": ["135345.675000", "135345.679000", "135345.682000", "135345.685000", "135345.696000", "135345.700000", "135345.703000", "135345.706000", "135345.710000", "135345.713000", "135345.716000", "135345.720000", "135345.723000", "135345.726000", "135345.729000", "135345.733000", "135345.736000", "135345.739000", "135345.743000", "135345.746000", "135345.749000", "135345.753000", "135345.756000", "135345.759000", "135345.762000", "135345.766000", "135345.769000", "135345.772000", "135345.776000", "135345.779000", "135345.782000", "135345.786000", "135345.789000", "135345.792000", "135405.641000", "135405.645000", "135405.648000", "135405.652000", "135405.655000", "135405.658000", "135405.661000", "135405.665000", "135405.668000", "135405.672000", "135405.675000", "135405.678000", "135405.682000", "135405.686000", "135405.689000", "135405.693000", "135405.696000", "135405.700000", "135405.704000", "135405.708000", "135425.641000", "135425.645000", "135425.648000", "135425.651000", "135425.655000", "135425.658000", "135425.661000", "135425.665000", "135425.668000", "135425.671000", "135425.675000", "135425.678000", "135425.681000", "135425.685000", "135425.688000", "135425.691000", "135425.695000", "135425.698000", "135425.714000", "135425.718000", "135425.721000", "135445.640000", "135445.644000", "135445.647000", "135445.651000", "135445.654000", "135445.657000", "135445.660000", "135445.664000", "135445.668000", "135445.671000", "135445.675000", "135445.678000", "135445.681000", "135445.684000", "135445.688000", "135445.691000", "135445.694000", "135445.698000", "135445.701000", "135445.704000", "135525.641000", "135525.645000", "135525.648000", "135525.652000", "135525.655000", "135525.658000", "135525.662000", "135525.665000", "135525.668000", "135525.672000", "135525.675000", "135525.678000", "135525.681000", "135525.685000", "135525.688000", "135525.691000", "135525.695000", "135525.698000", "135525.701000", "135525.705000", "135525.708000", "135525.711000", "135525.714000", "135525.718000", "135525.721000", "135525.724000", "135525.728000", "135525.731000", "135525.734000", "135525.737000", "135605.641000", "135605.645000", "135605.648000", "135605.651000", "135605.655000", "135605.658000", "135605.661000", "135605.665000", "135605.668000", "135605.671000", "135605.675000", "135605.678000", "135605.681000", "135605.685000", "135605.688000", "135605.691000", "135605.694000", "135605.698000", "135605.701000", "135605.705000", "135605.708000", "135605.711000", "135605.715000", "135605.718000", "135605.721000", "135605.724000", "135605.728000", "135645.641000", "135645.645000", "135645.648000", "135645.652000", "135645.655000", "135645.658000", "135645.662000", "135645.665000", "135645.668000", "135645.671000", "135645.675000", "135645.678000", "135645.681000", "135645.685000", "135645.688000", "135645.691000", "135645.695000", "135645.698000", "135645.725000", "135645.728000", "135645.732000", "135645.735000", "135645.738000", "135645.742000", "135645.745000", "135645.748000", "135645.752000", "135701.463000", "135701.467000", "135701.470000", "135701.473000", "135701.477000", "135701.480000", "135701.483000", "135701.487000", "135701.490000", "135701.494000", "135701.497000"],
      "InstanceNumber": [1, 2, 3, 4, 5, 6, 7, 8, 9, 10, 11, 12, 13, 14, 15, 16, 17, 18, 19, 20, 21, 22, 23, 24, 25, 26, 27, 28, 29, 30, 31, 32, 33, 34, 35, 36, 37, 38, 39, 40, 41, 42, 43, 44, 45, 46, 47, 48, 49, 50, 51, 52, 53, 54, 55, 56, 57, 58, 59, 60, 61, 62, 63, 64, 65, 66, 67, 68, 69, 70, 71, 72, 73, 74, 75, 76, 77, 78, 79, 80, 81, 82, 83, 84, 85, 86, 87, 88, 89, 90, 91, 92, 93, 94, 95, 96, 97, 98, 99, 100, 101, 102, 103, 104, 105, 106, 107, 108, 109, 110, 111, 112, 113, 114, 115, 116, 117, 118, 119, 120, 121, 122, 123, 124, 125, 126, 127, 128, 129, 130, 131, 132, 133, 134, 135, 136, 137, 138, 139, 140, 141, 142, 143, 144, 145, 146, 147, 148, 149, 150, 151, 152, 153, 154, 155, 156, 157, 158, 159, 160, 161, 162, 163, 164, 165, 166, 167, 168, 169, 170, 171, 172, 173, 174, 175, 176, 177, 178, 179, 180, 181, 182, 183, 184, 185, 186, 187, 188, 189, 190],
      "LargestImagePixelValue": [40367, 39509, 38674, 38484, 37980, 37651, 37959, 38021, 37965, 38282, 38054, 38159, 37808, 37990, 38345, 38088, 37814, 37738, 37994, 37947, 37890, 38435, 37702, 37825, 37788, 37849, 38124, 38030, 37663, 37398, 37475, 37893, 37830, 37625, 38199, 37718, 37746, 38170, 37672, 38104, 37565, 37916, 37960, 38055, 38153, 38033, 38469, 37840, 37827, 38274, 38133, 38198, 38446, 37945, 38034, 38075, 37799, 37911, 37750, 38197, 38058, 37685, 37707, 37813, 37881, 37992, 38397, 38083, 37735, 37887, 38042, 38049, 37979, 38123, 37874, 37888, 37997, 38208, 37802, 38074, 38118, 37732, 38127, 38433, 38667, 37839, 37651, 38071, 38425, 38097, 38543, 38044, 38071, 37819, 37953, 37749, 37983, 37838, 37648, 37908, 37830, 38116, 37849, 37931, 38066, 37851, 37690, 37771, 37629, 37720, 37649, 37630, 37602, 38008, 37635, 38064, 38030, 37878, 38076, 38222, 37692, 37747, 37771, 38040, 38135, 38167, 37948, 38207, 37919, 38057, 37917, 37761, 37666, 37968, 37643, 37917, 37599, 38043, 38141, 37967, 37865, 38016, 38107, 38274, 37875, 37910, 37989, 38412, 38249, 38082, 37898, 37954, 37930, 37979, 37829, 37891, 37978, 38289, 38216, 38469, 38181, 37962, 37940, 37566, 37861, 37944, 38044, 37816, 38063, 38029, 38061, 38287, 38027, 37680, 37771, 37920, 38020, 37759, 38033, 37871, 38148, 37827, 37786, 38212, 37633, 37692, 37502, 37995, 37898, 37985],
      "WindowCenter": [10178.0, 10156.0, 10141.0, 10163.0, 10140.0, 10126.0, 10113.0, 10093.0, 10093.0, 10106.0, 10108.0, 10112.0, 10103.0, 10111.0, 10108.0, 10103.0, 10088.0, 10086.0, 10085.0, 10092.0, 10101.0, 10116.0, 10120.0, 10121.0, 10113.0, 10103.0, 10110.0, 10108.0, 10113.0, 10113.0, 10116.0, 10105.0, 10103.0, 10102.0, 10110.0, 10102.0, 10096.0, 10092.0, 10094.0, 10117.0, 10120.0, 10122.0, 10101.0, 10092.0, 10082.0, 10099.0, 10091.0, 10093.0, 10079.0, 10090.0, 10085.0, 10098.0, 10105.0, 10102.0, 10100.0, 10100.0, 10088.0, 10101.0, 10094.0, 10111.0, 10109.0, 10106.0, 10095.0, 10086.0, 10077.0, 10090.0, 10108.0, 10109.0, 10105.0, 10096.0, 10100.0, 10099.0, 10109.0, 10099.0, 10095.0, 10093.0, 10102.0, 10116.0, 10123.0, 10112.0, 10094.0, 10075.0, 10089.0, 10123.0, 10146.0, 10124.0, 10114.0, 10093.0, 10090.0, 10082.0, 10115.0, 10135.0, 10154.0, 10140.0, 10136.0, 10104.0, 10084.0, 10110.0, 10105.0, 10080.0, 10087.0, 10083.0, 10095.0, 10104.0, 10114.0, 10098.0, 10115.0, 10098.0, 10124.0, 10121.0, 10123.0, 10116.0, 10115.0, 10104.0, 10096.0, 10101.0, 10093.0, 10101.0, 10117.0, 10135.0, 10133.0, 10133.0, 10117.0, 10113.0, 10103.0, 10096.0, 10093.0, 10110.0, 10113.0, 10112.0, 10095.0, 10087.0, 10100.0, 10117.0, 10112.0, 10114.0, 10107.0, 10119.0, 10103.0, 10112.0, 10105.0, 10112.0, 10117.0, 10127.0, 10119.0, 10119.0, 10120.0, 10134.0, 10118.0, 10105.0, 10085.0, 10118.0, 10120.0, 10130.0, 10104.0, 10082.0, 10059.0, 10080.0, 10067.0, 10102.0, 10094.0, 10106.0, 10113.0, 10107.0, 10106.0, 10111.0, 10111.0, 10097.0, 10077.0, 10083.0, 10109.0, 10117.0, 10121.0, 10105.0, 10097.0, 10102.0, 10113.0, 10104.0, 10113.0, 10089.0, 10095.0, 10095.0, 10115.0, 10121.0, 10124.0, 10113.0, 10113.0, 10112.0, 10129.0, 10123.0],
      "WindowWidth": [21680.0, 21608.0, 21565.0, 21608.0, 21550.0, 21512.0, 21478.0, 21431.0, 21435.0, 21462.0, 21470.0, 21480.0, 21461.0, 21477.0, 21469.0, 21460.0, 21427.0, 21422.0, 21418.0, 21433.0, 21457.0, 21489.0, 21501.0, 21502.0, 21485.0, 21460.0, 21476.0, 21470.0, 21486.0, 21486.0, 21493.0, 21464.0, 21457.0, 21455.0, 21473.0, 21456.0, 21443.0, 21434.0, 21439.0, 21489.0, 21500.0, 21505.0, 21452.0, 21430.0, 21407.0, 21448.0, 21431.0, 21438.0, 21408.0, 21426.0, 21419.0, 21446.0, 21460.0, 21458.0, 21449.0, 21451.0, 21426.0, 21454.0, 21438.0, 21477.0, 21470.0, 21467.0, 21441.0, 21418.0, 21400.0, 21427.0, 21469.0, 21472.0, 21467.0, 21443.0, 21449.0, 21447.0, 21472.0, 21449.0, 21442.0, 21436.0, 21457.0, 21488.0, 21508.0, 21479.0, 21438.0, 21393.0, 21427.0, 21506.0, 21559.0, 21509.0, 21484.0, 21432.0, 21424.0, 21407.0, 21485.0, 21532.0, 21575.0, 21545.0, 21534.0, 21458.0, 21409.0, 21471.0, 21461.0, 21404.0, 21421.0, 21407.0, 21441.0, 21460.0, 21485.0, 21449.0, 21487.0, 21450.0, 21511.0, 21501.0, 21506.0, 21490.0, 21487.0, 21459.0, 21443.0, 21450.0, 21434.0, 21451.0, 21489.0, 21530.0, 21529.0, 21531.0, 21493.0, 21483.0, 21457.0, 21443.0, 21435.0, 21473.0, 21483.0, 21482.0, 21443.0, 21425.0, 21454.0, 21494.0, 21482.0, 21486.0, 21471.0, 21493.0, 21457.0, 21480.0, 21465.0, 21477.0, 21487.0, 21513.0, 21493.0, 21495.0, 21497.0, 21527.0, 21488.0, 21463.0, 21416.0, 21491.0, 21498.0, 21521.0, 21459.0, 21412.0, 21354.0, 21402.0, 21376.0, 21456.0, 21437.0, 21469.0, 21484.0, 21474.0, 21468.0, 21475.0, 21476.0, 21444.0, 21399.0, 21413.0, 21474.0, 21489.0, 21501.0, 21464.0, 21448.0, 21455.0, 21483.0, 21463.0, 21481.0, 21426.0, 21441.0, 21443.0, 21489.0, 21501.0, 21510.0, 21482.0, 21481.0, 21480.0, 21521.0, 21507.0]
    },
    "slices": {}
  }
}