{
  "AcquisitionMatrixPE": 104,
  "AcquisitionNumber": 1,
  "AcquisitionTime": "13:46:4.800000",
  "BandwidthPerPixelPhaseEncode": 17.17,
  "BaseResolution": 104,
  "BodyPartExamined": "BRAIN",
  "CoilString": "HC1-7;NC1_2",
  "ConsistencyInfo": "N4_VE11C_LATEST_20160120",
  "ConversionSoftware": "dcm2niix",
  "ConversionSoftwareVersion": "v1.0.20190902",
  "DerivedVendorReportedEchoSpacing": 0.000560011,
  "DeviceSerialNumber": "167006",
  "DwellTime": 2.1e-06,
  "EchoTime": 0.037,
  "EchoTrainLength": 104,
  "EffectiveEchoSpacing": 0.000560011,
  "FlipAngle": 52,
  "HeudiconvVersion": "0.10.0",
  "ImageComments": "Unaliased_MB4_PE3_LB",
  "ImageOrientationPatientDICOM": [0.999648, 0.0153767, 0.0216191, -0.00977071, 0.971008, -0.238848],
  "ImageType": [
    "ORIGINAL",
    "PRIMARY",
    "P",
    "MB",
    "ND",
    "MOSAIC"
],
  "ImagingFrequency": 123.259,
  "InPlanePhaseEncodingDirectionDICOM": "COL",
  "InstitutionAddress": "Chemin_Queen-Mary_4565_Montreal_District_CA_H3W_1W5",
  "InstitutionName": "IUGM",
  "InstitutionalDepartmentName": "Department",
  "MRAcquisitionType": "2D",
  "MagneticFieldStrength": 3,
  "Manufacturer": "Siemens",
  "ManufacturersModelName": "Prisma_fit",
  "Modality": "MR",
  "MultibandAccelerationFactor": 4,
  "PartialFourier": 1,
  "PatientPosition": "HFS",
  "PercentPhaseFOV": 100,
  "PhaseEncodingDirection": "j",
  "PhaseEncodingSteps": 104,
  "PhaseResolution": 1,
  "PixelBandwidth": 2290,
  "ProcedureStepDescription": "memory_things",
  "ProtocolName": "func_task-things_run-4",
  "PulseSequenceDetails": "%CustomerSeq%_cmrr_mbep2d_bold",
  "ReceiveCoilActiveElements": "HC1-7;NC1,2",
  "ReceiveCoilName": "HeadNeck_64",
  "ReconMatrixPE": 104,
  "RepetitionTime": 1.49,
  "SAR": 0.0382758,
  "ScanOptions": "FS",
  "ScanningSequence": "EP",
  "SequenceName": "epfid2d1_104",
  "SequenceVariant": "SK_SS",
  "SeriesDescription": "func_task-things_run-4",
  "SeriesNumber": 20,
  "ShimSetting": [628, -7205, -8806, 724, 32, 9, 58, -9],
  "SliceThickness": 2,
  "SliceTiming": [0, 0.785, 0.1, 0.8825, 0.1975, 0.98, 0.295, 1.08, 0.3925, 1.1775, 0.49, 1.275, 0.59, 1.3725, 0.6875, 0, 0.785, 0.1, 0.8825, 0.1975, 0.98, 0.295, 1.08, 0.3925, 1.1775, 0.49, 1.275, 0.59, 1.3725, 0.6875, 0, 0.785, 0.1, 0.8825, 0.1975, 0.98, 0.295, 1.08, 0.3925, 1.1775, 0.49, 1.275, 0.59, 1.3725, 0.6875, 0, 0.785, 0.1, 0.8825, 0.1975, 0.98, 0.295, 1.08, 0.3925, 1.1775, 0.49, 1.275, 0.59, 1.3725, 0.6875],
  "SoftwareVersions": "syngo_MR_E11",
  "SpacingBetweenSlices": 2,
  "StationName": "MRC35049",
  "TaskName": "things",
  "TotalReadoutTime": 0.0576811,
  "TxRefAmp": 214.787,
  "WipMemBlock": "16a117b1-b0a3-4bd5-8214-dd85881e0f10||Sequence: R016 ve11c/master r/e634e98; Dec 19 2017 11:00:25 by eja",
  "dcmmeta_affine": [
    [-1.9992960691452026, -0.019541412591934204, 0.04932994395494461, 108.52699279785156],
    [-0.03075346164405346, 1.9420158863067627, -0.4771045446395874, -73.57109832763672],
    [0.043238118290901184, 0.47769513726234436, 1.9416327476501465, -65.70069122314453],
    [0.0, 0.0, 0.0, 1.0]
],
  "dcmmeta_reorient_transform": [
    [0.0, -1.0, 0.0, 103.0],
    [1.0, 0.0, 0.0, 0.0],
    [0.0, 0.0, 1.0, 0.0],
    [0.0, 0.0, 0.0, 1.0]
],
  "dcmmeta_shape": [104, 104, 60, 190],
  "dcmmeta_slice_dim": 2,
  "dcmmeta_version": 0.6,
  "global": {
    "const": {
      "AcquisitionMatrix": [104, 0, 0, 104],
      "AngioFlag": "N",
      "BitsAllocated": 16,
      "BitsStored": 16,
      "BodyPartExamined": "BRAIN",
      "Columns": 832,
      "EchoNumbers": 1,
      "EchoTime": 37.0,
      "EchoTrainLength": 104,
      "FlipAngle": 52.0,
      "HighBit": 15,
      "ImageOrientationPatient": [0.99964802429832, 0.01537673036675, 0.02161905825191, -0.0097707063123, 0.97100791427313, -0.2388475742333],
      "ImagePositionPatient": [-827.14491464836, -844.5445543239, 141.64427010239],
      "ImageType": [
        "ORIGINAL",
        "PRIMARY",
        "P",
        "MB",
        "ND",
        "MOSAIC"
],
      "ImagedNucleus": "1H",
      "ImagingFrequency": 123.258906,
      "InPlanePhaseEncodingDirection": "COL",
      "LargestImagePixelValue": 4095,
      "MRAcquisitionType": "2D",
      "MagneticFieldStrength": 3.0,
      "Manufacturer": "SIEMENS",
      "ManufacturerModelName": "Prisma_fit",
      "Modality": "MR",
      "NumberOfAverages": 1.0,
      "NumberOfPhaseEncodingSteps": 104,
      "PercentPhaseFieldOfView": 100.0,
      "PercentSampling": 100.0,
      "PerformedProcedureStepStartTime": "114940.267000",
      "PhotometricInterpretation": "MONOCHROME2",
      "PixelBandwidth": 2290.0,
      "PixelRepresentation": 0,
      "PixelSpacing": [2.0, 2.0],
      "ProtocolName": "func_task-things_run-4",
      "RepetitionTime": 1490.0,
      "RescaleIntercept": -4096.0,
      "RescaleSlope": 2.0,
      "RescaleType": "US",
      "Rows": 832,
      "SAR": 0.03827578318543,
      "SamplesPerPixel": 1,
      "ScanOptions": "FS",
      "ScanningSequence": "EP",
      "SequenceName": "epfid2d1_104",
      "SequenceVariant": [
        "SK",
        "SS"
],
      "SeriesDescription": "func_task-things_run-4",
      "SeriesNumber": 20,
      "SeriesTime": "134718.454000",
      "SliceLocation": -43.555938555445,
      "SliceThickness": 2.0,
      "SmallestImagePixelValue": 0,
      "SoftwareVersions": "syngo MR E11",
      "SpacingBetweenSlices": 1.9999999787322,
      "SpecificCharacterSet": "ISO_IR 100",
      "StudyID": "1",
      "StudyTime": "114940.189000",
      "TransmitCoilName": "Body",
      "VariableFlipAngleFlag": "N",
      "WindowCenterWidthExplanation": "Algo1",
      "dBdt": 0.0},
    "slices": {}
  },
  "time": {
    "samples": {
      "AcquisitionNumber": [1, 2, 3, 4, 5, 6, 7, 8, 9, 10, 11, 12, 13, 14, 15, 16, 17, 18, 19, 20, 21, 22, 23, 24, 25, 26, 27, 28, 29, 30, 31, 32, 33, 34, 35, 36, 37, 38, 39, 40, 41, 42, 43, 44, 45, 46, 47, 48, 49, 50, 51, 52, 53, 54, 55, 56, 57, 58, 59, 60, 61, 62, 63, 64, 65, 66, 67, 68, 69, 70, 71, 72, 73, 74, 75, 76, 77, 78, 79, 80, 81, 82, 83, 84, 85, 86, 87, 88, 89, 90, 91, 92, 93, 94, 95, 96, 97, 98, 99, 100, 101, 102, 103, 104, 105, 106, 107, 108, 109, 110, 111, 112, 113, 114, 115, 116, 117, 118, 119, 120, 121, 122, 123, 124, 125, 126, 127, 128, 129, 130, 131, 132, 133, 134, 135, 136, 137, 138, 139, 140, 141, 142, 143, 144, 145, 146, 147, 148, 149, 150, 151, 152, 153, 154, 155, 156, 157, 158, 159, 160, 161, 162, 163, 164, 165, 166, 167, 168, 169, 170, 171, 172, 173, 174, 175, 176, 177, 178, 179, 180, 181, 182, 183, 184, 185, 186, 187, 188, 189, 190],
      "AcquisitionTime": ["134604.800000", "134606.290000", "134607.780000", "134609.270000", "134610.760000", "134612.250000", "134613.740000", "134615.230000", "134616.720000", "134618.210000", "134619.700000", "134621.190000", "134622.680000", "134624.170000", "134625.660000", "134627.150000", "134628.640000", "134630.130000", "134631.620000", "134633.110000", "134634.600000", "134636.090000", "134637.580000", "134639.070000", "134640.560000", "134642.050000", "134643.540000", "134645.030000", "134646.520000", "134648.010000", "134649.500000", "134650.990000", "134652.480000", "134653.970000", "134655.460000", "134656.950000", "134658.440000", "134659.930000", "134701.420000", "134702.910000", "134704.400000", "134705.890000", "134707.380000", "134708.870000", "134710.360000", "134711.850000", "134713.340000", "134714.830000", "134716.320000", "134717.810000", "134719.300000", "134720.790000", "134722.280000", "134723.770000", "134725.260000", "134726.750000", "134728.240000", "134729.730000", "134731.220000", "134732.710000", "134734.200000", "134735.690000", "134737.180000", "134738.670000", "134740.160000", "134741.650000", "134743.140000", "134744.630000", "134746.120000", "134747.610000", "134749.100000", "134750.590000", "134752.080000", "134753.570000", "134755.060000", "134756.550000", "134758.040000", "134759.530000", "134801.020000", "134802.510000", "134804.000000", "134805.490000", "134806.980000", "134808.470000", "134809.960000", "134811.450000", "134812.940000", "134814.430000", "134815.920000", "134817.410000", "134818.900000", "134820.390000", "134821.880000", "134823.370000", "134824.860000", "134826.350000", "134827.840000", "134829.330000", "134830.820000", "134832.310000", "134833.800000", "134835.290000", "134836.780000", "134838.270000", "134839.760000", "134841.250000", "134842.740000", "134844.230000", "134845.720000", "134847.210000", "134848.700000", "134850.190000", "134851.680000", "134853.170000", "134854.660000", "134856.150000", "134857.640000", "134859.130000", "134900.620000", "134902.110000", "134903.600000", "134905.090000", "134906.580000", "134908.070000", "134909.560000", "134911.050000", "134912.540000", "134914.030000", "134915.520000", "134917.010000", "134918.500000", "134919.990000", "134921.480000", "134922.970000", "134924.460000", "134925.950000", "134927.440000", "134928.930000", "134930.420000", "134931.910000", "134933.400000", "134934.890000", "134936.380000", "134937.870000", "134939.360000", "134940.850000", "134942.340000", "134943.830000", "134945.320000", "134946.810000", "134948.300000", "134949.790000", "134951.280000", "134952.770000", "134954.260000", "134955.750000", "134957.240000", "134958.730000", "135000.220000", "135001.710000", "135003.200000", "135004.690000", "135006.180000", "135007.670000", "135009.160000", "135010.650000", "135012.140000", "135013.630000", "135015.120000", "135016.610000", "135018.100000", "135019.590000", "135021.080000", "135022.570000", "135024.060000", "135025.550000", "135027.040000", "135028.530000", "135030.020000", "135031.510000", "135033.000000", "135034.490000", "135035.980000", "135037.470000", "135038.960000", "135040.450000", "135041.940000", "135043.430000", "135044.920000", "135046.410000"],
      "ContentTime": ["134718.456000", "134718.459000", "134718.462000", "134718.464000", "134718.467000", "134718.470000", "134718.472000", "134718.475000", "134718.477000", "134718.480000", "134718.482000", "134718.485000", "134718.487000", "134718.490000", "134718.492000", "134718.495000", "134718.497000", "134718.500000", "134718.502000", "134718.505000", "134718.507000", "134738.403000", "134738.406000", "134738.408000", "134738.411000", "134738.413000", "134738.416000", "134738.419000", "134738.422000", "134738.424000", "134738.427000", "134738.430000", "134738.432000", "134738.435000", "134738.437000", "134738.440000", "134738.442000", "134738.445000", "134738.447000", "134738.450000", "134738.452000", "134758.396000", "134758.398000", "134758.401000", "134758.404000", "134758.406000", "134758.409000", "134758.411000", "134758.414000", "134758.416000", "134758.419000", "134758.421000", "134758.424000", "134758.426000", "134758.429000", "134758.431000", "134758.434000", "134758.436000", "134758.439000", "134758.441000", "134758.444000", "134818.394000", "134818.397000", "134818.400000", "134818.402000", "134818.405000", "134818.407000", "134818.410000", "134818.412000", "134818.415000", "134818.417000", "134818.420000", "134818.422000", "134818.425000", "134818.427000", "134818.430000", "134818.432000", "134818.435000", "134818.437000", "134818.440000", "134818.453000", "134838.388000", "134838.390000", "134838.394000", "134838.396000", "134838.399000", "134838.401000", "134838.404000", "134838.406000", "134838.409000", "134838.411000", "134838.414000", "134838.417000", "134838.419000", "134838.422000", "134838.424000", "134838.427000", "134838.429000", "134838.432000", "134838.434000", "134838.437000", "134918.425000", "134918.428000", "134918.430000", "134918.433000", "134918.436000", "134918.438000", "134918.440000", "134918.443000", "134918.446000", "134918.448000", "134918.450000", "134918.453000", "134918.456000", "134918.458000", "134918.461000", "134918.463000", "134918.466000", "134918.468000", "134918.482000", "134918.484000", "134918.487000", "134918.489000", "134918.492000", "134918.495000", "134918.497000", "134918.499000", "134918.502000", "134918.505000", "134958.410000", "134958.412000", "134958.415000", "134958.418000", "134958.420000", "134958.423000", "134958.425000", "134958.428000", "134958.431000", "134958.433000", "134958.435000", "134958.438000", "134958.441000", "134958.443000", "134958.446000", "134958.448000", "134958.451000", "134958.453000", "134958.456000", "134958.458000", "134958.461000", "134958.463000", "134958.466000", "134958.468000", "134958.471000", "134958.473000", "134958.476000", "135038.429000", "135038.431000", "135038.434000", "135038.436000", "135038.439000", "135038.441000", "135038.444000", "135038.447000", "135038.449000", "135038.452000", "135038.454000", "135038.457000", "135038.459000", "135038.462000", "135038.464000", "135038.467000", "135038.469000", "135038.472000", "135038.474000", "135038.477000", "135038.479000", "135038.482000", "135038.484000", "135038.487000", "135038.489000", "135038.492000", "135038.495000", "135048.299000", "135048.302000", "135048.304000", "135048.307000", "135048.313000", "135048.315000", "135048.318000"],
      "InstanceCreationTime": ["134718.456000", "134718.459000", "134718.462000", "134718.464000", "134718.467000", "134718.470000", "134718.472000", "134718.475000", "134718.477000", "134718.480000", "134718.482000", "134718.485000", "134718.487000", "134718.490000", "134718.492000", "134718.495000", "134718.497000", "134718.500000", "134718.502000", "134718.505000", "134718.507000", "134738.403000", "134738.406000", "134738.408000", "134738.411000", "134738.413000", "134738.416000", "134738.419000", "134738.422000", "134738.424000", "134738.427000", "134738.430000", "134738.432000", "134738.435000", "134738.437000", "134738.440000", "134738.442000", "134738.445000", "134738.447000", "134738.450000", "134738.452000", "134758.396000", "134758.398000", "134758.401000", "134758.404000", "134758.406000", "134758.409000", "134758.411000", "134758.414000", "134758.416000", "134758.419000", "134758.421000", "134758.424000", "134758.426000", "134758.429000", "134758.431000", "134758.434000", "134758.436000", "134758.439000", "134758.441000", "134758.444000", "134818.394000", "134818.397000", "134818.400000", "134818.402000", "134818.405000", "134818.407000", "134818.410000", "134818.412000", "134818.415000", "134818.417000", "134818.420000", "134818.422000", "134818.425000", "134818.427000", "134818.430000", "134818.432000", "134818.435000", "134818.437000", "134818.440000", "134818.453000", "134838.388000", "134838.390000", "134838.394000", "134838.396000", "134838.399000", "134838.401000", "134838.404000", "134838.406000", "134838.409000", "134838.411000", "134838.414000", "134838.417000", "134838.419000", "134838.422000", "134838.424000", "134838.427000", "134838.429000", "134838.432000", "134838.434000", "134838.437000", "134918.425000", "134918.428000", "134918.430000", "134918.433000", "134918.436000", "134918.438000", "134918.440000", "134918.443000", "134918.446000", "134918.448000", "134918.450000", "134918.453000", "134918.456000", "134918.458000", "134918.461000", "134918.463000", "134918.466000", "134918.468000", "134918.482000", "134918.484000", "134918.487000", "134918.489000", "134918.492000", "134918.495000", "134918.497000", "134918.499000", "134918.502000", "134918.505000", "134958.410000", "134958.412000", "134958.415000", "134958.418000", "134958.420000", "134958.423000", "134958.425000", "134958.428000", "134958.431000", "134958.433000", "134958.435000", "134958.438000", "134958.441000", "134958.443000", "134958.446000", "134958.448000", "134958.451000", "134958.453000", "134958.456000", "134958.458000", "134958.461000", "134958.463000", "134958.466000", "134958.468000", "134958.471000", "134958.473000", "134958.476000", "135038.429000", "135038.431000", "135038.434000", "135038.436000", "135038.439000", "135038.441000", "135038.444000", "135038.447000", "135038.449000", "135038.452000", "135038.454000", "135038.457000", "135038.459000", "135038.462000", "135038.464000", "135038.467000", "135038.469000", "135038.472000", "135038.474000", "135038.477000", "135038.479000", "135038.482000", "135038.484000", "135038.487000", "135038.489000", "135038.492000", "135038.495000", "135048.299000", "135048.302000", "135048.304000", "135048.307000", "135048.313000", "135048.315000", "135048.318000"],
      "InstanceNumber": [1, 2, 3, 4, 5, 6, 7, 8, 9, 10, 11, 12, 13, 14, 15, 16, 17, 18, 19, 20, 21, 22, 23, 24, 25, 26, 27, 28, 29, 30, 31, 32, 33, 34, 35, 36, 37, 38, 39, 40, 41, 42, 43, 44, 45, 46, 47, 48, 49, 50, 51, 52, 53, 54, 55, 56, 57, 58, 59, 60, 61, 62, 63, 64, 65, 66, 67, 68, 69, 70, 71, 72, 73, 74, 75, 76, 77, 78, 79, 80, 81, 82, 83, 84, 85, 86, 87, 88, 89, 90, 91, 92, 93, 94, 95, 96, 97, 98, 99, 100, 101, 102, 103, 104, 105, 106, 107, 108, 109, 110, 111, 112, 113, 114, 115, 116, 117, 118, 119, 120, 121, 122, 123, 124, 125, 126, 127, 128, 129, 130, 131, 132, 133, 134, 135, 136, 137, 138, 139, 140, 141, 142, 143, 144, 145, 146, 147, 148, 149, 150, 151, 152, 153, 154, 155, 156, 157, 158, 159, 160, 161, 162, 163, 164, 165, 166, 167, 168, 169, 170, 171, 172, 173, 174, 175, 176, 177, 178, 179, 180, 181, 182, 183, 184, 185, 186, 187, 188, 189, 190],
      "WindowCenter": [4880.0, 4880.0, 4856.0, 4878.0, 4880.0, 4878.0, 4880.0, 4880.0, 4880.0, 4856.0, 4854.0, 4856.0, 4876.0, 4854.0, 4854.0, 4880.0, 4878.0, 4880.0, 4854.0, 4856.0, 4854.0, 4854.0, 4880.0, 4856.0, 4856.0, 4878.0, 4856.0, 4856.0, 4876.0, 4880.0, 4856.0, 4878.0, 4856.0, 4878.0, 4878.0, 4876.0, 4856.0, 4880.0, 4880.0, 4876.0, 4874.0, 4880.0, 4856.0, 4878.0, 4878.0, 4878.0, 4878.0, 4878.0, 4878.0, 4880.0, 4880.0, 4856.0, 4878.0, 4880.0, 4878.0, 4880.0, 4854.0, 4852.0, 4874.0, 4856.0, 4880.0, 4878.0, 4858.0, 4876.0, 4878.0, 4876.0, 4880.0, 4852.0, 4854.0, 4876.0, 4854.0, 4856.0, 4856.0, 4876.0, 4880.0, 4880.0, 4876.0, 4854.0, 4854.0, 4856.0, 4856.0, 4858.0, 4854.0, 4854.0, 4858.0, 4878.0, 4874.0, 4882.0, 4878.0, 4880.0, 4878.0, 4876.0, 4878.0, 4880.0, 4882.0, 4856.0, 4856.0, 4880.0, 4854.0, 4880.0, 4874.0, 4880.0, 4856.0, 4856.0, 4882.0, 4878.0, 4880.0, 4854.0, 4856.0, 4856.0, 4878.0, 4878.0, 4876.0, 4878.0, 4876.0, 4856.0, 4876.0, 4876.0, 4856.0, 4856.0, 4878.0, 4876.0, 4876.0, 4856.0, 4876.0, 4878.0, 4856.0, 4856.0, 4854.0, 4856.0, 4880.0, 4876.0, 4878.0, 4876.0, 4876.0, 4852.0, 4856.0, 4854.0, 4878.0, 4880.0, 4878.0, 4876.0, 4856.0, 4880.0, 4878.0, 4854.0, 4852.0, 4878.0, 4852.0, 4856.0, 4856.0, 4878.0, 4880.0, 4878.0, 4878.0, 4876.0, 4854.0, 4878.0, 4856.0, 4878.0, 4880.0, 4880.0, 4880.0, 4882.0, 4880.0, 4878.0, 4856.0, 4854.0, 4874.0, 4876.0, 4876.0, 4880.0, 4856.0, 4882.0, 4854.0, 4878.0, 4878.0, 4878.0, 4876.0, 4880.0, 4878.0, 4878.0, 4876.0, 4876.0, 4878.0, 4880.0, 4858.0, 4878.0, 4878.0, 4856.0],
      "WindowWidth": [18646.0, 18646.0, 18612.0, 18646.0, 18650.0, 18650.0, 18648.0, 18650.0, 18652.0, 18616.0, 18614.0, 18620.0, 18642.0, 18616.0, 18616.0, 18646.0, 18644.0, 18646.0, 18618.0, 18614.0, 18612.0, 18614.0, 18644.0, 18618.0, 18620.0, 18650.0, 18618.0, 18618.0, 18650.0, 18648.0, 18616.0, 18646.0, 18612.0, 18648.0, 18650.0, 18644.0, 18616.0, 18642.0, 18644.0, 18646.0, 18646.0, 18648.0, 18614.0, 18646.0, 18646.0, 18646.0, 18642.0, 18652.0, 18644.0, 18646.0, 18646.0, 18612.0, 18648.0, 18648.0, 18646.0, 18644.0, 18616.0, 18618.0, 18646.0, 18620.0, 18644.0, 18646.0, 18616.0, 18648.0, 18648.0, 18646.0, 18644.0, 18612.0, 18616.0, 18648.0, 18614.0, 18616.0, 18612.0, 18646.0, 18650.0, 18646.0, 18640.0, 18616.0, 18616.0, 18614.0, 18616.0, 18616.0, 18616.0, 18610.0, 18614.0, 18648.0, 18650.0, 18646.0, 18646.0, 18648.0, 18642.0, 18648.0, 18642.0, 18646.0, 18646.0, 18614.0, 18618.0, 18652.0, 18616.0, 18646.0, 18642.0, 18646.0, 18616.0, 18614.0, 18646.0, 18642.0, 18648.0, 18612.0, 18612.0, 18616.0, 18648.0, 18648.0, 18642.0, 18646.0, 18644.0, 18616.0, 18648.0, 18646.0, 18614.0, 18618.0, 18646.0, 18644.0, 18646.0, 18616.0, 18648.0, 18650.0, 18616.0, 18618.0, 18614.0, 18618.0, 18650.0, 18650.0, 18650.0, 18646.0, 18646.0, 18612.0, 18618.0, 18614.0, 18648.0, 18646.0, 18648.0, 18648.0, 18620.0, 18650.0, 18642.0, 18620.0, 18614.0, 18640.0, 18614.0, 18616.0, 18620.0, 18642.0, 18646.0, 18646.0, 18654.0, 18642.0, 18618.0, 18648.0, 18616.0, 18646.0, 18644.0, 18650.0, 18650.0, 18650.0, 18648.0, 18646.0, 18620.0, 18618.0, 18642.0, 18646.0, 18646.0, 18648.0, 18618.0, 18648.0, 18618.0, 18648.0, 18646.0, 18648.0, 18648.0, 18652.0, 18642.0, 18650.0, 18644.0, 18646.0, 18646.0, 18648.0, 18620.0, 18646.0, 18652.0, 18624.0]
    },
    "slices": {}
  }
}