{
  "AcquisitionMatrixPE": 104,
  "AcquisitionNumber": 1,
  "AcquisitionTime": "13:58:22.465000",
  "BandwidthPerPixelPhaseEncode": 17.17,
  "BaseResolution": 104,
  "BodyPartExamined": "BRAIN",
  "CoilString": "HC1-7;NC1_2",
  "ConsistencyInfo": "N4_VE11C_LATEST_20160120",
  "ConversionSoftware": "dcm2niix",
  "ConversionSoftwareVersion": "v1.0.20190902",
  "DerivedVendorReportedEchoSpacing": 0.000560011,
  "DeviceSerialNumber": "167006",
  "DwellTime": 2.1e-06,
  "EchoTime": 0.037,
  "EchoTrainLength": 104,
  "EffectiveEchoSpacing": 0.000560011,
  "FlipAngle": 52,
  "HeudiconvVersion": "0.10.0",
  "ImageComments": "Unaliased_MB4_PE3_LB",
  "ImageOrientationPatientDICOM": [0.999648, 0.0153767, 0.0216191, -0.00977071, 0.971008, -0.238848],
  "ImageType": [
    "ORIGINAL",
    "PRIMARY",
    "M",
    "MB",
    "ND",
    "MOSAIC"
],
  "ImagingFrequency": 123.259,
  "InPlanePhaseEncodingDirectionDICOM": "COL",
  "InstitutionAddress": "Chemin_Queen-Mary_4565_Montreal_District_CA_H3W_1W5",
  "InstitutionName": "IUGM",
  "InstitutionalDepartmentName": "Department",
  "MRAcquisitionType": "2D",
  "MagneticFieldStrength": 3,
  "Manufacturer": "Siemens",
  "ManufacturersModelName": "Prisma_fit",
  "Modality": "MR",
  "MultibandAccelerationFactor": 4,
  "PartialFourier": 1,
  "PatientPosition": "HFS",
  "PercentPhaseFOV": 100,
  "PhaseEncodingDirection": "j",
  "PhaseEncodingSteps": 104,
  "PhaseResolution": 1,
  "PixelBandwidth": 2290,
  "ProcedureStepDescription": "memory_things",
  "ProtocolName": "func_task-things_run-6",
  "PulseSequenceDetails": "%CustomerSeq%_cmrr_mbep2d_bold",
  "ReceiveCoilActiveElements": "HC1-7;NC1,2",
  "ReceiveCoilName": "HeadNeck_64",
  "ReconMatrixPE": 104,
  "RepetitionTime": 1.49,
  "SAR": 0.0382758,
  "ScanOptions": "FS",
  "ScanningSequence": "EP",
  "SequenceName": "epfid2d1_104",
  "SequenceVariant": "SK_SS",
  "SeriesDescription": "func_task-things_run-6",
  "SeriesNumber": 25,
  "ShimSetting": [628, -7205, -8806, 724, 32, 9, 58, -9],
  "SliceThickness": 2,
  "SliceTiming": [0, 0.785, 0.1, 0.8825, 0.1975, 0.98, 0.295, 1.08, 0.3925, 1.1775, 0.49, 1.275, 0.59, 1.3725, 0.6875, 0, 0.785, 0.1, 0.8825, 0.1975, 0.98, 0.295, 1.08, 0.3925, 1.1775, 0.49, 1.275, 0.59, 1.3725, 0.6875, 0, 0.785, 0.1, 0.8825, 0.1975, 0.98, 0.295, 1.08, 0.3925, 1.1775, 0.49, 1.275, 0.59, 1.3725, 0.6875, 0, 0.785, 0.1, 0.8825, 0.1975, 0.98, 0.295, 1.08, 0.3925, 1.1775, 0.49, 1.275, 0.59, 1.3725, 0.6875],
  "SoftwareVersions": "syngo_MR_E11",
  "SpacingBetweenSlices": 2,
  "StationName": "MRC35049",
  "TaskName": "things",
  "TotalReadoutTime": 0.0576811,
  "TxRefAmp": 214.787,
  "WipMemBlock": "7aee234f-0c16-4468-b081-1b28ed1a5334||Sequence: R016 ve11c/master r/e634e98; Dec 19 2017 11:00:25 by eja",
  "dcmmeta_affine": [
    [-1.9992960691452026, -0.019541412591934204, 0.04932994395494461, 108.52699279785156],
    [-0.03075346164405346, 1.9420158863067627, -0.4771045446395874, -73.57109832763672],
    [0.043238118290901184, 0.47769513726234436, 1.9416327476501465, -65.70069122314453],
    [0.0, 0.0, 0.0, 1.0]
],
  "dcmmeta_reorient_transform": [
    [0.0, -1.0, 0.0, 103.0],
    [1.0, 0.0, 0.0, 0.0],
    [0.0, 0.0, 1.0, 0.0],
    [0.0, 0.0, 0.0, 1.0]
],
  "dcmmeta_shape": [104, 104, 60, 190],
  "dcmmeta_slice_dim": 2,
  "dcmmeta_version": 0.6,
  "global": {
    "const": {
      "AcquisitionMatrix": [104, 0, 0, 104],
      "AngioFlag": "N",
      "BitsAllocated": 16,
      "BitsStored": 16,
      "BodyPartExamined": "BRAIN",
      "Columns": 832,
      "EchoNumbers": 1,
      "EchoTime": 37.0,
      "EchoTrainLength": 104,
      "FlipAngle": 52.0,
      "HighBit": 15,
      "ImageOrientationPatient": [0.99964802429832, 0.01537673036675, 0.02161905825191, -0.0097707063123, 0.97100791427313, -0.2388475742333],
      "ImagePositionPatient": [-827.14491464836, -844.5445543239, 141.64427010239],
      "ImageType": [
        "ORIGINAL",
        "PRIMARY",
        "M",
        "MB",
        "ND",
        "MOSAIC"
],
      "ImagedNucleus": "1H",
      "ImagingFrequency": 123.25891,
      "InPlanePhaseEncodingDirection": "COL",
      "MRAcquisitionType": "2D",
      "MagneticFieldStrength": 3.0,
      "Manufacturer": "SIEMENS",
      "ManufacturerModelName": "Prisma_fit",
      "Modality": "MR",
      "NumberOfAverages": 1.0,
      "NumberOfPhaseEncodingSteps": 104,
      "PercentPhaseFieldOfView": 100.0,
      "PercentSampling": 100.0,
      "PerformedProcedureStepStartTime": "114940.267000",
      "PhotometricInterpretation": "MONOCHROME2",
      "PixelBandwidth": 2290.0,
      "PixelRepresentation": 0,
      "PixelSpacing": [2.0, 2.0],
      "ProtocolName": "func_task-things_run-6",
      "RepetitionTime": 1490.0,
      "Rows": 832,
      "SAR": 0.03827578318543,
      "SamplesPerPixel": 1,
      "ScanOptions": "FS",
      "ScanningSequence": "EP",
      "SequenceName": "epfid2d1_104",
      "SequenceVariant": [
        "SK",
        "SS"
],
      "SeriesDescription": "func_task-things_run-6",
      "SeriesNumber": 25,
      "SeriesTime": "135935.547000",
      "SliceLocation": -43.555938555445,
      "SliceThickness": 2.0,
      "SmallestImagePixelValue": 0,
      "SoftwareVersions": "syngo MR E11",
      "SpacingBetweenSlices": 1.9999999787322,
      "SpecificCharacterSet": "ISO_IR 100",
      "StudyID": "1",
      "StudyTime": "114940.189000",
      "TransmitCoilName": "Body",
      "VariableFlipAngleFlag": "N",
      "WindowCenterWidthExplanation": "Algo1",
      "dBdt": 0.0},
    "slices": {}
  },
  "time": {
    "samples": {
      "AcquisitionNumber": [1, 2, 3, 4, 5, 6, 7, 8, 9, 10, 11, 12, 13, 14, 15, 16, 17, 18, 19, 20, 21, 22, 23, 24, 25, 26, 27, 28, 29, 30, 31, 32, 33, 34, 35, 36, 37, 38, 39, 40, 41, 42, 43, 44, 45, 46, 47, 48, 49, 50, 51, 52, 53, 54, 55, 56, 57, 58, 59, 60, 61, 62, 63, 64, 65, 66, 67, 68, 69, 70, 71, 72, 73, 74, 75, 76, 77, 78, 79, 80, 81, 82, 83, 84, 85, 86, 87, 88, 89, 90, 91, 92, 93, 94, 95, 96, 97, 98, 99, 100, 101, 102, 103, 104, 105, 106, 107, 108, 109, 110, 111, 112, 113, 114, 115, 116, 117, 118, 119, 120, 121, 122, 123, 124, 125, 126, 127, 128, 129, 130, 131, 132, 133, 134, 135, 136, 137, 138, 139, 140, 141, 142, 143, 144, 145, 146, 147, 148, 149, 150, 151, 152, 153, 154, 155, 156, 157, 158, 159, 160, 161, 162, 163, 164, 165, 166, 167, 168, 169, 170, 171, 172, 173, 174, 175, 176, 177, 178, 179, 180, 181, 182, 183, 184, 185, 186, 187, 188, 189, 190],
      "AcquisitionTime": ["135822.465000", "135823.955000", "135825.445000", "135826.935000", "135828.425000", "135829.915000", "135831.405000", "135832.895000", "135834.385000", "135835.875000", "135837.365000", "135838.855000", "135840.345000", "135841.835000", "135843.325000", "135844.815000", "135846.305000", "135847.795000", "135849.285000", "135850.775000", "135852.265000", "135853.755000", "135855.245000", "135856.735000", "135858.225000", "135859.715000", "135901.205000", "135902.695000", "135904.185000", "135905.675000", "135907.165000", "135908.655000", "135910.145000", "135911.635000", "135913.125000", "135914.615000", "135916.105000", "135917.595000", "135919.085000", "135920.575000", "135922.065000", "135923.555000", "135925.045000", "135926.535000", "135928.025000", "135929.515000", "135931.005000", "135932.495000", "135933.985000", "135935.475000", "135936.965000", "135938.455000", "135939.945000", "135941.435000", "135942.925000", "135944.415000", "135945.905000", "135947.395000", "135948.885000", "135950.375000", "135951.865000", "135953.355000", "135954.845000", "135956.335000", "135957.825000", "135959.315000", "140000.805000", "140002.295000", "140003.785000", "140005.275000", "140006.765000", "140008.255000", "140009.745000", "140011.235000", "140012.725000", "140014.215000", "140015.705000", "140017.195000", "140018.685000", "140020.175000", "140021.665000", "140023.155000", "140024.645000", "140026.135000", "140027.625000", "140029.115000", "140030.605000", "140032.095000", "140033.585000", "140035.075000", "140036.565000", "140038.055000", "140039.545000", "140041.035000", "140042.525000", "140044.015000", "140045.505000", "140046.995000", "140048.485000", "140049.975000", "140051.465000", "140052.955000", "140054.445000", "140055.935000", "140057.425000", "140058.915000", "140100.405000", "140101.895000", "140103.385000", "140104.875000", "140106.365000", "140107.855000", "140109.345000", "140110.835000", "140112.325000", "140113.815000", "140115.305000", "140116.795000", "140118.285000", "140119.775000", "140121.265000", "140122.755000", "140124.245000", "140125.735000", "140127.225000", "140128.715000", "140130.205000", "140131.695000", "140133.185000", "140134.675000", "140136.165000", "140137.655000", "140139.145000", "140140.635000", "140142.125000", "140143.615000", "140145.105000", "140146.595000", "140148.085000", "140149.575000", "140151.065000", "140152.555000", "140154.045000", "140155.535000", "140157.025000", "140158.515000", "140200.005000", "140201.495000", "140202.985000", "140204.475000", "140205.965000", "140207.455000", "140208.945000", "140210.435000", "140211.925000", "140213.415000", "140214.905000", "140216.395000", "140217.885000", "140219.375000", "140220.865000", "140222.355000", "140223.845000", "140225.335000", "140226.825000", "140228.315000", "140229.805000", "140231.295000", "140232.785000", "140234.275000", "140235.765000", "140237.255000", "140238.745000", "140240.235000", "140241.725000", "140243.215000", "140244.705000", "140246.195000", "140247.685000", "140249.175000", "140250.665000", "140252.155000", "140253.645000", "140255.135000", "140256.625000", "140258.115000", "140259.605000", "140301.095000", "140302.585000", "140304.075000"],
      "ContentTime": ["135935.550000", "135935.553000", "135935.557000", "135935.560000", "135935.563000", "135935.567000", "135935.570000", "135935.573000", "135935.577000", "135935.580000", "135935.583000", "135935.586000", "135935.590000", "135935.593000", "135935.596000", "135935.600000", "135935.603000", "135935.613000", "135935.616000", "135935.619000", "135955.514000", "135955.518000", "135955.521000", "135955.524000", "135955.528000", "135955.531000", "135955.534000", "135955.538000", "135955.541000", "135955.544000", "135955.547000", "135955.551000", "135955.554000", "135955.557000", "135955.560000", "135955.564000", "135955.567000", "135955.570000", "135955.573000", "135955.577000", "140015.514000", "140015.518000", "140015.521000", "140015.524000", "140015.528000", "140015.531000", "140015.534000", "140015.538000", "140015.541000", "140015.545000", "140015.548000", "140015.551000", "140015.554000", "140015.558000", "140015.561000", "140015.564000", "140015.568000", "140015.571000", "140015.574000", "140015.578000", "140035.514000", "140035.518000", "140035.521000", "140035.524000", "140035.528000", "140035.531000", "140035.534000", "140035.537000", "140035.541000", "140035.544000", "140035.547000", "140035.562000", "140035.565000", "140035.569000", "140035.572000", "140035.575000", "140035.578000", "140035.582000", "140035.585000", "140035.588000", "140055.515000", "140055.519000", "140055.522000", "140055.525000", "140055.529000", "140055.532000", "140055.535000", "140055.538000", "140055.542000", "140055.545000", "140055.548000", "140055.552000", "140055.555000", "140055.558000", "140055.561000", "140055.565000", "140055.568000", "140055.571000", "140055.575000", "140055.578000", "140135.514000", "140135.518000", "140135.521000", "140135.524000", "140135.528000", "140135.531000", "140135.534000", "140135.538000", "140135.541000", "140135.544000", "140135.548000", "140135.551000", "140135.554000", "140135.558000", "140135.561000", "140135.564000", "140135.567000", "140135.571000", "140135.574000", "140135.577000", "140135.581000", "140135.584000", "140135.587000", "140135.590000", "140135.594000", "140135.597000", "140135.600000", "140135.604000", "140135.607000", "140215.514000", "140215.519000", "140215.522000", "140215.531000", "140215.534000", "140215.538000", "140215.541000", "140215.544000", "140215.548000", "140215.551000", "140215.554000", "140215.558000", "140215.561000", "140215.565000", "140215.568000", "140215.572000", "140215.575000", "140215.579000", "140215.583000", "140215.586000", "140215.590000", "140215.593000", "140215.596000", "140215.600000", "140215.603000", "140215.606000", "140215.610000", "140255.514000", "140255.519000", "140255.524000", "140255.529000", "140255.533000", "140255.537000", "140255.541000", "140255.546000", "140255.549000", "140255.554000", "140255.558000", "140255.561000", "140255.564000", "140255.568000", "140255.571000", "140255.575000", "140255.578000", "140255.581000", "140255.584000", "140255.588000", "140255.591000", "140255.595000", "140255.598000", "140255.601000", "140255.605000", "140255.608000", "140306.041000", "140306.045000", "140306.048000", "140306.051000", "140306.054000", "140306.058000", "140306.061000", "140306.065000"],
      "InstanceCreationTime": ["135935.550000", "135935.553000", "135935.557000", "135935.560000", "135935.563000", "135935.567000", "135935.570000", "135935.573000", "135935.577000", "135935.580000", "135935.583000", "135935.586000", "135935.590000", "135935.593000", "135935.596000", "135935.600000", "135935.603000", "135935.613000", "135935.616000", "135935.619000", "135955.514000", "135955.518000", "135955.521000", "135955.524000", "135955.528000", "135955.531000", "135955.534000", "135955.538000", "135955.541000", "135955.544000", "135955.547000", "135955.551000", "135955.554000", "135955.557000", "135955.560000", "135955.564000", "135955.567000", "135955.570000", "135955.573000", "135955.577000", "140015.514000", "140015.518000", "140015.521000", "140015.524000", "140015.528000", "140015.531000", "140015.534000", "140015.538000", "140015.541000", "140015.545000", "140015.548000", "140015.551000", "140015.554000", "140015.558000", "140015.561000", "140015.564000", "140015.568000", "140015.571000", "140015.574000", "140015.578000", "140035.514000", "140035.518000", "140035.521000", "140035.524000", "140035.528000", "140035.531000", "140035.534000", "140035.537000", "140035.541000", "140035.544000", "140035.547000", "140035.562000", "140035.565000", "140035.569000", "140035.572000", "140035.575000", "140035.578000", "140035.582000", "140035.585000", "140035.588000", "140055.515000", "140055.519000", "140055.522000", "140055.525000", "140055.529000", "140055.532000", "140055.535000", "140055.538000", "140055.542000", "140055.545000", "140055.548000", "140055.552000", "140055.555000", "140055.558000", "140055.561000", "140055.565000", "140055.568000", "140055.571000", "140055.575000", "140055.578000", "140135.514000", "140135.518000", "140135.521000", "140135.524000", "140135.528000", "140135.531000", "140135.534000", "140135.538000", "140135.541000", "140135.544000", "140135.548000", "140135.551000", "140135.554000", "140135.558000", "140135.561000", "140135.564000", "140135.567000", "140135.571000", "140135.574000", "140135.577000", "140135.581000", "140135.584000", "140135.587000", "140135.590000", "140135.594000", "140135.597000", "140135.600000", "140135.604000", "140135.607000", "140215.514000", "140215.519000", "140215.522000", "140215.531000", "140215.534000", "140215.538000", "140215.541000", "140215.544000", "140215.548000", "140215.551000", "140215.554000", "140215.558000", "140215.561000", "140215.565000", "140215.568000", "140215.572000", "140215.575000", "140215.579000", "140215.583000", "140215.586000", "140215.590000", "140215.593000", "140215.596000", "140215.600000", "140215.603000", "140215.606000", "140215.610000", "140255.514000", "140255.519000", "140255.524000", "140255.529000", "140255.533000", "140255.537000", "140255.541000", "140255.546000", "140255.549000", "140255.554000", "140255.558000", "140255.561000", "140255.564000", "140255.568000", "140255.571000", "140255.575000", "140255.578000", "140255.581000", "140255.584000", "140255.588000", "140255.591000", "140255.595000", "140255.598000", "140255.601000", "140255.605000", "140255.608000", "140306.041000", "140306.045000", "140306.048000", "140306.051000", "140306.054000", "140306.058000", "140306.061000", "140306.065000"],
      "InstanceNumber": [1, 2, 3, 4, 5, 6, 7, 8, 9, 10, 11, 12, 13, 14, 15, 16, 17, 18, 19, 20, 21, 22, 23, 24, 25, 26, 27, 28, 29, 30, 31, 32, 33, 34, 35, 36, 37, 38, 39, 40, 41, 42, 43, 44, 45, 46, 47, 48, 49, 50, 51, 52, 53, 54, 55, 56, 57, 58, 59, 60, 61, 62, 63, 64, 65, 66, 67, 68, 69, 70, 71, 72, 73, 74, 75, 76, 77, 78, 79, 80, 81, 82, 83, 84, 85, 86, 87, 88, 89, 90, 91, 92, 93, 94, 95, 96, 97, 98, 99, 100, 101, 102, 103, 104, 105, 106, 107, 108, 109, 110, 111, 112, 113, 114, 115, 116, 117, 118, 119, 120, 121, 122, 123, 124, 125, 126, 127, 128, 129, 130, 131, 132, 133, 134, 135, 136, 137, 138, 139, 140, 141, 142, 143, 144, 145, 146, 147, 148, 149, 150, 151, 152, 153, 154, 155, 156, 157, 158, 159, 160, 161, 162, 163, 164, 165, 166, 167, 168, 169, 170, 171, 172, 173, 174, 175, 176, 177, 178, 179, 180, 181, 182, 183, 184, 185, 186, 187, 188, 189, 190],
      "LargestImagePixelValue": [40511, 39222, 38496, 38247, 38606, 38389, 37981, 38397, 38045, 37920, 37569, 38126, 37844, 38146, 37651, 37912, 37920, 37760, 37952, 37952, 38245, 38078, 38381, 38078, 38227, 37825, 37829, 38080, 38132, 38084, 37923, 37897, 37983, 38000, 38080, 37952, 38385, 38113, 38552, 38064, 38208, 38215, 37815, 37532, 38003, 37974, 37741, 37910, 38138, 37974, 37888, 38458, 37833, 38186, 37637, 37690, 37702, 37406, 37943, 37803, 37427, 37927, 37676, 37943, 37799, 38177, 38050, 38128, 37979, 37877, 37650, 37984, 38152, 37973, 37998, 38287, 38165, 37982, 38302, 38088, 38326, 38183, 38036, 37778, 37643, 37565, 38106, 37865, 37736, 37971, 38118, 37846, 38226, 38249, 37910, 37782, 37789, 37904, 37916, 38228, 37797, 37828, 37813, 38006, 37924, 38095, 37869, 37896, 37966, 38199, 37909, 38067, 38041, 38044, 38075, 37778, 37943, 37469, 37866, 37705, 38183, 37808, 37830, 38090, 37924, 37954, 38227, 38101, 37909, 37972, 37784, 37940, 38203, 38152, 38007, 38147, 38215, 38260, 37604, 37882, 37993, 38228, 38168, 38261, 37933, 38112, 38076, 37906, 37564, 37499, 38054, 37875, 37757, 38014, 37998, 37802, 37976, 37858, 37979, 38005, 37861, 37773, 37680, 37998, 37815, 37919, 38116, 37935, 38187, 37863, 38048, 38171, 38127, 37891, 38045, 37958, 38189, 38015, 38281, 37903, 38104, 38312, 37913, 38111, 37802, 38059, 38143, 37635, 37846, 37524],
      "WindowCenter": [10182.0, 10141.0, 10127.0, 10122.0, 10130.0, 10119.0, 10122.0, 10119.0, 10126.0, 10114.0, 10108.0, 10112.0, 10099.0, 10107.0, 10114.0, 10140.0, 10154.0, 10143.0, 10116.0, 10111.0, 10111.0, 10131.0, 10109.0, 10104.0, 10113.0, 10098.0, 10088.0, 10084.0, 10102.0, 10096.0, 10103.0, 10086.0, 10080.0, 10078.0, 10053.0, 10067.0, 10065.0, 10075.0, 10094.0, 10085.0, 10098.0, 10095.0, 10107.0, 10092.0, 10104.0, 10088.0, 10089.0, 10087.0, 10110.0, 10112.0, 10114.0, 10112.0, 10105.0, 10120.0, 10105.0, 10120.0, 10105.0, 10115.0, 10112.0, 10117.0, 10117.0, 10135.0, 10110.0, 10106.0, 10079.0, 10095.0, 10109.0, 10128.0, 10113.0, 10093.0, 10073.0, 10069.0, 10068.0, 10081.0, 10099.0, 10108.0, 10111.0, 10093.0, 10093.0, 10095.0, 10111.0, 10111.0, 10103.0, 10097.0, 10106.0, 10102.0, 10116.0, 10101.0, 10106.0, 10096.0, 10113.0, 10098.0, 10105.0, 10109.0, 10114.0, 10100.0, 10090.0, 10084.0, 10084.0, 10086.0, 10095.0, 10095.0, 10086.0, 10095.0, 10102.0, 10114.0, 10112.0, 10124.0, 10106.0, 10103.0, 10080.0, 10094.0, 10094.0, 10112.0, 10122.0, 10139.0, 10138.0, 10116.0, 10111.0, 10107.0, 10130.0, 10127.0, 10125.0, 10098.0, 10085.0, 10070.0, 10074.0, 10094.0, 10106.0, 10124.0, 10107.0, 10111.0, 10104.0, 10111.0, 10113.0, 10113.0, 10103.0, 10104.0, 10090.0, 10088.0, 10095.0, 10093.0, 10111.0, 10110.0, 10116.0, 10105.0, 10103.0, 10104.0, 10126.0, 10136.0, 10134.0, 10108.0, 10099.0, 10088.0, 10103.0, 10099.0, 10122.0, 10115.0, 10121.0, 10122.0, 10124.0, 10108.0, 10113.0, 10104.0, 10098.0, 10105.0, 10120.0, 10114.0, 10115.0, 10090.0, 10079.0, 10082.0, 10111.0, 10130.0, 10125.0, 10104.0, 10088.0, 10075.0, 10099.0, 10097.0, 10122.0, 10111.0, 10103.0, 10102.0, 10115.0, 10105.0, 10110.0, 10096.0, 10095.0, 10104.0],
      "WindowWidth": [21691.0, 21575.0, 21533.0, 21513.0, 21527.0, 21496.0, 21501.0, 21493.0, 21514.0, 21484.0, 21473.0, 21477.0, 21453.0, 21470.0, 21485.0, 21546.0, 21575.0, 21552.0, 21488.0, 21473.0, 21475.0, 21524.0, 21467.0, 21457.0, 21478.0, 21445.0, 21422.0, 21411.0, 21452.0, 21441.0, 21454.0, 21417.0, 21403.0, 21399.0, 21341.0, 21373.0, 21364.0, 21390.0, 21434.0, 21414.0, 21448.0, 21437.0, 21468.0, 21435.0, 21460.0, 21423.0, 21426.0, 21422.0, 21473.0, 21480.0, 21487.0, 21478.0, 21464.0, 21499.0, 21465.0, 21498.0, 21464.0, 21490.0, 21480.0, 21495.0, 21494.0, 21535.0, 21478.0, 21465.0, 21402.0, 21439.0, 21470.0, 21512.0, 21480.0, 21436.0, 21389.0, 21378.0, 21379.0, 21407.0, 21447.0, 21466.0, 21474.0, 21433.0, 21432.0, 21438.0, 21476.0, 21476.0, 21460.0, 21447.0, 21467.0, 21459.0, 21487.0, 21455.0, 21463.0, 21441.0, 21480.0, 21447.0, 21462.0, 21469.0, 21483.0, 21454.0, 21428.0, 21412.0, 21413.0, 21420.0, 21438.0, 21441.0, 21420.0, 21442.0, 21454.0, 21486.0, 21480.0, 21510.0, 21464.0, 21455.0, 21404.0, 21434.0, 21436.0, 21479.0, 21502.0, 21541.0, 21538.0, 21489.0, 21475.0, 21471.0, 21520.0, 21517.0, 21508.0, 21445.0, 21413.0, 21382.0, 21391.0, 21439.0, 21468.0, 21507.0, 21468.0, 21474.0, 21460.0, 21475.0, 21481.0, 21482.0, 21456.0, 21459.0, 21430.0, 21426.0, 21440.0, 21435.0, 21476.0, 21472.0, 21488.0, 21462.0, 21458.0, 21462.0, 21515.0, 21539.0, 21528.0, 21468.0, 21446.0, 21422.0, 21456.0, 21450.0, 21502.0, 21487.0, 21501.0, 21502.0, 21509.0, 21469.0, 21480.0, 21457.0, 21447.0, 21461.0, 21497.0, 21483.0, 21484.0, 21426.0, 21401.0, 21407.0, 21477.0, 21519.0, 21508.0, 21454.0, 21422.0, 21390.0, 21446.0, 21448.0, 21502.0, 21475.0, 21457.0, 21455.0, 21487.0, 21459.0, 21467.0, 21439.0, 21436.0, 21461.0]
    },
    "slices": {}
  }
}