{
  "AcquisitionMatrixPE": 104,
  "AcquisitionNumber": 1,
  "AcquisitionTime": "13:39:50.845000",
  "BandwidthPerPixelPhaseEncode": 17.17,
  "BaseResolution": 104,
  "BodyPartExamined": "BRAIN",
  "CoilString": "HC1-7;NC1_2",
  "ConsistencyInfo": "N4_VE11C_LATEST_20160120",
  "ConversionSoftware": "dcm2niix",
  "ConversionSoftwareVersion": "v1.0.20190902",
  "DerivedVendorReportedEchoSpacing": 0.000560011,
  "DeviceSerialNumber": "167006",
  "DwellTime": 2.1e-06,
  "EchoTime": 0.037,
  "EchoTrainLength": 104,
  "EffectiveEchoSpacing": 0.000560011,
  "FlipAngle": 52,
  "HeudiconvVersion": "0.10.0",
  "ImageComments": "Unaliased_MB4_PE3_LB",
  "ImageOrientationPatientDICOM": [0.999648, 0.0153767, 0.0216191, -0.00977071, 0.971008, -0.238848],
  "ImageType": [
    "ORIGINAL",
    "PRIMARY",
    "M",
    "MB",
    "ND",
    "MOSAIC"
],
  "ImagingFrequency": 123.259,
  "InPlanePhaseEncodingDirectionDICOM": "COL",
  "InstitutionAddress": "Chemin_Queen-Mary_4565_Montreal_District_CA_H3W_1W5",
  "InstitutionName": "IUGM",
  "InstitutionalDepartmentName": "Department",
  "MRAcquisitionType": "2D",
  "MagneticFieldStrength": 3,
  "Manufacturer": "Siemens",
  "ManufacturersModelName": "Prisma_fit",
  "Modality": "MR",
  "MultibandAccelerationFactor": 4,
  "PartialFourier": 1,
  "PatientPosition": "HFS",
  "PercentPhaseFOV": 100,
  "PhaseEncodingDirection": "j",
  "PhaseEncodingSteps": 104,
  "PhaseResolution": 1,
  "PixelBandwidth": 2290,
  "ProcedureStepDescription": "memory_things",
  "ProtocolName": "func_task-things_run-3",
  "PulseSequenceDetails": "%CustomerSeq%_cmrr_mbep2d_bold",
  "ReceiveCoilActiveElements": "HC1-7;NC1,2",
  "ReceiveCoilName": "HeadNeck_64",
  "ReconMatrixPE": 104,
  "RepetitionTime": 1.49,
  "SAR": 0.0382758,
  "ScanOptions": "FS",
  "ScanningSequence": "EP",
  "SequenceName": "epfid2d1_104",
  "SequenceVariant": "SK_SS",
  "SeriesDescription": "func_task-things_run-3",
  "SeriesNumber": 16,
  "ShimSetting": [628, -7205, -8806, 724, 32, 9, 58, -9],
  "SliceThickness": 2,
  "SliceTiming": [0, 0.785, 0.0975, 0.8825, 0.195, 0.98, 0.295, 1.0775, 0.3925, 1.175, 0.49, 1.275, 0.5875, 1.3725, 0.685, 0, 0.785, 0.0975, 0.8825, 0.195, 0.98, 0.295, 1.0775, 0.3925, 1.175, 0.49, 1.275, 0.5875, 1.3725, 0.685, 0, 0.785, 0.0975, 0.8825, 0.195, 0.98, 0.295, 1.0775, 0.3925, 1.175, 0.49, 1.275, 0.5875, 1.3725, 0.685, 0, 0.785, 0.0975, 0.8825, 0.195, 0.98, 0.295, 1.0775, 0.3925, 1.175, 0.49, 1.275, 0.5875, 1.3725, 0.685],
  "SoftwareVersions": "syngo_MR_E11",
  "SpacingBetweenSlices": 2,
  "StationName": "MRC35049",
  "TaskName": "things",
  "TotalReadoutTime": 0.0576811,
  "TxRefAmp": 214.787,
  "WipMemBlock": "c0ba01a0-2ac2-4d76-8385-fb7e70376d92||Sequence: R016 ve11c/master r/e634e98; Dec 19 2017 11:00:25 by eja",
  "dcmmeta_affine": [
    [-1.9992960691452026, -0.019541412591934204, 0.04932994395494461, 108.52699279785156],
    [-0.03075346164405346, 1.9420158863067627, -0.4771045446395874, -73.57109832763672],
    [0.043238118290901184, 0.47769513726234436, 1.9416327476501465, -65.70069122314453],
    [0.0, 0.0, 0.0, 1.0]
],
  "dcmmeta_reorient_transform": [
    [0.0, -1.0, 0.0, 103.0],
    [1.0, 0.0, 0.0, 0.0],
    [0.0, 0.0, 1.0, 0.0],
    [0.0, 0.0, 0.0, 1.0]
],
  "dcmmeta_shape": [104, 104, 60, 190],
  "dcmmeta_slice_dim": 2,
  "dcmmeta_version": 0.6,
  "global": {
    "const": {
      "AcquisitionMatrix": [104, 0, 0, 104],
      "AngioFlag": "N",
      "BitsAllocated": 16,
      "BitsStored": 16,
      "BodyPartExamined": "BRAIN",
      "Columns": 832,
      "EchoNumbers": 1,
      "EchoTime": 37.0,
      "EchoTrainLength": 104,
      "FlipAngle": 52.0,
      "HighBit": 15,
      "ImageOrientationPatient": [0.99964802429832, 0.01537673036675, 0.02161905825191, -0.0097707063123, 0.97100791427313, -0.2388475742333],
      "ImagePositionPatient": [-827.14491464836, -844.5445543239, 141.64427010239],
      "ImageType": [
        "ORIGINAL",
        "PRIMARY",
        "M",
        "MB",
        "ND",
        "MOSAIC"
],
      "ImagedNucleus": "1H",
      "ImagingFrequency": 123.258903,
      "InPlanePhaseEncodingDirection": "COL",
      "MRAcquisitionType": "2D",
      "MagneticFieldStrength": 3.0,
      "Manufacturer": "SIEMENS",
      "ManufacturerModelName": "Prisma_fit",
      "Modality": "MR",
      "NumberOfAverages": 1.0,
      "NumberOfPhaseEncodingSteps": 104,
      "PercentPhaseFieldOfView": 100.0,
      "PercentSampling": 100.0,
      "PerformedProcedureStepStartTime": "114940.267000",
      "PhotometricInterpretation": "MONOCHROME2",
      "PixelBandwidth": 2290.0,
      "PixelRepresentation": 0,
      "PixelSpacing": [2.0, 2.0],
      "ProtocolName": "func_task-things_run-3",
      "RepetitionTime": 1490.0,
      "Rows": 832,
      "SAR": 0.03827578318543,
      "SamplesPerPixel": 1,
      "ScanOptions": "FS",
      "ScanningSequence": "EP",
      "SequenceName": "epfid2d1_104",
      "SequenceVariant": [
        "SK",
        "SS"
],
      "SeriesDescription": "func_task-things_run-3",
      "SeriesNumber": 16,
      "SeriesTime": "134115.549000",
      "SliceLocation": -43.555938555445,
      "SliceThickness": 2.0,
      "SmallestImagePixelValue": 0,
      "SoftwareVersions": "syngo MR E11",
      "SpacingBetweenSlices": 1.9999999787322,
      "SpecificCharacterSet": "ISO_IR 100",
      "StudyID": "1",
      "StudyTime": "114940.189000",
      "TransmitCoilName": "Body",
      "VariableFlipAngleFlag": "N",
      "WindowCenterWidthExplanation": "Algo1",
      "dBdt": 0.0},
    "slices": {}
  },
  "time": {
    "samples": {
      "AcquisitionNumber": [1, 2, 3, 4, 5, 6, 7, 8, 9, 10, 11, 12, 13, 14, 15, 16, 17, 18, 19, 20, 21, 22, 23, 24, 25, 26, 27, 28, 29, 30, 31, 32, 33, 34, 35, 36, 37, 38, 39, 40, 41, 42, 43, 44, 45, 46, 47, 48, 49, 50, 51, 52, 53, 54, 55, 56, 57, 58, 59, 60, 61, 62, 63, 64, 65, 66, 67, 68, 69, 70, 71, 72, 73, 74, 75, 76, 77, 78, 79, 80, 81, 82, 83, 84, 85, 86, 87, 88, 89, 90, 91, 92, 93, 94, 95, 96, 97, 98, 99, 100, 101, 102, 103, 104, 105, 106, 107, 108, 109, 110, 111, 112, 113, 114, 115, 116, 117, 118, 119, 120, 121, 122, 123, 124, 125, 126, 127, 128, 129, 130, 131, 132, 133, 134, 135, 136, 137, 138, 139, 140, 141, 142, 143, 144, 145, 146, 147, 148, 149, 150, 151, 152, 153, 154, 155, 156, 157, 158, 159, 160, 161, 162, 163, 164, 165, 166, 167, 168, 169, 170, 171, 172, 173, 174, 175, 176, 177, 178, 179, 180, 181, 182, 183, 184, 185, 186, 187, 188, 189, 190],
      "AcquisitionTime": ["133950.845000", "133952.335000", "133953.825000", "133955.315000", "133956.805000", "133958.295000", "133959.785000", "134001.275000", "134002.765000", "134004.255000", "134005.745000", "134007.235000", "134008.725000", "134010.215000", "134011.705000", "134013.195000", "134014.685000", "134016.175000", "134017.665000", "134019.155000", "134020.645000", "134022.135000", "134023.625000", "134025.115000", "134026.605000", "134028.095000", "134029.585000", "134031.075000", "134032.565000", "134034.055000", "134035.545000", "134037.035000", "134038.525000", "134040.015000", "134041.505000", "134042.995000", "134044.485000", "134045.975000", "134047.465000", "134048.955000", "134050.445000", "134051.935000", "134053.425000", "134054.915000", "134056.405000", "134057.895000", "134059.385000", "134100.875000", "134102.365000", "134103.855000", "134105.345000", "134106.835000", "134108.325000", "134109.815000", "134111.305000", "134112.795000", "134114.285000", "134115.775000", "134117.265000", "134118.755000", "134120.245000", "134121.735000", "134123.225000", "134124.715000", "134126.205000", "134127.695000", "134129.185000", "134130.675000", "134132.165000", "134133.655000", "134135.145000", "134136.635000", "134138.125000", "134139.615000", "134141.105000", "134142.595000", "134144.085000", "134145.575000", "134147.065000", "134148.555000", "134150.045000", "134151.535000", "134153.025000", "134154.515000", "134156.005000", "134157.495000", "134158.985000", "134200.475000", "134201.965000", "134203.455000", "134204.945000", "134206.435000", "134207.925000", "134209.415000", "134210.905000", "134212.395000", "134213.885000", "134215.375000", "134216.865000", "134218.355000", "134219.845000", "134221.335000", "134222.825000", "134224.315000", "134225.805000", "134227.295000", "134228.785000", "134230.275000", "134231.765000", "134233.255000", "134234.745000", "134236.235000", "134237.725000", "134239.215000", "134240.705000", "134242.195000", "134243.685000", "134245.175000", "134246.665000", "134248.155000", "134249.645000", "134251.135000", "134252.625000", "134254.115000", "134255.605000", "134257.095000", "134258.585000", "134300.075000", "134301.565000", "134303.055000", "134304.545000", "134306.035000", "134307.525000", "134309.015000", "134310.505000", "134311.995000", "134313.485000", "134314.975000", "134316.465000", "134317.955000", "134319.445000", "134320.935000", "134322.425000", "134323.915000", "134325.405000", "134326.895000", "134328.385000", "134329.875000", "134331.365000", "134332.855000", "134334.345000", "134335.835000", "134337.325000", "134338.815000", "134340.305000", "134341.795000", "134343.285000", "134344.775000", "134346.265000", "134347.755000", "134349.245000", "134350.735000", "134352.225000", "134353.715000", "134355.205000", "134356.695000", "134358.185000", "134359.675000", "134401.165000", "134402.655000", "134404.145000", "134405.635000", "134407.125000", "134408.615000", "134410.105000", "134411.595000", "134413.085000", "134414.575000", "134416.065000", "134417.555000", "134419.045000", "134420.535000", "134422.025000", "134423.515000", "134425.005000", "134426.495000", "134427.985000", "134429.475000", "134430.965000", "134432.455000"],
      "ContentTime": ["134115.552000", "134115.556000", "134115.559000", "134115.562000", "134115.566000", "134115.569000", "134115.573000", "134115.577000", "134115.591000", "134115.595000", "134115.598000", "134115.602000", "134115.605000", "134115.609000", "134115.612000", "134115.615000", "134115.619000", "134115.622000", "134115.625000", "134115.628000", "134115.632000", "134115.635000", "134115.639000", "134115.642000", "134115.645000", "134115.648000", "134115.651000", "134115.655000", "134135.514000", "134135.518000", "134135.521000", "134135.525000", "134135.528000", "134135.531000", "134135.534000", "134135.538000", "134135.541000", "134135.544000", "134135.547000", "134135.558000", "134135.561000", "134135.564000", "134135.568000", "134135.571000", "134135.575000", "134135.578000", "134135.581000", "134135.585000", "134155.514000", "134155.518000", "134155.521000", "134155.530000", "134155.533000", "134155.536000", "134155.539000", "134155.543000", "134155.546000", "134155.549000", "134155.553000", "134155.556000", "134155.559000", "134155.562000", "134155.566000", "134155.569000", "134155.572000", "134155.576000", "134155.579000", "134155.582000", "134155.586000", "134215.514000", "134215.521000", "134215.525000", "134215.528000", "134215.531000", "134215.535000", "134215.538000", "134215.541000", "134215.545000", "134215.548000", "134215.551000", "134215.555000", "134215.558000", "134215.561000", "134215.564000", "134215.568000", "134215.590000", "134215.593000", "134215.596000", "134215.600000", "134235.515000", "134235.519000", "134235.522000", "134235.526000", "134235.529000", "134235.532000", "134235.535000", "134235.539000", "134235.542000", "134235.546000", "134235.549000", "134235.552000", "134235.555000", "134235.559000", "134235.562000", "134235.565000", "134235.569000", "134235.572000", "134235.575000", "134235.579000", "134315.514000", "134315.518000", "134315.521000", "134315.525000", "134315.528000", "134315.531000", "134315.535000", "134315.538000", "134315.541000", "134315.545000", "134315.548000", "134315.551000", "134315.555000", "134315.558000", "134315.561000", "134315.565000", "134315.568000", "134315.571000", "134315.575000", "134315.578000", "134315.581000", "134315.585000", "134315.588000", "134315.591000", "134315.595000", "134315.598000", "134315.601000", "134315.605000", "134355.514000", "134355.518000", "134355.521000", "134355.525000", "134355.528000", "134355.532000", "134355.535000", "134355.538000", "134355.542000", "134355.545000", "134355.548000", "134355.552000", "134355.555000", "134355.558000", "134355.561000", "134355.565000", "134355.568000", "134355.572000", "134355.575000", "134355.578000", "134355.582000", "134355.585000", "134355.588000", "134355.592000", "134355.595000", "134355.598000", "134355.602000", "134415.514000", "134415.518000", "134415.521000", "134415.524000", "134415.528000", "134415.531000", "134415.534000", "134415.537000", "134415.541000", "134415.544000", "134415.547000", "134415.551000", "134415.554000", "134434.247000", "134434.251000", "134434.254000", "134434.257000", "134434.266000", "134434.270000", "134434.274000", "134434.277000", "134434.281000", "134434.284000", "134434.287000", "134434.291000", "134434.294000"],
      "InstanceCreationTime": ["134115.552000", "134115.556000", "134115.559000", "134115.562000", "134115.566000", "134115.569000", "134115.573000", "134115.577000", "134115.591000", "134115.595000", "134115.598000", "134115.602000", "134115.605000", "134115.609000", "134115.612000", "134115.615000", "134115.619000", "134115.622000", "134115.625000", "134115.628000", "134115.632000", "134115.635000", "134115.639000", "134115.642000", "134115.645000", "134115.648000", "134115.651000", "134115.655000", "134135.514000", "134135.518000", "134135.521000", "134135.525000", "134135.528000", "134135.531000", "134135.534000", "134135.538000", "134135.541000", "134135.544000", "134135.547000", "134135.558000", "134135.561000", "134135.564000", "134135.568000", "134135.571000", "134135.575000", "134135.578000", "134135.581000", "134135.585000", "134155.514000", "134155.518000", "134155.521000", "134155.530000", "134155.533000", "134155.536000", "134155.539000", "134155.543000", "134155.546000", "134155.549000", "134155.553000", "134155.556000", "134155.559000", "134155.562000", "134155.566000", "134155.569000", "134155.572000", "134155.576000", "134155.579000", "134155.582000", "134155.586000", "134215.514000", "134215.521000", "134215.525000", "134215.528000", "134215.531000", "134215.535000", "134215.538000", "134215.541000", "134215.545000", "134215.548000", "134215.551000", "134215.555000", "134215.558000", "134215.561000", "134215.564000", "134215.568000", "134215.590000", "134215.593000", "134215.596000", "134215.600000", "134235.515000", "134235.519000", "134235.522000", "134235.526000", "134235.529000", "134235.532000", "134235.535000", "134235.539000", "134235.542000", "134235.546000", "134235.549000", "134235.552000", "134235.555000", "134235.559000", "134235.562000", "134235.565000", "134235.569000", "134235.572000", "134235.575000", "134235.579000", "134315.514000", "134315.518000", "134315.521000", "134315.525000", "134315.528000", "134315.531000", "134315.535000", "134315.538000", "134315.541000", "134315.545000", "134315.548000", "134315.551000", "134315.555000", "134315.558000", "134315.561000", "134315.565000", "134315.568000", "134315.571000", "134315.575000", "134315.578000", "134315.581000", "134315.585000", "134315.588000", "134315.591000", "134315.595000", "134315.598000", "134315.601000", "134315.605000", "134355.514000", "134355.518000", "134355.521000", "134355.525000", "134355.528000", "134355.532000", "134355.535000", "134355.538000", "134355.542000", "134355.545000", "134355.548000", "134355.552000", "134355.555000", "134355.558000", "134355.561000", "134355.565000", "134355.568000", "134355.572000", "134355.575000", "134355.578000", "134355.582000", "134355.585000", "134355.588000", "134355.592000", "134355.595000", "134355.598000", "134355.602000", "134415.514000", "134415.518000", "134415.521000", "134415.524000", "134415.528000", "134415.531000", "134415.534000", "134415.537000", "134415.541000", "134415.544000", "134415.547000", "134415.551000", "134415.554000", "134434.247000", "134434.251000", "134434.254000", "134434.257000", "134434.266000", "134434.270000", "134434.274000", "134434.277000", "134434.281000", "134434.284000", "134434.287000", "134434.291000", "134434.294000"],
      "InstanceNumber": [1, 2, 3, 4, 5, 6, 7, 8, 9, 10, 11, 12, 13, 14, 15, 16, 17, 18, 19, 20, 21, 22, 23, 24, 25, 26, 27, 28, 29, 30, 31, 32, 33, 34, 35, 36, 37, 38, 39, 40, 41, 42, 43, 44, 45, 46, 47, 48, 49, 50, 51, 52, 53, 54, 55, 56, 57, 58, 59, 60, 61, 62, 63, 64, 65, 66, 67, 68, 69, 70, 71, 72, 73, 74, 75, 76, 77, 78, 79, 80, 81, 82, 83, 84, 85, 86, 87, 88, 89, 90, 91, 92, 93, 94, 95, 96, 97, 98, 99, 100, 101, 102, 103, 104, 105, 106, 107, 108, 109, 110, 111, 112, 113, 114, 115, 116, 117, 118, 119, 120, 121, 122, 123, 124, 125, 126, 127, 128, 129, 130, 131, 132, 133, 134, 135, 136, 137, 138, 139, 140, 141, 142, 143, 144, 145, 146, 147, 148, 149, 150, 151, 152, 153, 154, 155, 156, 157, 158, 159, 160, 161, 162, 163, 164, 165, 166, 167, 168, 169, 170, 171, 172, 173, 174, 175, 176, 177, 178, 179, 180, 181, 182, 183, 184, 185, 186, 187, 188, 189, 190],
      "LargestImagePixelValue": [40953, 40009, 38930, 38352, 38398, 38251, 38552, 37885, 38908, 37994, 38774, 38467, 38343, 38578, 38161, 38613, 38388, 38845, 38139, 38416, 38029, 38372, 38232, 38370, 38503, 38355, 38633, 38496, 38473, 38241, 38729, 37862, 38237, 38158, 38404, 38620, 38330, 38620, 38256, 38545, 38302, 38679, 38380, 38244, 38589, 38523, 38370, 38352, 38508, 38089, 38507, 38627, 38536, 38240, 38781, 38312, 38532, 38161, 38176, 38599, 38275, 38784, 38078, 38729, 37870, 38956, 38438, 38199, 38411, 38123, 38531, 38200, 38615, 38288, 38980, 38415, 38908, 38651, 38334, 38204, 37951, 38241, 38408, 38405, 38370, 38015, 38137, 38310, 38563, 38428, 38241, 38577, 38659, 38332, 37979, 37992, 38068, 38535, 38354, 38374, 38521, 38097, 38541, 38156, 38031, 37914, 38179, 38164, 38137, 38547, 38192, 38458, 38438, 38489, 37829, 37812, 37874, 38349, 38528, 38586, 38102, 38140, 37883, 37996, 38145, 38695, 38171, 38053, 38225, 38750, 38372, 38364, 38314, 38204, 37953, 38041, 38132, 38164, 38034, 38349, 37711, 37867, 37986, 38091, 37585, 37994, 37692, 38124, 38089, 38326, 38225, 37989, 37932, 38186, 38263, 38279, 37551, 37780, 38025, 38005, 38333, 38270, 38697, 38215, 38129, 38338, 38075, 38026, 38237, 38116, 37881, 38032, 37893, 38213, 37974, 38003, 38178, 38024, 37908, 37512, 37778, 37733, 38293, 38165, 37918, 38069, 38022, 38384, 37907, 37470],
      "WindowCenter": [10169.0, 10145.0, 10123.0, 10113.0, 10121.0, 10118.0, 10128.0, 10116.0, 10118.0, 10117.0, 10133.0, 10137.0, 10129.0, 10134.0, 10118.0, 10131.0, 10134.0, 10142.0, 10122.0, 10119.0, 10104.0, 10115.0, 10110.0, 10110.0, 10103.0, 10092.0, 10098.0, 10099.0, 10116.0, 10117.0, 10125.0, 10112.0, 10109.0, 10092.0, 10100.0, 10113.0, 10106.0, 10098.0, 10090.0, 10098.0, 10100.0, 10114.0, 10098.0, 10090.0, 10089.0, 10091.0, 10109.0, 10125.0, 10125.0, 10102.0, 10100.0, 10092.0, 10101.0, 10125.0, 10159.0, 10137.0, 10119.0, 10088.0, 10068.0, 10072.0, 10079.0, 10100.0, 10093.0, 10093.0, 10077.0, 10096.0, 10106.0, 10094.0, 10099.0, 10076.0, 10074.0, 10068.0, 10082.0, 10082.0, 10096.0, 10083.0, 10096.0, 10099.0, 10109.0, 10111.0, 10112.0, 10103.0, 10117.0, 10118.0, 10112.0, 10096.0, 10102.0, 10117.0, 10123.0, 10112.0, 10100.0, 10107.0, 10117.0, 10126.0, 10121.0, 10113.0, 10104.0, 10117.0, 10112.0, 10109.0, 10107.0, 10109.0, 10121.0, 10121.0, 10106.0, 10088.0, 10087.0, 10096.0, 10096.0, 10101.0, 10093.0, 10117.0, 10128.0, 10145.0, 10116.0, 10106.0, 10081.0, 10084.0, 10092.0, 10114.0, 10111.0, 10104.0, 10080.0, 10076.0, 10090.0, 10123.0, 10119.0, 10115.0, 10105.0, 10110.0, 10101.0, 10110.0, 10119.0, 10123.0, 10122.0, 10115.0, 10103.0, 10102.0, 10101.0, 10111.0, 10106.0, 10121.0, 10121.0, 10124.0, 10116.0, 10122.0, 10108.0, 10114.0, 10113.0, 10128.0, 10121.0, 10115.0, 10097.0, 10104.0, 10117.0, 10121.0, 10107.0, 10107.0, 10113.0, 10098.0, 10103.0, 10112.0, 10129.0, 10124.0, 10107.0, 10098.0, 10097.0, 10106.0, 10121.0, 10122.0, 10115.0, 10107.0, 10100.0, 10097.0, 10096.0, 10096.0, 10103.0, 10112.0, 10122.0, 10122.0, 10101.0, 10098.0, 10104.0, 10114.0, 10108.0, 10097.0, 10107.0, 10134.0, 10138.0, 10128.0],
      "WindowWidth": [21655.0, 21578.0, 21517.0, 21487.0, 21502.0, 21492.0, 21516.0, 21491.0, 21493.0, 21487.0, 21525.0, 21538.0, 21520.0, 21526.0, 21493.0, 21520.0, 21527.0, 21545.0, 21501.0, 21494.0, 21459.0, 21480.0, 21472.0, 21470.0, 21457.0, 21431.0, 21443.0, 21443.0, 21483.0, 21484.0, 21504.0, 21479.0, 21469.0, 21430.0, 21447.0, 21474.0, 21460.0, 21441.0, 21423.0, 21441.0, 21447.0, 21476.0, 21441.0, 21424.0, 21421.0, 21430.0, 21473.0, 21508.0, 21504.0, 21451.0, 21447.0, 21428.0, 21453.0, 21506.0, 21585.0, 21534.0, 21489.0, 21420.0, 21375.0, 21384.0, 21398.0, 21451.0, 21437.0, 21433.0, 21400.0, 21438.0, 21460.0, 21434.0, 21443.0, 21390.0, 21386.0, 21374.0, 21404.0, 21405.0, 21434.0, 21407.0, 21437.0, 21445.0, 21468.0, 21476.0, 21477.0, 21458.0, 21488.0, 21490.0, 21475.0, 21442.0, 21453.0, 21485.0, 21497.0, 21475.0, 21446.0, 21461.0, 21488.0, 21508.0, 21499.0, 21480.0, 21459.0, 21488.0, 21477.0, 21468.0, 21463.0, 21470.0, 21498.0, 21497.0, 21462.0, 21421.0, 21420.0, 21441.0, 21441.0, 21451.0, 21433.0, 21488.0, 21516.0, 21555.0, 21491.0, 21464.0, 21407.0, 21412.0, 21430.0, 21478.0, 21471.0, 21457.0, 21402.0, 21393.0, 21425.0, 21500.0, 21492.0, 21486.0, 21460.0, 21468.0, 21449.0, 21471.0, 21489.0, 21501.0, 21498.0, 21484.0, 21454.0, 21454.0, 21448.0, 21474.0, 21465.0, 21497.0, 21498.0, 21505.0, 21489.0, 21502.0, 21470.0, 21482.0, 21479.0, 21512.0, 21496.0, 21484.0, 21441.0, 21457.0, 21484.0, 21498.0, 21469.0, 21471.0, 21482.0, 21449.0, 21458.0, 21478.0, 21516.0, 21506.0, 21466.0, 21443.0, 21441.0, 21464.0, 21495.0, 21499.0, 21481.0, 21466.0, 21450.0, 21443.0, 21439.0, 21441.0, 21457.0, 21478.0, 21502.0, 21506.0, 21455.0, 21444.0, 21457.0, 21483.0, 21470.0, 21442.0, 21462.0, 21528.0, 21537.0, 21515.0]
    },
    "slices": {}
  }
}