{
  "AcquisitionMatrixPE": 104,
  "AcquisitionNumber": 1,
  "AcquisitionTime": "11:19:35.445000",
  "BandwidthPerPixelPhaseEncode": 17.17,
  "BaseResolution": 104,
  "BodyPartExamined": "BRAIN",
  "CoilString": "HC1-7;NC1_2",
  "ConsistencyInfo": "N4_VE11C_LATEST_20160120",
  "ConversionSoftware": "dcm2niix",
  "ConversionSoftwareVersion": "v1.0.20190902",
  "DerivedVendorReportedEchoSpacing": 0.000560011,
  "DeviceSerialNumber": "167006",
  "DwellTime": 2.1e-06,
  "EchoTime": 0.037,
  "EchoTrainLength": 104,
  "EffectiveEchoSpacing": 0.000560011,
  "FlipAngle": 52,
  "HeudiconvVersion": "0.10.0",
  "ImageComments": "Unaliased_MB4_PE3_LB",
  "ImageOrientationPatientDICOM": [0.999763, 0.014328, 0.0163963, -0.00383882, 0.85719, -0.514986],
  "ImageType": [
    "ORIGINAL",
    "PRIMARY",
    "M",
    "MB",
    "ND",
    "MOSAIC"
],
  "ImagingFrequency": 123.259,
  "InPlanePhaseEncodingDirectionDICOM": "COL",
  "InstitutionAddress": "Chemin_Queen-Mary_4565_Montreal_District_CA_H3W_1W5",
  "InstitutionName": "IUGM",
  "InstitutionalDepartmentName": "Department",
  "MRAcquisitionType": "2D",
  "MagneticFieldStrength": 3,
  "Manufacturer": "Siemens",
  "ManufacturersModelName": "Prisma_fit",
  "Modality": "MR",
  "MultibandAccelerationFactor": 4,
  "PartialFourier": 1,
  "PatientPosition": "HFS",
  "PercentPhaseFOV": 100,
  "PhaseEncodingDirection": "j",
  "PhaseEncodingSteps": 104,
  "PhaseResolution": 1,
  "PixelBandwidth": 2290,
  "ProcedureStepDescription": "memory_things",
  "ProtocolName": "func_task-things_run-6",
  "PulseSequenceDetails": "%CustomerSeq%_cmrr_mbep2d_bold",
  "ReceiveCoilActiveElements": "HC1-7;NC1,2",
  "ReceiveCoilName": "HeadNeck_64",
  "ReconMatrixPE": 104,
  "RepetitionTime": 1.49,
  "SAR": 0.0482169,
  "ScanOptions": "FS",
  "ScanningSequence": "EP",
  "SequenceName": "epfid2d1_104",
  "SequenceVariant": "SK_SS",
  "SeriesDescription": "func_task-things_run-6",
  "SeriesNumber": 25,
  "ShimSetting": [619, -7187, -8865, 285, 16, -164, -19, -26],
  "SliceThickness": 2,
  "SliceTiming": [0, 0.785, 0.1, 0.8825, 0.1975, 0.98, 0.295, 1.08, 0.3925, 1.1775, 0.49, 1.275, 0.59, 1.3725, 0.6875, 0, 0.785, 0.1, 0.8825, 0.1975, 0.98, 0.295, 1.08, 0.3925, 1.1775, 0.49, 1.275, 0.59, 1.3725, 0.6875, 0, 0.785, 0.1, 0.8825, 0.1975, 0.98, 0.295, 1.08, 0.3925, 1.1775, 0.49, 1.275, 0.59, 1.3725, 0.6875, 0, 0.785, 0.1, 0.8825, 0.1975, 0.98, 0.295, 1.08, 0.3925, 1.1775, 0.49, 1.275, 0.59, 1.3725, 0.6875],
  "SoftwareVersions": "syngo_MR_E11",
  "SpacingBetweenSlices": 2,
  "StationName": "MRC35049",
  "TaskName": "things",
  "TotalReadoutTime": 0.0576811,
  "TxRefAmp": 265.243,
  "WipMemBlock": "353303ee-369b-4ba0-b7c7-70cef33938e5||Sequence: R016 ve11c/master r/e634e98; Dec 19 2017 11:00:25 by eja",
  "dcmmeta_affine": [
    [-1.999525785446167, -0.0076776412315666676, 0.04286693036556244, 106.66427612304688],
    [-0.028655918315052986, 1.7143802642822266, -1.0296014547348022, -48.91892623901367],
    [0.032792653888463974, 1.0299714803695679, 1.7140837907791138, -94.829833984375],
    [0.0, 0.0, 0.0, 1.0]
],
  "dcmmeta_reorient_transform": [
    [0.0, -1.0, 0.0, 103.0],
    [1.0, 0.0, 0.0, 0.0],
    [0.0, 0.0, 1.0, 0.0],
    [0.0, 0.0, 0.0, 1.0]
],
  "dcmmeta_shape": [104, 104, 60, 190],
  "dcmmeta_slice_dim": 2,
  "dcmmeta_version": 0.6,
  "global": {
    "const": {
      "AcquisitionMatrix": [104, 0, 0, 104],
      "AngioFlag": "N",
      "BitsAllocated": 16,
      "BitsStored": 16,
      "BodyPartExamined": "BRAIN",
      "Columns": 832,
      "EchoNumbers": 1,
      "EchoTime": 37.0,
      "EchoTrainLength": 104,
      "FlipAngle": 52.0,
      "HighBit": 15,
      "ImageOrientationPatient": [0.99976290691307, 0.01432795936255, 0.01639632706552, -0.0038388205889, 0.85719013529491, -0.5149857623368],
      "ImagePositionPatient": [-830.90621764645, -762.12741541175, 374.23034080973],
      "ImageType": [
        "ORIGINAL",
        "PRIMARY",
        "M",
        "MB",
        "ND",
        "MOSAIC"
],
      "ImagedNucleus": "1H",
      "ImagingFrequency": 123.258896,
      "InPlanePhaseEncodingDirection": "COL",
      "MRAcquisitionType": "2D",
      "MagneticFieldStrength": 3.0,
      "Manufacturer": "SIEMENS",
      "ManufacturerModelName": "Prisma_fit",
      "Modality": "MR",
      "NumberOfAverages": 1.0,
      "NumberOfPhaseEncodingSteps": 104,
      "PercentPhaseFieldOfView": 100.0,
      "PercentSampling": 100.0,
      "PerformedProcedureStepStartTime": "095205.017000",
      "PhotometricInterpretation": "MONOCHROME2",
      "PixelBandwidth": 2290.0,
      "PixelRepresentation": 0,
      "PixelSpacing": [2.0, 2.0],
      "ProtocolName": "func_task-things_run-6",
      "RepetitionTime": 1490.0,
      "Rows": 832,
      "SAR": 0.04821690132269,
      "SamplesPerPixel": 1,
      "ScanOptions": "FS",
      "ScanningSequence": "EP",
      "SequenceName": "epfid2d1_104",
      "SequenceVariant": [
        "SK",
        "SS"
],
      "SeriesDescription": "func_task-things_run-6",
      "SeriesNumber": 25,
      "SeriesTime": "112059.657000",
      "SliceLocation": -53.803459319363,
      "SliceThickness": 2.0,
      "SmallestImagePixelValue": 0,
      "SoftwareVersions": "syngo MR E11",
      "SpacingBetweenSlices": 1.9999999776776,
      "SpecificCharacterSet": "ISO_IR 100",
      "StudyID": "1",
      "StudyTime": "095204.927000",
      "TransmitCoilName": "Body",
      "VariableFlipAngleFlag": "N",
      "WindowCenterWidthExplanation": "Algo1",
      "dBdt": 0.0},
    "slices": {}
  },
  "time": {
    "samples": {
      "AcquisitionNumber": [1, 2, 3, 4, 5, 6, 7, 8, 9, 10, 11, 12, 13, 14, 15, 16, 17, 18, 19, 20, 21, 22, 23, 24, 25, 26, 27, 28, 29, 30, 31, 32, 33, 34, 35, 36, 37, 38, 39, 40, 41, 42, 43, 44, 45, 46, 47, 48, 49, 50, 51, 52, 53, 54, 55, 56, 57, 58, 59, 60, 61, 62, 63, 64, 65, 66, 67, 68, 69, 70, 71, 72, 73, 74, 75, 76, 77, 78, 79, 80, 81, 82, 83, 84, 85, 86, 87, 88, 89, 90, 91, 92, 93, 94, 95, 96, 97, 98, 99, 100, 101, 102, 103, 104, 105, 106, 107, 108, 109, 110, 111, 112, 113, 114, 115, 116, 117, 118, 119, 120, 121, 122, 123, 124, 125, 126, 127, 128, 129, 130, 131, 132, 133, 134, 135, 136, 137, 138, 139, 140, 141, 142, 143, 144, 145, 146, 147, 148, 149, 150, 151, 152, 153, 154, 155, 156, 157, 158, 159, 160, 161, 162, 163, 164, 165, 166, 167, 168, 169, 170, 171, 172, 173, 174, 175, 176, 177, 178, 179, 180, 181, 182, 183, 184, 185, 186, 187, 188, 189, 190],
      "AcquisitionTime": ["111935.445000", "111936.935000", "111938.425000", "111939.915000", "111941.405000", "111942.895000", "111944.385000", "111945.875000", "111947.365000", "111948.855000", "111950.345000", "111951.835000", "111953.325000", "111954.815000", "111956.305000", "111957.795000", "111959.285000", "112000.775000", "112002.265000", "112003.755000", "112005.245000", "112006.735000", "112008.225000", "112009.715000", "112011.205000", "112012.695000", "112014.185000", "112015.675000", "112017.165000", "112018.655000", "112020.145000", "112021.635000", "112023.125000", "112024.615000", "112026.105000", "112027.595000", "112029.085000", "112030.575000", "112032.065000", "112033.555000", "112035.045000", "112036.535000", "112038.025000", "112039.515000", "112041.005000", "112042.495000", "112043.985000", "112045.475000", "112046.965000", "112048.455000", "112049.945000", "112051.435000", "112052.925000", "112054.415000", "112055.905000", "112057.395000", "112058.885000", "112100.375000", "112101.865000", "112103.355000", "112104.845000", "112106.335000", "112107.825000", "112109.315000", "112110.805000", "112112.295000", "112113.785000", "112115.275000", "112116.765000", "112118.255000", "112119.745000", "112121.235000", "112122.725000", "112124.215000", "112125.705000", "112127.195000", "112128.685000", "112130.175000", "112131.665000", "112133.155000", "112134.645000", "112136.135000", "112137.625000", "112139.115000", "112140.605000", "112142.095000", "112143.585000", "112145.075000", "112146.565000", "112148.055000", "112149.545000", "112151.035000", "112152.525000", "112154.015000", "112155.505000", "112156.995000", "112158.485000", "112159.975000", "112201.465000", "112202.955000", "112204.445000", "112205.935000", "112207.425000", "112208.915000", "112210.405000", "112211.895000", "112213.385000", "112214.875000", "112216.365000", "112217.855000", "112219.345000", "112220.835000", "112222.325000", "112223.815000", "112225.305000", "112226.795000", "112228.285000", "112229.775000", "112231.265000", "112232.755000", "112234.245000", "112235.735000", "112237.225000", "112238.715000", "112240.205000", "112241.695000", "112243.185000", "112244.675000", "112246.165000", "112247.655000", "112249.145000", "112250.635000", "112252.125000", "112253.615000", "112255.105000", "112256.595000", "112258.085000", "112259.575000", "112301.065000", "112302.555000", "112304.045000", "112305.535000", "112307.025000", "112308.515000", "112310.005000", "112311.495000", "112312.985000", "112314.475000", "112315.965000", "112317.455000", "112318.945000", "112320.435000", "112321.925000", "112323.415000", "112324.905000", "112326.395000", "112327.885000", "112329.375000", "112330.865000", "112332.355000", "112333.845000", "112335.335000", "112336.825000", "112338.315000", "112339.805000", "112341.295000", "112342.785000", "112344.275000", "112345.765000", "112347.255000", "112348.745000", "112350.235000", "112351.725000", "112353.215000", "112354.705000", "112356.195000", "112357.685000", "112359.175000", "112400.665000", "112402.155000", "112403.645000", "112405.135000", "112406.625000", "112408.115000", "112409.605000", "112411.095000", "112412.585000", "112414.075000", "112415.565000", "112417.055000"],
      "ContentTime": ["112059.660000", "112059.664000", "112059.668000", "112059.671000", "112059.674000", "112059.678000", "112059.689000", "112059.692000", "112059.695000", "112059.699000", "112059.702000", "112059.705000", "112059.709000", "112059.712000", "112059.715000", "112059.719000", "112059.722000", "112059.725000", "112059.729000", "112059.732000", "112059.735000", "112059.739000", "112059.742000", "112059.745000", "112059.749000", "112059.752000", "112059.755000", "112059.759000", "112119.626000", "112119.630000", "112119.633000", "112119.637000", "112119.640000", "112119.644000", "112119.647000", "112119.650000", "112119.654000", "112119.657000", "112119.660000", "112119.664000", "112119.667000", "112119.671000", "112119.674000", "112119.677000", "112119.680000", "112119.684000", "112119.687000", "112119.691000", "112139.626000", "112139.630000", "112139.633000", "112139.637000", "112139.640000", "112139.643000", "112139.647000", "112139.650000", "112139.653000", "112139.657000", "112139.660000", "112139.663000", "112139.666000", "112139.670000", "112139.673000", "112139.683000", "112139.686000", "112139.690000", "112139.693000", "112139.696000", "112159.626000", "112159.630000", "112159.633000", "112159.637000", "112159.640000", "112159.644000", "112159.647000", "112159.650000", "112159.654000", "112159.657000", "112159.661000", "112159.664000", "112159.667000", "112159.670000", "112159.674000", "112159.677000", "112159.680000", "112159.684000", "112159.687000", "112159.690000", "112219.627000", "112219.631000", "112219.634000", "112219.638000", "112219.641000", "112219.645000", "112219.648000", "112219.651000", "112219.655000", "112219.658000", "112219.661000", "112219.665000", "112219.668000", "112219.671000", "112219.675000", "112219.678000", "112219.681000", "112219.686000", "112219.689000", "112219.694000", "112259.627000", "112259.641000", "112259.645000", "112259.648000", "112259.651000", "112259.655000", "112259.658000", "112259.661000", "112259.665000", "112259.668000", "112259.671000", "112259.675000", "112259.679000", "112259.682000", "112259.686000", "112259.689000", "112259.692000", "112259.696000", "112259.699000", "112259.703000", "112259.706000", "112259.715000", "112259.719000", "112259.722000", "112259.725000", "112259.729000", "112259.732000", "112259.736000", "112339.627000", "112339.630000", "112339.634000", "112339.637000", "112339.641000", "112339.644000", "112339.648000", "112339.651000", "112339.654000", "112339.658000", "112339.661000", "112339.665000", "112339.668000", "112339.671000", "112339.675000", "112339.678000", "112339.681000", "112339.685000", "112339.688000", "112339.692000", "112339.695000", "112339.698000", "112339.702000", "112339.705000", "112339.708000", "112339.712000", "112339.715000", "112418.846000", "112418.850000", "112418.853000", "112418.856000", "112418.860000", "112418.863000", "112418.866000", "112418.870000", "112418.873000", "112418.876000", "112418.880000", "112418.883000", "112418.886000", "112418.890000", "112418.893000", "112418.897000", "112418.900000", "112418.903000", "112418.907000", "112418.910000", "112418.913000", "112418.917000", "112418.920000", "112418.923000", "112418.927000", "112418.930000", "112418.933000"],
      "InstanceCreationTime": ["112059.660000", "112059.664000", "112059.668000", "112059.671000", "112059.674000", "112059.678000", "112059.689000", "112059.692000", "112059.695000", "112059.699000", "112059.702000", "112059.705000", "112059.709000", "112059.712000", "112059.715000", "112059.719000", "112059.722000", "112059.725000", "112059.729000", "112059.732000", "112059.735000", "112059.739000", "112059.742000", "112059.745000", "112059.749000", "112059.752000", "112059.755000", "112059.759000", "112119.626000", "112119.630000", "112119.633000", "112119.637000", "112119.640000", "112119.644000", "112119.647000", "112119.650000", "112119.654000", "112119.657000", "112119.660000", "112119.664000", "112119.667000", "112119.671000", "112119.674000", "112119.677000", "112119.680000", "112119.684000", "112119.687000", "112119.691000", "112139.626000", "112139.630000", "112139.633000", "112139.637000", "112139.640000", "112139.643000", "112139.647000", "112139.650000", "112139.653000", "112139.657000", "112139.660000", "112139.663000", "112139.666000", "112139.670000", "112139.673000", "112139.683000", "112139.686000", "112139.690000", "112139.693000", "112139.696000", "112159.626000", "112159.630000", "112159.633000", "112159.637000", "112159.640000", "112159.644000", "112159.647000", "112159.650000", "112159.654000", "112159.657000", "112159.661000", "112159.664000", "112159.667000", "112159.670000", "112159.674000", "112159.677000", "112159.680000", "112159.684000", "112159.687000", "112159.690000", "112219.627000", "112219.631000", "112219.634000", "112219.638000", "112219.641000", "112219.645000", "112219.648000", "112219.651000", "112219.655000", "112219.658000", "112219.661000", "112219.665000", "112219.668000", "112219.671000", "112219.675000", "112219.678000", "112219.681000", "112219.686000", "112219.689000", "112219.694000", "112259.627000", "112259.641000", "112259.645000", "112259.648000", "112259.651000", "112259.655000", "112259.658000", "112259.661000", "112259.665000", "112259.668000", "112259.671000", "112259.675000", "112259.679000", "112259.682000", "112259.686000", "112259.689000", "112259.692000", "112259.696000", "112259.699000", "112259.703000", "112259.706000", "112259.715000", "112259.719000", "112259.722000", "112259.725000", "112259.729000", "112259.732000", "112259.736000", "112339.627000", "112339.630000", "112339.634000", "112339.637000", "112339.641000", "112339.644000", "112339.648000", "112339.651000", "112339.654000", "112339.658000", "112339.661000", "112339.665000", "112339.668000", "112339.671000", "112339.675000", "112339.678000", "112339.681000", "112339.685000", "112339.688000", "112339.692000", "112339.695000", "112339.698000", "112339.702000", "112339.705000", "112339.708000", "112339.712000", "112339.715000", "112418.846000", "112418.850000", "112418.853000", "112418.856000", "112418.860000", "112418.863000", "112418.866000", "112418.870000", "112418.873000", "112418.876000", "112418.880000", "112418.883000", "112418.886000", "112418.890000", "112418.893000", "112418.897000", "112418.900000", "112418.903000", "112418.907000", "112418.910000", "112418.913000", "112418.917000", "112418.920000", "112418.923000", "112418.927000", "112418.930000", "112418.933000"],
      "InstanceNumber": [1, 2, 3, 4, 5, 6, 7, 8, 9, 10, 11, 12, 13, 14, 15, 16, 17, 18, 19, 20, 21, 22, 23, 24, 25, 26, 27, 28, 29, 30, 31, 32, 33, 34, 35, 36, 37, 38, 39, 40, 41, 42, 43, 44, 45, 46, 47, 48, 49, 50, 51, 52, 53, 54, 55, 56, 57, 58, 59, 60, 61, 62, 63, 64, 65, 66, 67, 68, 69, 70, 71, 72, 73, 74, 75, 76, 77, 78, 79, 80, 81, 82, 83, 84, 85, 86, 87, 88, 89, 90, 91, 92, 93, 94, 95, 96, 97, 98, 99, 100, 101, 102, 103, 104, 105, 106, 107, 108, 109, 110, 111, 112, 113, 114, 115, 116, 117, 118, 119, 120, 121, 122, 123, 124, 125, 126, 127, 128, 129, 130, 131, 132, 133, 134, 135, 136, 137, 138, 139, 140, 141, 142, 143, 144, 145, 146, 147, 148, 149, 150, 151, 152, 153, 154, 155, 156, 157, 158, 159, 160, 161, 162, 163, 164, 165, 166, 167, 168, 169, 170, 171, 172, 173, 174, 175, 176, 177, 178, 179, 180, 181, 182, 183, 184, 185, 186, 187, 188, 189, 190],
      "LargestImagePixelValue": [49369, 48384, 47736, 47662, 46652, 46863, 46412, 45961, 45769, 46826, 46980, 46427, 46694, 46207, 46393, 45986, 45867, 46030, 46520, 46810, 46875, 46775, 46177, 46427, 46804, 46217, 45991, 45354, 45512, 46487, 46365, 46295, 46169, 46312, 45773, 46178, 46239, 45923, 46149, 46358, 46181, 45692, 45797, 45533, 45112, 46132, 46397, 47133, 47376, 46263, 46615, 46269, 44053, 45070, 46522, 46571, 47115, 46913, 46554, 46590, 46819, 45876, 45727, 46046, 46094, 46710, 45407, 45003, 46403, 45325, 46482, 46924, 45717, 44171, 46179, 46462, 46891, 46674, 46214, 47154, 46532, 46886, 46536, 44818, 45950, 46321, 46378, 44680, 45118, 47072, 46088, 45446, 47068, 46220, 45831, 44273, 45395, 45598, 45919, 46552, 46264, 47044, 46420, 47371, 46292, 46423, 46907, 45443, 45751, 45236, 45469, 46120, 46075, 46679, 45122, 44736, 46270, 45896, 45295, 45627, 46325, 45582, 45707, 46618, 45422, 46163, 46745, 47092, 46607, 46737, 47036, 46576, 47000, 46056, 45328, 45777, 46108, 47408, 46596, 46523, 47271, 44957, 46051, 46146, 45445, 46470, 46973, 46470, 46855, 46015, 46894, 45784, 45952, 46537, 46372, 46210, 45699, 46409, 45523, 46348, 44592, 45843, 46511, 45481, 46471, 46946, 46969, 46619, 46886, 46616, 46748, 46265, 45757, 46717, 46770, 47357, 46716, 46828, 46934, 46401, 46616, 46146, 45731, 47447, 46679, 46944, 46694, 46612, 46007, 45211],
      "WindowCenter": [11071.0, 11012.0, 10972.0, 10949.0, 10922.0, 10913.0, 10914.0, 10924.0, 10934.0, 10958.0, 10948.0, 10958.0, 10960.0, 10968.0, 10976.0, 10950.0, 10960.0, 10979.0, 10969.0, 10989.0, 10988.0, 10999.0, 10974.0, 10951.0, 10911.0, 10894.0, 10920.0, 10951.0, 10953.0, 10972.0, 10982.0, 10977.0, 10961.0, 10934.0, 10921.0, 10930.0, 10942.0, 10956.0, 10949.0, 10941.0, 10922.0, 10930.0, 10948.0, 10962.0, 10963.0, 10960.0, 10954.0, 10930.0, 10919.0, 10901.0, 10945.0, 10967.0, 10945.0, 10941.0, 10954.0, 10930.0, 10914.0, 10902.0, 10915.0, 10942.0, 10951.0, 10934.0, 10930.0, 10932.0, 10931.0, 10933.0, 10923.0, 10948.0, 10982.0, 10960.0, 10920.0, 10909.0, 10925.0, 10941.0, 10973.0, 10961.0, 10928.0, 10875.0, 10866.0, 10911.0, 10934.0, 10967.0, 10952.0, 10933.0, 10924.0, 10894.0, 10909.0, 10936.0, 10971.0, 11020.0, 10992.0, 10923.0, 10896.0, 10913.0, 10946.0, 10964.0, 10942.0, 10895.0, 10889.0, 10910.0, 10930.0, 10944.0, 10915.0, 10906.0, 10906.0, 10927.0, 10952.0, 10952.0, 10936.0, 10929.0, 10954.0, 10981.0, 10963.0, 10956.0, 10947.0, 10948.0, 10976.0, 10952.0, 10917.0, 10913.0, 10929.0, 10926.0, 10930.0, 10939.0, 10919.0, 10913.0, 10928.0, 10922.0, 10911.0, 10919.0, 10932.0, 10922.0, 10925.0, 10915.0, 10922.0, 10924.0, 10934.0, 10943.0, 10939.0, 10946.0, 10968.0, 10953.0, 10938.0, 10932.0, 10945.0, 10950.0, 10946.0, 10959.0, 10941.0, 10930.0, 10927.0, 10924.0, 10933.0, 10926.0, 10918.0, 10930.0, 10952.0, 10942.0, 10910.0, 10903.0, 10911.0, 10940.0, 10951.0, 10937.0, 10938.0, 10934.0, 10913.0, 10910.0, 10938.0, 10952.0, 10946.0, 10939.0, 10927.0, 10904.0, 10883.0, 10901.0, 10911.0, 10935.0, 10940.0, 10930.0, 10921.0, 10905.0, 10902.0, 10940.0, 10946.0, 10945.0, 10929.0, 10936.0, 10937.0, 11061.0],
      "WindowWidth": [23828.0, 23656.0, 23543.0, 23477.0, 23409.0, 23386.0, 23387.0, 23407.0, 23434.0, 23489.0, 23465.0, 23489.0, 23494.0, 23512.0, 23531.0, 23471.0, 23493.0, 23534.0, 23513.0, 23551.0, 23554.0, 23580.0, 23525.0, 23472.0, 23380.0, 23344.0, 23401.0, 23477.0, 23480.0, 23519.0, 23548.0, 23530.0, 23494.0, 23432.0, 23399.0, 23420.0, 23454.0, 23482.0, 23469.0, 23449.0, 23407.0, 23423.0, 23461.0, 23495.0, 23498.0, 23492.0, 23476.0, 23420.0, 23393.0, 23353.0, 23450.0, 23501.0, 23459.0, 23444.0, 23475.0, 23419.0, 23382.0, 23353.0, 23383.0, 23444.0, 23465.0, 23429.0, 23416.0, 23422.0, 23419.0, 23424.0, 23410.0, 23464.0, 23539.0, 23496.0, 23405.0, 23373.0, 23412.0, 23451.0, 23516.0, 23490.0, 23414.0, 23291.0, 23276.0, 23374.0, 23430.0, 23502.0, 23469.0, 23430.0, 23406.0, 23335.0, 23369.0, 23437.0, 23521.0, 23626.0, 23575.0, 23416.0, 23342.0, 23379.0, 23456.0, 23503.0, 23450.0, 23339.0, 23323.0, 23370.0, 23421.0, 23449.0, 23389.0, 23362.0, 23364.0, 23413.0, 23465.0, 23473.0, 23436.0, 23417.0, 23473.0, 23536.0, 23504.0, 23482.0, 23466.0, 23469.0, 23528.0, 23479.0, 23396.0, 23383.0, 23421.0, 23418.0, 23421.0, 23443.0, 23398.0, 23381.0, 23412.0, 23401.0, 23374.0, 23391.0, 23417.0, 23398.0, 23398.0, 23380.0, 23396.0, 23408.0, 23431.0, 23449.0, 23443.0, 23452.0, 23503.0, 23481.0, 23441.0, 23424.0, 23457.0, 23470.0, 23455.0, 23487.0, 23446.0, 23419.0, 23411.0, 23407.0, 23425.0, 23418.0, 23392.0, 23419.0, 23472.0, 23451.0, 23380.0, 23360.0, 23382.0, 23445.0, 23472.0, 23447.0, 23440.0, 23429.0, 23380.0, 23371.0, 23435.0, 23469.0, 23454.0, 23434.0, 23407.0, 23354.0, 23308.0, 23342.0, 23370.0, 23431.0, 23435.0, 23418.0, 23400.0, 23370.0, 23354.0, 23435.0, 23451.0, 23453.0, 23413.0, 23454.0, 23449.0, 23745.0]
    },
    "slices": {}
  }
}