{
  "AcquisitionMatrixPE": 104,
  "AcquisitionNumber": 1,
  "AcquisitionTime": "11:07:22.650000",
  "BandwidthPerPixelPhaseEncode": 17.17,
  "BaseResolution": 104,
  "BodyPartExamined": "BRAIN",
  "CoilString": "HC1-7;NC1_2",
  "ConsistencyInfo": "N4_VE11C_LATEST_20160120",
  "ConversionSoftware": "dcm2niix",
  "ConversionSoftwareVersion": "v1.0.20190902",
  "DerivedVendorReportedEchoSpacing": 0.000560011,
  "DeviceSerialNumber": "167006",
  "DwellTime": 2.1e-06,
  "EchoTime": 0.037,
  "EchoTrainLength": 104,
  "EffectiveEchoSpacing": 0.000560011,
  "FlipAngle": 52,
  "HeudiconvVersion": "0.10.0",
  "ImageComments": "Unaliased_MB4_PE3_LB",
  "ImageOrientationPatientDICOM": [0.999763, 0.014328, 0.0163963, -0.00383882, 0.85719, -0.514986],
  "ImageType": [
    "ORIGINAL",
    "PRIMARY",
    "P",
    "MB",
    "ND",
    "MOSAIC"
],
  "ImagingFrequency": 123.259,
  "InPlanePhaseEncodingDirectionDICOM": "COL",
  "InstitutionAddress": "Chemin_Queen-Mary_4565_Montreal_District_CA_H3W_1W5",
  "InstitutionName": "IUGM",
  "InstitutionalDepartmentName": "Department",
  "MRAcquisitionType": "2D",
  "MagneticFieldStrength": 3,
  "Manufacturer": "Siemens",
  "ManufacturersModelName": "Prisma_fit",
  "Modality": "MR",
  "MultibandAccelerationFactor": 4,
  "PartialFourier": 1,
  "PatientPosition": "HFS",
  "PercentPhaseFOV": 100,
  "PhaseEncodingDirection": "j",
  "PhaseEncodingSteps": 104,
  "PhaseResolution": 1,
  "PixelBandwidth": 2290,
  "ProcedureStepDescription": "memory_things",
  "ProtocolName": "func_task-things_run-4",
  "PulseSequenceDetails": "%CustomerSeq%_cmrr_mbep2d_bold",
  "ReceiveCoilActiveElements": "HC1-7;NC1,2",
  "ReceiveCoilName": "HeadNeck_64",
  "ReconMatrixPE": 104,
  "RepetitionTime": 1.49,
  "SAR": 0.0482169,
  "ScanOptions": "FS",
  "ScanningSequence": "EP",
  "SequenceName": "epfid2d1_104",
  "SequenceVariant": "SK_SS",
  "SeriesDescription": "func_task-things_run-4",
  "SeriesNumber": 20,
  "ShimSetting": [619, -7187, -8865, 285, 16, -164, -19, -26],
  "SliceThickness": 2,
  "SliceTiming": [0, 0.785, 0.0975, 0.8825, 0.1975, 0.98, 0.295, 1.0775, 0.3925, 1.175, 0.49, 1.275, 0.5875, 1.3725, 0.6875, 0, 0.785, 0.0975, 0.8825, 0.1975, 0.98, 0.295, 1.0775, 0.3925, 1.175, 0.49, 1.275, 0.5875, 1.3725, 0.6875, 0, 0.785, 0.0975, 0.8825, 0.1975, 0.98, 0.295, 1.0775, 0.3925, 1.175, 0.49, 1.275, 0.5875, 1.3725, 0.6875, 0, 0.785, 0.0975, 0.8825, 0.1975, 0.98, 0.295, 1.0775, 0.3925, 1.175, 0.49, 1.275, 0.5875, 1.3725, 0.6875],
  "SoftwareVersions": "syngo_MR_E11",
  "SpacingBetweenSlices": 2,
  "StationName": "MRC35049",
  "TaskName": "things",
  "TotalReadoutTime": 0.0576811,
  "TxRefAmp": 265.243,
  "WipMemBlock": "bafbbb2b-e4a0-4d97-be13-047c6830e36f||Sequence: R016 ve11c/master r/e634e98; Dec 19 2017 11:00:25 by eja",
  "dcmmeta_affine": [
    [-1.999525785446167, -0.0076776412315666676, 0.04286693036556244, 106.66427612304688],
    [-0.028655918315052986, 1.7143802642822266, -1.0296014547348022, -48.91892623901367],
    [0.032792653888463974, 1.0299714803695679, 1.7140837907791138, -94.829833984375],
    [0.0, 0.0, 0.0, 1.0]
],
  "dcmmeta_reorient_transform": [
    [0.0, -1.0, 0.0, 103.0],
    [1.0, 0.0, 0.0, 0.0],
    [0.0, 0.0, 1.0, 0.0],
    [0.0, 0.0, 0.0, 1.0]
],
  "dcmmeta_shape": [104, 104, 60, 190],
  "dcmmeta_slice_dim": 2,
  "dcmmeta_version": 0.6,
  "global": {
    "const": {
      "AcquisitionMatrix": [104, 0, 0, 104],
      "AngioFlag": "N",
      "BitsAllocated": 16,
      "BitsStored": 16,
      "BodyPartExamined": "BRAIN",
      "Columns": 832,
      "EchoNumbers": 1,
      "EchoTime": 37.0,
      "EchoTrainLength": 104,
      "FlipAngle": 52.0,
      "HighBit": 15,
      "ImageOrientationPatient": [0.99976290691307, 0.01432795936255, 0.01639632706552, -0.0038388205889, 0.85719013529491, -0.5149857623368],
      "ImagePositionPatient": [-830.90621764645, -762.12741541175, 374.23034080973],
      "ImageType": [
        "ORIGINAL",
        "PRIMARY",
        "P",
        "MB",
        "ND",
        "MOSAIC"
],
      "ImagedNucleus": "1H",
      "ImagingFrequency": 123.258895,
      "InPlanePhaseEncodingDirection": "COL",
      "LargestImagePixelValue": 4095,
      "MRAcquisitionType": "2D",
      "MagneticFieldStrength": 3.0,
      "Manufacturer": "SIEMENS",
      "ManufacturerModelName": "Prisma_fit",
      "Modality": "MR",
      "NumberOfAverages": 1.0,
      "NumberOfPhaseEncodingSteps": 104,
      "PercentPhaseFieldOfView": 100.0,
      "PercentSampling": 100.0,
      "PerformedProcedureStepStartTime": "095205.017000",
      "PhotometricInterpretation": "MONOCHROME2",
      "PixelBandwidth": 2290.0,
      "PixelRepresentation": 0,
      "PixelSpacing": [2.0, 2.0],
      "ProtocolName": "func_task-things_run-4",
      "RepetitionTime": 1490.0,
      "RescaleIntercept": -4096.0,
      "RescaleSlope": 2.0,
      "RescaleType": "US",
      "Rows": 832,
      "SAR": 0.04821690132269,
      "SamplesPerPixel": 1,
      "ScanOptions": "FS",
      "ScanningSequence": "EP",
      "SequenceName": "epfid2d1_104",
      "SequenceVariant": [
        "SK",
        "SS"
],
      "SeriesDescription": "func_task-things_run-4",
      "SeriesNumber": 20,
      "SeriesTime": "110826.879000",
      "SliceLocation": -53.803459319363,
      "SliceThickness": 2.0,
      "SmallestImagePixelValue": 0,
      "SoftwareVersions": "syngo MR E11",
      "SpacingBetweenSlices": 1.9999999776776,
      "SpecificCharacterSet": "ISO_IR 100",
      "StudyID": "1",
      "StudyTime": "095204.927000",
      "TransmitCoilName": "Body",
      "VariableFlipAngleFlag": "N",
      "WindowCenterWidthExplanation": "Algo1",
      "dBdt": 0.0},
    "slices": {}
  },
  "time": {
    "samples": {
      "AcquisitionNumber": [1, 2, 3, 4, 5, 6, 7, 8, 9, 10, 11, 12, 13, 14, 15, 16, 17, 18, 19, 20, 21, 22, 23, 24, 25, 26, 27, 28, 29, 30, 31, 32, 33, 34, 35, 36, 37, 38, 39, 40, 41, 42, 43, 44, 45, 46, 47, 48, 49, 50, 51, 52, 53, 54, 55, 56, 57, 58, 59, 60, 61, 62, 63, 64, 65, 66, 67, 68, 69, 70, 71, 72, 73, 74, 75, 76, 77, 78, 79, 80, 81, 82, 83, 84, 85, 86, 87, 88, 89, 90, 91, 92, 93, 94, 95, 96, 97, 98, 99, 100, 101, 102, 103, 104, 105, 106, 107, 108, 109, 110, 111, 112, 113, 114, 115, 116, 117, 118, 119, 120, 121, 122, 123, 124, 125, 126, 127, 128, 129, 130, 131, 132, 133, 134, 135, 136, 137, 138, 139, 140, 141, 142, 143, 144, 145, 146, 147, 148, 149, 150, 151, 152, 153, 154, 155, 156, 157, 158, 159, 160, 161, 162, 163, 164, 165, 166, 167, 168, 169, 170, 171, 172, 173, 174, 175, 176, 177, 178, 179, 180, 181, 182, 183, 184, 185, 186, 187, 188, 189, 190],
      "AcquisitionTime": ["110722.650000", "110724.140000", "110725.630000", "110727.120000", "110728.610000", "110730.100000", "110731.590000", "110733.080000", "110734.570000", "110736.060000", "110737.550000", "110739.040000", "110740.530000", "110742.020000", "110743.510000", "110745.000000", "110746.490000", "110747.980000", "110749.470000", "110750.960000", "110752.450000", "110753.940000", "110755.430000", "110756.920000", "110758.410000", "110759.900000", "110801.390000", "110802.880000", "110804.370000", "110805.860000", "110807.350000", "110808.840000", "110810.330000", "110811.820000", "110813.310000", "110814.800000", "110816.290000", "110817.780000", "110819.270000", "110820.760000", "110822.250000", "110823.740000", "110825.230000", "110826.720000", "110828.210000", "110829.700000", "110831.190000", "110832.680000", "110834.170000", "110835.660000", "110837.150000", "110838.640000", "110840.130000", "110841.620000", "110843.110000", "110844.600000", "110846.090000", "110847.580000", "110849.070000", "110850.560000", "110852.050000", "110853.540000", "110855.030000", "110856.520000", "110858.010000", "110859.500000", "110900.990000", "110902.480000", "110903.970000", "110905.460000", "110906.950000", "110908.440000", "110909.930000", "110911.420000", "110912.910000", "110914.400000", "110915.890000", "110917.380000", "110918.870000", "110920.360000", "110921.850000", "110923.340000", "110924.830000", "110926.320000", "110927.810000", "110929.300000", "110930.790000", "110932.280000", "110933.770000", "110935.260000", "110936.750000", "110938.240000", "110939.730000", "110941.220000", "110942.710000", "110944.200000", "110945.690000", "110947.180000", "110948.670000", "110950.160000", "110951.650000", "110953.140000", "110954.630000", "110956.120000", "110957.610000", "110959.100000", "111000.590000", "111002.080000", "111003.570000", "111005.060000", "111006.550000", "111008.040000", "111009.530000", "111011.020000", "111012.510000", "111014.000000", "111015.490000", "111016.980000", "111018.470000", "111019.960000", "111021.450000", "111022.940000", "111024.430000", "111025.920000", "111027.410000", "111028.900000", "111030.390000", "111031.880000", "111033.370000", "111034.860000", "111036.350000", "111037.840000", "111039.330000", "111040.820000", "111042.310000", "111043.800000", "111045.290000", "111046.780000", "111048.270000", "111049.760000", "111051.250000", "111052.740000", "111054.230000", "111055.720000", "111057.210000", "111058.700000", "111100.190000", "111101.680000", "111103.170000", "111104.660000", "111106.150000", "111107.640000", "111109.130000", "111110.620000", "111112.110000", "111113.600000", "111115.090000", "111116.580000", "111118.070000", "111119.560000", "111121.050000", "111122.540000", "111124.030000", "111125.520000", "111127.010000", "111128.500000", "111129.990000", "111131.480000", "111132.970000", "111134.460000", "111135.950000", "111137.440000", "111138.930000", "111140.420000", "111141.910000", "111143.400000", "111144.890000", "111146.380000", "111147.870000", "111149.360000", "111150.850000", "111152.340000", "111153.830000", "111155.320000", "111156.810000", "111158.300000", "111159.790000", "111201.280000", "111202.770000", "111204.260000"],
      "ContentTime": ["110826.881000", "110826.884000", "110826.887000", "110826.889000", "110826.892000", "110826.894000", "110826.897000", "110846.873000", "110846.876000", "110846.878000", "110846.881000", "110846.884000", "110846.886000", "110846.889000", "110846.891000", "110846.894000", "110846.896000", "110846.899000", "110846.902000", "110846.904000", "110846.907000", "110846.909000", "110846.912000", "110846.914000", "110846.917000", "110846.919000", "110846.922000", "110906.879000", "110906.883000", "110906.887000", "110906.890000", "110906.893000", "110906.895000", "110906.898000", "110906.901000", "110906.926000", "110906.928000", "110906.931000", "110906.933000", "110906.936000", "110906.938000", "110906.941000", "110906.943000", "110906.946000", "110906.948000", "110906.951000", "110906.953000", "110926.882000", "110926.885000", "110926.888000", "110926.890000", "110926.893000", "110926.895000", "110926.898000", "110926.901000", "110926.903000", "110926.906000", "110926.908000", "110926.911000", "110926.913000", "110926.916000", "110926.918000", "110926.921000", "110926.923000", "110926.926000", "110926.928000", "110926.931000", "110946.893000", "110946.896000", "110946.898000", "110946.901000", "110946.903000", "110946.906000", "110946.909000", "110946.912000", "110946.915000", "110946.917000", "110946.920000", "110946.922000", "110946.925000", "110946.927000", "110946.930000", "110946.932000", "110946.935000", "110946.937000", "110946.940000", "110946.943000", "111006.893000", "111006.896000", "111006.898000", "111006.901000", "111006.903000", "111006.906000", "111006.908000", "111006.911000", "111006.913000", "111006.916000", "111006.919000", "111006.921000", "111006.924000", "111006.933000", "111006.935000", "111006.938000", "111006.940000", "111006.943000", "111006.945000", "111006.948000", "111006.950000", "111046.924000", "111046.926000", "111046.929000", "111046.931000", "111046.934000", "111046.936000", "111046.939000", "111046.942000", "111046.944000", "111046.946000", "111046.949000", "111046.952000", "111046.954000", "111046.957000", "111046.959000", "111046.962000", "111046.964000", "111046.967000", "111046.969000", "111046.972000", "111046.974000", "111046.977000", "111046.979000", "111046.982000", "111046.984000", "111046.987000", "111046.989000", "111046.992000", "111126.914000", "111126.917000", "111126.919000", "111126.922000", "111126.924000", "111126.927000", "111126.929000", "111126.932000", "111126.934000", "111126.937000", "111126.940000", "111126.942000", "111126.945000", "111126.947000", "111126.950000", "111126.952000", "111126.955000", "111126.957000", "111126.960000", "111126.962000", "111126.965000", "111126.967000", "111126.970000", "111126.972000", "111126.975000", "111126.978000", "111126.980000", "111206.575000", "111206.578000", "111206.580000", "111206.583000", "111206.586000", "111206.589000", "111206.591000", "111206.594000", "111206.597000", "111206.600000", "111206.602000", "111206.605000", "111206.608000", "111206.610000", "111206.613000", "111206.616000", "111206.618000", "111206.621000", "111206.624000", "111206.626000", "111206.629000", "111206.632000", "111206.634000", "111206.637000", "111206.640000", "111206.643000", "111206.645000"],
      "InstanceCreationTime": ["110826.881000", "110826.884000", "110826.887000", "110826.889000", "110826.892000", "110826.894000", "110826.897000", "110846.873000", "110846.876000", "110846.878000", "110846.881000", "110846.884000", "110846.886000", "110846.889000", "110846.891000", "110846.894000", "110846.896000", "110846.899000", "110846.902000", "110846.904000", "110846.907000", "110846.909000", "110846.912000", "110846.914000", "110846.917000", "110846.919000", "110846.922000", "110906.879000", "110906.883000", "110906.887000", "110906.890000", "110906.893000", "110906.895000", "110906.898000", "110906.901000", "110906.926000", "110906.928000", "110906.931000", "110906.933000", "110906.936000", "110906.938000", "110906.941000", "110906.943000", "110906.946000", "110906.948000", "110906.951000", "110906.953000", "110926.882000", "110926.885000", "110926.888000", "110926.890000", "110926.893000", "110926.895000", "110926.898000", "110926.901000", "110926.903000", "110926.906000", "110926.908000", "110926.911000", "110926.913000", "110926.916000", "110926.918000", "110926.921000", "110926.923000", "110926.926000", "110926.928000", "110926.931000", "110946.893000", "110946.896000", "110946.898000", "110946.901000", "110946.903000", "110946.906000", "110946.909000", "110946.912000", "110946.915000", "110946.917000", "110946.920000", "110946.922000", "110946.925000", "110946.927000", "110946.930000", "110946.932000", "110946.935000", "110946.937000", "110946.940000", "110946.943000", "111006.893000", "111006.896000", "111006.898000", "111006.901000", "111006.903000", "111006.906000", "111006.908000", "111006.911000", "111006.913000", "111006.916000", "111006.919000", "111006.921000", "111006.924000", "111006.933000", "111006.935000", "111006.938000", "111006.940000", "111006.943000", "111006.945000", "111006.948000", "111006.950000", "111046.924000", "111046.926000", "111046.929000", "111046.931000", "111046.934000", "111046.936000", "111046.939000", "111046.942000", "111046.944000", "111046.946000", "111046.949000", "111046.952000", "111046.954000", "111046.957000", "111046.959000", "111046.962000", "111046.964000", "111046.967000", "111046.969000", "111046.972000", "111046.974000", "111046.977000", "111046.979000", "111046.982000", "111046.984000", "111046.987000", "111046.989000", "111046.992000", "111126.914000", "111126.917000", "111126.919000", "111126.922000", "111126.924000", "111126.927000", "111126.929000", "111126.932000", "111126.934000", "111126.937000", "111126.940000", "111126.942000", "111126.945000", "111126.947000", "111126.950000", "111126.952000", "111126.955000", "111126.957000", "111126.960000", "111126.962000", "111126.965000", "111126.967000", "111126.970000", "111126.972000", "111126.975000", "111126.978000", "111126.980000", "111206.575000", "111206.578000", "111206.580000", "111206.583000", "111206.586000", "111206.589000", "111206.591000", "111206.594000", "111206.597000", "111206.600000", "111206.602000", "111206.605000", "111206.608000", "111206.610000", "111206.613000", "111206.616000", "111206.618000", "111206.621000", "111206.624000", "111206.626000", "111206.629000", "111206.632000", "111206.634000", "111206.637000", "111206.640000", "111206.643000", "111206.645000"],
      "InstanceNumber": [1, 2, 3, 4, 5, 6, 7, 8, 9, 10, 11, 12, 13, 14, 15, 16, 17, 18, 19, 20, 21, 22, 23, 24, 25, 26, 27, 28, 29, 30, 31, 32, 33, 34, 35, 36, 37, 38, 39, 40, 41, 42, 43, 44, 45, 46, 47, 48, 49, 50, 51, 52, 53, 54, 55, 56, 57, 58, 59, 60, 61, 62, 63, 64, 65, 66, 67, 68, 69, 70, 71, 72, 73, 74, 75, 76, 77, 78, 79, 80, 81, 82, 83, 84, 85, 86, 87, 88, 89, 90, 91, 92, 93, 94, 95, 96, 97, 98, 99, 100, 101, 102, 103, 104, 105, 106, 107, 108, 109, 110, 111, 112, 113, 114, 115, 116, 117, 118, 119, 120, 121, 122, 123, 124, 125, 126, 127, 128, 129, 130, 131, 132, 133, 134, 135, 136, 137, 138, 139, 140, 141, 142, 143, 144, 145, 146, 147, 148, 149, 150, 151, 152, 153, 154, 155, 156, 157, 158, 159, 160, 161, 162, 163, 164, 165, 166, 167, 168, 169, 170, 171, 172, 173, 174, 175, 176, 177, 178, 179, 180, 181, 182, 183, 184, 185, 186, 187, 188, 189, 190],
      "WindowCenter": [4770.0, 4796.0, 4830.0, 4798.0, 4800.0, 4794.0, 4774.0, 4776.0, 4776.0, 4798.0, 4774.0, 4772.0, 4794.0, 4802.0, 4770.0, 4824.0, 4794.0, 4770.0, 4800.0, 4798.0, 4770.0, 4796.0, 4798.0, 4770.0, 4770.0, 4824.0, 4792.0, 4794.0, 4800.0, 4796.0, 4798.0, 4798.0, 4776.0, 4774.0, 4772.0, 4774.0, 4796.0, 4800.0, 4796.0, 4798.0, 4824.0, 4772.0, 4794.0, 4798.0, 4774.0, 4794.0, 4796.0, 4800.0, 4798.0, 4772.0, 4772.0, 4798.0, 4796.0, 4796.0, 4824.0, 4770.0, 4770.0, 4772.0, 4798.0, 4796.0, 4774.0, 4798.0, 4774.0, 4774.0, 4798.0, 4794.0, 4796.0, 4796.0, 4800.0, 4796.0, 4770.0, 4796.0, 4774.0, 4772.0, 4796.0, 4800.0, 4768.0, 4796.0, 4798.0, 4772.0, 4770.0, 4794.0, 4794.0, 4798.0, 4800.0, 4774.0, 4774.0, 4796.0, 4796.0, 4774.0, 4800.0, 4794.0, 4800.0, 4826.0, 4800.0, 4798.0, 4776.0, 4774.0, 4800.0, 4778.0, 4796.0, 4800.0, 4798.0, 4802.0, 4774.0, 4796.0, 4798.0, 4798.0, 4800.0, 4798.0, 4776.0, 4798.0, 4776.0, 4778.0, 4800.0, 4774.0, 4800.0, 4824.0, 4796.0, 4798.0, 4798.0, 4772.0, 4798.0, 4776.0, 4776.0, 4798.0, 4772.0, 4798.0, 4794.0, 4798.0, 4794.0, 4798.0, 4774.0, 4774.0, 4794.0, 4778.0, 4796.0, 4798.0, 4772.0, 4798.0, 4772.0, 4798.0, 4796.0, 4774.0, 4798.0, 4800.0, 4798.0, 4802.0, 4774.0, 4774.0, 4802.0, 4796.0, 4798.0, 4800.0, 4798.0, 4802.0, 4800.0, 4774.0, 4776.0, 4796.0, 4798.0, 4794.0, 4802.0, 4794.0, 4824.0, 4796.0, 4794.0, 4798.0, 4776.0, 4798.0, 4776.0, 4798.0, 4800.0, 4798.0, 4796.0, 4796.0, 4798.0, 4798.0, 4776.0, 4774.0, 4796.0, 4794.0, 4796.0, 4794.0, 4796.0, 4800.0, 4798.0, 4800.0, 4776.0, 4774.0],
      "WindowWidth": [18578.0, 18604.0, 18642.0, 18602.0, 18606.0, 18606.0, 18578.0, 18574.0, 18580.0, 18610.0, 18576.0, 18578.0, 18604.0, 18610.0, 18574.0, 18640.0, 18606.0, 18574.0, 18606.0, 18614.0, 18574.0, 18606.0, 18608.0, 18572.0, 18578.0, 18638.0, 18598.0, 18600.0, 18604.0, 18600.0, 18606.0, 18606.0, 18580.0, 18578.0, 18580.0, 18580.0, 18604.0, 18606.0, 18602.0, 18604.0, 18638.0, 18578.0, 18604.0, 18608.0, 18582.0, 18602.0, 18602.0, 18604.0, 18606.0, 18572.0, 18578.0, 18606.0, 18604.0, 18606.0, 18642.0, 18574.0, 18576.0, 18576.0, 18608.0, 18610.0, 18578.0, 18606.0, 18580.0, 18578.0, 18606.0, 18602.0, 18608.0, 18604.0, 18608.0, 18608.0, 18578.0, 18608.0, 18576.0, 18580.0, 18608.0, 18608.0, 18576.0, 18604.0, 18604.0, 18578.0, 18572.0, 18602.0, 18598.0, 18606.0, 18602.0, 18580.0, 18576.0, 18606.0, 18608.0, 18578.0, 18606.0, 18602.0, 18610.0, 18636.0, 18606.0, 18606.0, 18578.0, 18580.0, 18608.0, 18582.0, 18606.0, 18610.0, 18608.0, 18606.0, 18578.0, 18604.0, 18610.0, 18612.0, 18604.0, 18608.0, 18578.0, 18608.0, 18580.0, 18580.0, 18610.0, 18578.0, 18610.0, 18636.0, 18608.0, 18608.0, 18608.0, 18578.0, 18608.0, 18580.0, 18580.0, 18604.0, 18574.0, 18612.0, 18600.0, 18608.0, 18604.0, 18604.0, 18580.0, 18578.0, 18606.0, 18578.0, 18602.0, 18608.0, 18574.0, 18606.0, 18578.0, 18602.0, 18606.0, 18580.0, 18604.0, 18608.0, 18606.0, 18606.0, 18578.0, 18572.0, 18606.0, 18604.0, 18604.0, 18610.0, 18608.0, 18608.0, 18604.0, 18576.0, 18580.0, 18608.0, 18608.0, 18604.0, 18602.0, 18606.0, 18636.0, 18604.0, 18604.0, 18608.0, 18580.0, 18606.0, 18578.0, 18610.0, 18606.0, 18608.0, 18602.0, 18610.0, 18602.0, 18610.0, 18578.0, 18580.0, 18606.0, 18608.0, 18604.0, 18604.0, 18600.0, 18608.0, 18604.0, 18604.0, 18574.0, 18582.0]
    },
    "slices": {}
  }
}