{
  "AcquisitionMatrixPE": 104,
  "AcquisitionNumber": 1,
  "AcquisitionTime": "10:55:14.232500",
  "BandwidthPerPixelPhaseEncode": 17.17,
  "BaseResolution": 104,
  "BodyPartExamined": "BRAIN",
  "CoilString": "HC1-7;NC1_2",
  "ConsistencyInfo": "N4_VE11C_LATEST_20160120",
  "ConversionSoftware": "dcm2niix",
  "ConversionSoftwareVersion": "v1.0.20190902",
  "DerivedVendorReportedEchoSpacing": 0.000560011,
  "DeviceSerialNumber": "167006",
  "DwellTime": 2.1e-06,
  "EchoTime": 0.037,
  "EchoTrainLength": 104,
  "EffectiveEchoSpacing": 0.000560011,
  "FlipAngle": 52,
  "HeudiconvVersion": "0.10.0",
  "ImageComments": "Unaliased_MB4_PE3_LB",
  "ImageOrientationPatientDICOM": [0.999763, 0.014328, 0.0163963, -0.00383882, 0.85719, -0.514986],
  "ImageType": [
    "ORIGINAL",
    "PRIMARY",
    "P",
    "MB",
    "ND",
    "MOSAIC"
],
  "ImagingFrequency": 123.259,
  "InPlanePhaseEncodingDirectionDICOM": "COL",
  "InstitutionAddress": "Chemin_Queen-Mary_4565_Montreal_District_CA_H3W_1W5",
  "InstitutionName": "IUGM",
  "InstitutionalDepartmentName": "Department",
  "MRAcquisitionType": "2D",
  "MagneticFieldStrength": 3,
  "Manufacturer": "Siemens",
  "ManufacturersModelName": "Prisma_fit",
  "Modality": "MR",
  "MultibandAccelerationFactor": 4,
  "PartialFourier": 1,
  "PatientPosition": "HFS",
  "PercentPhaseFOV": 100,
  "PhaseEncodingDirection": "j",
  "PhaseEncodingSteps": 104,
  "PhaseResolution": 1,
  "PixelBandwidth": 2290,
  "ProcedureStepDescription": "memory_things",
  "ProtocolName": "func_task-things_run-2",
  "PulseSequenceDetails": "%CustomerSeq%_cmrr_mbep2d_bold",
  "ReceiveCoilActiveElements": "HC1-7;NC1,2",
  "ReceiveCoilName": "HeadNeck_64",
  "ReconMatrixPE": 104,
  "RepetitionTime": 1.49,
  "SAR": 0.0482169,
  "ScanOptions": "FS",
  "ScanningSequence": "EP",
  "SequenceName": "epfid2d1_104",
  "SequenceVariant": "SK_SS",
  "SeriesDescription": "func_task-things_run-2",
  "SeriesNumber": 14,
  "ShimSetting": [619, -7187, -8865, 285, 16, -164, -19, -26],
  "SliceThickness": 2,
  "SliceTiming": [0, 0.785, 0.1, 0.8825, 0.1975, 0.98, 0.295, 1.08, 0.3925, 1.1775, 0.49, 1.275, 0.59, 1.3725, 0.6875, 0, 0.785, 0.1, 0.8825, 0.1975, 0.98, 0.295, 1.08, 0.3925, 1.1775, 0.49, 1.275, 0.59, 1.3725, 0.6875, 0, 0.785, 0.1, 0.8825, 0.1975, 0.98, 0.295, 1.08, 0.3925, 1.1775, 0.49, 1.275, 0.59, 1.3725, 0.6875, 0, 0.785, 0.1, 0.8825, 0.1975, 0.98, 0.295, 1.08, 0.3925, 1.1775, 0.49, 1.275, 0.59, 1.3725, 0.6875],
  "SoftwareVersions": "syngo_MR_E11",
  "SpacingBetweenSlices": 2,
  "StationName": "MRC35049",
  "TaskName": "things",
  "TotalReadoutTime": 0.0576811,
  "TxRefAmp": 265.243,
  "WipMemBlock": "755ada64-cc24-44e4-8a03-0d0a60ca42a8||Sequence: R016 ve11c/master r/e634e98; Dec 19 2017 11:00:25 by eja",
  "dcmmeta_affine": [
    [-1.999525785446167, -0.0076776412315666676, 0.04286693036556244, 106.66427612304688],
    [-0.028655918315052986, 1.7143802642822266, -1.0296014547348022, -48.91892623901367],
    [0.032792653888463974, 1.0299714803695679, 1.7140837907791138, -94.829833984375],
    [0.0, 0.0, 0.0, 1.0]
],
  "dcmmeta_reorient_transform": [
    [0.0, -1.0, 0.0, 103.0],
    [1.0, 0.0, 0.0, 0.0],
    [0.0, 0.0, 1.0, 0.0],
    [0.0, 0.0, 0.0, 1.0]
],
  "dcmmeta_shape": [104, 104, 60, 190],
  "dcmmeta_slice_dim": 2,
  "dcmmeta_version": 0.6,
  "global": {
    "const": {
      "AcquisitionMatrix": [104, 0, 0, 104],
      "AngioFlag": "N",
      "BitsAllocated": 16,
      "BitsStored": 16,
      "BodyPartExamined": "BRAIN",
      "Columns": 832,
      "EchoNumbers": 1,
      "EchoTime": 37.0,
      "EchoTrainLength": 104,
      "FlipAngle": 52.0,
      "HighBit": 15,
      "ImageOrientationPatient": [0.99976290691307, 0.01432795936255, 0.01639632706552, -0.0038388205889, 0.85719013529491, -0.5149857623368],
      "ImagePositionPatient": [-830.90621764645, -762.12741541175, 374.23034080973],
      "ImageType": [
        "ORIGINAL",
        "PRIMARY",
        "P",
        "MB",
        "ND",
        "MOSAIC"
],
      "ImagedNucleus": "1H",
      "ImagingFrequency": 123.258883,
      "InPlanePhaseEncodingDirection": "COL",
      "LargestImagePixelValue": 4095,
      "MRAcquisitionType": "2D",
      "MagneticFieldStrength": 3.0,
      "Manufacturer": "SIEMENS",
      "ManufacturerModelName": "Prisma_fit",
      "Modality": "MR",
      "NumberOfAverages": 1.0,
      "NumberOfPhaseEncodingSteps": 104,
      "PercentPhaseFieldOfView": 100.0,
      "PercentSampling": 100.0,
      "PerformedProcedureStepStartTime": "095205.017000",
      "PhotometricInterpretation": "MONOCHROME2",
      "PixelBandwidth": 2290.0,
      "PixelRepresentation": 0,
      "PixelSpacing": [2.0, 2.0],
      "ProtocolName": "func_task-things_run-2",
      "RepetitionTime": 1490.0,
      "RescaleIntercept": -4096.0,
      "RescaleSlope": 2.0,
      "RescaleType": "US",
      "Rows": 832,
      "SAR": 0.04821690132269,
      "SamplesPerPixel": 1,
      "ScanOptions": "FS",
      "ScanningSequence": "EP",
      "SequenceName": "epfid2d1_104",
      "SequenceVariant": [
        "SK",
        "SS"
],
      "SeriesDescription": "func_task-things_run-2",
      "SeriesNumber": 14,
      "SeriesTime": "105639.816000",
      "SliceLocation": -53.803459319363,
      "SliceThickness": 2.0,
      "SmallestImagePixelValue": 0,
      "SoftwareVersions": "syngo MR E11",
      "SpacingBetweenSlices": 1.9999999776776,
      "SpecificCharacterSet": "ISO_IR 100",
      "StudyID": "1",
      "StudyTime": "095204.927000",
      "TransmitCoilName": "Body",
      "VariableFlipAngleFlag": "N",
      "WindowCenterWidthExplanation": "Algo1",
      "dBdt": 0.0},
    "slices": {}
  },
  "time": {
    "samples": {
      "AcquisitionNumber": [1, 2, 3, 4, 5, 6, 7, 8, 9, 10, 11, 12, 13, 14, 15, 16, 17, 18, 19, 20, 21, 22, 23, 24, 25, 26, 27, 28, 29, 30, 31, 32, 33, 34, 35, 36, 37, 38, 39, 40, 41, 42, 43, 44, 45, 46, 47, 48, 49, 50, 51, 52, 53, 54, 55, 56, 57, 58, 59, 60, 61, 62, 63, 64, 65, 66, 67, 68, 69, 70, 71, 72, 73, 74, 75, 76, 77, 78, 79, 80, 81, 82, 83, 84, 85, 86, 87, 88, 89, 90, 91, 92, 93, 94, 95, 96, 97, 98, 99, 100, 101, 102, 103, 104, 105, 106, 107, 108, 109, 110, 111, 112, 113, 114, 115, 116, 117, 118, 119, 120, 121, 122, 123, 124, 125, 126, 127, 128, 129, 130, 131, 132, 133, 134, 135, 136, 137, 138, 139, 140, 141, 142, 143, 144, 145, 146, 147, 148, 149, 150, 151, 152, 153, 154, 155, 156, 157, 158, 159, 160, 161, 162, 163, 164, 165, 166, 167, 168, 169, 170, 171, 172, 173, 174, 175, 176, 177, 178, 179, 180, 181, 182, 183, 184, 185, 186, 187, 188, 189, 190],
      "AcquisitionTime": ["105514.232500", "105515.722500", "105517.212500", "105518.702500", "105520.192500", "105521.682500", "105523.172500", "105524.662500", "105526.152500", "105527.642500", "105529.132500", "105530.622500", "105532.112500", "105533.602500", "105535.092500", "105536.582500", "105538.072500", "105539.562500", "105541.052500", "105542.542500", "105544.032500", "105545.522500", "105547.012500", "105548.502500", "105549.992500", "105551.482500", "105552.972500", "105554.462500", "105555.952500", "105557.442500", "105558.932500", "105600.422500", "105601.912500", "105603.402500", "105604.892500", "105606.382500", "105607.872500", "105609.362500", "105610.852500", "105612.342500", "105613.832500", "105615.322500", "105616.812500", "105618.302500", "105619.792500", "105621.282500", "105622.772500", "105624.262500", "105625.752500", "105627.242500", "105628.732500", "105630.222500", "105631.712500", "105633.202500", "105634.692500", "105636.182500", "105637.672500", "105639.162500", "105640.652500", "105642.142500", "105643.632500", "105645.122500", "105646.612500", "105648.102500", "105649.592500", "105651.082500", "105652.572500", "105654.062500", "105655.552500", "105657.042500", "105658.532500", "105700.022500", "105701.512500", "105703.002500", "105704.492500", "105705.982500", "105707.472500", "105708.962500", "105710.452500", "105711.942500", "105713.432500", "105714.922500", "105716.412500", "105717.902500", "105719.392500", "105720.882500", "105722.372500", "105723.862500", "105725.352500", "105726.842500", "105728.332500", "105729.822500", "105731.312500", "105732.802500", "105734.292500", "105735.782500", "105737.272500", "105738.762500", "105740.252500", "105741.742500", "105743.232500", "105744.722500", "105746.212500", "105747.702500", "105749.192500", "105750.682500", "105752.172500", "105753.662500", "105755.152500", "105756.642500", "105758.132500", "105759.622500", "105801.112500", "105802.602500", "105804.092500", "105805.582500", "105807.072500", "105808.562500", "105810.052500", "105811.542500", "105813.032500", "105814.522500", "105816.012500", "105817.502500", "105818.992500", "105820.482500", "105821.972500", "105823.462500", "105824.952500", "105826.442500", "105827.932500", "105829.422500", "105830.912500", "105832.402500", "105833.892500", "105835.382500", "105836.872500", "105838.362500", "105839.852500", "105841.342500", "105842.832500", "105844.322500", "105845.812500", "105847.302500", "105848.792500", "105850.282500", "105851.772500", "105853.262500", "105854.752500", "105856.242500", "105857.732500", "105859.222500", "105900.712500", "105902.202500", "105903.692500", "105905.182500", "105906.672500", "105908.162500", "105909.652500", "105911.142500", "105912.632500", "105914.122500", "105915.612500", "105917.102500", "105918.592500", "105920.082500", "105921.572500", "105923.062500", "105924.552500", "105926.042500", "105927.532500", "105929.022500", "105930.512500", "105932.002500", "105933.492500", "105934.982500", "105936.472500", "105937.962500", "105939.452500", "105940.942500", "105942.432500", "105943.922500", "105945.412500", "105946.902500", "105948.392500", "105949.882500", "105951.372500", "105952.862500", "105954.352500", "105955.842500"],
      "ContentTime": ["105639.819000", "105639.822000", "105639.825000", "105639.828000", "105639.830000", "105639.833000", "105639.836000", "105639.839000", "105639.841000", "105639.844000", "105639.846000", "105639.849000", "105639.851000", "105639.854000", "105639.856000", "105639.859000", "105639.861000", "105639.864000", "105639.866000", "105639.872000", "105639.874000", "105639.877000", "105639.879000", "105639.882000", "105639.884000", "105639.887000", "105639.889000", "105639.892000", "105639.894000", "105639.897000", "105659.737000", "105659.740000", "105659.742000", "105659.745000", "105659.747000", "105659.750000", "105659.752000", "105659.755000", "105659.757000", "105659.760000", "105659.762000", "105659.765000", "105659.767000", "105659.770000", "105659.772000", "105659.775000", "105659.778000", "105659.781000", "105659.783000", "105659.786000", "105719.741000", "105719.744000", "105719.747000", "105719.749000", "105719.752000", "105719.754000", "105719.757000", "105719.759000", "105719.762000", "105719.764000", "105719.767000", "105719.769000", "105719.772000", "105719.775000", "105719.777000", "105719.780000", "105719.782000", "105719.785000", "105719.787000", "105719.790000", "105719.792000", "105739.752000", "105739.755000", "105739.757000", "105739.760000", "105739.762000", "105739.765000", "105739.767000", "105739.770000", "105739.772000", "105739.775000", "105739.777000", "105739.780000", "105739.783000", "105739.785000", "105739.788000", "105739.790000", "105739.793000", "105739.795000", "105739.798000", "105739.800000", "105819.795000", "105819.798000", "105819.800000", "105819.803000", "105819.805000", "105819.808000", "105819.810000", "105819.813000", "105819.815000", "105819.818000", "105819.820000", "105819.823000", "105819.825000", "105819.828000", "105819.834000", "105819.837000", "105819.839000", "105819.842000", "105819.844000", "105819.847000", "105819.850000", "105819.852000", "105819.855000", "105819.857000", "105819.860000", "105819.862000", "105819.865000", "105819.868000", "105819.870000", "105819.873000", "105819.875000", "105819.878000", "105819.880000", "105859.768000", "105859.771000", "105859.773000", "105859.776000", "105859.779000", "105859.781000", "105859.784000", "105859.786000", "105859.789000", "105859.791000", "105859.794000", "105859.796000", "105859.799000", "105859.801000", "105859.804000", "105859.806000", "105859.809000", "105859.811000", "105859.814000", "105859.817000", "105859.819000", "105859.822000", "105859.824000", "105859.827000", "105859.829000", "105859.832000", "105859.834000", "105939.788000", "105939.790000", "105939.793000", "105939.795000", "105939.798000", "105939.801000", "105939.803000", "105939.806000", "105939.808000", "105939.811000", "105939.813000", "105939.816000", "105939.819000", "105939.821000", "105939.824000", "105939.826000", "105939.829000", "105939.831000", "105939.834000", "105939.836000", "105939.839000", "105939.842000", "105939.844000", "105939.847000", "105939.849000", "105939.852000", "105939.854000", "105957.613000", "105957.616000", "105957.619000", "105957.621000", "105957.624000", "105957.633000", "105957.636000", "105957.638000", "105957.641000", "105957.644000", "105957.646000", "105957.649000"],
      "InstanceCreationTime": ["105639.819000", "105639.822000", "105639.825000", "105639.828000", "105639.830000", "105639.833000", "105639.836000", "105639.839000", "105639.841000", "105639.844000", "105639.846000", "105639.849000", "105639.851000", "105639.854000", "105639.856000", "105639.859000", "105639.861000", "105639.864000", "105639.866000", "105639.872000", "105639.874000", "105639.877000", "105639.879000", "105639.882000", "105639.884000", "105639.887000", "105639.889000", "105639.892000", "105639.894000", "105639.897000", "105659.737000", "105659.740000", "105659.742000", "105659.745000", "105659.747000", "105659.750000", "105659.752000", "105659.755000", "105659.757000", "105659.760000", "105659.762000", "105659.765000", "105659.767000", "105659.770000", "105659.772000", "105659.775000", "105659.778000", "105659.781000", "105659.783000", "105659.786000", "105719.741000", "105719.744000", "105719.747000", "105719.749000", "105719.752000", "105719.754000", "105719.757000", "105719.759000", "105719.762000", "105719.764000", "105719.767000", "105719.769000", "105719.772000", "105719.775000", "105719.777000", "105719.780000", "105719.782000", "105719.785000", "105719.787000", "105719.790000", "105719.792000", "105739.752000", "105739.755000", "105739.757000", "105739.760000", "105739.762000", "105739.765000", "105739.767000", "105739.770000", "105739.772000", "105739.775000", "105739.777000", "105739.780000", "105739.783000", "105739.785000", "105739.788000", "105739.790000", "105739.793000", "105739.795000", "105739.798000", "105739.800000", "105819.795000", "105819.798000", "105819.800000", "105819.803000", "105819.805000", "105819.808000", "105819.810000", "105819.813000", "105819.815000", "105819.818000", "105819.820000", "105819.823000", "105819.825000", "105819.828000", "105819.834000", "105819.837000", "105819.839000", "105819.842000", "105819.844000", "105819.847000", "105819.850000", "105819.852000", "105819.855000", "105819.857000", "105819.860000", "105819.862000", "105819.865000", "105819.868000", "105819.870000", "105819.873000", "105819.875000", "105819.878000", "105819.880000", "105859.768000", "105859.771000", "105859.773000", "105859.776000", "105859.779000", "105859.781000", "105859.784000", "105859.786000", "105859.789000", "105859.791000", "105859.794000", "105859.796000", "105859.799000", "105859.801000", "105859.804000", "105859.806000", "105859.809000", "105859.811000", "105859.814000", "105859.817000", "105859.819000", "105859.822000", "105859.824000", "105859.827000", "105859.829000", "105859.832000", "105859.834000", "105939.788000", "105939.790000", "105939.793000", "105939.795000", "105939.798000", "105939.801000", "105939.803000", "105939.806000", "105939.808000", "105939.811000", "105939.813000", "105939.816000", "105939.819000", "105939.821000", "105939.824000", "105939.826000", "105939.829000", "105939.831000", "105939.834000", "105939.836000", "105939.839000", "105939.842000", "105939.844000", "105939.847000", "105939.849000", "105939.852000", "105939.854000", "105957.613000", "105957.616000", "105957.619000", "105957.621000", "105957.624000", "105957.633000", "105957.636000", "105957.638000", "105957.641000", "105957.644000", "105957.646000", "105957.649000"],
      "InstanceNumber": [1, 2, 3, 4, 5, 6, 7, 8, 9, 10, 11, 12, 13, 14, 15, 16, 17, 18, 19, 20, 21, 22, 23, 24, 25, 26, 27, 28, 29, 30, 31, 32, 33, 34, 35, 36, 37, 38, 39, 40, 41, 42, 43, 44, 45, 46, 47, 48, 49, 50, 51, 52, 53, 54, 55, 56, 57, 58, 59, 60, 61, 62, 63, 64, 65, 66, 67, 68, 69, 70, 71, 72, 73, 74, 75, 76, 77, 78, 79, 80, 81, 82, 83, 84, 85, 86, 87, 88, 89, 90, 91, 92, 93, 94, 95, 96, 97, 98, 99, 100, 101, 102, 103, 104, 105, 106, 107, 108, 109, 110, 111, 112, 113, 114, 115, 116, 117, 118, 119, 120, 121, 122, 123, 124, 125, 126, 127, 128, 129, 130, 131, 132, 133, 134, 135, 136, 137, 138, 139, 140, 141, 142, 143, 144, 145, 146, 147, 148, 149, 150, 151, 152, 153, 154, 155, 156, 157, 158, 159, 160, 161, 162, 163, 164, 165, 166, 167, 168, 169, 170, 171, 172, 173, 174, 175, 176, 177, 178, 179, 180, 181, 182, 183, 184, 185, 186, 187, 188, 189, 190],
      "WindowCenter": [4802.0, 4802.0, 4802.0, 4804.0, 4800.0, 4802.0, 4800.0, 4802.0, 4802.0, 4800.0, 4804.0, 4800.0, 4800.0, 4800.0, 4802.0, 4802.0, 4806.0, 4804.0, 4804.0, 4804.0, 4784.0, 4782.0, 4798.0, 4804.0, 4800.0, 4828.0, 4800.0, 4802.0, 4802.0, 4808.0, 4802.0, 4804.0, 4804.0, 4802.0, 4804.0, 4800.0, 4800.0, 4780.0, 4802.0, 4798.0, 4802.0, 4802.0, 4804.0, 4802.0, 4806.0, 4804.0, 4784.0, 4806.0, 4806.0, 4802.0, 4798.0, 4800.0, 4802.0, 4802.0, 4804.0, 4780.0, 4778.0, 4804.0, 4804.0, 4802.0, 4802.0, 4804.0, 4802.0, 4804.0, 4782.0, 4780.0, 4798.0, 4800.0, 4804.0, 4804.0, 4804.0, 4804.0, 4802.0, 4804.0, 4802.0, 4804.0, 4802.0, 4804.0, 4804.0, 4802.0, 4800.0, 4802.0, 4804.0, 4776.0, 4800.0, 4806.0, 4804.0, 4804.0, 4802.0, 4808.0, 4802.0, 4782.0, 4784.0, 4800.0, 4802.0, 4802.0, 4804.0, 4802.0, 4800.0, 4800.0, 4802.0, 4804.0, 4806.0, 4804.0, 4802.0, 4802.0, 4802.0, 4802.0, 4800.0, 4802.0, 4802.0, 4804.0, 4790.0, 4808.0, 4804.0, 4800.0, 4800.0, 4804.0, 4802.0, 4802.0, 4802.0, 4804.0, 4804.0, 4804.0, 4804.0, 4806.0, 4804.0, 4806.0, 4802.0, 4802.0, 4804.0, 4802.0, 4802.0, 4802.0, 4802.0, 4804.0, 4804.0, 4802.0, 4802.0, 4804.0, 4806.0, 4800.0, 4802.0, 4800.0, 4800.0, 4802.0, 4802.0, 4808.0, 4788.0, 4806.0, 4806.0, 4806.0, 4800.0, 4804.0, 4802.0, 4804.0, 4802.0, 4804.0, 4800.0, 4806.0, 4806.0, 4806.0, 4804.0, 4802.0, 4802.0, 4802.0, 4804.0, 4782.0, 4802.0, 4802.0, 4802.0, 4804.0, 4802.0, 4802.0, 4804.0, 4806.0, 4806.0, 4830.0, 4804.0, 4804.0, 4800.0, 4778.0, 4800.0, 4804.0, 4802.0, 4806.0, 4802.0, 4802.0, 4806.0, 4804.0],
      "WindowWidth": [18610.0, 18614.0, 18610.0, 18622.0, 18614.0, 18612.0, 18612.0, 18614.0, 18614.0, 18612.0, 18616.0, 18612.0, 18614.0, 18610.0, 18612.0, 18614.0, 18614.0, 18620.0, 18618.0, 18624.0, 18584.0, 18588.0, 18610.0, 18612.0, 18604.0, 18638.0, 18616.0, 18616.0, 18616.0, 18622.0, 18620.0, 18620.0, 18618.0, 18612.0, 18616.0, 18614.0, 18610.0, 18580.0, 18618.0, 18606.0, 18614.0, 18614.0, 18614.0, 18610.0, 18614.0, 18614.0, 18582.0, 18618.0, 18620.0, 18614.0, 18614.0, 18612.0, 18614.0, 18608.0, 18612.0, 18582.0, 18580.0, 18614.0, 18618.0, 18614.0, 18612.0, 18620.0, 18614.0, 18616.0, 18582.0, 18580.0, 18606.0, 18614.0, 18614.0, 18608.0, 18612.0, 18616.0, 18616.0, 18620.0, 18616.0, 18618.0, 18614.0, 18610.0, 18618.0, 18610.0, 18618.0, 18610.0, 18612.0, 18582.0, 18610.0, 18618.0, 18614.0, 18618.0, 18614.0, 18616.0, 18610.0, 18578.0, 18586.0, 18612.0, 18612.0, 18610.0, 18608.0, 18612.0, 18608.0, 18610.0, 18616.0, 18622.0, 18624.0, 18620.0, 18616.0, 18614.0, 18618.0, 18612.0, 18612.0, 18612.0, 18610.0, 18616.0, 18586.0, 18614.0, 18612.0, 18616.0, 18608.0, 18612.0, 18614.0, 18614.0, 18618.0, 18616.0, 18618.0, 18618.0, 18622.0, 18618.0, 18616.0, 18622.0, 18618.0, 18618.0, 18620.0, 18614.0, 18614.0, 18614.0, 18616.0, 18620.0, 18616.0, 18612.0, 18616.0, 18610.0, 18614.0, 18612.0, 18610.0, 18612.0, 18608.0, 18614.0, 18606.0, 18618.0, 18586.0, 18622.0, 18622.0, 18620.0, 18614.0, 18610.0, 18614.0, 18614.0, 18614.0, 18616.0, 18612.0, 18620.0, 18622.0, 18618.0, 18618.0, 18618.0, 18618.0, 18614.0, 18614.0, 18580.0, 18614.0, 18610.0, 18614.0, 18612.0, 18612.0, 18618.0, 18620.0, 18620.0, 18620.0, 18652.0, 18616.0, 18614.0, 18612.0, 18582.0, 18608.0, 18608.0, 18610.0, 18616.0, 18614.0, 18616.0, 18618.0, 18612.0]
    },
    "slices": {}
  }
}