{
  "AcquisitionMatrixPE": 104,
  "AcquisitionNumber": 1,
  "AcquisitionTime": "11:19:35.445000",
  "BandwidthPerPixelPhaseEncode": 17.17,
  "BaseResolution": 104,
  "BodyPartExamined": "BRAIN",
  "CoilString": "HC1-7;NC1_2",
  "ConsistencyInfo": "N4_VE11C_LATEST_20160120",
  "ConversionSoftware": "dcm2niix",
  "ConversionSoftwareVersion": "v1.0.20190902",
  "DerivedVendorReportedEchoSpacing": 0.000560011,
  "DeviceSerialNumber": "167006",
  "DwellTime": 2.1e-06,
  "EchoTime": 0.037,
  "EchoTrainLength": 104,
  "EffectiveEchoSpacing": 0.000560011,
  "FlipAngle": 52,
  "HeudiconvVersion": "0.10.0",
  "ImageComments": "Unaliased_MB4_PE3_LB",
  "ImageOrientationPatientDICOM": [0.999763, 0.014328, 0.0163963, -0.00383882, 0.85719, -0.514986],
  "ImageType": [
    "ORIGINAL",
    "PRIMARY",
    "P",
    "MB",
    "ND",
    "MOSAIC"
],
  "ImagingFrequency": 123.259,
  "InPlanePhaseEncodingDirectionDICOM": "COL",
  "InstitutionAddress": "Chemin_Queen-Mary_4565_Montreal_District_CA_H3W_1W5",
  "InstitutionName": "IUGM",
  "InstitutionalDepartmentName": "Department",
  "MRAcquisitionType": "2D",
  "MagneticFieldStrength": 3,
  "Manufacturer": "Siemens",
  "ManufacturersModelName": "Prisma_fit",
  "Modality": "MR",
  "MultibandAccelerationFactor": 4,
  "PartialFourier": 1,
  "PatientPosition": "HFS",
  "PercentPhaseFOV": 100,
  "PhaseEncodingDirection": "j",
  "PhaseEncodingSteps": 104,
  "PhaseResolution": 1,
  "PixelBandwidth": 2290,
  "ProcedureStepDescription": "memory_things",
  "ProtocolName": "func_task-things_run-6",
  "PulseSequenceDetails": "%CustomerSeq%_cmrr_mbep2d_bold",
  "ReceiveCoilActiveElements": "HC1-7;NC1,2",
  "ReceiveCoilName": "HeadNeck_64",
  "ReconMatrixPE": 104,
  "RepetitionTime": 1.49,
  "SAR": 0.0482169,
  "ScanOptions": "FS",
  "ScanningSequence": "EP",
  "SequenceName": "epfid2d1_104",
  "SequenceVariant": "SK_SS",
  "SeriesDescription": "func_task-things_run-6",
  "SeriesNumber": 26,
  "ShimSetting": [619, -7187, -8865, 285, 16, -164, -19, -26],
  "SliceThickness": 2,
  "SliceTiming": [0, 0.785, 0.1, 0.8825, 0.1975, 0.98, 0.295, 1.08, 0.3925, 1.1775, 0.49, 1.275, 0.59, 1.3725, 0.6875, 0, 0.785, 0.1, 0.8825, 0.1975, 0.98, 0.295, 1.08, 0.3925, 1.1775, 0.49, 1.275, 0.59, 1.3725, 0.6875, 0, 0.785, 0.1, 0.8825, 0.1975, 0.98, 0.295, 1.08, 0.3925, 1.1775, 0.49, 1.275, 0.59, 1.3725, 0.6875, 0, 0.785, 0.1, 0.8825, 0.1975, 0.98, 0.295, 1.08, 0.3925, 1.1775, 0.49, 1.275, 0.59, 1.3725, 0.6875],
  "SoftwareVersions": "syngo_MR_E11",
  "SpacingBetweenSlices": 2,
  "StationName": "MRC35049",
  "TaskName": "things",
  "TotalReadoutTime": 0.0576811,
  "TxRefAmp": 265.243,
  "WipMemBlock": "353303ee-369b-4ba0-b7c7-70cef33938e5||Sequence: R016 ve11c/master r/e634e98; Dec 19 2017 11:00:25 by eja",
  "dcmmeta_affine": [
    [-1.999525785446167, -0.0076776412315666676, 0.04286693036556244, 106.66427612304688],
    [-0.028655918315052986, 1.7143802642822266, -1.0296014547348022, -48.91892623901367],
    [0.032792653888463974, 1.0299714803695679, 1.7140837907791138, -94.829833984375],
    [0.0, 0.0, 0.0, 1.0]
],
  "dcmmeta_reorient_transform": [
    [0.0, -1.0, 0.0, 103.0],
    [1.0, 0.0, 0.0, 0.0],
    [0.0, 0.0, 1.0, 0.0],
    [0.0, 0.0, 0.0, 1.0]
],
  "dcmmeta_shape": [104, 104, 60, 190],
  "dcmmeta_slice_dim": 2,
  "dcmmeta_version": 0.6,
  "global": {
    "const": {
      "AcquisitionMatrix": [104, 0, 0, 104],
      "AngioFlag": "N",
      "BitsAllocated": 16,
      "BitsStored": 16,
      "BodyPartExamined": "BRAIN",
      "Columns": 832,
      "EchoNumbers": 1,
      "EchoTime": 37.0,
      "EchoTrainLength": 104,
      "FlipAngle": 52.0,
      "HighBit": 15,
      "ImageOrientationPatient": [0.99976290691307, 0.01432795936255, 0.01639632706552, -0.0038388205889, 0.85719013529491, -0.5149857623368],
      "ImagePositionPatient": [-830.90621764645, -762.12741541175, 374.23034080973],
      "ImageType": [
        "ORIGINAL",
        "PRIMARY",
        "P",
        "MB",
        "ND",
        "MOSAIC"
],
      "ImagedNucleus": "1H",
      "ImagingFrequency": 123.258896,
      "InPlanePhaseEncodingDirection": "COL",
      "LargestImagePixelValue": 4095,
      "MRAcquisitionType": "2D",
      "MagneticFieldStrength": 3.0,
      "Manufacturer": "SIEMENS",
      "ManufacturerModelName": "Prisma_fit",
      "Modality": "MR",
      "NumberOfAverages": 1.0,
      "NumberOfPhaseEncodingSteps": 104,
      "PercentPhaseFieldOfView": 100.0,
      "PercentSampling": 100.0,
      "PerformedProcedureStepStartTime": "095205.017000",
      "PhotometricInterpretation": "MONOCHROME2",
      "PixelBandwidth": 2290.0,
      "PixelRepresentation": 0,
      "PixelSpacing": [2.0, 2.0],
      "ProtocolName": "func_task-things_run-6",
      "RepetitionTime": 1490.0,
      "RescaleIntercept": -4096.0,
      "RescaleSlope": 2.0,
      "RescaleType": "US",
      "Rows": 832,
      "SAR": 0.04821690132269,
      "SamplesPerPixel": 1,
      "ScanOptions": "FS",
      "ScanningSequence": "EP",
      "SequenceName": "epfid2d1_104",
      "SequenceVariant": [
        "SK",
        "SS"
],
      "SeriesDescription": "func_task-things_run-6",
      "SeriesNumber": 26,
      "SeriesTime": "112059.804000",
      "SliceLocation": -53.803459319363,
      "SliceThickness": 2.0,
      "SmallestImagePixelValue": 0,
      "SoftwareVersions": "syngo MR E11",
      "SpacingBetweenSlices": 1.9999999776776,
      "SpecificCharacterSet": "ISO_IR 100",
      "StudyID": "1",
      "StudyTime": "095204.927000",
      "TransmitCoilName": "Body",
      "VariableFlipAngleFlag": "N",
      "WindowCenterWidthExplanation": "Algo1",
      "dBdt": 0.0},
    "slices": {}
  },
  "time": {
    "samples": {
      "AcquisitionNumber": [1, 2, 3, 4, 5, 6, 7, 8, 9, 10, 11, 12, 13, 14, 15, 16, 17, 18, 19, 20, 21, 22, 23, 24, 25, 26, 27, 28, 29, 30, 31, 32, 33, 34, 35, 36, 37, 38, 39, 40, 41, 42, 43, 44, 45, 46, 47, 48, 49, 50, 51, 52, 53, 54, 55, 56, 57, 58, 59, 60, 61, 62, 63, 64, 65, 66, 67, 68, 69, 70, 71, 72, 73, 74, 75, 76, 77, 78, 79, 80, 81, 82, 83, 84, 85, 86, 87, 88, 89, 90, 91, 92, 93, 94, 95, 96, 97, 98, 99, 100, 101, 102, 103, 104, 105, 106, 107, 108, 109, 110, 111, 112, 113, 114, 115, 116, 117, 118, 119, 120, 121, 122, 123, 124, 125, 126, 127, 128, 129, 130, 131, 132, 133, 134, 135, 136, 137, 138, 139, 140, 141, 142, 143, 144, 145, 146, 147, 148, 149, 150, 151, 152, 153, 154, 155, 156, 157, 158, 159, 160, 161, 162, 163, 164, 165, 166, 167, 168, 169, 170, 171, 172, 173, 174, 175, 176, 177, 178, 179, 180, 181, 182, 183, 184, 185, 186, 187, 188, 189, 190],
      "AcquisitionTime": ["111935.445000", "111936.935000", "111938.425000", "111939.915000", "111941.405000", "111942.895000", "111944.385000", "111945.875000", "111947.365000", "111948.855000", "111950.345000", "111951.835000", "111953.325000", "111954.815000", "111956.305000", "111957.795000", "111959.285000", "112000.775000", "112002.265000", "112003.755000", "112005.245000", "112006.735000", "112008.225000", "112009.715000", "112011.205000", "112012.695000", "112014.185000", "112015.675000", "112017.165000", "112018.655000", "112020.145000", "112021.635000", "112023.125000", "112024.615000", "112026.105000", "112027.595000", "112029.085000", "112030.575000", "112032.065000", "112033.555000", "112035.045000", "112036.535000", "112038.025000", "112039.515000", "112041.005000", "112042.495000", "112043.985000", "112045.475000", "112046.965000", "112048.455000", "112049.945000", "112051.435000", "112052.925000", "112054.415000", "112055.905000", "112057.395000", "112058.885000", "112100.375000", "112101.865000", "112103.355000", "112104.845000", "112106.335000", "112107.825000", "112109.315000", "112110.805000", "112112.295000", "112113.785000", "112115.275000", "112116.765000", "112118.255000", "112119.745000", "112121.235000", "112122.725000", "112124.215000", "112125.705000", "112127.195000", "112128.685000", "112130.175000", "112131.665000", "112133.155000", "112134.645000", "112136.135000", "112137.625000", "112139.115000", "112140.605000", "112142.095000", "112143.585000", "112145.075000", "112146.565000", "112148.055000", "112149.545000", "112151.035000", "112152.525000", "112154.015000", "112155.505000", "112156.995000", "112158.485000", "112159.975000", "112201.465000", "112202.955000", "112204.445000", "112205.935000", "112207.425000", "112208.915000", "112210.405000", "112211.895000", "112213.385000", "112214.875000", "112216.365000", "112217.855000", "112219.345000", "112220.835000", "112222.325000", "112223.815000", "112225.305000", "112226.795000", "112228.285000", "112229.775000", "112231.265000", "112232.755000", "112234.245000", "112235.735000", "112237.225000", "112238.715000", "112240.205000", "112241.695000", "112243.185000", "112244.675000", "112246.165000", "112247.655000", "112249.145000", "112250.635000", "112252.125000", "112253.615000", "112255.105000", "112256.595000", "112258.085000", "112259.575000", "112301.065000", "112302.555000", "112304.045000", "112305.535000", "112307.025000", "112308.515000", "112310.005000", "112311.495000", "112312.985000", "112314.475000", "112315.965000", "112317.455000", "112318.945000", "112320.435000", "112321.925000", "112323.415000", "112324.905000", "112326.395000", "112327.885000", "112329.375000", "112330.865000", "112332.355000", "112333.845000", "112335.335000", "112336.825000", "112338.315000", "112339.805000", "112341.295000", "112342.785000", "112344.275000", "112345.765000", "112347.255000", "112348.745000", "112350.235000", "112351.725000", "112353.215000", "112354.705000", "112356.195000", "112357.685000", "112359.175000", "112400.665000", "112402.155000", "112403.645000", "112405.135000", "112406.625000", "112408.115000", "112409.605000", "112411.095000", "112412.585000", "112414.075000", "112415.565000", "112417.055000"],
      "ContentTime": ["112059.806000", "112059.818000", "112059.820000", "112059.831000", "112059.833000", "112059.836000", "112059.838000", "112059.841000", "112059.843000", "112059.846000", "112059.848000", "112059.851000", "112059.853000", "112059.856000", "112059.858000", "112059.861000", "112059.863000", "112059.866000", "112059.876000", "112059.878000", "112059.881000", "112059.883000", "112059.886000", "112059.889000", "112059.891000", "112059.894000", "112059.896000", "112059.899000", "112119.723000", "112119.726000", "112119.728000", "112119.731000", "112119.733000", "112119.736000", "112119.738000", "112119.741000", "112119.743000", "112119.746000", "112119.749000", "112119.751000", "112119.754000", "112119.763000", "112119.765000", "112119.768000", "112119.770000", "112119.773000", "112119.775000", "112119.778000", "112139.733000", "112139.736000", "112139.739000", "112139.741000", "112139.744000", "112139.746000", "112139.749000", "112139.751000", "112139.754000", "112139.761000", "112139.764000", "112139.766000", "112139.769000", "112139.771000", "112139.774000", "112139.776000", "112139.779000", "112139.781000", "112139.784000", "112139.786000", "112159.732000", "112159.735000", "112159.738000", "112159.740000", "112159.743000", "112159.745000", "112159.748000", "112159.750000", "112159.753000", "112159.755000", "112159.758000", "112159.760000", "112159.763000", "112159.765000", "112159.768000", "112159.770000", "112159.773000", "112159.775000", "112159.778000", "112159.780000", "112219.739000", "112219.741000", "112219.744000", "112219.746000", "112219.749000", "112219.751000", "112219.754000", "112219.756000", "112219.759000", "112219.761000", "112219.764000", "112219.766000", "112219.769000", "112219.772000", "112219.774000", "112219.777000", "112219.779000", "112219.782000", "112219.784000", "112219.787000", "112259.780000", "112259.783000", "112259.786000", "112259.788000", "112259.791000", "112259.793000", "112259.796000", "112259.799000", "112259.801000", "112259.804000", "112259.806000", "112259.809000", "112259.812000", "112259.816000", "112259.820000", "112259.824000", "112259.827000", "112259.842000", "112259.845000", "112259.848000", "112259.850000", "112259.853000", "112259.855000", "112259.858000", "112259.860000", "112259.863000", "112259.865000", "112259.868000", "112339.760000", "112339.762000", "112339.765000", "112339.767000", "112339.770000", "112339.772000", "112339.775000", "112339.777000", "112339.780000", "112339.782000", "112339.785000", "112339.788000", "112339.790000", "112339.793000", "112339.796000", "112339.798000", "112339.801000", "112339.803000", "112339.806000", "112339.808000", "112339.811000", "112339.814000", "112339.816000", "112339.819000", "112339.821000", "112339.824000", "112339.826000", "112418.981000", "112418.984000", "112418.986000", "112418.989000", "112418.991000", "112418.994000", "112418.997000", "112419.000000", "112419.003000", "112419.005000", "112419.008000", "112419.010000", "112419.013000", "112419.015000", "112419.018000", "112419.020000", "112419.023000", "112419.025000", "112419.028000", "112419.031000", "112419.033000", "112419.036000", "112419.038000", "112419.041000", "112419.043000", "112419.046000", "112419.048000"],
      "InstanceCreationTime": ["112059.806000", "112059.818000", "112059.820000", "112059.831000", "112059.833000", "112059.836000", "112059.838000", "112059.841000", "112059.843000", "112059.846000", "112059.848000", "112059.851000", "112059.853000", "112059.856000", "112059.858000", "112059.861000", "112059.863000", "112059.866000", "112059.876000", "112059.878000", "112059.881000", "112059.883000", "112059.886000", "112059.889000", "112059.891000", "112059.894000", "112059.896000", "112059.899000", "112119.723000", "112119.726000", "112119.728000", "112119.731000", "112119.733000", "112119.736000", "112119.738000", "112119.741000", "112119.743000", "112119.746000", "112119.749000", "112119.751000", "112119.754000", "112119.763000", "112119.765000", "112119.768000", "112119.770000", "112119.773000", "112119.775000", "112119.778000", "112139.733000", "112139.736000", "112139.739000", "112139.741000", "112139.744000", "112139.746000", "112139.749000", "112139.751000", "112139.754000", "112139.761000", "112139.764000", "112139.766000", "112139.769000", "112139.771000", "112139.774000", "112139.776000", "112139.779000", "112139.781000", "112139.784000", "112139.786000", "112159.732000", "112159.735000", "112159.738000", "112159.740000", "112159.743000", "112159.745000", "112159.748000", "112159.750000", "112159.753000", "112159.755000", "112159.758000", "112159.760000", "112159.763000", "112159.765000", "112159.768000", "112159.770000", "112159.773000", "112159.775000", "112159.778000", "112159.780000", "112219.739000", "112219.741000", "112219.744000", "112219.746000", "112219.749000", "112219.751000", "112219.754000", "112219.756000", "112219.759000", "112219.761000", "112219.764000", "112219.766000", "112219.769000", "112219.772000", "112219.774000", "112219.777000", "112219.779000", "112219.782000", "112219.784000", "112219.787000", "112259.780000", "112259.783000", "112259.786000", "112259.788000", "112259.791000", "112259.793000", "112259.796000", "112259.799000", "112259.801000", "112259.804000", "112259.806000", "112259.809000", "112259.812000", "112259.816000", "112259.820000", "112259.824000", "112259.827000", "112259.842000", "112259.845000", "112259.848000", "112259.850000", "112259.853000", "112259.855000", "112259.858000", "112259.860000", "112259.863000", "112259.865000", "112259.868000", "112339.760000", "112339.762000", "112339.765000", "112339.767000", "112339.770000", "112339.772000", "112339.775000", "112339.777000", "112339.780000", "112339.782000", "112339.785000", "112339.788000", "112339.790000", "112339.793000", "112339.796000", "112339.798000", "112339.801000", "112339.803000", "112339.806000", "112339.808000", "112339.811000", "112339.814000", "112339.816000", "112339.819000", "112339.821000", "112339.824000", "112339.826000", "112418.981000", "112418.984000", "112418.986000", "112418.989000", "112418.991000", "112418.994000", "112418.997000", "112419.000000", "112419.003000", "112419.005000", "112419.008000", "112419.010000", "112419.013000", "112419.015000", "112419.018000", "112419.020000", "112419.023000", "112419.025000", "112419.028000", "112419.031000", "112419.033000", "112419.036000", "112419.038000", "112419.041000", "112419.043000", "112419.046000", "112419.048000"],
      "InstanceNumber": [1, 2, 3, 4, 5, 6, 7, 8, 9, 10, 11, 12, 13, 14, 15, 16, 17, 18, 19, 20, 21, 22, 23, 24, 25, 26, 27, 28, 29, 30, 31, 32, 33, 34, 35, 36, 37, 38, 39, 40, 41, 42, 43, 44, 45, 46, 47, 48, 49, 50, 51, 52, 53, 54, 55, 56, 57, 58, 59, 60, 61, 62, 63, 64, 65, 66, 67, 68, 69, 70, 71, 72, 73, 74, 75, 76, 77, 78, 79, 80, 81, 82, 83, 84, 85, 86, 87, 88, 89, 90, 91, 92, 93, 94, 95, 96, 97, 98, 99, 100, 101, 102, 103, 104, 105, 106, 107, 108, 109, 110, 111, 112, 113, 114, 115, 116, 117, 118, 119, 120, 121, 122, 123, 124, 125, 126, 127, 128, 129, 130, 131, 132, 133, 134, 135, 136, 137, 138, 139, 140, 141, 142, 143, 144, 145, 146, 147, 148, 149, 150, 151, 152, 153, 154, 155, 156, 157, 158, 159, 160, 161, 162, 163, 164, 165, 166, 167, 168, 169, 170, 171, 172, 173, 174, 175, 176, 177, 178, 179, 180, 181, 182, 183, 184, 185, 186, 187, 188, 189, 190],
      "WindowCenter": [4776.0, 4798.0, 4798.0, 4796.0, 4798.0, 4796.0, 4800.0, 4800.0, 4804.0, 4780.0, 4776.0, 4796.0, 4770.0, 4800.0, 4794.0, 4798.0, 4796.0, 4770.0, 4774.0, 4780.0, 4776.0, 4798.0, 4800.0, 4774.0, 4772.0, 4790.0, 4826.0, 4790.0, 4770.0, 4768.0, 4796.0, 4796.0, 4772.0, 4794.0, 4798.0, 4798.0, 4796.0, 4796.0, 4778.0, 4796.0, 4798.0, 4774.0, 4796.0, 4800.0, 4776.0, 4774.0, 4770.0, 4770.0, 4826.0, 4828.0, 4804.0, 4796.0, 4778.0, 4786.0, 4784.0, 4776.0, 4796.0, 4800.0, 4826.0, 4798.0, 4798.0, 4796.0, 4776.0, 4776.0, 4774.0, 4770.0, 4774.0, 4782.0, 4754.0, 4792.0, 4858.0, 4868.0, 4864.0, 4772.0, 4774.0, 4774.0, 4776.0, 4780.0, 4770.0, 4794.0, 4798.0, 4822.0, 4826.0, 4774.0, 4772.0, 4774.0, 4796.0, 4776.0, 4786.0, 4752.0, 4768.0, 4822.0, 4872.0, 4872.0, 4860.0, 4794.0, 4776.0, 4802.0, 4782.0, 4804.0, 4800.0, 4774.0, 4796.0, 4824.0, 4830.0, 4798.0, 4794.0, 4774.0, 4796.0, 4778.0, 4780.0, 4774.0, 4772.0, 4822.0, 4768.0, 4752.0, 4746.0, 4794.0, 4796.0, 4770.0, 4792.0, 4796.0, 4770.0, 4770.0, 4776.0, 4774.0, 4772.0, 4770.0, 4796.0, 4794.0, 4800.0, 4772.0, 4774.0, 4796.0, 4774.0, 4772.0, 4770.0, 4796.0, 4798.0, 4792.0, 4800.0, 4774.0, 4772.0, 4774.0, 4778.0, 4774.0, 4796.0, 4796.0, 4798.0, 4796.0, 4796.0, 4798.0, 4798.0, 4796.0, 4774.0, 4800.0, 4800.0, 4798.0, 4778.0, 4798.0, 4774.0, 4774.0, 4774.0, 4752.0, 4750.0, 4792.0, 4826.0, 4792.0, 4794.0, 4792.0, 4794.0, 4796.0, 4776.0, 4778.0, 4798.0, 4776.0, 4798.0, 4800.0, 4772.0, 4790.0, 4796.0, 4796.0, 4772.0, 4774.0, 4772.0, 4772.0, 4794.0, 4794.0, 4752.0, 4764.0],
      "WindowWidth": [18580.0, 18614.0, 18608.0, 18602.0, 18604.0, 18606.0, 18612.0, 18614.0, 18612.0, 18580.0, 18580.0, 18610.0, 18572.0, 18610.0, 18602.0, 18604.0, 18604.0, 18580.0, 18576.0, 18586.0, 18580.0, 18616.0, 18610.0, 18580.0, 18582.0, 18602.0, 18638.0, 18604.0, 18582.0, 18574.0, 18608.0, 18608.0, 18584.0, 18608.0, 18610.0, 18614.0, 18606.0, 18610.0, 18584.0, 18612.0, 18608.0, 18584.0, 18608.0, 18610.0, 18574.0, 18578.0, 18576.0, 18572.0, 18640.0, 18642.0, 18608.0, 18596.0, 18584.0, 18578.0, 18582.0, 18586.0, 18612.0, 18608.0, 18634.0, 18602.0, 18600.0, 18608.0, 18584.0, 18582.0, 18582.0, 18574.0, 18580.0, 18570.0, 18544.0, 18602.0, 18678.0, 18688.0, 18686.0, 18580.0, 18576.0, 18580.0, 18580.0, 18590.0, 18580.0, 18606.0, 18606.0, 18642.0, 18638.0, 18578.0, 18580.0, 18582.0, 18612.0, 18582.0, 18570.0, 18534.0, 18576.0, 18640.0, 18690.0, 18688.0, 18682.0, 18602.0, 18584.0, 18618.0, 18590.0, 18618.0, 18614.0, 18580.0, 18602.0, 18634.0, 18640.0, 18602.0, 18598.0, 18584.0, 18616.0, 18584.0, 18584.0, 18582.0, 18578.0, 18634.0, 18574.0, 18546.0, 18542.0, 18604.0, 18606.0, 18574.0, 18602.0, 18608.0, 18582.0, 18572.0, 18578.0, 18584.0, 18580.0, 18572.0, 18608.0, 18604.0, 18604.0, 18578.0, 18576.0, 18608.0, 18582.0, 18582.0, 18576.0, 18606.0, 18600.0, 18604.0, 18604.0, 18580.0, 18580.0, 18582.0, 18582.0, 18582.0, 18610.0, 18610.0, 18602.0, 18608.0, 18606.0, 18610.0, 18614.0, 18608.0, 18578.0, 18606.0, 18614.0, 18614.0, 18584.0, 18608.0, 18582.0, 18582.0, 18578.0, 18548.0, 18550.0, 18602.0, 18640.0, 18600.0, 18602.0, 18604.0, 18606.0, 18610.0, 18584.0, 18586.0, 18616.0, 18588.0, 18610.0, 18610.0, 18580.0, 18600.0, 18606.0, 18602.0, 18578.0, 18582.0, 18580.0, 18576.0, 18604.0, 18606.0, 18536.0, 18530.0]
    },
    "slices": {}
  }
}