{
  "AcquisitionMatrixPE": 104,
  "AcquisitionNumber": 1,
  "AcquisitionTime": "10:49:7.795000",
  "BandwidthPerPixelPhaseEncode": 17.17,
  "BaseResolution": 104,
  "BodyPartExamined": "BRAIN",
  "CoilString": "HC1-7;NC1_2",
  "ConsistencyInfo": "N4_VE11C_LATEST_20160120",
  "ConversionSoftware": "dcm2niix",
  "ConversionSoftwareVersion": "v1.0.20190902",
  "DerivedVendorReportedEchoSpacing": 0.000560011,
  "DeviceSerialNumber": "167006",
  "DwellTime": 2.1e-06,
  "EchoTime": 0.037,
  "EchoTrainLength": 104,
  "EffectiveEchoSpacing": 0.000560011,
  "FlipAngle": 52,
  "HeudiconvVersion": "0.10.0",
  "ImageComments": "Unaliased_MB4_PE3_LB",
  "ImageOrientationPatientDICOM": [0.999763, 0.014328, 0.0163963, -0.00383882, 0.85719, -0.514986],
  "ImageType": [
    "ORIGINAL",
    "PRIMARY",
    "P",
    "MB",
    "ND",
    "MOSAIC"
],
  "ImagingFrequency": 123.259,
  "InPlanePhaseEncodingDirectionDICOM": "COL",
  "InstitutionAddress": "Chemin_Queen-Mary_4565_Montreal_District_CA_H3W_1W5",
  "InstitutionName": "IUGM",
  "InstitutionalDepartmentName": "Department",
  "MRAcquisitionType": "2D",
  "MagneticFieldStrength": 3,
  "Manufacturer": "Siemens",
  "ManufacturersModelName": "Prisma_fit",
  "Modality": "MR",
  "MultibandAccelerationFactor": 4,
  "PartialFourier": 1,
  "PatientPosition": "HFS",
  "PercentPhaseFOV": 100,
  "PhaseEncodingDirection": "j",
  "PhaseEncodingSteps": 104,
  "PhaseResolution": 1,
  "PixelBandwidth": 2290,
  "ProcedureStepDescription": "memory_things",
  "ProtocolName": "func_task-things_run-1",
  "PulseSequenceDetails": "%CustomerSeq%_cmrr_mbep2d_bold",
  "ReceiveCoilActiveElements": "HC1-7;NC1,2",
  "ReceiveCoilName": "HeadNeck_64",
  "ReconMatrixPE": 104,
  "RepetitionTime": 1.49,
  "SAR": 0.0482169,
  "ScanOptions": "FS",
  "ScanningSequence": "EP",
  "SequenceName": "epfid2d1_104",
  "SequenceVariant": "SK_SS",
  "SeriesDescription": "func_task-things_run-1",
  "SeriesNumber": 11,
  "ShimSetting": [619, -7187, -8865, 285, 16, -164, -19, -26],
  "SliceThickness": 2,
  "SliceTiming": [0, 0.785, 0.0975, 0.8825, 0.195, 0.98, 0.295, 1.0775, 0.3925, 1.175, 0.49, 1.275, 0.5875, 1.3725, 0.685, 0, 0.785, 0.0975, 0.8825, 0.195, 0.98, 0.295, 1.0775, 0.3925, 1.175, 0.49, 1.275, 0.5875, 1.3725, 0.685, 0, 0.785, 0.0975, 0.8825, 0.195, 0.98, 0.295, 1.0775, 0.3925, 1.175, 0.49, 1.275, 0.5875, 1.3725, 0.685, 0, 0.785, 0.0975, 0.8825, 0.195, 0.98, 0.295, 1.0775, 0.3925, 1.175, 0.49, 1.275, 0.5875, 1.3725, 0.685],
  "SoftwareVersions": "syngo_MR_E11",
  "SpacingBetweenSlices": 2,
  "StationName": "MRC35049",
  "TaskName": "things",
  "TotalReadoutTime": 0.0576811,
  "TxRefAmp": 265.243,
  "WipMemBlock": "103cb83a-f3e0-410d-9ee5-07c62d604444||Sequence: R016 ve11c/master r/e634e98; Dec 19 2017 11:00:25 by eja",
  "dcmmeta_affine": [
    [-1.999525785446167, -0.0076776412315666676, 0.04286693036556244, 106.66427612304688],
    [-0.028655918315052986, 1.7143802642822266, -1.0296014547348022, -48.91892623901367],
    [0.032792653888463974, 1.0299714803695679, 1.7140837907791138, -94.829833984375],
    [0.0, 0.0, 0.0, 1.0]
],
  "dcmmeta_reorient_transform": [
    [0.0, -1.0, 0.0, 103.0],
    [1.0, 0.0, 0.0, 0.0],
    [0.0, 0.0, 1.0, 0.0],
    [0.0, 0.0, 0.0, 1.0]
],
  "dcmmeta_shape": [104, 104, 60, 190],
  "dcmmeta_slice_dim": 2,
  "dcmmeta_version": 0.6,
  "global": {
    "const": {
      "AcquisitionMatrix": [104, 0, 0, 104],
      "AngioFlag": "N",
      "BitsAllocated": 16,
      "BitsStored": 16,
      "BodyPartExamined": "BRAIN",
      "Columns": 832,
      "EchoNumbers": 1,
      "EchoTime": 37.0,
      "EchoTrainLength": 104,
      "FlipAngle": 52.0,
      "HighBit": 15,
      "ImageOrientationPatient": [0.99976290691307, 0.01432795936255, 0.01639632706552, -0.0038388205889, 0.85719013529491, -0.5149857623368],
      "ImagePositionPatient": [-830.90621764645, -762.12741541175, 374.23034080973],
      "ImageType": [
        "ORIGINAL",
        "PRIMARY",
        "P",
        "MB",
        "ND",
        "MOSAIC"
],
      "ImagedNucleus": "1H",
      "ImagingFrequency": 123.25888,
      "InPlanePhaseEncodingDirection": "COL",
      "LargestImagePixelValue": 4095,
      "MRAcquisitionType": "2D",
      "MagneticFieldStrength": 3.0,
      "Manufacturer": "SIEMENS",
      "ManufacturerModelName": "Prisma_fit",
      "Modality": "MR",
      "NumberOfAverages": 1.0,
      "NumberOfPhaseEncodingSteps": 104,
      "PercentPhaseFieldOfView": 100.0,
      "PercentSampling": 100.0,
      "PerformedProcedureStepStartTime": "095205.017000",
      "PhotometricInterpretation": "MONOCHROME2",
      "PixelBandwidth": 2290.0,
      "PixelRepresentation": 0,
      "PixelSpacing": [2.0, 2.0],
      "ProtocolName": "func_task-things_run-1",
      "RepetitionTime": 1490.0,
      "RescaleIntercept": -4096.0,
      "RescaleSlope": 2.0,
      "RescaleType": "US",
      "Rows": 832,
      "SAR": 0.04821690132269,
      "SamplesPerPixel": 1,
      "ScanOptions": "FS",
      "ScanningSequence": "EP",
      "SequenceName": "epfid2d1_104",
      "SequenceVariant": [
        "SK",
        "SS"
],
      "SeriesDescription": "func_task-things_run-1",
      "SeriesNumber": 11,
      "SeriesTime": "105026.951000",
      "SliceLocation": -53.803459319363,
      "SliceThickness": 2.0,
      "SmallestImagePixelValue": 0,
      "SoftwareVersions": "syngo MR E11",
      "SpacingBetweenSlices": 1.9999999776776,
      "SpecificCharacterSet": "ISO_IR 100",
      "StudyID": "1",
      "StudyTime": "095204.927000",
      "TransmitCoilName": "Body",
      "VariableFlipAngleFlag": "N",
      "WindowCenterWidthExplanation": "Algo1",
      "dBdt": 0.0},
    "slices": {}
  },
  "time": {
    "samples": {
      "AcquisitionNumber": [1, 2, 3, 4, 5, 6, 7, 8, 9, 10, 11, 12, 13, 14, 15, 16, 17, 18, 19, 20, 21, 22, 23, 24, 25, 26, 27, 28, 29, 30, 31, 32, 33, 34, 35, 36, 37, 38, 39, 40, 41, 42, 43, 44, 45, 46, 47, 48, 49, 50, 51, 52, 53, 54, 55, 56, 57, 58, 59, 60, 61, 62, 63, 64, 65, 66, 67, 68, 69, 70, 71, 72, 73, 74, 75, 76, 77, 78, 79, 80, 81, 82, 83, 84, 85, 86, 87, 88, 89, 90, 91, 92, 93, 94, 95, 96, 97, 98, 99, 100, 101, 102, 103, 104, 105, 106, 107, 108, 109, 110, 111, 112, 113, 114, 115, 116, 117, 118, 119, 120, 121, 122, 123, 124, 125, 126, 127, 128, 129, 130, 131, 132, 133, 134, 135, 136, 137, 138, 139, 140, 141, 142, 143, 144, 145, 146, 147, 148, 149, 150, 151, 152, 153, 154, 155, 156, 157, 158, 159, 160, 161, 162, 163, 164, 165, 166, 167, 168, 169, 170, 171, 172, 173, 174, 175, 176, 177, 178, 179, 180, 181, 182, 183, 184, 185, 186, 187, 188, 189, 190],
      "AcquisitionTime": ["104907.795000", "104909.285000", "104910.775000", "104912.265000", "104913.755000", "104915.245000", "104916.735000", "104918.225000", "104919.715000", "104921.205000", "104922.695000", "104924.185000", "104925.675000", "104927.165000", "104928.655000", "104930.145000", "104931.635000", "104933.125000", "104934.615000", "104936.105000", "104937.595000", "104939.085000", "104940.575000", "104942.065000", "104943.555000", "104945.045000", "104946.535000", "104948.025000", "104949.515000", "104951.005000", "104952.495000", "104953.985000", "104955.475000", "104956.965000", "104958.455000", "104959.945000", "105001.435000", "105002.925000", "105004.415000", "105005.905000", "105007.395000", "105008.885000", "105010.375000", "105011.865000", "105013.355000", "105014.845000", "105016.335000", "105017.825000", "105019.315000", "105020.805000", "105022.295000", "105023.785000", "105025.275000", "105026.765000", "105028.255000", "105029.745000", "105031.235000", "105032.725000", "105034.215000", "105035.705000", "105037.195000", "105038.685000", "105040.175000", "105041.665000", "105043.155000", "105044.645000", "105046.135000", "105047.625000", "105049.115000", "105050.605000", "105052.095000", "105053.585000", "105055.075000", "105056.565000", "105058.055000", "105059.545000", "105101.035000", "105102.525000", "105104.015000", "105105.505000", "105106.995000", "105108.485000", "105109.975000", "105111.465000", "105112.955000", "105114.445000", "105115.935000", "105117.425000", "105118.915000", "105120.405000", "105121.895000", "105123.385000", "105124.875000", "105126.365000", "105127.855000", "105129.345000", "105130.835000", "105132.325000", "105133.815000", "105135.305000", "105136.795000", "105138.285000", "105139.775000", "105141.265000", "105142.755000", "105144.245000", "105145.735000", "105147.225000", "105148.715000", "105150.205000", "105151.695000", "105153.185000", "105154.675000", "105156.165000", "105157.655000", "105159.145000", "105200.635000", "105202.125000", "105203.615000", "105205.105000", "105206.595000", "105208.085000", "105209.575000", "105211.065000", "105212.555000", "105214.045000", "105215.535000", "105217.025000", "105218.515000", "105220.005000", "105221.495000", "105222.985000", "105224.475000", "105225.965000", "105227.455000", "105228.945000", "105230.435000", "105231.925000", "105233.415000", "105234.905000", "105236.395000", "105237.885000", "105239.375000", "105240.865000", "105242.355000", "105243.845000", "105245.335000", "105246.825000", "105248.315000", "105249.805000", "105251.295000", "105252.785000", "105254.275000", "105255.765000", "105257.255000", "105258.745000", "105300.235000", "105301.725000", "105303.215000", "105304.705000", "105306.195000", "105307.685000", "105309.175000", "105310.665000", "105312.155000", "105313.645000", "105315.135000", "105316.625000", "105318.115000", "105319.605000", "105321.095000", "105322.585000", "105324.075000", "105325.565000", "105327.055000", "105328.545000", "105330.035000", "105331.525000", "105333.015000", "105334.505000", "105335.995000", "105337.485000", "105338.975000", "105340.465000", "105341.955000", "105343.445000", "105344.935000", "105346.425000", "105347.915000", "105349.405000"],
      "ContentTime": ["105026.953000", "105026.956000", "105026.959000", "105026.961000", "105026.964000", "105026.966000", "105026.969000", "105026.972000", "105026.974000", "105026.977000", "105026.979000", "105026.982000", "105026.984000", "105026.987000", "105026.989000", "105026.992000", "105026.994000", "105026.997000", "105027.000000", "105027.003000", "105027.006000", "105027.008000", "105027.011000", "105027.013000", "105046.898000", "105046.901000", "105046.903000", "105046.906000", "105046.909000", "105046.911000", "105046.914000", "105046.916000", "105046.919000", "105046.921000", "105046.924000", "105046.926000", "105046.929000", "105046.931000", "105046.934000", "105046.936000", "105046.939000", "105046.945000", "105046.947000", "105046.950000", "105106.880000", "105106.883000", "105106.885000", "105106.888000", "105106.890000", "105106.893000", "105106.895000", "105106.898000", "105106.900000", "105106.903000", "105106.905000", "105106.908000", "105106.910000", "105106.913000", "105106.916000", "105106.918000", "105106.921000", "105106.923000", "105106.926000", "105106.928000", "105126.892000", "105126.894000", "105126.897000", "105126.899000", "105126.902000", "105126.905000", "105126.907000", "105126.910000", "105126.912000", "105126.915000", "105126.917000", "105126.920000", "105126.923000", "105126.928000", "105126.931000", "105126.934000", "105126.936000", "105126.939000", "105126.942000", "105126.944000", "105146.873000", "105146.876000", "105146.878000", "105146.881000", "105146.884000", "105146.886000", "105146.889000", "105146.891000", "105146.894000", "105146.896000", "105146.899000", "105146.901000", "105146.904000", "105146.912000", "105146.915000", "105146.917000", "105146.920000", "105146.923000", "105146.925000", "105146.928000", "105226.927000", "105226.930000", "105226.933000", "105226.935000", "105226.938000", "105226.940000", "105226.943000", "105226.946000", "105226.948000", "105226.951000", "105226.953000", "105226.956000", "105226.958000", "105226.961000", "105226.963000", "105226.966000", "105226.968000", "105226.971000", "105226.974000", "105226.976000", "105226.979000", "105226.981000", "105226.984000", "105226.992000", "105226.995000", "105226.997000", "105227.001000", "105227.003000", "105227.006000", "105306.906000", "105306.909000", "105306.911000", "105306.914000", "105306.917000", "105306.919000", "105306.922000", "105306.924000", "105306.927000", "105306.929000", "105306.932000", "105306.934000", "105306.937000", "105306.939000", "105306.942000", "105306.945000", "105306.947000", "105306.950000", "105306.952000", "105306.955000", "105306.957000", "105306.960000", "105306.963000", "105306.965000", "105306.968000", "105306.970000", "105306.973000", "105346.909000", "105346.911000", "105346.914000", "105346.917000", "105346.919000", "105346.922000", "105346.924000", "105346.927000", "105346.929000", "105346.932000", "105346.934000", "105346.937000", "105346.939000", "105346.942000", "105346.944000", "105346.947000", "105346.949000", "105346.952000", "105346.954000", "105346.957000", "105346.959000", "105346.962000", "105346.964000", "105346.967000", "105346.970000", "105346.972000", "105346.975000", "105351.240000", "105351.243000", "105351.246000"],
      "InstanceCreationTime": ["105026.953000", "105026.956000", "105026.959000", "105026.961000", "105026.964000", "105026.966000", "105026.969000", "105026.972000", "105026.974000", "105026.977000", "105026.979000", "105026.982000", "105026.984000", "105026.987000", "105026.989000", "105026.992000", "105026.994000", "105026.997000", "105027.000000", "105027.003000", "105027.006000", "105027.008000", "105027.011000", "105027.013000", "105046.898000", "105046.901000", "105046.903000", "105046.906000", "105046.909000", "105046.911000", "105046.914000", "105046.916000", "105046.919000", "105046.921000", "105046.924000", "105046.926000", "105046.929000", "105046.931000", "105046.934000", "105046.936000", "105046.939000", "105046.945000", "105046.947000", "105046.950000", "105106.880000", "105106.883000", "105106.885000", "105106.888000", "105106.890000", "105106.893000", "105106.895000", "105106.898000", "105106.900000", "105106.903000", "105106.905000", "105106.908000", "105106.910000", "105106.913000", "105106.916000", "105106.918000", "105106.921000", "105106.923000", "105106.926000", "105106.928000", "105126.892000", "105126.894000", "105126.897000", "105126.899000", "105126.902000", "105126.905000", "105126.907000", "105126.910000", "105126.912000", "105126.915000", "105126.917000", "105126.920000", "105126.923000", "105126.928000", "105126.931000", "105126.934000", "105126.936000", "105126.939000", "105126.942000", "105126.944000", "105146.873000", "105146.876000", "105146.878000", "105146.881000", "105146.884000", "105146.886000", "105146.889000", "105146.891000", "105146.894000", "105146.896000", "105146.899000", "105146.901000", "105146.904000", "105146.912000", "105146.915000", "105146.917000", "105146.920000", "105146.923000", "105146.925000", "105146.928000", "105226.927000", "105226.930000", "105226.933000", "105226.935000", "105226.938000", "105226.940000", "105226.943000", "105226.946000", "105226.948000", "105226.951000", "105226.953000", "105226.956000", "105226.958000", "105226.961000", "105226.963000", "105226.966000", "105226.968000", "105226.971000", "105226.974000", "105226.976000", "105226.979000", "105226.981000", "105226.984000", "105226.992000", "105226.995000", "105226.997000", "105227.001000", "105227.003000", "105227.006000", "105306.906000", "105306.909000", "105306.911000", "105306.914000", "105306.917000", "105306.919000", "105306.922000", "105306.924000", "105306.927000", "105306.929000", "105306.932000", "105306.934000", "105306.937000", "105306.939000", "105306.942000", "105306.945000", "105306.947000", "105306.950000", "105306.952000", "105306.955000", "105306.957000", "105306.960000", "105306.963000", "105306.965000", "105306.968000", "105306.970000", "105306.973000", "105346.909000", "105346.911000", "105346.914000", "105346.917000", "105346.919000", "105346.922000", "105346.924000", "105346.927000", "105346.929000", "105346.932000", "105346.934000", "105346.937000", "105346.939000", "105346.942000", "105346.944000", "105346.947000", "105346.949000", "105346.952000", "105346.954000", "105346.957000", "105346.959000", "105346.962000", "105346.964000", "105346.967000", "105346.970000", "105346.972000", "105346.975000", "105351.240000", "105351.243000", "105351.246000"],
      "InstanceNumber": [1, 2, 3, 4, 5, 6, 7, 8, 9, 10, 11, 12, 13, 14, 15, 16, 17, 18, 19, 20, 21, 22, 23, 24, 25, 26, 27, 28, 29, 30, 31, 32, 33, 34, 35, 36, 37, 38, 39, 40, 41, 42, 43, 44, 45, 46, 47, 48, 49, 50, 51, 52, 53, 54, 55, 56, 57, 58, 59, 60, 61, 62, 63, 64, 65, 66, 67, 68, 69, 70, 71, 72, 73, 74, 75, 76, 77, 78, 79, 80, 81, 82, 83, 84, 85, 86, 87, 88, 89, 90, 91, 92, 93, 94, 95, 96, 97, 98, 99, 100, 101, 102, 103, 104, 105, 106, 107, 108, 109, 110, 111, 112, 113, 114, 115, 116, 117, 118, 119, 120, 121, 122, 123, 124, 125, 126, 127, 128, 129, 130, 131, 132, 133, 134, 135, 136, 137, 138, 139, 140, 141, 142, 143, 144, 145, 146, 147, 148, 149, 150, 151, 152, 153, 154, 155, 156, 157, 158, 159, 160, 161, 162, 163, 164, 165, 166, 167, 168, 169, 170, 171, 172, 173, 174, 175, 176, 177, 178, 179, 180, 181, 182, 183, 184, 185, 186, 187, 188, 189, 190],
      "WindowCenter": [4802.0, 4802.0, 4802.0, 4808.0, 4808.0, 4782.0, 4806.0, 4802.0, 4804.0, 4800.0, 4780.0, 4780.0, 4802.0, 4806.0, 4802.0, 4802.0, 4806.0, 4806.0, 4782.0, 4802.0, 4804.0, 4804.0, 4806.0, 4804.0, 4802.0, 4804.0, 4804.0, 4804.0, 4804.0, 4802.0, 4804.0, 4806.0, 4800.0, 4804.0, 4804.0, 4806.0, 4806.0, 4802.0, 4804.0, 4804.0, 4804.0, 4804.0, 4806.0, 4802.0, 4804.0, 4806.0, 4802.0, 4802.0, 4806.0, 4800.0, 4804.0, 4806.0, 4808.0, 4802.0, 4806.0, 4808.0, 4806.0, 4806.0, 4806.0, 4806.0, 4808.0, 4804.0, 4806.0, 4806.0, 4804.0, 4802.0, 4806.0, 4804.0, 4804.0, 4804.0, 4806.0, 4808.0, 4804.0, 4802.0, 4804.0, 4804.0, 4804.0, 4804.0, 4806.0, 4804.0, 4804.0, 4802.0, 4804.0, 4826.0, 4802.0, 4802.0, 4810.0, 4804.0, 4806.0, 4826.0, 4802.0, 4808.0, 4808.0, 4804.0, 4806.0, 4804.0, 4826.0, 4804.0, 4804.0, 4806.0, 4806.0, 4804.0, 4802.0, 4808.0, 4804.0, 4802.0, 4804.0, 4804.0, 4826.0, 4806.0, 4806.0, 4828.0, 4806.0, 4806.0, 4808.0, 4808.0, 4804.0, 4826.0, 4804.0, 4802.0, 4804.0, 4806.0, 4804.0, 4804.0, 4806.0, 4804.0, 4802.0, 4830.0, 4806.0, 4806.0, 4828.0, 4808.0, 4804.0, 4808.0, 4804.0, 4804.0, 4830.0, 4826.0, 4832.0, 4802.0, 4804.0, 4804.0, 4804.0, 4802.0, 4806.0, 4806.0, 4804.0, 4808.0, 4804.0, 4806.0, 4826.0, 4804.0, 4802.0, 4806.0, 4808.0, 4802.0, 4828.0, 4802.0, 4782.0, 4804.0, 4804.0, 4832.0, 4836.0, 4828.0, 4804.0, 4828.0, 4806.0, 4808.0, 4808.0, 4808.0, 4802.0, 4828.0, 4780.0, 4778.0, 4800.0, 4834.0, 4836.0, 4830.0, 4810.0, 4788.0, 4806.0, 4802.0, 4804.0, 4828.0, 4830.0, 4782.0, 4804.0, 4804.0, 4830.0, 4832.0],
      "WindowWidth": [18610.0, 18610.0, 18612.0, 18612.0, 18614.0, 18580.0, 18618.0, 18606.0, 18610.0, 18608.0, 18580.0, 18580.0, 18604.0, 18618.0, 18614.0, 18612.0, 18616.0, 18612.0, 18584.0, 18608.0, 18618.0, 18612.0, 18616.0, 18616.0, 18616.0, 18616.0, 18612.0, 18614.0, 18616.0, 18612.0, 18614.0, 18614.0, 18610.0, 18616.0, 18614.0, 18616.0, 18618.0, 18618.0, 18614.0, 18614.0, 18618.0, 18614.0, 18612.0, 18614.0, 18608.0, 18616.0, 18612.0, 18610.0, 18610.0, 18614.0, 18614.0, 18616.0, 18616.0, 18614.0, 18616.0, 18620.0, 18614.0, 18616.0, 18614.0, 18616.0, 18618.0, 18614.0, 18618.0, 18618.0, 18620.0, 18618.0, 18614.0, 18616.0, 18618.0, 18612.0, 18618.0, 18620.0, 18620.0, 18616.0, 18612.0, 18618.0, 18618.0, 18616.0, 18620.0, 18616.0, 18616.0, 18610.0, 18616.0, 18644.0, 18616.0, 18614.0, 18614.0, 18618.0, 18618.0, 18650.0, 18616.0, 18620.0, 18620.0, 18618.0, 18620.0, 18618.0, 18642.0, 18618.0, 18614.0, 18614.0, 18624.0, 18620.0, 18614.0, 18624.0, 18620.0, 18616.0, 18616.0, 18618.0, 18644.0, 18618.0, 18622.0, 18650.0, 18618.0, 18618.0, 18618.0, 18622.0, 18620.0, 18646.0, 18618.0, 18616.0, 18614.0, 18612.0, 18616.0, 18616.0, 18622.0, 18618.0, 18614.0, 18646.0, 18622.0, 18616.0, 18644.0, 18626.0, 18618.0, 18624.0, 18620.0, 18620.0, 18646.0, 18646.0, 18644.0, 18618.0, 18618.0, 18614.0, 18618.0, 18616.0, 18616.0, 18624.0, 18618.0, 18620.0, 18616.0, 18618.0, 18646.0, 18620.0, 18620.0, 18622.0, 18622.0, 18620.0, 18652.0, 18616.0, 18584.0, 18614.0, 18612.0, 18642.0, 18646.0, 18642.0, 18618.0, 18650.0, 18624.0, 18624.0, 18630.0, 18630.0, 18620.0, 18648.0, 18586.0, 18584.0, 18606.0, 18640.0, 18646.0, 18646.0, 18620.0, 18584.0, 18624.0, 18616.0, 18618.0, 18642.0, 18644.0, 18582.0, 18618.0, 18614.0, 18646.0, 18644.0]
    },
    "slices": {}
  }
}