{
  "AcquisitionMatrixPE": 104,
  "AcquisitionNumber": 1,
  "AcquisitionTime": "11:01:20.952500",
  "BandwidthPerPixelPhaseEncode": 17.17,
  "BaseResolution": 104,
  "BodyPartExamined": "BRAIN",
  "CoilString": "HC1-7;NC1_2",
  "ConsistencyInfo": "N4_VE11C_LATEST_20160120",
  "ConversionSoftware": "dcm2niix",
  "ConversionSoftwareVersion": "v1.0.20190902",
  "DerivedVendorReportedEchoSpacing": 0.000560011,
  "DeviceSerialNumber": "167006",
  "DwellTime": 2.1e-06,
  "EchoTime": 0.037,
  "EchoTrainLength": 104,
  "EffectiveEchoSpacing": 0.000560011,
  "FlipAngle": 52,
  "HeudiconvVersion": "0.10.0",
  "ImageComments": "Unaliased_MB4_PE3_LB",
  "ImageOrientationPatientDICOM": [0.999763, 0.014328, 0.0163963, -0.00383882, 0.85719, -0.514986],
  "ImageType": [
    "ORIGINAL",
    "PRIMARY",
    "M",
    "MB",
    "ND",
    "MOSAIC"
],
  "ImagingFrequency": 123.259,
  "InPlanePhaseEncodingDirectionDICOM": "COL",
  "InstitutionAddress": "Chemin_Queen-Mary_4565_Montreal_District_CA_H3W_1W5",
  "InstitutionName": "IUGM",
  "InstitutionalDepartmentName": "Department",
  "MRAcquisitionType": "2D",
  "MagneticFieldStrength": 3,
  "Manufacturer": "Siemens",
  "ManufacturersModelName": "Prisma_fit",
  "Modality": "MR",
  "MultibandAccelerationFactor": 4,
  "PartialFourier": 1,
  "PatientPosition": "HFS",
  "PercentPhaseFOV": 100,
  "PhaseEncodingDirection": "j",
  "PhaseEncodingSteps": 104,
  "PhaseResolution": 1,
  "PixelBandwidth": 2290,
  "ProcedureStepDescription": "memory_things",
  "ProtocolName": "func_task-things_run-3",
  "PulseSequenceDetails": "%CustomerSeq%_cmrr_mbep2d_bold",
  "ReceiveCoilActiveElements": "HC1-7;NC1,2",
  "ReceiveCoilName": "HeadNeck_64",
  "ReconMatrixPE": 104,
  "RepetitionTime": 1.49,
  "SAR": 0.0482169,
  "ScanOptions": "FS",
  "ScanningSequence": "EP",
  "SequenceName": "epfid2d1_104",
  "SequenceVariant": "SK_SS",
  "SeriesDescription": "func_task-things_run-3",
  "SeriesNumber": 16,
  "ShimSetting": [619, -7187, -8865, 285, 16, -164, -19, -26],
  "SliceThickness": 2,
  "SliceTiming": [0, 0.785, 0.1, 0.8825, 0.1975, 0.98, 0.295, 1.0775, 0.3925, 1.1775, 0.49, 1.275, 0.5875, 1.3725, 0.6875, 0, 0.785, 0.1, 0.8825, 0.1975, 0.98, 0.295, 1.0775, 0.3925, 1.1775, 0.49, 1.275, 0.5875, 1.3725, 0.6875, 0, 0.785, 0.1, 0.8825, 0.1975, 0.98, 0.295, 1.0775, 0.3925, 1.1775, 0.49, 1.275, 0.5875, 1.3725, 0.6875, 0, 0.785, 0.1, 0.8825, 0.1975, 0.98, 0.295, 1.0775, 0.3925, 1.1775, 0.49, 1.275, 0.5875, 1.3725, 0.6875],
  "SoftwareVersions": "syngo_MR_E11",
  "SpacingBetweenSlices": 2,
  "StationName": "MRC35049",
  "TaskName": "things",
  "TotalReadoutTime": 0.0576811,
  "TxRefAmp": 265.243,
  "WipMemBlock": "1ae2b6fa-4a83-4d3b-a3c2-3c23a0fec359||Sequence: R016 ve11c/master r/e634e98; Dec 19 2017 11:00:25 by eja",
  "dcmmeta_affine": [
    [-1.999525785446167, -0.0076776412315666676, 0.04286693036556244, 106.66427612304688],
    [-0.028655918315052986, 1.7143802642822266, -1.0296014547348022, -48.91892623901367],
    [0.032792653888463974, 1.0299714803695679, 1.7140837907791138, -94.829833984375],
    [0.0, 0.0, 0.0, 1.0]
],
  "dcmmeta_reorient_transform": [
    [0.0, -1.0, 0.0, 103.0],
    [1.0, 0.0, 0.0, 0.0],
    [0.0, 0.0, 1.0, 0.0],
    [0.0, 0.0, 0.0, 1.0]
],
  "dcmmeta_shape": [104, 104, 60, 190],
  "dcmmeta_slice_dim": 2,
  "dcmmeta_version": 0.6,
  "global": {
    "const": {
      "AcquisitionMatrix": [104, 0, 0, 104],
      "AngioFlag": "N",
      "BitsAllocated": 16,
      "BitsStored": 16,
      "BodyPartExamined": "BRAIN",
      "Columns": 832,
      "EchoNumbers": 1,
      "EchoTime": 37.0,
      "EchoTrainLength": 104,
      "FlipAngle": 52.0,
      "HighBit": 15,
      "ImageOrientationPatient": [0.99976290691307, 0.01432795936255, 0.01639632706552, -0.0038388205889, 0.85719013529491, -0.5149857623368],
      "ImagePositionPatient": [-830.90621764645, -762.12741541175, 374.23034080973],
      "ImageType": [
        "ORIGINAL",
        "PRIMARY",
        "M",
        "MB",
        "ND",
        "MOSAIC"
],
      "ImagedNucleus": "1H",
      "ImagingFrequency": 123.258887,
      "InPlanePhaseEncodingDirection": "COL",
      "MRAcquisitionType": "2D",
      "MagneticFieldStrength": 3.0,
      "Manufacturer": "SIEMENS",
      "ManufacturerModelName": "Prisma_fit",
      "Modality": "MR",
      "NumberOfAverages": 1.0,
      "NumberOfPhaseEncodingSteps": 104,
      "PercentPhaseFieldOfView": 100.0,
      "PercentSampling": 100.0,
      "PerformedProcedureStepStartTime": "095205.017000",
      "PhotometricInterpretation": "MONOCHROME2",
      "PixelBandwidth": 2290.0,
      "PixelRepresentation": 0,
      "PixelSpacing": [2.0, 2.0],
      "ProtocolName": "func_task-things_run-3",
      "RepetitionTime": 1490.0,
      "Rows": 832,
      "SAR": 0.04821690132269,
      "SamplesPerPixel": 1,
      "ScanOptions": "FS",
      "ScanningSequence": "EP",
      "SequenceName": "epfid2d1_104",
      "SequenceVariant": [
        "SK",
        "SS"
],
      "SeriesDescription": "func_task-things_run-3",
      "SeriesNumber": 16,
      "SeriesTime": "110239.669000",
      "SliceLocation": -53.803459319363,
      "SliceThickness": 2.0,
      "SmallestImagePixelValue": 0,
      "SoftwareVersions": "syngo MR E11",
      "SpacingBetweenSlices": 1.9999999776776,
      "SpecificCharacterSet": "ISO_IR 100",
      "StudyID": "1",
      "StudyTime": "095204.927000",
      "TransmitCoilName": "Body",
      "VariableFlipAngleFlag": "N",
      "WindowCenterWidthExplanation": "Algo1",
      "dBdt": 0.0},
    "slices": {}
  },
  "time": {
    "samples": {
      "AcquisitionNumber": [1, 2, 3, 4, 5, 6, 7, 8, 9, 10, 11, 12, 13, 14, 15, 16, 17, 18, 19, 20, 21, 22, 23, 24, 25, 26, 27, 28, 29, 30, 31, 32, 33, 34, 35, 36, 37, 38, 39, 40, 41, 42, 43, 44, 45, 46, 47, 48, 49, 50, 51, 52, 53, 54, 55, 56, 57, 58, 59, 60, 61, 62, 63, 64, 65, 66, 67, 68, 69, 70, 71, 72, 73, 74, 75, 76, 77, 78, 79, 80, 81, 82, 83, 84, 85, 86, 87, 88, 89, 90, 91, 92, 93, 94, 95, 96, 97, 98, 99, 100, 101, 102, 103, 104, 105, 106, 107, 108, 109, 110, 111, 112, 113, 114, 115, 116, 117, 118, 119, 120, 121, 122, 123, 124, 125, 126, 127, 128, 129, 130, 131, 132, 133, 134, 135, 136, 137, 138, 139, 140, 141, 142, 143, 144, 145, 146, 147, 148, 149, 150, 151, 152, 153, 154, 155, 156, 157, 158, 159, 160, 161, 162, 163, 164, 165, 166, 167, 168, 169, 170, 171, 172, 173, 174, 175, 176, 177, 178, 179, 180, 181, 182, 183, 184, 185, 186, 187, 188, 189, 190],
      "AcquisitionTime": ["110120.952500", "110122.442500", "110123.932500", "110125.422500", "110126.912500", "110128.402500", "110129.892500", "110131.382500", "110132.872500", "110134.362500", "110135.852500", "110137.342500", "110138.832500", "110140.322500", "110141.812500", "110143.302500", "110144.792500", "110146.282500", "110147.772500", "110149.262500", "110150.752500", "110152.242500", "110153.732500", "110155.222500", "110156.712500", "110158.202500", "110159.692500", "110201.182500", "110202.672500", "110204.162500", "110205.652500", "110207.142500", "110208.632500", "110210.122500", "110211.612500", "110213.102500", "110214.592500", "110216.082500", "110217.572500", "110219.062500", "110220.552500", "110222.042500", "110223.532500", "110225.022500", "110226.512500", "110228.002500", "110229.492500", "110230.982500", "110232.472500", "110233.962500", "110235.452500", "110236.942500", "110238.432500", "110239.922500", "110241.412500", "110242.902500", "110244.392500", "110245.882500", "110247.372500", "110248.862500", "110250.352500", "110251.842500", "110253.332500", "110254.822500", "110256.312500", "110257.802500", "110259.292500", "110300.782500", "110302.272500", "110303.762500", "110305.252500", "110306.742500", "110308.232500", "110309.722500", "110311.212500", "110312.702500", "110314.192500", "110315.682500", "110317.172500", "110318.662500", "110320.152500", "110321.642500", "110323.132500", "110324.622500", "110326.112500", "110327.602500", "110329.092500", "110330.582500", "110332.072500", "110333.562500", "110335.052500", "110336.542500", "110338.032500", "110339.522500", "110341.012500", "110342.502500", "110343.992500", "110345.482500", "110346.972500", "110348.462500", "110349.952500", "110351.442500", "110352.932500", "110354.422500", "110355.912500", "110357.402500", "110358.892500", "110400.382500", "110401.872500", "110403.362500", "110404.852500", "110406.342500", "110407.832500", "110409.322500", "110410.812500", "110412.302500", "110413.792500", "110415.282500", "110416.772500", "110418.262500", "110419.752500", "110421.242500", "110422.732500", "110424.222500", "110425.712500", "110427.202500", "110428.692500", "110430.182500", "110431.672500", "110433.162500", "110434.652500", "110436.142500", "110437.632500", "110439.122500", "110440.612500", "110442.102500", "110443.592500", "110445.082500", "110446.572500", "110448.062500", "110449.552500", "110451.042500", "110452.532500", "110454.022500", "110455.512500", "110457.002500", "110458.492500", "110459.982500", "110501.472500", "110502.962500", "110504.452500", "110505.942500", "110507.432500", "110508.922500", "110510.412500", "110511.902500", "110513.392500", "110514.882500", "110516.372500", "110517.862500", "110519.352500", "110520.842500", "110522.332500", "110523.822500", "110525.312500", "110526.802500", "110528.292500", "110529.782500", "110531.272500", "110532.762500", "110534.252500", "110535.742500", "110537.232500", "110538.722500", "110540.212500", "110541.702500", "110543.192500", "110544.682500", "110546.172500", "110547.662500", "110549.152500", "110550.642500", "110552.132500", "110553.622500", "110555.112500", "110556.602500", "110558.092500", "110559.582500", "110601.072500", "110602.562500"],
      "ContentTime": ["110239.672000", "110239.676000", "110239.680000", "110239.683000", "110239.686000", "110239.690000", "110239.693000", "110239.696000", "110239.700000", "110239.704000", "110239.707000", "110239.710000", "110239.714000", "110239.751000", "110239.754000", "110239.757000", "110239.761000", "110239.764000", "110239.767000", "110239.771000", "110239.774000", "110239.778000", "110239.781000", "110239.784000", "110259.626000", "110259.630000", "110259.633000", "110259.637000", "110259.640000", "110259.643000", "110259.647000", "110259.650000", "110259.653000", "110259.657000", "110259.660000", "110259.663000", "110259.666000", "110259.670000", "110259.673000", "110259.677000", "110259.680000", "110259.684000", "110259.687000", "110259.691000", "110259.694000", "110319.626000", "110319.630000", "110319.633000", "110319.637000", "110319.640000", "110319.643000", "110319.647000", "110319.650000", "110319.653000", "110319.657000", "110319.660000", "110319.663000", "110319.667000", "110319.670000", "110319.673000", "110319.677000", "110319.680000", "110319.683000", "110319.687000", "110319.690000", "110339.626000", "110339.630000", "110339.633000", "110339.637000", "110339.640000", "110339.643000", "110339.647000", "110339.650000", "110339.653000", "110339.657000", "110339.660000", "110339.663000", "110339.667000", "110339.670000", "110339.673000", "110339.677000", "110339.680000", "110339.686000", "110339.689000", "110339.692000", "110359.627000", "110359.631000", "110359.634000", "110359.638000", "110359.641000", "110359.644000", "110359.648000", "110359.651000", "110359.654000", "110359.658000", "110359.661000", "110359.664000", "110359.668000", "110359.671000", "110359.674000", "110359.678000", "110359.681000", "110359.684000", "110359.688000", "110359.691000", "110439.627000", "110439.631000", "110439.634000", "110439.638000", "110439.641000", "110439.651000", "110439.655000", "110439.658000", "110439.661000", "110439.670000", "110439.674000", "110439.677000", "110439.680000", "110439.684000", "110439.687000", "110439.690000", "110439.694000", "110439.697000", "110439.700000", "110439.704000", "110439.707000", "110439.710000", "110439.714000", "110439.717000", "110439.720000", "110439.724000", "110439.727000", "110439.731000", "110519.626000", "110519.630000", "110519.633000", "110519.637000", "110519.640000", "110519.643000", "110519.647000", "110519.650000", "110519.653000", "110519.657000", "110519.660000", "110519.664000", "110519.667000", "110519.670000", "110519.674000", "110519.678000", "110519.681000", "110519.685000", "110519.688000", "110519.691000", "110519.695000", "110519.698000", "110519.702000", "110519.705000", "110519.708000", "110519.712000", "110559.626000", "110559.630000", "110559.634000", "110559.637000", "110559.640000", "110559.644000", "110559.647000", "110559.651000", "110559.654000", "110559.658000", "110559.661000", "110559.664000", "110559.668000", "110559.671000", "110559.675000", "110559.678000", "110559.681000", "110559.685000", "110559.688000", "110559.691000", "110559.695000", "110559.698000", "110559.702000", "110559.705000", "110559.708000", "110559.712000", "110559.715000", "110604.591000", "110604.594000", "110604.598000", "110604.608000"],
      "InstanceCreationTime": ["110239.672000", "110239.676000", "110239.680000", "110239.683000", "110239.686000", "110239.690000", "110239.693000", "110239.696000", "110239.700000", "110239.704000", "110239.707000", "110239.710000", "110239.714000", "110239.751000", "110239.754000", "110239.757000", "110239.761000", "110239.764000", "110239.767000", "110239.771000", "110239.774000", "110239.778000", "110239.781000", "110239.784000", "110259.626000", "110259.630000", "110259.633000", "110259.637000", "110259.640000", "110259.643000", "110259.647000", "110259.650000", "110259.653000", "110259.657000", "110259.660000", "110259.663000", "110259.666000", "110259.670000", "110259.673000", "110259.677000", "110259.680000", "110259.684000", "110259.687000", "110259.691000", "110259.694000", "110319.626000", "110319.630000", "110319.633000", "110319.637000", "110319.640000", "110319.643000", "110319.647000", "110319.650000", "110319.653000", "110319.657000", "110319.660000", "110319.663000", "110319.667000", "110319.670000", "110319.673000", "110319.677000", "110319.680000", "110319.683000", "110319.687000", "110319.690000", "110339.626000", "110339.630000", "110339.633000", "110339.637000", "110339.640000", "110339.643000", "110339.647000", "110339.650000", "110339.653000", "110339.657000", "110339.660000", "110339.663000", "110339.667000", "110339.670000", "110339.673000", "110339.677000", "110339.680000", "110339.686000", "110339.689000", "110339.692000", "110359.627000", "110359.631000", "110359.634000", "110359.638000", "110359.641000", "110359.644000", "110359.648000", "110359.651000", "110359.654000", "110359.658000", "110359.661000", "110359.664000", "110359.668000", "110359.671000", "110359.674000", "110359.678000", "110359.681000", "110359.684000", "110359.688000", "110359.691000", "110439.627000", "110439.631000", "110439.634000", "110439.638000", "110439.641000", "110439.651000", "110439.655000", "110439.658000", "110439.661000", "110439.670000", "110439.674000", "110439.677000", "110439.680000", "110439.684000", "110439.687000", "110439.690000", "110439.694000", "110439.697000", "110439.700000", "110439.704000", "110439.707000", "110439.710000", "110439.714000", "110439.717000", "110439.720000", "110439.724000", "110439.727000", "110439.731000", "110519.626000", "110519.630000", "110519.633000", "110519.637000", "110519.640000", "110519.643000", "110519.647000", "110519.650000", "110519.653000", "110519.657000", "110519.660000", "110519.664000", "110519.667000", "110519.670000", "110519.674000", "110519.678000", "110519.681000", "110519.685000", "110519.688000", "110519.691000", "110519.695000", "110519.698000", "110519.702000", "110519.705000", "110519.708000", "110519.712000", "110559.626000", "110559.630000", "110559.634000", "110559.637000", "110559.640000", "110559.644000", "110559.647000", "110559.651000", "110559.654000", "110559.658000", "110559.661000", "110559.664000", "110559.668000", "110559.671000", "110559.675000", "110559.678000", "110559.681000", "110559.685000", "110559.688000", "110559.691000", "110559.695000", "110559.698000", "110559.702000", "110559.705000", "110559.708000", "110559.712000", "110559.715000", "110604.591000", "110604.594000", "110604.598000", "110604.608000"],
      "InstanceNumber": [1, 2, 3, 4, 5, 6, 7, 8, 9, 10, 11, 12, 13, 14, 15, 16, 17, 18, 19, 20, 21, 22, 23, 24, 25, 26, 27, 28, 29, 30, 31, 32, 33, 34, 35, 36, 37, 38, 39, 40, 41, 42, 43, 44, 45, 46, 47, 48, 49, 50, 51, 52, 53, 54, 55, 56, 57, 58, 59, 60, 61, 62, 63, 64, 65, 66, 67, 68, 69, 70, 71, 72, 73, 74, 75, 76, 77, 78, 79, 80, 81, 82, 83, 84, 85, 86, 87, 88, 89, 90, 91, 92, 93, 94, 95, 96, 97, 98, 99, 100, 101, 102, 103, 104, 105, 106, 107, 108, 109, 110, 111, 112, 113, 114, 115, 116, 117, 118, 119, 120, 121, 122, 123, 124, 125, 126, 127, 128, 129, 130, 131, 132, 133, 134, 135, 136, 137, 138, 139, 140, 141, 142, 143, 144, 145, 146, 147, 148, 149, 150, 151, 152, 153, 154, 155, 156, 157, 158, 159, 160, 161, 162, 163, 164, 165, 166, 167, 168, 169, 170, 171, 172, 173, 174, 175, 176, 177, 178, 179, 180, 181, 182, 183, 184, 185, 186, 187, 188, 189, 190],
      "LargestImagePixelValue": [48714, 47689, 47745, 47326, 45804, 44220, 46514, 46493, 46499, 46802, 45737, 45970, 46490, 46628, 46354, 46603, 46069, 46901, 47040, 46479, 47437, 46591, 46884, 46796, 46591, 46427, 46323, 45704, 43697, 46708, 47632, 46607, 47125, 46367, 46136, 47460, 47123, 45645, 46671, 47171, 46197, 46335, 46674, 45470, 46638, 47026, 46257, 44780, 46124, 47181, 47566, 46603, 46775, 45808, 47024, 47450, 46091, 46397, 47076, 46509, 47600, 47476, 46606, 47438, 46917, 44893, 46324, 46580, 46496, 45820, 44333, 45856, 46724, 46198, 45581, 46369, 44683, 46028, 45996, 44539, 45202, 46458, 45452, 45499, 45741, 45173, 45189, 45907, 45237, 45396, 44415, 45151, 46414, 44820, 46324, 45387, 45775, 45612, 45710, 47013, 44628, 45741, 46434, 45848, 47374, 46051, 46572, 47779, 46691, 47353, 47779, 47305, 47582, 46570, 46754, 47049, 47065, 46351, 46809, 46362, 47002, 44175, 45145, 47310, 46211, 47399, 46570, 46026, 46937, 47081, 46610, 46403, 45787, 46982, 47550, 47280, 46804, 46298, 46119, 46560, 46746, 46021, 46855, 47643, 46534, 47778, 47687, 47492, 47263, 47823, 47394, 45444, 46568, 47558, 46398, 48003, 47281, 47338, 47717, 46658, 47208, 47243, 47517, 45809, 45196, 47055, 47758, 47668, 47260, 45470, 46154, 46991, 45926, 46139, 47078, 46474, 46749, 47348, 46464, 46861, 47003, 45076, 46850, 47089, 45715, 46752, 47427, 47288, 45668, 44456],
      "WindowCenter": [11084.0, 11037.0, 11003.0, 10971.0, 10934.0, 10925.0, 10918.0, 10931.0, 10951.0, 10974.0, 10981.0, 10989.0, 10971.0, 10968.0, 10962.0, 10965.0, 10979.0, 10989.0, 10990.0, 10979.0, 10982.0, 10969.0, 10954.0, 10941.0, 10955.0, 10959.0, 10967.0, 10972.0, 10952.0, 10984.0, 10961.0, 10907.0, 10877.0, 10929.0, 10971.0, 10986.0, 10952.0, 10925.0, 10935.0, 10935.0, 10928.0, 10920.0, 10919.0, 10915.0, 10936.0, 10927.0, 10902.0, 10898.0, 10946.0, 10971.0, 10959.0, 10951.0, 10955.0, 10961.0, 10978.0, 10960.0, 10942.0, 10947.0, 10962.0, 10967.0, 10976.0, 10967.0, 10946.0, 10943.0, 10935.0, 10921.0, 10943.0, 10937.0, 10930.0, 10932.0, 10941.0, 10979.0, 10981.0, 10954.0, 10930.0, 10948.0, 10960.0, 10972.0, 10964.0, 10949.0, 10945.0, 10954.0, 10940.0, 10940.0, 10929.0, 10940.0, 10953.0, 10968.0, 10951.0, 10950.0, 10944.0, 10946.0, 10937.0, 10928.0, 10926.0, 10937.0, 10957.0, 10963.0, 10976.0, 10961.0, 10914.0, 10920.0, 10940.0, 10948.0, 10963.0, 10945.0, 10937.0, 10941.0, 10937.0, 10944.0, 10945.0, 10952.0, 10940.0, 10938.0, 10948.0, 10946.0, 10949.0, 10969.0, 10970.0, 10933.0, 10922.0, 10920.0, 10967.0, 10990.0, 10939.0, 10913.0, 10904.0, 10937.0, 10970.0, 10966.0, 10924.0, 10904.0, 10918.0, 10939.0, 10938.0, 10908.0, 10893.0, 10904.0, 10932.0, 10941.0, 10914.0, 10901.0, 10931.0, 10962.0, 10947.0, 10938.0, 10926.0, 10944.0, 10954.0, 10968.0, 10963.0, 10948.0, 10958.0, 10963.0, 10937.0, 10944.0, 10947.0, 10943.0, 10954.0, 10940.0, 10945.0, 10936.0, 10937.0, 10918.0, 10921.0, 10949.0, 10961.0, 10941.0, 10933.0, 10936.0, 10955.0, 10959.0, 10931.0, 10920.0, 10920.0, 10937.0, 10948.0, 10963.0, 10960.0, 10943.0, 10929.0, 10926.0, 10952.0, 10957.0, 10922.0, 10912.0, 10925.0, 10941.0, 10940.0, 10939.0],
      "WindowWidth": [23868.0, 23727.0, 23626.0, 23539.0, 23451.0, 23431.0, 23410.0, 23436.0, 23486.0, 23537.0, 23556.0, 23573.0, 23531.0, 23522.0, 23506.0, 23512.0, 23546.0, 23564.0, 23568.0, 23545.0, 23548.0, 23524.0, 23487.0, 23458.0, 23486.0, 23499.0, 23518.0, 23530.0, 23491.0, 23552.0, 23501.0, 23380.0, 23311.0, 23428.0, 23525.0, 23559.0, 23481.0, 23420.0, 23438.0, 23438.0, 23423.0, 23405.0, 23402.0, 23394.0, 23442.0, 23419.0, 23363.0, 23358.0, 23465.0, 23524.0, 23493.0, 23472.0, 23483.0, 23501.0, 23536.0, 23493.0, 23456.0, 23464.0, 23498.0, 23513.0, 23528.0, 23509.0, 23464.0, 23453.0, 23439.0, 23412.0, 23469.0, 23447.0, 23430.0, 23435.0, 23460.0, 23542.0, 23549.0, 23488.0, 23432.0, 23470.0, 23504.0, 23528.0, 23505.0, 23478.0, 23464.0, 23481.0, 23454.0, 23456.0, 23427.0, 23454.0, 23487.0, 23520.0, 23483.0, 23480.0, 23473.0, 23474.0, 23447.0, 23430.0, 23422.0, 23447.0, 23493.0, 23508.0, 23539.0, 23503.0, 23402.0, 23408.0, 23450.0, 23472.0, 23503.0, 23467.0, 23452.0, 23452.0, 23443.0, 23457.0, 23459.0, 23477.0, 23448.0, 23444.0, 23466.0, 23466.0, 23472.0, 23518.0, 23520.0, 23439.0, 23409.0, 23414.0, 23525.0, 23571.0, 23464.0, 23395.0, 23383.0, 23448.0, 23519.0, 23513.0, 23415.0, 23363.0, 23401.0, 23445.0, 23442.0, 23375.0, 23342.0, 23368.0, 23430.0, 23453.0, 23389.0, 23366.0, 23426.0, 23494.0, 23471.0, 23441.0, 23414.0, 23455.0, 23481.0, 23511.0, 23503.0, 23471.0, 23491.0, 23498.0, 23448.0, 23457.0, 23468.0, 23455.0, 23479.0, 23447.0, 23456.0, 23435.0, 23439.0, 23399.0, 23409.0, 23470.0, 23495.0, 23453.0, 23433.0, 23444.0, 23488.0, 23496.0, 23434.0, 23409.0, 23403.0, 23443.0, 23468.0, 23502.0, 23498.0, 23458.0, 23423.0, 23425.0, 23478.0, 23489.0, 23414.0, 23384.0, 23411.0, 23446.0, 23458.0, 23458.0]
    },
    "slices": {}
  }
}