{
  "AcquisitionMatrixPE": 104,
  "AcquisitionNumber": 1,
  "AcquisitionTime": "11:07:22.650000",
  "BandwidthPerPixelPhaseEncode": 17.17,
  "BaseResolution": 104,
  "BodyPartExamined": "BRAIN",
  "CoilString": "HC1-7;NC1_2",
  "ConsistencyInfo": "N4_VE11C_LATEST_20160120",
  "ConversionSoftware": "dcm2niix",
  "ConversionSoftwareVersion": "v1.0.20190902",
  "DerivedVendorReportedEchoSpacing": 0.000560011,
  "DeviceSerialNumber": "167006",
  "DwellTime": 2.1e-06,
  "EchoTime": 0.037,
  "EchoTrainLength": 104,
  "EffectiveEchoSpacing": 0.000560011,
  "FlipAngle": 52,
  "HeudiconvVersion": "0.10.0",
  "ImageComments": "Unaliased_MB4_PE3_LB",
  "ImageOrientationPatientDICOM": [0.999763, 0.014328, 0.0163963, -0.00383882, 0.85719, -0.514986],
  "ImageType": [
    "ORIGINAL",
    "PRIMARY",
    "M",
    "MB",
    "ND",
    "MOSAIC"
],
  "ImagingFrequency": 123.259,
  "InPlanePhaseEncodingDirectionDICOM": "COL",
  "InstitutionAddress": "Chemin_Queen-Mary_4565_Montreal_District_CA_H3W_1W5",
  "InstitutionName": "IUGM",
  "InstitutionalDepartmentName": "Department",
  "MRAcquisitionType": "2D",
  "MagneticFieldStrength": 3,
  "Manufacturer": "Siemens",
  "ManufacturersModelName": "Prisma_fit",
  "Modality": "MR",
  "MultibandAccelerationFactor": 4,
  "PartialFourier": 1,
  "PatientPosition": "HFS",
  "PercentPhaseFOV": 100,
  "PhaseEncodingDirection": "j",
  "PhaseEncodingSteps": 104,
  "PhaseResolution": 1,
  "PixelBandwidth": 2290,
  "ProcedureStepDescription": "memory_things",
  "ProtocolName": "func_task-things_run-4",
  "PulseSequenceDetails": "%CustomerSeq%_cmrr_mbep2d_bold",
  "ReceiveCoilActiveElements": "HC1-7;NC1,2",
  "ReceiveCoilName": "HeadNeck_64",
  "ReconMatrixPE": 104,
  "RepetitionTime": 1.49,
  "SAR": 0.0482169,
  "ScanOptions": "FS",
  "ScanningSequence": "EP",
  "SequenceName": "epfid2d1_104",
  "SequenceVariant": "SK_SS",
  "SeriesDescription": "func_task-things_run-4",
  "SeriesNumber": 19,
  "ShimSetting": [619, -7187, -8865, 285, 16, -164, -19, -26],
  "SliceThickness": 2,
  "SliceTiming": [0, 0.785, 0.0975, 0.8825, 0.1975, 0.98, 0.295, 1.0775, 0.3925, 1.175, 0.49, 1.275, 0.5875, 1.3725, 0.6875, 0, 0.785, 0.0975, 0.8825, 0.1975, 0.98, 0.295, 1.0775, 0.3925, 1.175, 0.49, 1.275, 0.5875, 1.3725, 0.6875, 0, 0.785, 0.0975, 0.8825, 0.1975, 0.98, 0.295, 1.0775, 0.3925, 1.175, 0.49, 1.275, 0.5875, 1.3725, 0.6875, 0, 0.785, 0.0975, 0.8825, 0.1975, 0.98, 0.295, 1.0775, 0.3925, 1.175, 0.49, 1.275, 0.5875, 1.3725, 0.6875],
  "SoftwareVersions": "syngo_MR_E11",
  "SpacingBetweenSlices": 2,
  "StationName": "MRC35049",
  "TaskName": "things",
  "TotalReadoutTime": 0.0576811,
  "TxRefAmp": 265.243,
  "WipMemBlock": "bafbbb2b-e4a0-4d97-be13-047c6830e36f||Sequence: R016 ve11c/master r/e634e98; Dec 19 2017 11:00:25 by eja",
  "dcmmeta_affine": [
    [-1.999525785446167, -0.0076776412315666676, 0.04286693036556244, 106.66427612304688],
    [-0.028655918315052986, 1.7143802642822266, -1.0296014547348022, -48.91892623901367],
    [0.032792653888463974, 1.0299714803695679, 1.7140837907791138, -94.829833984375],
    [0.0, 0.0, 0.0, 1.0]
],
  "dcmmeta_reorient_transform": [
    [0.0, -1.0, 0.0, 103.0],
    [1.0, 0.0, 0.0, 0.0],
    [0.0, 0.0, 1.0, 0.0],
    [0.0, 0.0, 0.0, 1.0]
],
  "dcmmeta_shape": [104, 104, 60, 190],
  "dcmmeta_slice_dim": 2,
  "dcmmeta_version": 0.6,
  "global": {
    "const": {
      "AcquisitionMatrix": [104, 0, 0, 104],
      "AngioFlag": "N",
      "BitsAllocated": 16,
      "BitsStored": 16,
      "BodyPartExamined": "BRAIN",
      "Columns": 832,
      "EchoNumbers": 1,
      "EchoTime": 37.0,
      "EchoTrainLength": 104,
      "FlipAngle": 52.0,
      "HighBit": 15,
      "ImageOrientationPatient": [0.99976290691307, 0.01432795936255, 0.01639632706552, -0.0038388205889, 0.85719013529491, -0.5149857623368],
      "ImagePositionPatient": [-830.90621764645, -762.12741541175, 374.23034080973],
      "ImageType": [
        "ORIGINAL",
        "PRIMARY",
        "M",
        "MB",
        "ND",
        "MOSAIC"
],
      "ImagedNucleus": "1H",
      "ImagingFrequency": 123.258895,
      "InPlanePhaseEncodingDirection": "COL",
      "MRAcquisitionType": "2D",
      "MagneticFieldStrength": 3.0,
      "Manufacturer": "SIEMENS",
      "ManufacturerModelName": "Prisma_fit",
      "Modality": "MR",
      "NumberOfAverages": 1.0,
      "NumberOfPhaseEncodingSteps": 104,
      "PercentPhaseFieldOfView": 100.0,
      "PercentSampling": 100.0,
      "PerformedProcedureStepStartTime": "095205.017000",
      "PhotometricInterpretation": "MONOCHROME2",
      "PixelBandwidth": 2290.0,
      "PixelRepresentation": 0,
      "PixelSpacing": [2.0, 2.0],
      "ProtocolName": "func_task-things_run-4",
      "RepetitionTime": 1490.0,
      "Rows": 832,
      "SAR": 0.04821690132269,
      "SamplesPerPixel": 1,
      "ScanOptions": "FS",
      "ScanningSequence": "EP",
      "SequenceName": "epfid2d1_104",
      "SequenceVariant": [
        "SK",
        "SS"
],
      "SeriesDescription": "func_task-things_run-4",
      "SeriesNumber": 19,
      "SeriesTime": "110826.810000",
      "SliceLocation": -53.803459319363,
      "SliceThickness": 2.0,
      "SmallestImagePixelValue": 0,
      "SoftwareVersions": "syngo MR E11",
      "SpacingBetweenSlices": 1.9999999776776,
      "SpecificCharacterSet": "ISO_IR 100",
      "StudyID": "1",
      "StudyTime": "095204.927000",
      "TransmitCoilName": "Body",
      "VariableFlipAngleFlag": "N",
      "WindowCenterWidthExplanation": "Algo1",
      "dBdt": 0.0},
    "slices": {}
  },
  "time": {
    "samples": {
      "AcquisitionNumber": [1, 2, 3, 4, 5, 6, 7, 8, 9, 10, 11, 12, 13, 14, 15, 16, 17, 18, 19, 20, 21, 22, 23, 24, 25, 26, 27, 28, 29, 30, 31, 32, 33, 34, 35, 36, 37, 38, 39, 40, 41, 42, 43, 44, 45, 46, 47, 48, 49, 50, 51, 52, 53, 54, 55, 56, 57, 58, 59, 60, 61, 62, 63, 64, 65, 66, 67, 68, 69, 70, 71, 72, 73, 74, 75, 76, 77, 78, 79, 80, 81, 82, 83, 84, 85, 86, 87, 88, 89, 90, 91, 92, 93, 94, 95, 96, 97, 98, 99, 100, 101, 102, 103, 104, 105, 106, 107, 108, 109, 110, 111, 112, 113, 114, 115, 116, 117, 118, 119, 120, 121, 122, 123, 124, 125, 126, 127, 128, 129, 130, 131, 132, 133, 134, 135, 136, 137, 138, 139, 140, 141, 142, 143, 144, 145, 146, 147, 148, 149, 150, 151, 152, 153, 154, 155, 156, 157, 158, 159, 160, 161, 162, 163, 164, 165, 166, 167, 168, 169, 170, 171, 172, 173, 174, 175, 176, 177, 178, 179, 180, 181, 182, 183, 184, 185, 186, 187, 188, 189, 190],
      "AcquisitionTime": ["110722.650000", "110724.140000", "110725.630000", "110727.120000", "110728.610000", "110730.100000", "110731.590000", "110733.080000", "110734.570000", "110736.060000", "110737.550000", "110739.040000", "110740.530000", "110742.020000", "110743.510000", "110745.000000", "110746.490000", "110747.980000", "110749.470000", "110750.960000", "110752.450000", "110753.940000", "110755.430000", "110756.920000", "110758.410000", "110759.900000", "110801.390000", "110802.880000", "110804.370000", "110805.860000", "110807.350000", "110808.840000", "110810.330000", "110811.820000", "110813.310000", "110814.800000", "110816.290000", "110817.780000", "110819.270000", "110820.760000", "110822.250000", "110823.740000", "110825.230000", "110826.720000", "110828.210000", "110829.700000", "110831.190000", "110832.680000", "110834.170000", "110835.660000", "110837.150000", "110838.640000", "110840.130000", "110841.620000", "110843.110000", "110844.600000", "110846.090000", "110847.580000", "110849.070000", "110850.560000", "110852.050000", "110853.540000", "110855.030000", "110856.520000", "110858.010000", "110859.500000", "110900.990000", "110902.480000", "110903.970000", "110905.460000", "110906.950000", "110908.440000", "110909.930000", "110911.420000", "110912.910000", "110914.400000", "110915.890000", "110917.380000", "110918.870000", "110920.360000", "110921.850000", "110923.340000", "110924.830000", "110926.320000", "110927.810000", "110929.300000", "110930.790000", "110932.280000", "110933.770000", "110935.260000", "110936.750000", "110938.240000", "110939.730000", "110941.220000", "110942.710000", "110944.200000", "110945.690000", "110947.180000", "110948.670000", "110950.160000", "110951.650000", "110953.140000", "110954.630000", "110956.120000", "110957.610000", "110959.100000", "111000.590000", "111002.080000", "111003.570000", "111005.060000", "111006.550000", "111008.040000", "111009.530000", "111011.020000", "111012.510000", "111014.000000", "111015.490000", "111016.980000", "111018.470000", "111019.960000", "111021.450000", "111022.940000", "111024.430000", "111025.920000", "111027.410000", "111028.900000", "111030.390000", "111031.880000", "111033.370000", "111034.860000", "111036.350000", "111037.840000", "111039.330000", "111040.820000", "111042.310000", "111043.800000", "111045.290000", "111046.780000", "111048.270000", "111049.760000", "111051.250000", "111052.740000", "111054.230000", "111055.720000", "111057.210000", "111058.700000", "111100.190000", "111101.680000", "111103.170000", "111104.660000", "111106.150000", "111107.640000", "111109.130000", "111110.620000", "111112.110000", "111113.600000", "111115.090000", "111116.580000", "111118.070000", "111119.560000", "111121.050000", "111122.540000", "111124.030000", "111125.520000", "111127.010000", "111128.500000", "111129.990000", "111131.480000", "111132.970000", "111134.460000", "111135.950000", "111137.440000", "111138.930000", "111140.420000", "111141.910000", "111143.400000", "111144.890000", "111146.380000", "111147.870000", "111149.360000", "111150.850000", "111152.340000", "111153.830000", "111155.320000", "111156.810000", "111158.300000", "111159.790000", "111201.280000", "111202.770000", "111204.260000"],
      "ContentTime": ["110826.813000", "110826.817000", "110826.821000", "110826.824000", "110826.827000", "110826.831000", "110826.853000", "110846.774000", "110846.778000", "110846.781000", "110846.785000", "110846.791000", "110846.794000", "110846.797000", "110846.801000", "110846.804000", "110846.808000", "110846.811000", "110846.814000", "110846.818000", "110846.821000", "110846.824000", "110846.828000", "110846.831000", "110846.835000", "110846.838000", "110846.841000", "110906.774000", "110906.778000", "110906.781000", "110906.785000", "110906.788000", "110906.791000", "110906.795000", "110906.798000", "110906.801000", "110906.805000", "110906.808000", "110906.812000", "110906.815000", "110906.818000", "110906.821000", "110906.825000", "110906.828000", "110906.832000", "110906.835000", "110906.838000", "110926.774000", "110926.778000", "110926.781000", "110926.784000", "110926.788000", "110926.792000", "110926.796000", "110926.800000", "110926.803000", "110926.806000", "110926.809000", "110926.820000", "110926.823000", "110926.826000", "110926.830000", "110926.833000", "110926.837000", "110926.840000", "110926.843000", "110926.847000", "110946.773000", "110946.777000", "110946.780000", "110946.784000", "110946.787000", "110946.790000", "110946.794000", "110946.797000", "110946.800000", "110946.803000", "110946.807000", "110946.810000", "110946.814000", "110946.817000", "110946.821000", "110946.825000", "110946.829000", "110946.832000", "110946.836000", "110946.840000", "111006.774000", "111006.778000", "111006.781000", "111006.785000", "111006.788000", "111006.791000", "111006.795000", "111006.798000", "111006.801000", "111006.805000", "111006.808000", "111006.812000", "111006.815000", "111006.818000", "111006.821000", "111006.825000", "111006.828000", "111006.831000", "111006.847000", "111006.850000", "111006.854000", "111046.774000", "111046.778000", "111046.781000", "111046.785000", "111046.788000", "111046.791000", "111046.795000", "111046.798000", "111046.801000", "111046.805000", "111046.808000", "111046.812000", "111046.823000", "111046.826000", "111046.830000", "111046.833000", "111046.837000", "111046.840000", "111046.843000", "111046.847000", "111046.850000", "111046.853000", "111046.857000", "111046.860000", "111046.864000", "111046.867000", "111046.870000", "111046.874000", "111126.774000", "111126.778000", "111126.781000", "111126.785000", "111126.788000", "111126.791000", "111126.795000", "111126.798000", "111126.801000", "111126.805000", "111126.808000", "111126.811000", "111126.815000", "111126.818000", "111126.821000", "111126.825000", "111126.828000", "111126.832000", "111126.835000", "111126.838000", "111126.841000", "111126.845000", "111126.848000", "111126.851000", "111126.855000", "111126.858000", "111126.862000", "111206.416000", "111206.419000", "111206.423000", "111206.426000", "111206.430000", "111206.433000", "111206.436000", "111206.440000", "111206.443000", "111206.447000", "111206.450000", "111206.454000", "111206.457000", "111206.461000", "111206.480000", "111206.483000", "111206.487000", "111206.490000", "111206.493000", "111206.497000", "111206.500000", "111206.504000", "111206.507000", "111206.510000", "111206.514000", "111206.517000", "111206.521000"],
      "InstanceCreationTime": ["110826.813000", "110826.817000", "110826.821000", "110826.824000", "110826.827000", "110826.831000", "110826.853000", "110846.774000", "110846.778000", "110846.781000", "110846.785000", "110846.791000", "110846.794000", "110846.797000", "110846.801000", "110846.804000", "110846.808000", "110846.811000", "110846.814000", "110846.818000", "110846.821000", "110846.824000", "110846.828000", "110846.831000", "110846.835000", "110846.838000", "110846.841000", "110906.774000", "110906.778000", "110906.781000", "110906.785000", "110906.788000", "110906.791000", "110906.795000", "110906.798000", "110906.801000", "110906.805000", "110906.808000", "110906.812000", "110906.815000", "110906.818000", "110906.821000", "110906.825000", "110906.828000", "110906.832000", "110906.835000", "110906.838000", "110926.774000", "110926.778000", "110926.781000", "110926.784000", "110926.788000", "110926.792000", "110926.796000", "110926.800000", "110926.803000", "110926.806000", "110926.809000", "110926.820000", "110926.823000", "110926.826000", "110926.830000", "110926.833000", "110926.837000", "110926.840000", "110926.843000", "110926.847000", "110946.773000", "110946.777000", "110946.780000", "110946.784000", "110946.787000", "110946.790000", "110946.794000", "110946.797000", "110946.800000", "110946.803000", "110946.807000", "110946.810000", "110946.814000", "110946.817000", "110946.821000", "110946.825000", "110946.829000", "110946.832000", "110946.836000", "110946.840000", "111006.774000", "111006.778000", "111006.781000", "111006.785000", "111006.788000", "111006.791000", "111006.795000", "111006.798000", "111006.801000", "111006.805000", "111006.808000", "111006.812000", "111006.815000", "111006.818000", "111006.821000", "111006.825000", "111006.828000", "111006.831000", "111006.847000", "111006.850000", "111006.854000", "111046.774000", "111046.778000", "111046.781000", "111046.785000", "111046.788000", "111046.791000", "111046.795000", "111046.798000", "111046.801000", "111046.805000", "111046.808000", "111046.812000", "111046.823000", "111046.826000", "111046.830000", "111046.833000", "111046.837000", "111046.840000", "111046.843000", "111046.847000", "111046.850000", "111046.853000", "111046.857000", "111046.860000", "111046.864000", "111046.867000", "111046.870000", "111046.874000", "111126.774000", "111126.778000", "111126.781000", "111126.785000", "111126.788000", "111126.791000", "111126.795000", "111126.798000", "111126.801000", "111126.805000", "111126.808000", "111126.811000", "111126.815000", "111126.818000", "111126.821000", "111126.825000", "111126.828000", "111126.832000", "111126.835000", "111126.838000", "111126.841000", "111126.845000", "111126.848000", "111126.851000", "111126.855000", "111126.858000", "111126.862000", "111206.416000", "111206.419000", "111206.423000", "111206.426000", "111206.430000", "111206.433000", "111206.436000", "111206.440000", "111206.443000", "111206.447000", "111206.450000", "111206.454000", "111206.457000", "111206.461000", "111206.480000", "111206.483000", "111206.487000", "111206.490000", "111206.493000", "111206.497000", "111206.500000", "111206.504000", "111206.507000", "111206.510000", "111206.514000", "111206.517000", "111206.521000"],
      "InstanceNumber": [1, 2, 3, 4, 5, 6, 7, 8, 9, 10, 11, 12, 13, 14, 15, 16, 17, 18, 19, 20, 21, 22, 23, 24, 25, 26, 27, 28, 29, 30, 31, 32, 33, 34, 35, 36, 37, 38, 39, 40, 41, 42, 43, 44, 45, 46, 47, 48, 49, 50, 51, 52, 53, 54, 55, 56, 57, 58, 59, 60, 61, 62, 63, 64, 65, 66, 67, 68, 69, 70, 71, 72, 73, 74, 75, 76, 77, 78, 79, 80, 81, 82, 83, 84, 85, 86, 87, 88, 89, 90, 91, 92, 93, 94, 95, 96, 97, 98, 99, 100, 101, 102, 103, 104, 105, 106, 107, 108, 109, 110, 111, 112, 113, 114, 115, 116, 117, 118, 119, 120, 121, 122, 123, 124, 125, 126, 127, 128, 129, 130, 131, 132, 133, 134, 135, 136, 137, 138, 139, 140, 141, 142, 143, 144, 145, 146, 147, 148, 149, 150, 151, 152, 153, 154, 155, 156, 157, 158, 159, 160, 161, 162, 163, 164, 165, 166, 167, 168, 169, 170, 171, 172, 173, 174, 175, 176, 177, 178, 179, 180, 181, 182, 183, 184, 185, 186, 187, 188, 189, 190],
      "LargestImagePixelValue": [50334, 48911, 47888, 48285, 47635, 46978, 47163, 47398, 46910, 47205, 47042, 47526, 47724, 47225, 47598, 47752, 47542, 46838, 47770, 47192, 47142, 47663, 47612, 47553, 47509, 47018, 47863, 47870, 47386, 47793, 47026, 46348, 46646, 46890, 47068, 47432, 47449, 47187, 46911, 47634, 47795, 46944, 47464, 47253, 47050, 47117, 46149, 47544, 46106, 46209, 46677, 47035, 46485, 47611, 46973, 46123, 47462, 47312, 47721, 46634, 47014, 47345, 47087, 46912, 47143, 46589, 46898, 47222, 47323, 46391, 46009, 47345, 46833, 46284, 46673, 47023, 46202, 47171, 47271, 45870, 46420, 46672, 46688, 46634, 46724, 45087, 46955, 47303, 45212, 46652, 47094, 46275, 47713, 47296, 46517, 47173, 45694, 46934, 47732, 46490, 47000, 47685, 47278, 47117, 47044, 47419, 46751, 47220, 47119, 46234, 46287, 46591, 45050, 46774, 47212, 46362, 47257, 47843, 46528, 46729, 46817, 46827, 47176, 47144, 47016, 47107, 46690, 46491, 47606, 47017, 47220, 47113, 46370, 47332, 46914, 46969, 47462, 46494, 46799, 46580, 46832, 47132, 46011, 46913, 46494, 47070, 46841, 46750, 46376, 46955, 46812, 46646, 46327, 45819, 46971, 46479, 46414, 45918, 46480, 45367, 46691, 46392, 46622, 46479, 46037, 45946, 46185, 46505, 45853, 46307, 46495, 46342, 46081, 46689, 46512, 46555, 46235, 46419, 46148, 45476, 46499, 46389, 46202, 46377, 46078, 46011, 46385, 46341, 45785, 45361],
      "WindowCenter": [11086.0, 11039.0, 10985.0, 10974.0, 10973.0, 11001.0, 11008.0, 10999.0, 10978.0, 10957.0, 10944.0, 10965.0, 10967.0, 10979.0, 10976.0, 10963.0, 10981.0, 10974.0, 11001.0, 10990.0, 10959.0, 10949.0, 10965.0, 10965.0, 10967.0, 10963.0, 10970.0, 10981.0, 10967.0, 10921.0, 10893.0, 10904.0, 10962.0, 10965.0, 10945.0, 10923.0, 10936.0, 10938.0, 10946.0, 10952.0, 10951.0, 10941.0, 10956.0, 10955.0, 10942.0, 10940.0, 10937.0, 10960.0, 10972.0, 10990.0, 10990.0, 10972.0, 10943.0, 10927.0, 10932.0, 10952.0, 10981.0, 10978.0, 10956.0, 10928.0, 10922.0, 10934.0, 10938.0, 10932.0, 10937.0, 10931.0, 10930.0, 10945.0, 10948.0, 10945.0, 10940.0, 10953.0, 10958.0, 10948.0, 10960.0, 10976.0, 10960.0, 10944.0, 10964.0, 10967.0, 10956.0, 10952.0, 10931.0, 10933.0, 10966.0, 10971.0, 10955.0, 10924.0, 10893.0, 10921.0, 10938.0, 10951.0, 10961.0, 10956.0, 10936.0, 10946.0, 10941.0, 10948.0, 10945.0, 10918.0, 10919.0, 10933.0, 10946.0, 10935.0, 10936.0, 10947.0, 10935.0, 10938.0, 10923.0, 10922.0, 10917.0, 10940.0, 10928.0, 10946.0, 10942.0, 10919.0, 10931.0, 10945.0, 10932.0, 10949.0, 10954.0, 10952.0, 10952.0, 10937.0, 10925.0, 10921.0, 10923.0, 10918.0, 10937.0, 10925.0, 10930.0, 10933.0, 10935.0, 10941.0, 10934.0, 10925.0, 10921.0, 10929.0, 10942.0, 10960.0, 10962.0, 10927.0, 10918.0, 10940.0, 10940.0, 10936.0, 10904.0, 10908.0, 10939.0, 10961.0, 10949.0, 10929.0, 10902.0, 10905.0, 10940.0, 10940.0, 10943.0, 10953.0, 10955.0, 10920.0, 10909.0, 10910.0, 10936.0, 10945.0, 10948.0, 10941.0, 10921.0, 10921.0, 10931.0, 10935.0, 10924.0, 10912.0, 10909.0, 10923.0, 10928.0, 10934.0, 10913.0, 10916.0, 10926.0, 10936.0, 10949.0, 10932.0, 10912.0, 10916.0, 10931.0, 10939.0, 10937.0, 10939.0, 10935.0, 10922.0],
      "WindowWidth": [23865.0, 23724.0, 23579.0, 23539.0, 23525.0, 23587.0, 23603.0, 23581.0, 23533.0, 23485.0, 23454.0, 23501.0, 23508.0, 23539.0, 23532.0, 23498.0, 23538.0, 23529.0, 23585.0, 23564.0, 23497.0, 23467.0, 23506.0, 23503.0, 23508.0, 23502.0, 23510.0, 23536.0, 23508.0, 23404.0, 23339.0, 23364.0, 23497.0, 23507.0, 23459.0, 23405.0, 23435.0, 23441.0, 23460.0, 23472.0, 23469.0, 23450.0, 23482.0, 23482.0, 23453.0, 23447.0, 23446.0, 23492.0, 23524.0, 23566.0, 23568.0, 23525.0, 23460.0, 23418.0, 23436.0, 23478.0, 23541.0, 23535.0, 23482.0, 23421.0, 23405.0, 23431.0, 23442.0, 23432.0, 23441.0, 23428.0, 23422.0, 23456.0, 23466.0, 23460.0, 23449.0, 23473.0, 23486.0, 23467.0, 23493.0, 23529.0, 23498.0, 23457.0, 23502.0, 23514.0, 23485.0, 23477.0, 23428.0, 23433.0, 23505.0, 23523.0, 23482.0, 23411.0, 23348.0, 23403.0, 23441.0, 23471.0, 23491.0, 23481.0, 23435.0, 23454.0, 23452.0, 23459.0, 23453.0, 23395.0, 23394.0, 23422.0, 23456.0, 23429.0, 23431.0, 23461.0, 23434.0, 23436.0, 23407.0, 23410.0, 23391.0, 23445.0, 23425.0, 23460.0, 23451.0, 23400.0, 23425.0, 23452.0, 23426.0, 23462.0, 23474.0, 23471.0, 23469.0, 23440.0, 23410.0, 23399.0, 23406.0, 23394.0, 23433.0, 23409.0, 23424.0, 23425.0, 23431.0, 23441.0, 23427.0, 23411.0, 23395.0, 23418.0, 23446.0, 23487.0, 23493.0, 23413.0, 23389.0, 23437.0, 23444.0, 23434.0, 23364.0, 23367.0, 23441.0, 23489.0, 23465.0, 23414.0, 23354.0, 23362.0, 23437.0, 23444.0, 23450.0, 23473.0, 23479.0, 23401.0, 23373.0, 23374.0, 23439.0, 23453.0, 23461.0, 23446.0, 23397.0, 23398.0, 23420.0, 23428.0, 23401.0, 23377.0, 23370.0, 23399.0, 23414.0, 23426.0, 23382.0, 23386.0, 23410.0, 23439.0, 23467.0, 23428.0, 23380.0, 23385.0, 23422.0, 23443.0, 23436.0, 23442.0, 23437.0, 23410.0]
    },
    "slices": {}
  }
}