{
  "AcquisitionMatrixPE": 104,
  "AcquisitionNumber": 1,
  "AcquisitionTime": "11:13:29.770000",
  "BandwidthPerPixelPhaseEncode": 17.17,
  "BaseResolution": 104,
  "BodyPartExamined": "BRAIN",
  "CoilString": "HC1-7;NC1_2",
  "ConsistencyInfo": "N4_VE11C_LATEST_20160120",
  "ConversionSoftware": "dcm2niix",
  "ConversionSoftwareVersion": "v1.0.20190902",
  "DerivedVendorReportedEchoSpacing": 0.000560011,
  "DeviceSerialNumber": "167006",
  "DwellTime": 2.1e-06,
  "EchoTime": 0.037,
  "EchoTrainLength": 104,
  "EffectiveEchoSpacing": 0.000560011,
  "FlipAngle": 52,
  "HeudiconvVersion": "0.10.0",
  "ImageComments": "Unaliased_MB4_PE3_LB",
  "ImageOrientationPatientDICOM": [0.999763, 0.014328, 0.0163963, -0.00383882, 0.85719, -0.514986],
  "ImageType": [
    "ORIGINAL",
    "PRIMARY",
    "P",
    "MB",
    "ND",
    "MOSAIC"
],
  "ImagingFrequency": 123.259,
  "InPlanePhaseEncodingDirectionDICOM": "COL",
  "InstitutionAddress": "Chemin_Queen-Mary_4565_Montreal_District_CA_H3W_1W5",
  "InstitutionName": "IUGM",
  "InstitutionalDepartmentName": "Department",
  "MRAcquisitionType": "2D",
  "MagneticFieldStrength": 3,
  "Manufacturer": "Siemens",
  "ManufacturersModelName": "Prisma_fit",
  "Modality": "MR",
  "MultibandAccelerationFactor": 4,
  "PartialFourier": 1,
  "PatientPosition": "HFS",
  "PercentPhaseFOV": 100,
  "PhaseEncodingDirection": "j",
  "PhaseEncodingSteps": 104,
  "PhaseResolution": 1,
  "PixelBandwidth": 2290,
  "ProcedureStepDescription": "memory_things",
  "ProtocolName": "func_task-things_run-5",
  "PulseSequenceDetails": "%CustomerSeq%_cmrr_mbep2d_bold",
  "ReceiveCoilActiveElements": "HC1-7;NC1,2",
  "ReceiveCoilName": "HeadNeck_64",
  "ReconMatrixPE": 104,
  "RepetitionTime": 1.49,
  "SAR": 0.0482169,
  "ScanOptions": "FS",
  "ScanningSequence": "EP",
  "SequenceName": "epfid2d1_104",
  "SequenceVariant": "SK_SS",
  "SeriesDescription": "func_task-things_run-5",
  "SeriesNumber": 23,
  "ShimSetting": [619, -7187, -8865, 285, 16, -164, -19, -26],
  "SliceThickness": 2,
  "SliceTiming": [0, 0.7825, 0.0975, 0.8825, 0.195, 0.98, 0.2925, 1.0775, 0.3925, 1.175, 0.49, 1.2725, 0.5875, 1.37, 0.685, 0, 0.7825, 0.0975, 0.8825, 0.195, 0.98, 0.2925, 1.0775, 0.3925, 1.175, 0.49, 1.2725, 0.5875, 1.37, 0.685, 0, 0.7825, 0.0975, 0.8825, 0.195, 0.98, 0.2925, 1.0775, 0.3925, 1.175, 0.49, 1.2725, 0.5875, 1.37, 0.685, 0, 0.7825, 0.0975, 0.8825, 0.195, 0.98, 0.2925, 1.0775, 0.3925, 1.175, 0.49, 1.2725, 0.5875, 1.37, 0.685],
  "SoftwareVersions": "syngo_MR_E11",
  "SpacingBetweenSlices": 2,
  "StationName": "MRC35049",
  "TaskName": "things",
  "TotalReadoutTime": 0.0576811,
  "TxRefAmp": 265.243,
  "WipMemBlock": "2b59974a-260b-4e8c-a63c-adfa22b8565b||Sequence: R016 ve11c/master r/e634e98; Dec 19 2017 11:00:25 by eja",
  "dcmmeta_affine": [
    [-1.999525785446167, -0.0076776412315666676, 0.04286693036556244, 106.66427612304688],
    [-0.028655918315052986, 1.7143802642822266, -1.0296014547348022, -48.91892623901367],
    [0.032792653888463974, 1.0299714803695679, 1.7140837907791138, -94.829833984375],
    [0.0, 0.0, 0.0, 1.0]
],
  "dcmmeta_reorient_transform": [
    [0.0, -1.0, 0.0, 103.0],
    [1.0, 0.0, 0.0, 0.0],
    [0.0, 0.0, 1.0, 0.0],
    [0.0, 0.0, 0.0, 1.0]
],
  "dcmmeta_shape": [104, 104, 60, 190],
  "dcmmeta_slice_dim": 2,
  "dcmmeta_version": 0.6,
  "global": {
    "const": {
      "AcquisitionMatrix": [104, 0, 0, 104],
      "AngioFlag": "N",
      "BitsAllocated": 16,
      "BitsStored": 16,
      "BodyPartExamined": "BRAIN",
      "Columns": 832,
      "EchoNumbers": 1,
      "EchoTime": 37.0,
      "EchoTrainLength": 104,
      "FlipAngle": 52.0,
      "HighBit": 15,
      "ImageOrientationPatient": [0.99976290691307, 0.01432795936255, 0.01639632706552, -0.0038388205889, 0.85719013529491, -0.5149857623368],
      "ImagePositionPatient": [-830.90621764645, -762.12741541175, 374.23034080973],
      "ImageType": [
        "ORIGINAL",
        "PRIMARY",
        "P",
        "MB",
        "ND",
        "MOSAIC"
],
      "ImagedNucleus": "1H",
      "ImagingFrequency": 123.258892,
      "InPlanePhaseEncodingDirection": "COL",
      "LargestImagePixelValue": 4095,
      "MRAcquisitionType": "2D",
      "MagneticFieldStrength": 3.0,
      "Manufacturer": "SIEMENS",
      "ManufacturerModelName": "Prisma_fit",
      "Modality": "MR",
      "NumberOfAverages": 1.0,
      "NumberOfPhaseEncodingSteps": 104,
      "PercentPhaseFieldOfView": 100.0,
      "PercentSampling": 100.0,
      "PerformedProcedureStepStartTime": "095205.017000",
      "PhotometricInterpretation": "MONOCHROME2",
      "PixelBandwidth": 2290.0,
      "PixelRepresentation": 0,
      "PixelSpacing": [2.0, 2.0],
      "ProtocolName": "func_task-things_run-5",
      "RepetitionTime": 1490.0,
      "RescaleIntercept": -4096.0,
      "RescaleSlope": 2.0,
      "RescaleType": "US",
      "Rows": 832,
      "SAR": 0.04821690132269,
      "SamplesPerPixel": 1,
      "ScanOptions": "FS",
      "ScanningSequence": "EP",
      "SequenceName": "epfid2d1_104",
      "SequenceVariant": [
        "SK",
        "SS"
],
      "SeriesDescription": "func_task-things_run-5",
      "SeriesNumber": 23,
      "SeriesTime": "111459.853000",
      "SliceLocation": -53.803459319363,
      "SliceThickness": 2.0,
      "SmallestImagePixelValue": 0,
      "SoftwareVersions": "syngo MR E11",
      "SpacingBetweenSlices": 1.9999999776776,
      "SpecificCharacterSet": "ISO_IR 100",
      "StudyID": "1",
      "StudyTime": "095204.927000",
      "TransmitCoilName": "Body",
      "VariableFlipAngleFlag": "N",
      "WindowCenterWidthExplanation": "Algo1",
      "dBdt": 0.0},
    "slices": {}
  },
  "time": {
    "samples": {
      "AcquisitionNumber": [1, 2, 3, 4, 5, 6, 7, 8, 9, 10, 11, 12, 13, 14, 15, 16, 17, 18, 19, 20, 21, 22, 23, 24, 25, 26, 27, 28, 29, 30, 31, 32, 33, 34, 35, 36, 37, 38, 39, 40, 41, 42, 43, 44, 45, 46, 47, 48, 49, 50, 51, 52, 53, 54, 55, 56, 57, 58, 59, 60, 61, 62, 63, 64, 65, 66, 67, 68, 69, 70, 71, 72, 73, 74, 75, 76, 77, 78, 79, 80, 81, 82, 83, 84, 85, 86, 87, 88, 89, 90, 91, 92, 93, 94, 95, 96, 97, 98, 99, 100, 101, 102, 103, 104, 105, 106, 107, 108, 109, 110, 111, 112, 113, 114, 115, 116, 117, 118, 119, 120, 121, 122, 123, 124, 125, 126, 127, 128, 129, 130, 131, 132, 133, 134, 135, 136, 137, 138, 139, 140, 141, 142, 143, 144, 145, 146, 147, 148, 149, 150, 151, 152, 153, 154, 155, 156, 157, 158, 159, 160, 161, 162, 163, 164, 165, 166, 167, 168, 169, 170, 171, 172, 173, 174, 175, 176, 177, 178, 179, 180, 181, 182, 183, 184, 185, 186, 187, 188, 189, 190],
      "AcquisitionTime": ["111329.770000", "111331.260000", "111332.750000", "111334.240000", "111335.730000", "111337.220000", "111338.710000", "111340.200000", "111341.690000", "111343.180000", "111344.670000", "111346.160000", "111347.650000", "111349.140000", "111350.630000", "111352.120000", "111353.610000", "111355.100000", "111356.590000", "111358.080000", "111359.570000", "111401.060000", "111402.550000", "111404.040000", "111405.530000", "111407.020000", "111408.510000", "111410.000000", "111411.490000", "111412.980000", "111414.470000", "111415.960000", "111417.450000", "111418.940000", "111420.430000", "111421.920000", "111423.410000", "111424.900000", "111426.390000", "111427.880000", "111429.370000", "111430.860000", "111432.350000", "111433.840000", "111435.330000", "111436.820000", "111438.310000", "111439.800000", "111441.290000", "111442.780000", "111444.270000", "111445.760000", "111447.250000", "111448.740000", "111450.230000", "111451.720000", "111453.210000", "111454.700000", "111456.190000", "111457.680000", "111459.170000", "111500.660000", "111502.150000", "111503.640000", "111505.130000", "111506.620000", "111508.110000", "111509.600000", "111511.090000", "111512.580000", "111514.070000", "111515.560000", "111517.050000", "111518.540000", "111520.030000", "111521.520000", "111523.010000", "111524.500000", "111525.990000", "111527.480000", "111528.970000", "111530.460000", "111531.950000", "111533.440000", "111534.930000", "111536.420000", "111537.910000", "111539.400000", "111540.890000", "111542.380000", "111543.870000", "111545.360000", "111546.850000", "111548.340000", "111549.830000", "111551.320000", "111552.810000", "111554.300000", "111555.790000", "111557.280000", "111558.770000", "111600.260000", "111601.750000", "111603.240000", "111604.730000", "111606.220000", "111607.710000", "111609.200000", "111610.690000", "111612.180000", "111613.670000", "111615.160000", "111616.650000", "111618.140000", "111619.630000", "111621.120000", "111622.610000", "111624.100000", "111625.590000", "111627.080000", "111628.570000", "111630.060000", "111631.550000", "111633.040000", "111634.530000", "111636.020000", "111637.510000", "111639.000000", "111640.490000", "111641.980000", "111643.470000", "111644.960000", "111646.450000", "111647.940000", "111649.430000", "111650.920000", "111652.410000", "111653.900000", "111655.390000", "111656.880000", "111658.370000", "111659.860000", "111701.350000", "111702.840000", "111704.330000", "111705.820000", "111707.310000", "111708.800000", "111710.290000", "111711.780000", "111713.270000", "111714.760000", "111716.250000", "111717.740000", "111719.230000", "111720.720000", "111722.210000", "111723.700000", "111725.190000", "111726.680000", "111728.170000", "111729.660000", "111731.150000", "111732.640000", "111734.130000", "111735.620000", "111737.110000", "111738.600000", "111740.090000", "111741.580000", "111743.070000", "111744.560000", "111746.050000", "111747.540000", "111749.030000", "111750.520000", "111752.010000", "111753.500000", "111754.990000", "111756.480000", "111757.970000", "111759.460000", "111800.950000", "111802.440000", "111803.930000", "111805.420000", "111806.910000", "111808.400000", "111809.890000", "111811.380000"],
      "ContentTime": ["111459.855000", "111459.858000", "111459.860000", "111459.863000", "111459.866000", "111459.868000", "111459.871000", "111459.873000", "111459.876000", "111459.878000", "111459.881000", "111459.883000", "111459.886000", "111459.888000", "111459.891000", "111459.893000", "111459.896000", "111459.898000", "111459.901000", "111459.903000", "111459.907000", "111459.910000", "111459.912000", "111459.915000", "111459.918000", "111459.920000", "111459.923000", "111459.925000", "111459.928000", "111459.930000", "111459.933000", "111459.935000", "111459.938000", "111459.940000", "111459.943000", "111459.945000", "111519.733000", "111519.736000", "111519.739000", "111519.741000", "111519.744000", "111519.746000", "111519.752000", "111519.755000", "111519.757000", "111519.760000", "111519.762000", "111519.765000", "111519.767000", "111519.770000", "111519.772000", "111519.775000", "111519.777000", "111519.780000", "111519.783000", "111519.785000", "111539.749000", "111539.752000", "111539.755000", "111539.764000", "111539.767000", "111539.769000", "111539.772000", "111539.774000", "111539.777000", "111539.780000", "111539.782000", "111539.785000", "111539.787000", "111539.790000", "111539.792000", "111539.795000", "111539.798000", "111539.800000", "111539.803000", "111539.805000", "111559.738000", "111559.741000", "111559.743000", "111559.746000", "111559.748000", "111559.751000", "111559.753000", "111559.756000", "111559.759000", "111559.761000", "111559.764000", "111559.770000", "111559.772000", "111559.775000", "111559.777000", "111559.780000", "111559.782000", "111559.785000", "111559.788000", "111559.790000", "111639.797000", "111639.800000", "111639.803000", "111639.805000", "111639.808000", "111639.810000", "111639.813000", "111639.815000", "111639.818000", "111639.820000", "111639.823000", "111639.825000", "111639.828000", "111639.830000", "111639.833000", "111639.835000", "111639.838000", "111639.841000", "111639.843000", "111639.846000", "111639.848000", "111639.851000", "111639.853000", "111639.856000", "111639.858000", "111639.861000", "111639.863000", "111639.866000", "111639.868000", "111639.871000", "111639.874000", "111719.769000", "111719.772000", "111719.774000", "111719.777000", "111719.779000", "111719.782000", "111719.784000", "111719.787000", "111719.790000", "111719.792000", "111719.802000", "111719.805000", "111719.807000", "111719.810000", "111719.812000", "111719.815000", "111719.817000", "111719.820000", "111719.823000", "111719.825000", "111719.828000", "111719.830000", "111719.833000", "111719.835000", "111719.838000", "111719.840000", "111759.760000", "111759.763000", "111759.765000", "111759.768000", "111759.771000", "111759.773000", "111759.776000", "111759.778000", "111759.781000", "111759.783000", "111759.786000", "111759.788000", "111759.791000", "111759.794000", "111759.802000", "111759.805000", "111759.807000", "111759.810000", "111759.812000", "111759.815000", "111759.818000", "111759.820000", "111759.823000", "111759.825000", "111759.828000", "111759.831000", "111759.835000", "111813.380000", "111813.383000", "111813.386000", "111813.389000", "111813.391000", "111813.394000", "111813.396000", "111813.399000", "111813.402000", "111813.404000"],
      "InstanceCreationTime": ["111459.855000", "111459.858000", "111459.860000", "111459.863000", "111459.866000", "111459.868000", "111459.871000", "111459.873000", "111459.876000", "111459.878000", "111459.881000", "111459.883000", "111459.886000", "111459.888000", "111459.891000", "111459.893000", "111459.896000", "111459.898000", "111459.901000", "111459.903000", "111459.907000", "111459.910000", "111459.912000", "111459.915000", "111459.918000", "111459.920000", "111459.923000", "111459.925000", "111459.928000", "111459.930000", "111459.933000", "111459.935000", "111459.938000", "111459.940000", "111459.943000", "111459.945000", "111519.733000", "111519.736000", "111519.739000", "111519.741000", "111519.744000", "111519.746000", "111519.752000", "111519.755000", "111519.757000", "111519.760000", "111519.762000", "111519.765000", "111519.767000", "111519.770000", "111519.772000", "111519.775000", "111519.777000", "111519.780000", "111519.783000", "111519.785000", "111539.749000", "111539.752000", "111539.755000", "111539.764000", "111539.767000", "111539.769000", "111539.772000", "111539.774000", "111539.777000", "111539.780000", "111539.782000", "111539.785000", "111539.787000", "111539.790000", "111539.792000", "111539.795000", "111539.798000", "111539.800000", "111539.803000", "111539.805000", "111559.738000", "111559.741000", "111559.743000", "111559.746000", "111559.748000", "111559.751000", "111559.753000", "111559.756000", "111559.759000", "111559.761000", "111559.764000", "111559.770000", "111559.772000", "111559.775000", "111559.777000", "111559.780000", "111559.782000", "111559.785000", "111559.788000", "111559.790000", "111639.797000", "111639.800000", "111639.803000", "111639.805000", "111639.808000", "111639.810000", "111639.813000", "111639.815000", "111639.818000", "111639.820000", "111639.823000", "111639.825000", "111639.828000", "111639.830000", "111639.833000", "111639.835000", "111639.838000", "111639.841000", "111639.843000", "111639.846000", "111639.848000", "111639.851000", "111639.853000", "111639.856000", "111639.858000", "111639.861000", "111639.863000", "111639.866000", "111639.868000", "111639.871000", "111639.874000", "111719.769000", "111719.772000", "111719.774000", "111719.777000", "111719.779000", "111719.782000", "111719.784000", "111719.787000", "111719.790000", "111719.792000", "111719.802000", "111719.805000", "111719.807000", "111719.810000", "111719.812000", "111719.815000", "111719.817000", "111719.820000", "111719.823000", "111719.825000", "111719.828000", "111719.830000", "111719.833000", "111719.835000", "111719.838000", "111719.840000", "111759.760000", "111759.763000", "111759.765000", "111759.768000", "111759.771000", "111759.773000", "111759.776000", "111759.778000", "111759.781000", "111759.783000", "111759.786000", "111759.788000", "111759.791000", "111759.794000", "111759.802000", "111759.805000", "111759.807000", "111759.810000", "111759.812000", "111759.815000", "111759.818000", "111759.820000", "111759.823000", "111759.825000", "111759.828000", "111759.831000", "111759.835000", "111813.380000", "111813.383000", "111813.386000", "111813.389000", "111813.391000", "111813.394000", "111813.396000", "111813.399000", "111813.402000", "111813.404000"],
      "InstanceNumber": [1, 2, 3, 4, 5, 6, 7, 8, 9, 10, 11, 12, 13, 14, 15, 16, 17, 18, 19, 20, 21, 22, 23, 24, 25, 26, 27, 28, 29, 30, 31, 32, 33, 34, 35, 36, 37, 38, 39, 40, 41, 42, 43, 44, 45, 46, 47, 48, 49, 50, 51, 52, 53, 54, 55, 56, 57, 58, 59, 60, 61, 62, 63, 64, 65, 66, 67, 68, 69, 70, 71, 72, 73, 74, 75, 76, 77, 78, 79, 80, 81, 82, 83, 84, 85, 86, 87, 88, 89, 90, 91, 92, 93, 94, 95, 96, 97, 98, 99, 100, 101, 102, 103, 104, 105, 106, 107, 108, 109, 110, 111, 112, 113, 114, 115, 116, 117, 118, 119, 120, 121, 122, 123, 124, 125, 126, 127, 128, 129, 130, 131, 132, 133, 134, 135, 136, 137, 138, 139, 140, 141, 142, 143, 144, 145, 146, 147, 148, 149, 150, 151, 152, 153, 154, 155, 156, 157, 158, 159, 160, 161, 162, 163, 164, 165, 166, 167, 168, 169, 170, 171, 172, 173, 174, 175, 176, 177, 178, 179, 180, 181, 182, 183, 184, 185, 186, 187, 188, 189, 190],
      "WindowCenter": [4778.0, 4778.0, 4774.0, 4776.0, 4778.0, 4778.0, 4780.0, 4800.0, 4798.0, 4798.0, 4800.0, 4786.0, 4786.0, 4778.0, 4774.0, 4798.0, 4798.0, 4800.0, 4798.0, 4798.0, 4778.0, 4804.0, 4810.0, 4790.0, 4780.0, 4776.0, 4796.0, 4800.0, 4800.0, 4774.0, 4778.0, 4778.0, 4778.0, 4778.0, 4800.0, 4778.0, 4776.0, 4776.0, 4776.0, 4774.0, 4774.0, 4774.0, 4770.0, 4776.0, 4778.0, 4774.0, 4778.0, 4776.0, 4776.0, 4772.0, 4772.0, 4770.0, 4780.0, 4798.0, 4798.0, 4778.0, 4778.0, 4778.0, 4776.0, 4776.0, 4772.0, 4776.0, 4774.0, 4796.0, 4774.0, 4776.0, 4774.0, 4800.0, 4774.0, 4776.0, 4800.0, 4778.0, 4772.0, 4798.0, 4776.0, 4774.0, 4800.0, 4776.0, 4778.0, 4774.0, 4774.0, 4774.0, 4782.0, 4782.0, 4780.0, 4774.0, 4772.0, 4796.0, 4796.0, 4774.0, 4772.0, 4776.0, 4778.0, 4780.0, 4774.0, 4778.0, 4776.0, 4796.0, 4774.0, 4776.0, 4774.0, 4776.0, 4774.0, 4778.0, 4776.0, 4798.0, 4782.0, 4788.0, 4780.0, 4778.0, 4772.0, 4796.0, 4774.0, 4774.0, 4776.0, 4780.0, 4786.0, 4780.0, 4774.0, 4774.0, 4794.0, 4796.0, 4800.0, 4798.0, 4802.0, 4790.0, 4794.0, 4778.0, 4776.0, 4776.0, 4770.0, 4772.0, 4798.0, 4796.0, 4774.0, 4772.0, 4776.0, 4782.0, 4782.0, 4802.0, 4780.0, 4796.0, 4772.0, 4774.0, 4774.0, 4776.0, 4776.0, 4776.0, 4782.0, 4776.0, 4776.0, 4800.0, 4772.0, 4778.0, 4778.0, 4804.0, 4780.0, 4778.0, 4780.0, 4782.0, 4778.0, 4778.0, 4800.0, 4774.0, 4776.0, 4780.0, 4778.0, 4776.0, 4778.0, 4770.0, 4774.0, 4800.0, 4774.0, 4800.0, 4776.0, 4778.0, 4782.0, 4780.0, 4778.0, 4778.0, 4802.0, 4782.0, 4776.0, 4774.0, 4778.0, 4762.0, 4758.0, 4746.0, 4768.0, 4824.0],
      "WindowWidth": [18584.0, 18580.0, 18576.0, 18578.0, 18584.0, 18580.0, 18584.0, 18614.0, 18608.0, 18612.0, 18612.0, 18578.0, 18578.0, 18584.0, 18576.0, 18604.0, 18604.0, 18612.0, 18610.0, 18610.0, 18582.0, 18620.0, 18614.0, 18580.0, 18578.0, 18578.0, 18604.0, 18606.0, 18604.0, 18578.0, 18578.0, 18580.0, 18584.0, 18586.0, 18614.0, 18580.0, 18580.0, 18578.0, 18580.0, 18582.0, 18582.0, 18578.0, 18580.0, 18582.0, 18582.0, 18578.0, 18580.0, 18576.0, 18582.0, 18580.0, 18580.0, 18574.0, 18584.0, 18608.0, 18614.0, 18576.0, 18582.0, 18586.0, 18578.0, 18580.0, 18578.0, 18584.0, 18578.0, 18606.0, 18578.0, 18582.0, 18582.0, 18614.0, 18580.0, 18584.0, 18610.0, 18578.0, 18580.0, 18612.0, 18582.0, 18580.0, 18610.0, 18584.0, 18584.0, 18580.0, 18578.0, 18576.0, 18580.0, 18578.0, 18586.0, 18578.0, 18580.0, 18608.0, 18608.0, 18582.0, 18576.0, 18584.0, 18584.0, 18584.0, 18580.0, 18584.0, 18584.0, 18612.0, 18580.0, 18584.0, 18580.0, 18578.0, 18582.0, 18578.0, 18580.0, 18608.0, 18578.0, 18578.0, 18590.0, 18582.0, 18576.0, 18608.0, 18578.0, 18576.0, 18582.0, 18578.0, 18570.0, 18580.0, 18578.0, 18578.0, 18600.0, 18604.0, 18614.0, 18616.0, 18614.0, 18580.0, 18586.0, 18576.0, 18580.0, 18578.0, 18576.0, 18574.0, 18604.0, 18604.0, 18582.0, 18578.0, 18580.0, 18582.0, 18578.0, 18614.0, 18582.0, 18608.0, 18572.0, 18580.0, 18576.0, 18578.0, 18580.0, 18576.0, 18572.0, 18582.0, 18582.0, 18608.0, 18578.0, 18580.0, 18582.0, 18612.0, 18586.0, 18582.0, 18582.0, 18586.0, 18582.0, 18586.0, 18608.0, 18578.0, 18580.0, 18582.0, 18570.0, 18580.0, 18580.0, 18576.0, 18576.0, 18612.0, 18580.0, 18612.0, 18582.0, 18584.0, 18582.0, 18586.0, 18582.0, 18584.0, 18610.0, 18580.0, 18578.0, 18580.0, 18584.0, 18536.0, 18532.0, 18536.0, 18574.0, 18640.0]
    },
    "slices": {}
  }
}