{
  "AcquisitionMatrixPE": 104,
  "AcquisitionNumber": 1,
  "AcquisitionTime": "13:46:40.915000",
  "BandwidthPerPixelPhaseEncode": 17.17,
  "BaseResolution": 104,
  "BodyPartExamined": "BRAIN",
  "CoilString": "HC1-7;NC1_2",
  "ConsistencyInfo": "N4_VE11C_LATEST_20160120",
  "ConversionSoftware": "dcm2niix",
  "ConversionSoftwareVersion": "v1.0.20190902",
  "DerivedVendorReportedEchoSpacing": 0.000560011,
  "DeviceSerialNumber": "167006",
  "DwellTime": 2.1e-06,
  "EchoTime": 0.037,
  "EchoTrainLength": 104,
  "EffectiveEchoSpacing": 0.000560011,
  "FlipAngle": 52,
  "ImageComments": "Unaliased_MB4_PE3_LB",
  "ImageOrientationPatientDICOM": [0.999599, 0.00398188, 0.0280505, 0.00209356, 0.976986, -0.213292],
  "ImageType": [
    "ORIGINAL",
    "PRIMARY",
    "P",
    "MB",
    "ND",
    "MOSAIC"
],
  "ImagingFrequency": 123.259,
  "InPlanePhaseEncodingDirectionDICOM": "COL",
  "InstitutionAddress": "Chemin_Queen-Mary_4565_Montreal_District_CA_H3W_1W5",
  "InstitutionName": "IUGM",
  "InstitutionalDepartmentName": "Department",
  "MRAcquisitionType": "2D",
  "MagneticFieldStrength": 3,
  "Manufacturer": "Siemens",
  "ManufacturersModelName": "Prisma_fit",
  "Modality": "MR",
  "MultibandAccelerationFactor": 4,
  "PartialFourier": 1,
  "PatientPosition": "HFS",
  "PercentPhaseFOV": 100,
  "PhaseEncodingDirection": "j",
  "PhaseEncodingSteps": 104,
  "PhaseResolution": 1,
  "PixelBandwidth": 2290,
  "ProcedureStepDescription": "memory_things",
  "ProtocolName": "func_task-things_run-5",
  "PulseSequenceDetails": "%CustomerSeq%_cmrr_mbep2d_bold",
  "ReceiveCoilActiveElements": "HC1-7;NC1,2",
  "ReceiveCoilName": "HeadNeck_64",
  "ReconMatrixPE": 104,
  "RepetitionTime": 1.49,
  "SAR": 0.0422643,
  "ScanOptions": "FS",
  "ScanningSequence": "EP",
  "SequenceName": "epfid2d1_104",
  "SequenceVariant": "SK_SS",
  "SeriesDescription": "func_task-things_run-5",
  "SeriesNumber": 23,
  "ShimSetting": [634, -7227, -8787, 737, 41, -40, 108, -15],
  "SliceThickness": 2,
  "SliceTiming": [0, 0.7825, 0.0975, 0.88, 0.195, 0.98, 0.2925, 1.0775, 0.39, 1.175, 0.49, 1.2725, 0.5875, 1.37, 0.685, 0, 0.7825, 0.0975, 0.88, 0.195, 0.98, 0.2925, 1.0775, 0.39, 1.175, 0.49, 1.2725, 0.5875, 1.37, 0.685, 0, 0.7825, 0.0975, 0.88, 0.195, 0.98, 0.2925, 1.0775, 0.39, 1.175, 0.49, 1.2725, 0.5875, 1.37, 0.685, 0, 0.7825, 0.0975, 0.88, 0.195, 0.98, 0.2925, 1.0775, 0.39, 1.175, 0.49, 1.2725, 0.5875, 1.37, 0.685],
  "SoftwareVersions": "syngo_MR_E11",
  "SpacingBetweenSlices": 2,
  "StationName": "MRC35049",
  "TaskName": "things",
  "TotalReadoutTime": 0.0576811,
  "TxRefAmp": 219.208,
  "WipMemBlock": "630d822e-528f-4634-9b4f-cfdbdcd2683d||Sequence: R016 ve11c/master r/e634e98; Dec 19 2017 11:00:25 by eja",
  "dcmmeta_affine": [
    [-1.9991971254348755, 0.004187111277133226, 0.05650855600833893, 107.1087875366211],
    [-0.0079637560993433, 1.9539724588394165, -0.4265304207801819, -77.36434173583984],
    [0.05610104650259018, 0.4265842139720917, 1.9531713724136353, -60.128013610839844],
    [0.0, 0.0, 0.0, 1.0]
],
  "dcmmeta_reorient_transform": [
    [0.0, -1.0, 0.0, 103.0],
    [1.0, 0.0, 0.0, 0.0],
    [0.0, 0.0, 1.0, 0.0],
    [0.0, 0.0, 0.0, 1.0]
],
  "dcmmeta_shape": [104, 104, 60, 190],
  "dcmmeta_slice_dim": 2,
  "dcmmeta_version": 0.6,
  "global": {
    "const": {
      "AcquisitionMatrix": [104, 0, 0, 104],
      "AngioFlag": "N",
      "BitsAllocated": 16,
      "BitsStored": 16,
      "BodyPartExamined": "BRAIN",
      "Columns": 832,
      "EchoNumbers": 1,
      "EchoTime": 37.0,
      "EchoTrainLength": 104,
      "FlipAngle": 52.0,
      "HighBit": 15,
      "ImageOrientationPatient": [0.99959857580555, 0.00398187810776, 0.02805052395682, 0.00209355554675, 0.97698623125939, -0.21329210242],
      "ImagePositionPatient": [-836.77192799214, -838.03960487188, 118.6660295973],
      "ImageType": [
        "ORIGINAL",
        "PRIMARY",
        "P",
        "MB",
        "ND",
        "MOSAIC"
],
      "ImagedNucleus": "1H",
      "ImagingFrequency": 123.258936,
      "InPlanePhaseEncodingDirection": "COL",
      "LargestImagePixelValue": 4095,
      "MRAcquisitionType": "2D",
      "MagneticFieldStrength": 3.0,
      "Manufacturer": "SIEMENS",
      "ManufacturerModelName": "Prisma_fit",
      "Modality": "MR",
      "NumberOfAverages": 1.0,
      "NumberOfPhaseEncodingSteps": 104,
      "PercentPhaseFieldOfView": 100.0,
      "PercentSampling": 100.0,
      "PerformedProcedureStepStartTime": "130645.277000",
      "PhotometricInterpretation": "MONOCHROME2",
      "PixelBandwidth": 2290.0,
      "PixelRepresentation": 0,
      "PixelSpacing": [2.0, 2.0],
      "ProtocolName": "func_task-things_run-5",
      "RepetitionTime": 1490.0,
      "RescaleIntercept": -4096.0,
      "RescaleSlope": 2.0,
      "RescaleType": "US",
      "Rows": 832,
      "SAR": 0.04226429424597,
      "SamplesPerPixel": 1,
      "ScanOptions": "FS",
      "ScanningSequence": "EP",
      "SequenceName": "epfid2d1_104",
      "SequenceVariant": [
        "SK",
        "SS"
],
      "SeriesDescription": "func_task-things_run-5",
      "SeriesNumber": 23,
      "SeriesTime": "134810.846000",
      "SliceLocation": -39.194753890147,
      "SliceThickness": 2.0,
      "SmallestImagePixelValue": 0,
      "SoftwareVersions": "syngo MR E11",
      "SpacingBetweenSlices": 2.000000000874,
      "SpecificCharacterSet": "ISO_IR 100",
      "StudyID": "1",
      "StudyTime": "130645.137000",
      "TransmitCoilName": "Body",
      "VariableFlipAngleFlag": "N",
      "WindowCenterWidthExplanation": "Algo1",
      "dBdt": 0.0},
    "slices": {}
  },
  "time": {
    "samples": {
      "AcquisitionNumber": [1, 2, 3, 4, 5, 6, 7, 8, 9, 10, 11, 12, 13, 14, 15, 16, 17, 18, 19, 20, 21, 22, 23, 24, 25, 26, 27, 28, 29, 30, 31, 32, 33, 34, 35, 36, 37, 38, 39, 40, 41, 42, 43, 44, 45, 46, 47, 48, 49, 50, 51, 52, 53, 54, 55, 56, 57, 58, 59, 60, 61, 62, 63, 64, 65, 66, 67, 68, 69, 70, 71, 72, 73, 74, 75, 76, 77, 78, 79, 80, 81, 82, 83, 84, 85, 86, 87, 88, 89, 90, 91, 92, 93, 94, 95, 96, 97, 98, 99, 100, 101, 102, 103, 104, 105, 106, 107, 108, 109, 110, 111, 112, 113, 114, 115, 116, 117, 118, 119, 120, 121, 122, 123, 124, 125, 126, 127, 128, 129, 130, 131, 132, 133, 134, 135, 136, 137, 138, 139, 140, 141, 142, 143, 144, 145, 146, 147, 148, 149, 150, 151, 152, 153, 154, 155, 156, 157, 158, 159, 160, 161, 162, 163, 164, 165, 166, 167, 168, 169, 170, 171, 172, 173, 174, 175, 176, 177, 178, 179, 180, 181, 182, 183, 184, 185, 186, 187, 188, 189, 190],
      "AcquisitionTime": ["134640.915000", "134642.405000", "134643.895000", "134645.385000", "134646.875000", "134648.365000", "134649.855000", "134651.345000", "134652.835000", "134654.325000", "134655.815000", "134657.305000", "134658.795000", "134700.285000", "134701.775000", "134703.265000", "134704.755000", "134706.245000", "134707.735000", "134709.225000", "134710.715000", "134712.205000", "134713.695000", "134715.185000", "134716.675000", "134718.165000", "134719.655000", "134721.145000", "134722.635000", "134724.125000", "134725.615000", "134727.105000", "134728.595000", "134730.085000", "134731.575000", "134733.065000", "134734.555000", "134736.045000", "134737.535000", "134739.025000", "134740.515000", "134742.005000", "134743.495000", "134744.985000", "134746.475000", "134747.965000", "134749.455000", "134750.945000", "134752.435000", "134753.925000", "134755.415000", "134756.905000", "134758.395000", "134759.885000", "134801.375000", "134802.865000", "134804.355000", "134805.845000", "134807.335000", "134808.825000", "134810.315000", "134811.805000", "134813.295000", "134814.785000", "134816.275000", "134817.765000", "134819.255000", "134820.745000", "134822.235000", "134823.725000", "134825.215000", "134826.705000", "134828.195000", "134829.685000", "134831.175000", "134832.665000", "134834.155000", "134835.645000", "134837.135000", "134838.625000", "134840.115000", "134841.605000", "134843.095000", "134844.585000", "134846.075000", "134847.565000", "134849.055000", "134850.545000", "134852.035000", "134853.525000", "134855.015000", "134856.505000", "134857.995000", "134859.485000", "134900.975000", "134902.465000", "134903.955000", "134905.445000", "134906.935000", "134908.425000", "134909.915000", "134911.405000", "134912.895000", "134914.385000", "134915.875000", "134917.365000", "134918.855000", "134920.345000", "134921.835000", "134923.325000", "134924.815000", "134926.305000", "134927.795000", "134929.285000", "134930.775000", "134932.265000", "134933.755000", "134935.245000", "134936.735000", "134938.225000", "134939.715000", "134941.205000", "134942.695000", "134944.185000", "134945.675000", "134947.165000", "134948.655000", "134950.145000", "134951.635000", "134953.125000", "134954.615000", "134956.105000", "134957.595000", "134959.085000", "135000.575000", "135002.065000", "135003.555000", "135005.045000", "135006.535000", "135008.025000", "135009.515000", "135011.005000", "135012.495000", "135013.985000", "135015.475000", "135016.965000", "135018.455000", "135019.945000", "135021.435000", "135022.925000", "135024.415000", "135025.905000", "135027.395000", "135028.885000", "135030.375000", "135031.865000", "135033.355000", "135034.845000", "135036.335000", "135037.825000", "135039.315000", "135040.805000", "135042.295000", "135043.785000", "135045.275000", "135046.765000", "135048.255000", "135049.745000", "135051.235000", "135052.725000", "135054.215000", "135055.705000", "135057.195000", "135058.685000", "135100.175000", "135101.665000", "135103.155000", "135104.645000", "135106.135000", "135107.625000", "135109.115000", "135110.605000", "135112.095000", "135113.585000", "135115.075000", "135116.565000", "135118.055000", "135119.545000", "135121.035000", "135122.525000"],
      "ContentTime": ["134810.848000", "134810.850000", "134810.853000", "134810.855000", "134810.858000", "134810.860000", "134810.863000", "134810.869000", "134810.872000", "134810.874000", "134810.877000", "134810.879000", "134810.882000", "134810.885000", "134810.887000", "134810.891000", "134810.893000", "134810.896000", "134810.898000", "134810.901000", "134810.903000", "134810.906000", "134810.908000", "134810.911000", "134810.913000", "134810.916000", "134810.918000", "134810.921000", "134810.923000", "134810.926000", "134810.928000", "134810.931000", "134810.933000", "134810.936000", "134810.938000", "134810.941000", "134830.742000", "134830.745000", "134830.748000", "134830.750000", "134830.753000", "134830.755000", "134830.766000", "134830.768000", "134830.771000", "134830.773000", "134830.776000", "134830.778000", "134830.781000", "134830.783000", "134830.786000", "134830.788000", "134830.791000", "134830.793000", "134830.796000", "134830.798000", "134850.741000", "134850.744000", "134850.746000", "134850.749000", "134850.751000", "134850.754000", "134850.756000", "134850.759000", "134850.761000", "134850.764000", "134850.766000", "134850.769000", "134850.771000", "134850.774000", "134850.776000", "134850.779000", "134850.781000", "134850.784000", "134850.787000", "134850.789000", "134850.806000", "134910.730000", "134910.733000", "134910.735000", "134910.738000", "134910.740000", "134910.743000", "134910.745000", "134910.748000", "134910.755000", "134910.757000", "134910.760000", "134910.762000", "134910.765000", "134910.767000", "134910.770000", "134910.772000", "134910.775000", "134910.778000", "134910.780000", "134910.783000", "134950.778000", "134950.781000", "134950.783000", "134950.786000", "134950.788000", "134950.791000", "134950.793000", "134950.796000", "134950.799000", "134950.801000", "134950.804000", "134950.806000", "134950.808000", "134950.811000", "134950.813000", "134950.816000", "134950.818000", "134950.821000", "134950.823000", "134950.826000", "134950.828000", "134950.831000", "134950.833000", "134950.836000", "134950.839000", "134950.841000", "134950.853000", "134950.855000", "134950.858000", "135030.751000", "135030.753000", "135030.756000", "135030.759000", "135030.761000", "135030.764000", "135030.766000", "135030.769000", "135030.771000", "135030.774000", "135030.776000", "135030.779000", "135030.781000", "135030.784000", "135030.787000", "135030.789000", "135030.792000", "135030.801000", "135030.803000", "135030.806000", "135030.808000", "135030.811000", "135030.813000", "135030.816000", "135030.818000", "135030.821000", "135030.823000", "135110.770000", "135110.773000", "135110.775000", "135110.778000", "135110.780000", "135110.783000", "135110.785000", "135110.788000", "135110.790000", "135110.793000", "135110.795000", "135110.798000", "135110.800000", "135110.803000", "135110.805000", "135110.808000", "135110.810000", "135110.813000", "135110.816000", "135110.818000", "135110.821000", "135110.823000", "135110.827000", "135110.830000", "135110.832000", "135110.835000", "135110.837000", "135124.847000", "135124.850000", "135124.853000", "135124.855000", "135124.858000", "135124.861000", "135124.863000", "135124.866000", "135124.868000", "135124.871000"],
      "InstanceCreationTime": ["134810.848000", "134810.850000", "134810.853000", "134810.855000", "134810.858000", "134810.860000", "134810.863000", "134810.869000", "134810.872000", "134810.874000", "134810.877000", "134810.879000", "134810.882000", "134810.885000", "134810.887000", "134810.891000", "134810.893000", "134810.896000", "134810.898000", "134810.901000", "134810.903000", "134810.906000", "134810.908000", "134810.911000", "134810.913000", "134810.916000", "134810.918000", "134810.921000", "134810.923000", "134810.926000", "134810.928000", "134810.931000", "134810.933000", "134810.936000", "134810.938000", "134810.941000", "134830.742000", "134830.745000", "134830.748000", "134830.750000", "134830.753000", "134830.755000", "134830.766000", "134830.768000", "134830.771000", "134830.773000", "134830.776000", "134830.778000", "134830.781000", "134830.783000", "134830.786000", "134830.788000", "134830.791000", "134830.793000", "134830.796000", "134830.798000", "134850.741000", "134850.744000", "134850.746000", "134850.749000", "134850.751000", "134850.754000", "134850.756000", "134850.759000", "134850.761000", "134850.764000", "134850.766000", "134850.769000", "134850.771000", "134850.774000", "134850.776000", "134850.779000", "134850.781000", "134850.784000", "134850.787000", "134850.789000", "134850.806000", "134910.730000", "134910.733000", "134910.735000", "134910.738000", "134910.740000", "134910.743000", "134910.745000", "134910.748000", "134910.755000", "134910.757000", "134910.760000", "134910.762000", "134910.765000", "134910.767000", "134910.770000", "134910.772000", "134910.775000", "134910.778000", "134910.780000", "134910.783000", "134950.778000", "134950.781000", "134950.783000", "134950.786000", "134950.788000", "134950.791000", "134950.793000", "134950.796000", "134950.799000", "134950.801000", "134950.804000", "134950.806000", "134950.808000", "134950.811000", "134950.813000", "134950.816000", "134950.818000", "134950.821000", "134950.823000", "134950.826000", "134950.828000", "134950.831000", "134950.833000", "134950.836000", "134950.839000", "134950.841000", "134950.853000", "134950.855000", "134950.858000", "135030.751000", "135030.753000", "135030.756000", "135030.759000", "135030.761000", "135030.764000", "135030.766000", "135030.769000", "135030.771000", "135030.774000", "135030.776000", "135030.779000", "135030.781000", "135030.784000", "135030.787000", "135030.789000", "135030.792000", "135030.801000", "135030.803000", "135030.806000", "135030.808000", "135030.811000", "135030.813000", "135030.816000", "135030.818000", "135030.821000", "135030.823000", "135110.770000", "135110.773000", "135110.775000", "135110.778000", "135110.780000", "135110.783000", "135110.785000", "135110.788000", "135110.790000", "135110.793000", "135110.795000", "135110.798000", "135110.800000", "135110.803000", "135110.805000", "135110.808000", "135110.810000", "135110.813000", "135110.816000", "135110.818000", "135110.821000", "135110.823000", "135110.827000", "135110.830000", "135110.832000", "135110.835000", "135110.837000", "135124.847000", "135124.850000", "135124.853000", "135124.855000", "135124.858000", "135124.861000", "135124.863000", "135124.866000", "135124.868000", "135124.871000"],
      "InstanceNumber": [1, 2, 3, 4, 5, 6, 7, 8, 9, 10, 11, 12, 13, 14, 15, 16, 17, 18, 19, 20, 21, 22, 23, 24, 25, 26, 27, 28, 29, 30, 31, 32, 33, 34, 35, 36, 37, 38, 39, 40, 41, 42, 43, 44, 45, 46, 47, 48, 49, 50, 51, 52, 53, 54, 55, 56, 57, 58, 59, 60, 61, 62, 63, 64, 65, 66, 67, 68, 69, 70, 71, 72, 73, 74, 75, 76, 77, 78, 79, 80, 81, 82, 83, 84, 85, 86, 87, 88, 89, 90, 91, 92, 93, 94, 95, 96, 97, 98, 99, 100, 101, 102, 103, 104, 105, 106, 107, 108, 109, 110, 111, 112, 113, 114, 115, 116, 117, 118, 119, 120, 121, 122, 123, 124, 125, 126, 127, 128, 129, 130, 131, 132, 133, 134, 135, 136, 137, 138, 139, 140, 141, 142, 143, 144, 145, 146, 147, 148, 149, 150, 151, 152, 153, 154, 155, 156, 157, 158, 159, 160, 161, 162, 163, 164, 165, 166, 167, 168, 169, 170, 171, 172, 173, 174, 175, 176, 177, 178, 179, 180, 181, 182, 183, 184, 185, 186, 187, 188, 189, 190],
      "WindowCenter": [4858.0, 4858.0, 4856.0, 4838.0, 4830.0, 4834.0, 4832.0, 4834.0, 4856.0, 4858.0, 4832.0, 4860.0, 4834.0, 4858.0, 4838.0, 4858.0, 4836.0, 4832.0, 4856.0, 4830.0, 4832.0, 4830.0, 4830.0, 4834.0, 4834.0, 4854.0, 4834.0, 4834.0, 4832.0, 4832.0, 4830.0, 4832.0, 4832.0, 4834.0, 4856.0, 4834.0, 4856.0, 4832.0, 4832.0, 4832.0, 4834.0, 4852.0, 4854.0, 4830.0, 4854.0, 4832.0, 4860.0, 4852.0, 4830.0, 4832.0, 4830.0, 4832.0, 4856.0, 4834.0, 4856.0, 4856.0, 4832.0, 4832.0, 4834.0, 4858.0, 4832.0, 4834.0, 4860.0, 4836.0, 4832.0, 4856.0, 4832.0, 4856.0, 4832.0, 4858.0, 4856.0, 4832.0, 4858.0, 4832.0, 4834.0, 4854.0, 4836.0, 4854.0, 4834.0, 4856.0, 4832.0, 4832.0, 4830.0, 4836.0, 4856.0, 4834.0, 4856.0, 4832.0, 4858.0, 4828.0, 4832.0, 4828.0, 4830.0, 4830.0, 4856.0, 4830.0, 4836.0, 4836.0, 4858.0, 4858.0, 4856.0, 4828.0, 4830.0, 4828.0, 4830.0, 4834.0, 4834.0, 4860.0, 4856.0, 4858.0, 4830.0, 4832.0, 4828.0, 4828.0, 4830.0, 4832.0, 4856.0, 4830.0, 4836.0, 4834.0, 4856.0, 4832.0, 4834.0, 4830.0, 4834.0, 4830.0, 4858.0, 4832.0, 4834.0, 4854.0, 4854.0, 4830.0, 4832.0, 4834.0, 4832.0, 4834.0, 4832.0, 4830.0, 4856.0, 4832.0, 4854.0, 4832.0, 4830.0, 4832.0, 4832.0, 4828.0, 4854.0, 4832.0, 4856.0, 4830.0, 4834.0, 4830.0, 4832.0, 4830.0, 4834.0, 4828.0, 4832.0, 4830.0, 4856.0, 4828.0, 4830.0, 4852.0, 4834.0, 4836.0, 4832.0, 4832.0, 4832.0, 4834.0, 4830.0, 4856.0, 4828.0, 4852.0, 4852.0, 4856.0, 4856.0, 4836.0, 4832.0, 4834.0, 4824.0, 4856.0, 4830.0, 4832.0, 4828.0, 4854.0, 4830.0, 4836.0, 4854.0, 4858.0, 4832.0, 4832.0],
      "WindowWidth": [18688.0, 18694.0, 18688.0, 18660.0, 18658.0, 18658.0, 18658.0, 18658.0, 18686.0, 18694.0, 18656.0, 18692.0, 18660.0, 18690.0, 18662.0, 18690.0, 18658.0, 18656.0, 18690.0, 18656.0, 18658.0, 18660.0, 18656.0, 18658.0, 18658.0, 18688.0, 18660.0, 18658.0, 18662.0, 18656.0, 18658.0, 18660.0, 18658.0, 18656.0, 18690.0, 18664.0, 18688.0, 18658.0, 18666.0, 18660.0, 18660.0, 18688.0, 18692.0, 18658.0, 18688.0, 18656.0, 18690.0, 18688.0, 18658.0, 18658.0, 18658.0, 18660.0, 18692.0, 18658.0, 18690.0, 18690.0, 18660.0, 18660.0, 18664.0, 18692.0, 18660.0, 18660.0, 18692.0, 18662.0, 18664.0, 18690.0, 18660.0, 18690.0, 18660.0, 18692.0, 18688.0, 18660.0, 18688.0, 18654.0, 18660.0, 18682.0, 18660.0, 18688.0, 18656.0, 18690.0, 18658.0, 18660.0, 18660.0, 18662.0, 18692.0, 18658.0, 18690.0, 18656.0, 18692.0, 18660.0, 18660.0, 18658.0, 18656.0, 18656.0, 18690.0, 18660.0, 18658.0, 18662.0, 18688.0, 18694.0, 18690.0, 18654.0, 18660.0, 18658.0, 18652.0, 18660.0, 18660.0, 18690.0, 18688.0, 18694.0, 18656.0, 18662.0, 18650.0, 18656.0, 18658.0, 18658.0, 18690.0, 18658.0, 18658.0, 18656.0, 18684.0, 18662.0, 18658.0, 18656.0, 18660.0, 18658.0, 18688.0, 18656.0, 18660.0, 18688.0, 18688.0, 18656.0, 18658.0, 18658.0, 18656.0, 18660.0, 18656.0, 18660.0, 18688.0, 18658.0, 18686.0, 18658.0, 18656.0, 18656.0, 18654.0, 18656.0, 18688.0, 18658.0, 18690.0, 18652.0, 18658.0, 18656.0, 18660.0, 18656.0, 18662.0, 18654.0, 18656.0, 18658.0, 18690.0, 18656.0, 18662.0, 18688.0, 18662.0, 18656.0, 18656.0, 18656.0, 18658.0, 18658.0, 18660.0, 18688.0, 18658.0, 18686.0, 18688.0, 18688.0, 18686.0, 18662.0, 18660.0, 18658.0, 18656.0, 18688.0, 18658.0, 18658.0, 18656.0, 18692.0, 18656.0, 18660.0, 18688.0, 18692.0, 18656.0, 18656.0]
    },
    "slices": {}
  }
}