{
  "AcquisitionMatrixPE": 104,
  "AcquisitionNumber": 1,
  "AcquisitionTime": "13:28:34.647500",
  "BandwidthPerPixelPhaseEncode": 17.17,
  "BaseResolution": 104,
  "BodyPartExamined": "BRAIN",
  "CoilString": "HC1-7;NC1_2",
  "ConsistencyInfo": "N4_VE11C_LATEST_20160120",
  "ConversionSoftware": "dcm2niix",
  "ConversionSoftwareVersion": "v1.0.20190902",
  "DerivedVendorReportedEchoSpacing": 0.000560011,
  "DeviceSerialNumber": "167006",
  "DwellTime": 2.1e-06,
  "EchoTime": 0.037,
  "EchoTrainLength": 104,
  "EffectiveEchoSpacing": 0.000560011,
  "FlipAngle": 52,
  "ImageComments": "Unaliased_MB4_PE3_LB",
  "ImageOrientationPatientDICOM": [0.999599, 0.00398188, 0.0280505, 0.00209356, 0.976986, -0.213292],
  "ImageType": [
    "ORIGINAL",
    "PRIMARY",
    "M",
    "MB",
    "ND",
    "MOSAIC"
],
  "ImagingFrequency": 123.259,
  "InPlanePhaseEncodingDirectionDICOM": "COL",
  "InstitutionAddress": "Chemin_Queen-Mary_4565_Montreal_District_CA_H3W_1W5",
  "InstitutionName": "IUGM",
  "InstitutionalDepartmentName": "Department",
  "MRAcquisitionType": "2D",
  "MagneticFieldStrength": 3,
  "Manufacturer": "Siemens",
  "ManufacturersModelName": "Prisma_fit",
  "Modality": "MR",
  "MultibandAccelerationFactor": 4,
  "PartialFourier": 1,
  "PatientPosition": "HFS",
  "PercentPhaseFOV": 100,
  "PhaseEncodingDirection": "j",
  "PhaseEncodingSteps": 104,
  "PhaseResolution": 1,
  "PixelBandwidth": 2290,
  "ProcedureStepDescription": "memory_things",
  "ProtocolName": "func_task-things_run-2",
  "PulseSequenceDetails": "%CustomerSeq%_cmrr_mbep2d_bold",
  "ReceiveCoilActiveElements": "HC1-7;NC1,2",
  "ReceiveCoilName": "HeadNeck_64",
  "ReconMatrixPE": 104,
  "RepetitionTime": 1.49,
  "SAR": 0.0422643,
  "ScanOptions": "FS",
  "ScanningSequence": "EP",
  "SequenceName": "epfid2d1_104",
  "SequenceVariant": "SK_SS",
  "SeriesDescription": "func_task-things_run-2",
  "SeriesNumber": 13,
  "ShimSetting": [634, -7227, -8787, 737, 41, -40, 108, -15],
  "SliceThickness": 2,
  "SliceTiming": [0, 0.7825, 0.0975, 0.88, 0.195, 0.98, 0.2925, 1.0775, 0.39, 1.175, 0.49, 1.2725, 0.5875, 1.37, 0.685, 0, 0.7825, 0.0975, 0.88, 0.195, 0.98, 0.2925, 1.0775, 0.39, 1.175, 0.49, 1.2725, 0.5875, 1.37, 0.685, 0, 0.7825, 0.0975, 0.88, 0.195, 0.98, 0.2925, 1.0775, 0.39, 1.175, 0.49, 1.2725, 0.5875, 1.37, 0.685, 0, 0.7825, 0.0975, 0.88, 0.195, 0.98, 0.2925, 1.0775, 0.39, 1.175, 0.49, 1.2725, 0.5875, 1.37, 0.685],
  "SoftwareVersions": "syngo_MR_E11",
  "SpacingBetweenSlices": 2,
  "StationName": "MRC35049",
  "TaskName": "things",
  "TotalReadoutTime": 0.0576811,
  "TxRefAmp": 219.208,
  "WipMemBlock": "6d7b1800-111b-41ca-b748-4134b4376ff9||Sequence: R016 ve11c/master r/e634e98; Dec 19 2017 11:00:25 by eja",
  "dcmmeta_affine": [
    [-1.9991971254348755, 0.004187111277133226, 0.05650855600833893, 107.1087875366211],
    [-0.0079637560993433, 1.9539724588394165, -0.4265304207801819, -77.36434173583984],
    [0.05610104650259018, 0.4265842139720917, 1.9531713724136353, -60.128013610839844],
    [0.0, 0.0, 0.0, 1.0]
],
  "dcmmeta_reorient_transform": [
    [0.0, -1.0, 0.0, 103.0],
    [1.0, 0.0, 0.0, 0.0],
    [0.0, 0.0, 1.0, 0.0],
    [0.0, 0.0, 0.0, 1.0]
],
  "dcmmeta_shape": [104, 104, 60, 190],
  "dcmmeta_slice_dim": 2,
  "dcmmeta_version": 0.6,
  "global": {
    "const": {
      "AcquisitionMatrix": [104, 0, 0, 104],
      "AngioFlag": "N",
      "BitsAllocated": 16,
      "BitsStored": 16,
      "BodyPartExamined": "BRAIN",
      "Columns": 832,
      "EchoNumbers": 1,
      "EchoTime": 37.0,
      "EchoTrainLength": 104,
      "FlipAngle": 52.0,
      "HighBit": 15,
      "ImageOrientationPatient": [0.99959857580555, 0.00398187810776, 0.02805052395682, 0.00209355554675, 0.97698623125939, -0.21329210242],
      "ImagePositionPatient": [-836.77192799214, -838.03960487188, 118.6660295973],
      "ImageType": [
        "ORIGINAL",
        "PRIMARY",
        "M",
        "MB",
        "ND",
        "MOSAIC"
],
      "ImagedNucleus": "1H",
      "ImagingFrequency": 123.258927,
      "InPlanePhaseEncodingDirection": "COL",
      "MRAcquisitionType": "2D",
      "MagneticFieldStrength": 3.0,
      "Manufacturer": "SIEMENS",
      "ManufacturerModelName": "Prisma_fit",
      "Modality": "MR",
      "NumberOfAverages": 1.0,
      "NumberOfPhaseEncodingSteps": 104,
      "PercentPhaseFieldOfView": 100.0,
      "PercentSampling": 100.0,
      "PerformedProcedureStepStartTime": "130645.277000",
      "PhotometricInterpretation": "MONOCHROME2",
      "PixelBandwidth": 2290.0,
      "PixelRepresentation": 0,
      "PixelSpacing": [2.0, 2.0],
      "ProtocolName": "func_task-things_run-2",
      "RepetitionTime": 1490.0,
      "Rows": 832,
      "SAR": 0.04226429424597,
      "SamplesPerPixel": 1,
      "ScanOptions": "FS",
      "ScanningSequence": "EP",
      "SequenceName": "epfid2d1_104",
      "SequenceVariant": [
        "SK",
        "SS"
],
      "SeriesDescription": "func_task-things_run-2",
      "SeriesNumber": 13,
      "SeriesTime": "132950.662000",
      "SliceLocation": -39.194753890147,
      "SliceThickness": 2.0,
      "SmallestImagePixelValue": 0,
      "SoftwareVersions": "syngo MR E11",
      "SpacingBetweenSlices": 2.000000000874,
      "SpecificCharacterSet": "ISO_IR 100",
      "StudyID": "1",
      "StudyTime": "130645.137000",
      "TransmitCoilName": "Body",
      "VariableFlipAngleFlag": "N",
      "WindowCenterWidthExplanation": "Algo1",
      "dBdt": 0.0},
    "slices": {}
  },
  "time": {
    "samples": {
      "AcquisitionNumber": [1, 2, 3, 4, 5, 6, 7, 8, 9, 10, 11, 12, 13, 14, 15, 16, 17, 18, 19, 20, 21, 22, 23, 24, 25, 26, 27, 28, 29, 30, 31, 32, 33, 34, 35, 36, 37, 38, 39, 40, 41, 42, 43, 44, 45, 46, 47, 48, 49, 50, 51, 52, 53, 54, 55, 56, 57, 58, 59, 60, 61, 62, 63, 64, 65, 66, 67, 68, 69, 70, 71, 72, 73, 74, 75, 76, 77, 78, 79, 80, 81, 82, 83, 84, 85, 86, 87, 88, 89, 90, 91, 92, 93, 94, 95, 96, 97, 98, 99, 100, 101, 102, 103, 104, 105, 106, 107, 108, 109, 110, 111, 112, 113, 114, 115, 116, 117, 118, 119, 120, 121, 122, 123, 124, 125, 126, 127, 128, 129, 130, 131, 132, 133, 134, 135, 136, 137, 138, 139, 140, 141, 142, 143, 144, 145, 146, 147, 148, 149, 150, 151, 152, 153, 154, 155, 156, 157, 158, 159, 160, 161, 162, 163, 164, 165, 166, 167, 168, 169, 170, 171, 172, 173, 174, 175, 176, 177, 178, 179, 180, 181, 182, 183, 184, 185, 186, 187, 188, 189, 190],
      "AcquisitionTime": ["132834.647500", "132836.137500", "132837.627500", "132839.117500", "132840.607500", "132842.097500", "132843.587500", "132845.077500", "132846.567500", "132848.057500", "132849.547500", "132851.037500", "132852.527500", "132854.017500", "132855.507500", "132856.997500", "132858.487500", "132859.977500", "132901.467500", "132902.957500", "132904.447500", "132905.937500", "132907.427500", "132908.917500", "132910.407500", "132911.897500", "132913.387500", "132914.877500", "132916.367500", "132917.857500", "132919.347500", "132920.837500", "132922.327500", "132923.817500", "132925.307500", "132926.797500", "132928.287500", "132929.777500", "132931.267500", "132932.757500", "132934.247500", "132935.737500", "132937.227500", "132938.717500", "132940.207500", "132941.697500", "132943.187500", "132944.677500", "132946.167500", "132947.657500", "132949.147500", "132950.637500", "132952.127500", "132953.617500", "132955.107500", "132956.597500", "132958.087500", "132959.577500", "133001.067500", "133002.557500", "133004.047500", "133005.537500", "133007.027500", "133008.517500", "133010.007500", "133011.497500", "133012.987500", "133014.477500", "133015.967500", "133017.457500", "133018.947500", "133020.437500", "133021.927500", "133023.417500", "133024.907500", "133026.397500", "133027.887500", "133029.377500", "133030.867500", "133032.357500", "133033.847500", "133035.337500", "133036.827500", "133038.317500", "133039.807500", "133041.297500", "133042.787500", "133044.277500", "133045.767500", "133047.257500", "133048.747500", "133050.237500", "133051.727500", "133053.217500", "133054.707500", "133056.197500", "133057.687500", "133059.177500", "133100.667500", "133102.157500", "133103.647500", "133105.137500", "133106.627500", "133108.117500", "133109.607500", "133111.097500", "133112.587500", "133114.077500", "133115.567500", "133117.057500", "133118.547500", "133120.037500", "133121.527500", "133123.017500", "133124.507500", "133125.997500", "133127.487500", "133128.977500", "133130.467500", "133131.957500", "133133.447500", "133134.937500", "133136.427500", "133137.917500", "133139.407500", "133140.897500", "133142.387500", "133143.877500", "133145.367500", "133146.857500", "133148.347500", "133149.837500", "133151.327500", "133152.817500", "133154.307500", "133155.797500", "133157.287500", "133158.777500", "133200.267500", "133201.757500", "133203.247500", "133204.737500", "133206.227500", "133207.717500", "133209.207500", "133210.697500", "133212.187500", "133213.677500", "133215.167500", "133216.657500", "133218.147500", "133219.637500", "133221.127500", "133222.617500", "133224.107500", "133225.597500", "133227.087500", "133228.577500", "133230.067500", "133231.557500", "133233.047500", "133234.537500", "133236.027500", "133237.517500", "133239.007500", "133240.497500", "133241.987500", "133243.477500", "133244.967500", "133246.457500", "133247.947500", "133249.437500", "133250.927500", "133252.417500", "133253.907500", "133255.397500", "133256.887500", "133258.377500", "133259.867500", "133301.357500", "133302.847500", "133304.337500", "133305.827500", "133307.317500", "133308.807500", "133310.297500", "133311.787500", "133313.277500", "133314.767500", "133316.257500"],
      "ContentTime": ["132950.665000", "132950.669000", "132950.672000", "132950.675000", "132950.679000", "132950.682000", "132950.685000", "132950.689000", "132950.692000", "132950.695000", "132950.699000", "132950.702000", "132950.705000", "132950.708000", "132950.718000", "132950.721000", "132950.724000", "132950.728000", "132950.731000", "132950.734000", "132950.737000", "133010.615000", "133010.619000", "133010.622000", "133010.625000", "133010.629000", "133010.632000", "133010.636000", "133010.639000", "133010.642000", "133010.645000", "133010.649000", "133010.652000", "133010.656000", "133010.659000", "133010.662000", "133010.665000", "133010.669000", "133010.672000", "133010.675000", "133010.679000", "133010.682000", "133030.615000", "133030.619000", "133030.622000", "133030.625000", "133030.629000", "133030.632000", "133030.635000", "133030.639000", "133030.642000", "133030.651000", "133030.654000", "133030.657000", "133030.661000", "133030.664000", "133030.667000", "133030.671000", "133030.674000", "133030.677000", "133030.680000", "133030.684000", "133050.615000", "133050.619000", "133050.622000", "133050.625000", "133050.629000", "133050.632000", "133050.635000", "133050.639000", "133050.642000", "133050.645000", "133050.649000", "133050.652000", "133050.655000", "133050.659000", "133050.662000", "133050.666000", "133050.669000", "133050.673000", "133050.677000", "133050.680000", "133110.615000", "133110.619000", "133110.622000", "133110.625000", "133110.629000", "133110.632000", "133110.635000", "133110.645000", "133110.648000", "133110.652000", "133110.656000", "133110.659000", "133110.663000", "133110.666000", "133110.669000", "133110.672000", "133110.676000", "133110.679000", "133110.682000", "133110.686000", "133110.689000", "133150.615000", "133150.619000", "133150.622000", "133150.626000", "133150.629000", "133150.632000", "133150.636000", "133150.639000", "133150.644000", "133150.648000", "133150.651000", "133150.655000", "133150.659000", "133150.662000", "133150.681000", "133150.684000", "133150.688000", "133150.692000", "133150.695000", "133150.698000", "133150.702000", "133150.705000", "133150.709000", "133150.712000", "133150.716000", "133150.719000", "133150.723000", "133230.615000", "133230.619000", "133230.622000", "133230.626000", "133230.629000", "133230.632000", "133230.636000", "133230.639000", "133230.642000", "133230.646000", "133230.649000", "133230.652000", "133230.656000", "133230.659000", "133230.662000", "133230.666000", "133230.669000", "133230.672000", "133230.676000", "133230.679000", "133230.682000", "133230.686000", "133230.689000", "133230.692000", "133230.695000", "133230.706000", "133230.709000", "133310.615000", "133310.619000", "133310.622000", "133310.625000", "133310.629000", "133310.632000", "133310.635000", "133310.639000", "133310.642000", "133310.645000", "133310.649000", "133310.652000", "133310.655000", "133310.659000", "133310.662000", "133310.666000", "133310.670000", "133310.673000", "133310.676000", "133310.680000", "133310.683000", "133310.686000", "133310.690000", "133310.693000", "133310.696000", "133310.700000", "133310.703000", "133318.756000", "133318.760000", "133318.763000", "133318.766000", "133318.770000", "133318.773000"],
      "InstanceCreationTime": ["132950.665000", "132950.669000", "132950.672000", "132950.675000", "132950.679000", "132950.682000", "132950.685000", "132950.689000", "132950.692000", "132950.695000", "132950.699000", "132950.702000", "132950.705000", "132950.708000", "132950.718000", "132950.721000", "132950.724000", "132950.728000", "132950.731000", "132950.734000", "132950.737000", "133010.615000", "133010.619000", "133010.622000", "133010.625000", "133010.629000", "133010.632000", "133010.636000", "133010.639000", "133010.642000", "133010.645000", "133010.649000", "133010.652000", "133010.656000", "133010.659000", "133010.662000", "133010.665000", "133010.669000", "133010.672000", "133010.675000", "133010.679000", "133010.682000", "133030.615000", "133030.619000", "133030.622000", "133030.625000", "133030.629000", "133030.632000", "133030.635000", "133030.639000", "133030.642000", "133030.651000", "133030.654000", "133030.657000", "133030.661000", "133030.664000", "133030.667000", "133030.671000", "133030.674000", "133030.677000", "133030.680000", "133030.684000", "133050.615000", "133050.619000", "133050.622000", "133050.625000", "133050.629000", "133050.632000", "133050.635000", "133050.639000", "133050.642000", "133050.645000", "133050.649000", "133050.652000", "133050.655000", "133050.659000", "133050.662000", "133050.666000", "133050.669000", "133050.673000", "133050.677000", "133050.680000", "133110.615000", "133110.619000", "133110.622000", "133110.625000", "133110.629000", "133110.632000", "133110.635000", "133110.645000", "133110.648000", "133110.652000", "133110.656000", "133110.659000", "133110.663000", "133110.666000", "133110.669000", "133110.672000", "133110.676000", "133110.679000", "133110.682000", "133110.686000", "133110.689000", "133150.615000", "133150.619000", "133150.622000", "133150.626000", "133150.629000", "133150.632000", "133150.636000", "133150.639000", "133150.644000", "133150.648000", "133150.651000", "133150.655000", "133150.659000", "133150.662000", "133150.681000", "133150.684000", "133150.688000", "133150.692000", "133150.695000", "133150.698000", "133150.702000", "133150.705000", "133150.709000", "133150.712000", "133150.716000", "133150.719000", "133150.723000", "133230.615000", "133230.619000", "133230.622000", "133230.626000", "133230.629000", "133230.632000", "133230.636000", "133230.639000", "133230.642000", "133230.646000", "133230.649000", "133230.652000", "133230.656000", "133230.659000", "133230.662000", "133230.666000", "133230.669000", "133230.672000", "133230.676000", "133230.679000", "133230.682000", "133230.686000", "133230.689000", "133230.692000", "133230.695000", "133230.706000", "133230.709000", "133310.615000", "133310.619000", "133310.622000", "133310.625000", "133310.629000", "133310.632000", "133310.635000", "133310.639000", "133310.642000", "133310.645000", "133310.649000", "133310.652000", "133310.655000", "133310.659000", "133310.662000", "133310.666000", "133310.670000", "133310.673000", "133310.676000", "133310.680000", "133310.683000", "133310.686000", "133310.690000", "133310.693000", "133310.696000", "133310.700000", "133310.703000", "133318.756000", "133318.760000", "133318.763000", "133318.766000", "133318.770000", "133318.773000"],
      "InstanceNumber": [1, 2, 3, 4, 5, 6, 7, 8, 9, 10, 11, 12, 13, 14, 15, 16, 17, 18, 19, 20, 21, 22, 23, 24, 25, 26, 27, 28, 29, 30, 31, 32, 33, 34, 35, 36, 37, 38, 39, 40, 41, 42, 43, 44, 45, 46, 47, 48, 49, 50, 51, 52, 53, 54, 55, 56, 57, 58, 59, 60, 61, 62, 63, 64, 65, 66, 67, 68, 69, 70, 71, 72, 73, 74, 75, 76, 77, 78, 79, 80, 81, 82, 83, 84, 85, 86, 87, 88, 89, 90, 91, 92, 93, 94, 95, 96, 97, 98, 99, 100, 101, 102, 103, 104, 105, 106, 107, 108, 109, 110, 111, 112, 113, 114, 115, 116, 117, 118, 119, 120, 121, 122, 123, 124, 125, 126, 127, 128, 129, 130, 131, 132, 133, 134, 135, 136, 137, 138, 139, 140, 141, 142, 143, 144, 145, 146, 147, 148, 149, 150, 151, 152, 153, 154, 155, 156, 157, 158, 159, 160, 161, 162, 163, 164, 165, 166, 167, 168, 169, 170, 171, 172, 173, 174, 175, 176, 177, 178, 179, 180, 181, 182, 183, 184, 185, 186, 187, 188, 189, 190],
      "LargestImagePixelValue": [40269, 39231, 38230, 38218, 38128, 37718, 37538, 37580, 37528, 37941, 37486, 37757, 37760, 37996, 37627, 37875, 37869, 37710, 37815, 37273, 38029, 37446, 37731, 37410, 37539, 37328, 37695, 37744, 37507, 36976, 37548, 37781, 37589, 37982, 37433, 37655, 37626, 37461, 37124, 37649, 38032, 37067, 37431, 37680, 37663, 37588, 37363, 37808, 37565, 37604, 37125, 37507, 37264, 37125, 37708, 37097, 37333, 37159, 37579, 37400, 37311, 37364, 37386, 37078, 37659, 37189, 37826, 37465, 37517, 37288, 37800, 37484, 37569, 37146, 37273, 37351, 37079, 37693, 37539, 37599, 37620, 37698, 37435, 38055, 37133, 37510, 37066, 37377, 37538, 37390, 37385, 37272, 37250, 37072, 37401, 37388, 37124, 37129, 37181, 37135, 37233, 37579, 37393, 37162, 37277, 37145, 37179, 37244, 37475, 37191, 37061, 37437, 37356, 37259, 37687, 37032, 37507, 37224, 37682, 37109, 37217, 36913, 37733, 37809, 37586, 37141, 37171, 37204, 37047, 37216, 37255, 37834, 37275, 37941, 37354, 37464, 37419, 37494, 37424, 37016, 37081, 36948, 37475, 37539, 37421, 36776, 37020, 37123, 37368, 37189, 37300, 36889, 36959, 37097, 37077, 37085, 37042, 37143, 36826, 36848, 36959, 36745, 37279, 37175, 37378, 37101, 37330, 36935, 37224, 36852, 37197, 37116, 37053, 36935, 37068, 37164, 37149, 36961, 37385, 37002, 37154, 37250, 37080, 37188, 37084, 37026, 36945, 36689, 37041, 36555],
      "WindowCenter": [10077.0, 10059.0, 10043.0, 10032.0, 10030.0, 10021.0, 10012.0, 10005.0, 10004.0, 10009.0, 10012.0, 10026.0, 10030.0, 10035.0, 10036.0, 10022.0, 10027.0, 10019.0, 10018.0, 10013.0, 10019.0, 10021.0, 10028.0, 10023.0, 10013.0, 10004.0, 10007.0, 10007.0, 10003.0, 10009.0, 10012.0, 10008.0, 9995.0, 9989.0, 9984.0, 9989.0, 9999.0, 10008.0, 10002.0, 10003.0, 10007.0, 10003.0, 10002.0, 10008.0, 10009.0, 10003.0, 10002.0, 10001.0, 10003.0, 10002.0, 9995.0, 9994.0, 9987.0, 10002.0, 10010.0, 10002.0, 10002.0, 10004.0, 10019.0, 10021.0, 10020.0, 10004.0, 10001.0, 9996.0, 10001.0, 9998.0, 10001.0, 10002.0, 10001.0, 10002.0, 10017.0, 10029.0, 10032.0, 10013.0, 9989.0, 9987.0, 9995.0, 10002.0, 9994.0, 9986.0, 9984.0, 9983.0, 9985.0, 10000.0, 9998.0, 9996.0, 9996.0, 9993.0, 9994.0, 10002.0, 10011.0, 10007.0, 10012.0, 10004.0, 9995.0, 9993.0, 9995.0, 10003.0, 10010.0, 10013.0, 10012.0, 10004.0, 9994.0, 9996.0, 10003.0, 10014.0, 10006.0, 9998.0, 10004.0, 10005.0, 10006.0, 10014.0, 10010.0, 9999.0, 10016.0, 10004.0, 10002.0, 10002.0, 10009.0, 10012.0, 10010.0, 9997.0, 10003.0, 10003.0, 10003.0, 10004.0, 10021.0, 10048.0, 10045.0, 10018.0, 9992.0, 9984.0, 9986.0, 10008.0, 9999.0, 9989.0, 9984.0, 9988.0, 10002.0, 9989.0, 9972.0, 9954.0, 9959.0, 9968.0, 9984.0, 9988.0, 9996.0, 9997.0, 10003.0, 10013.0, 10028.0, 10015.0, 9999.0, 9988.0, 9990.0, 9989.0, 9996.0, 10000.0, 10000.0, 9999.0, 9990.0, 9988.0, 9989.0, 9987.0, 9985.0, 9987.0, 9993.0, 9982.0, 9978.0, 9971.0, 9985.0, 9986.0, 9988.0, 9998.0, 9998.0, 9989.0, 9986.0, 9979.0, 9979.0, 10000.0, 10011.0, 10012.0, 10007.0, 9998.0, 9981.0, 9986.0, 9990.0, 9999.0, 10003.0, 9991.0],
      "WindowWidth": [21453.0, 21392.0, 21345.0, 21313.0, 21301.0, 21278.0, 21259.0, 21243.0, 21240.0, 21249.0, 21258.0, 21287.0, 21298.0, 21309.0, 21311.0, 21281.0, 21289.0, 21271.0, 21266.0, 21258.0, 21272.0, 21278.0, 21292.0, 21281.0, 21258.0, 21239.0, 21244.0, 21241.0, 21239.0, 21250.0, 21258.0, 21244.0, 21217.0, 21201.0, 21193.0, 21203.0, 21225.0, 21245.0, 21235.0, 21237.0, 21242.0, 21240.0, 21234.0, 21247.0, 21247.0, 21235.0, 21232.0, 21228.0, 21237.0, 21234.0, 21218.0, 21214.0, 21199.0, 21234.0, 21250.0, 21235.0, 21233.0, 21241.0, 21272.0, 21278.0, 21272.0, 21237.0, 21230.0, 21220.0, 21229.0, 21227.0, 21231.0, 21233.0, 21231.0, 21234.0, 21266.0, 21295.0, 21303.0, 21256.0, 21204.0, 21197.0, 21217.0, 21231.0, 21215.0, 21194.0, 21190.0, 21188.0, 21196.0, 21228.0, 21228.0, 21219.0, 21220.0, 21210.0, 21214.0, 21231.0, 21254.0, 21247.0, 21253.0, 21237.0, 21215.0, 21211.0, 21216.0, 21235.0, 21250.0, 21260.0, 21257.0, 21237.0, 21213.0, 21218.0, 21237.0, 21262.0, 21243.0, 21224.0, 21238.0, 21243.0, 21245.0, 21259.0, 21248.0, 21228.0, 21260.0, 21236.0, 21230.0, 21232.0, 21248.0, 21253.0, 21248.0, 21221.0, 21233.0, 21235.0, 21235.0, 21239.0, 21277.0, 21337.0, 21333.0, 21268.0, 21209.0, 21185.0, 21192.0, 21239.0, 21224.0, 21200.0, 21185.0, 21197.0, 21227.0, 21199.0, 21161.0, 21119.0, 21129.0, 21151.0, 21187.0, 21198.0, 21217.0, 21221.0, 21234.0, 21256.0, 21287.0, 21259.0, 21225.0, 21197.0, 21203.0, 21201.0, 21215.0, 21228.0, 21229.0, 21223.0, 21204.0, 21198.0, 21200.0, 21193.0, 21187.0, 21194.0, 21207.0, 21185.0, 21171.0, 21161.0, 21190.0, 21193.0, 21199.0, 21224.0, 21223.0, 21199.0, 21189.0, 21177.0, 21176.0, 21223.0, 21248.0, 21251.0, 21241.0, 21221.0, 21181.0, 21188.0, 21201.0, 21222.0, 21227.0, 21205.0]
    },
    "slices": {}
  }
}