{
  "AcquisitionMatrixPE": 104,
  "AcquisitionNumber": 1,
  "AcquisitionTime": "13:22:32.305000",
  "BandwidthPerPixelPhaseEncode": 17.17,
  "BaseResolution": 104,
  "BodyPartExamined": "BRAIN",
  "CoilString": "HC1-7;NC1_2",
  "ConsistencyInfo": "N4_VE11C_LATEST_20160120",
  "ConversionSoftware": "dcm2niix",
  "ConversionSoftwareVersion": "v1.0.20190902",
  "DerivedVendorReportedEchoSpacing": 0.000560011,
  "DeviceSerialNumber": "167006",
  "DwellTime": 2.1e-06,
  "EchoTime": 0.037,
  "EchoTrainLength": 104,
  "EffectiveEchoSpacing": 0.000560011,
  "FlipAngle": 52,
  "ImageComments": "Unaliased_MB4_PE3_LB",
  "ImageOrientationPatientDICOM": [0.999599, 0.00398188, 0.0280505, 0.00209356, 0.976986, -0.213292],
  "ImageType": [
    "ORIGINAL",
    "PRIMARY",
    "M",
    "MB",
    "ND",
    "MOSAIC"
],
  "ImagingFrequency": 123.259,
  "InPlanePhaseEncodingDirectionDICOM": "COL",
  "InstitutionAddress": "Chemin_Queen-Mary_4565_Montreal_District_CA_H3W_1W5",
  "InstitutionName": "IUGM",
  "InstitutionalDepartmentName": "Department",
  "MRAcquisitionType": "2D",
  "MagneticFieldStrength": 3,
  "Manufacturer": "Siemens",
  "ManufacturersModelName": "Prisma_fit",
  "Modality": "MR",
  "MultibandAccelerationFactor": 4,
  "PartialFourier": 1,
  "PatientPosition": "HFS",
  "PercentPhaseFOV": 100,
  "PhaseEncodingDirection": "j",
  "PhaseEncodingSteps": 104,
  "PhaseResolution": 1,
  "PixelBandwidth": 2290,
  "ProcedureStepDescription": "memory_things",
  "ProtocolName": "func_task-things_run-1",
  "PulseSequenceDetails": "%CustomerSeq%_cmrr_mbep2d_bold",
  "ReceiveCoilActiveElements": "HC1-7;NC1,2",
  "ReceiveCoilName": "HeadNeck_64",
  "ReconMatrixPE": 104,
  "RepetitionTime": 1.49,
  "SAR": 0.0422643,
  "ScanOptions": "FS",
  "ScanningSequence": "EP",
  "SequenceName": "epfid2d1_104",
  "SequenceVariant": "SK_SS",
  "SeriesDescription": "func_task-things_run-1",
  "SeriesNumber": 10,
  "ShimSetting": [634, -7227, -8787, 737, 41, -40, 108, -15],
  "SliceThickness": 2,
  "SliceTiming": [0, 0.785, 0.0975, 0.8825, 0.195, 0.98, 0.295, 1.0775, 0.3925, 1.175, 0.49, 1.275, 0.5875, 1.3725, 0.685, 0, 0.785, 0.0975, 0.8825, 0.195, 0.98, 0.295, 1.0775, 0.3925, 1.175, 0.49, 1.275, 0.5875, 1.3725, 0.685, 0, 0.785, 0.0975, 0.8825, 0.195, 0.98, 0.295, 1.0775, 0.3925, 1.175, 0.49, 1.275, 0.5875, 1.3725, 0.685, 0, 0.785, 0.0975, 0.8825, 0.195, 0.98, 0.295, 1.0775, 0.3925, 1.175, 0.49, 1.275, 0.5875, 1.3725, 0.685],
  "SoftwareVersions": "syngo_MR_E11",
  "SpacingBetweenSlices": 2,
  "StationName": "MRC35049",
  "TaskName": "things",
  "TotalReadoutTime": 0.0576811,
  "TxRefAmp": 219.208,
  "WipMemBlock": "a3e367e0-d9f7-4696-aec4-d903b4fd9b0e||Sequence: R016 ve11c/master r/e634e98; Dec 19 2017 11:00:25 by eja",
  "dcmmeta_affine": [
    [-1.9991971254348755, 0.004187111277133226, 0.05650855600833893, 107.1087875366211],
    [-0.0079637560993433, 1.9539724588394165, -0.4265304207801819, -77.36434173583984],
    [0.05610104650259018, 0.4265842139720917, 1.9531713724136353, -60.128013610839844],
    [0.0, 0.0, 0.0, 1.0]
],
  "dcmmeta_reorient_transform": [
    [0.0, -1.0, 0.0, 103.0],
    [1.0, 0.0, 0.0, 0.0],
    [0.0, 0.0, 1.0, 0.0],
    [0.0, 0.0, 0.0, 1.0]
],
  "dcmmeta_shape": [104, 104, 60, 190],
  "dcmmeta_slice_dim": 2,
  "dcmmeta_version": 0.6,
  "global": {
    "const": {
      "AcquisitionMatrix": [104, 0, 0, 104],
      "AngioFlag": "N",
      "BitsAllocated": 16,
      "BitsStored": 16,
      "BodyPartExamined": "BRAIN",
      "Columns": 832,
      "EchoNumbers": 1,
      "EchoTime": 37.0,
      "EchoTrainLength": 104,
      "FlipAngle": 52.0,
      "HighBit": 15,
      "ImageOrientationPatient": [0.99959857580555, 0.00398187810776, 0.02805052395682, 0.00209355554675, 0.97698623125939, -0.21329210242],
      "ImagePositionPatient": [-836.77192799214, -838.03960487188, 118.6660295973],
      "ImageType": [
        "ORIGINAL",
        "PRIMARY",
        "M",
        "MB",
        "ND",
        "MOSAIC"
],
      "ImagedNucleus": "1H",
      "ImagingFrequency": 123.258921,
      "InPlanePhaseEncodingDirection": "COL",
      "MRAcquisitionType": "2D",
      "MagneticFieldStrength": 3.0,
      "Manufacturer": "SIEMENS",
      "ManufacturerModelName": "Prisma_fit",
      "Modality": "MR",
      "NumberOfAverages": 1.0,
      "NumberOfPhaseEncodingSteps": 104,
      "PercentPhaseFieldOfView": 100.0,
      "PercentSampling": 100.0,
      "PerformedProcedureStepStartTime": "130645.277000",
      "PhotometricInterpretation": "MONOCHROME2",
      "PixelBandwidth": 2290.0,
      "PixelRepresentation": 0,
      "PixelSpacing": [2.0, 2.0],
      "ProtocolName": "func_task-things_run-1",
      "RepetitionTime": 1490.0,
      "Rows": 832,
      "SAR": 0.04226429424597,
      "SamplesPerPixel": 1,
      "ScanOptions": "FS",
      "ScanningSequence": "EP",
      "SequenceName": "epfid2d1_104",
      "SequenceVariant": [
        "SK",
        "SS"
],
      "SeriesDescription": "func_task-things_run-1",
      "SeriesNumber": 10,
      "SeriesTime": "132403.892000",
      "SliceLocation": -39.194753890147,
      "SliceThickness": 2.0,
      "SmallestImagePixelValue": 0,
      "SoftwareVersions": "syngo MR E11",
      "SpacingBetweenSlices": 2.000000000874,
      "SpecificCharacterSet": "ISO_IR 100",
      "StudyID": "1",
      "StudyTime": "130645.137000",
      "TransmitCoilName": "Body",
      "VariableFlipAngleFlag": "N",
      "WindowCenterWidthExplanation": "Algo1",
      "dBdt": 0.0},
    "slices": {}
  },
  "time": {
    "samples": {
      "AcquisitionNumber": [1, 2, 3, 4, 5, 6, 7, 8, 9, 10, 11, 12, 13, 14, 15, 16, 17, 18, 19, 20, 21, 22, 23, 24, 25, 26, 27, 28, 29, 30, 31, 32, 33, 34, 35, 36, 37, 38, 39, 40, 41, 42, 43, 44, 45, 46, 47, 48, 49, 50, 51, 52, 53, 54, 55, 56, 57, 58, 59, 60, 61, 62, 63, 64, 65, 66, 67, 68, 69, 70, 71, 72, 73, 74, 75, 76, 77, 78, 79, 80, 81, 82, 83, 84, 85, 86, 87, 88, 89, 90, 91, 92, 93, 94, 95, 96, 97, 98, 99, 100, 101, 102, 103, 104, 105, 106, 107, 108, 109, 110, 111, 112, 113, 114, 115, 116, 117, 118, 119, 120, 121, 122, 123, 124, 125, 126, 127, 128, 129, 130, 131, 132, 133, 134, 135, 136, 137, 138, 139, 140, 141, 142, 143, 144, 145, 146, 147, 148, 149, 150, 151, 152, 153, 154, 155, 156, 157, 158, 159, 160, 161, 162, 163, 164, 165, 166, 167, 168, 169, 170, 171, 172, 173, 174, 175, 176, 177, 178, 179, 180, 181, 182, 183, 184, 185, 186, 187, 188, 189, 190],
      "AcquisitionTime": ["132232.305000", "132233.795000", "132235.285000", "132236.775000", "132238.265000", "132239.755000", "132241.245000", "132242.735000", "132244.225000", "132245.715000", "132247.205000", "132248.695000", "132250.185000", "132251.675000", "132253.165000", "132254.655000", "132256.145000", "132257.635000", "132259.125000", "132300.615000", "132302.105000", "132303.595000", "132305.085000", "132306.575000", "132308.065000", "132309.555000", "132311.045000", "132312.535000", "132314.025000", "132315.515000", "132317.005000", "132318.495000", "132319.985000", "132321.475000", "132322.965000", "132324.455000", "132325.945000", "132327.435000", "132328.925000", "132330.415000", "132331.905000", "132333.395000", "132334.885000", "132336.375000", "132337.865000", "132339.355000", "132340.845000", "132342.335000", "132343.825000", "132345.315000", "132346.805000", "132348.295000", "132349.785000", "132351.275000", "132352.765000", "132354.255000", "132355.745000", "132357.235000", "132358.725000", "132400.215000", "132401.705000", "132403.195000", "132404.685000", "132406.175000", "132407.665000", "132409.155000", "132410.645000", "132412.135000", "132413.625000", "132415.115000", "132416.605000", "132418.095000", "132419.585000", "132421.075000", "132422.565000", "132424.055000", "132425.545000", "132427.035000", "132428.525000", "132430.015000", "132431.505000", "132432.995000", "132434.485000", "132435.975000", "132437.465000", "132438.955000", "132440.445000", "132441.935000", "132443.425000", "132444.915000", "132446.405000", "132447.895000", "132449.385000", "132450.875000", "132452.365000", "132453.855000", "132455.345000", "132456.835000", "132458.325000", "132459.815000", "132501.305000", "132502.795000", "132504.285000", "132505.775000", "132507.265000", "132508.755000", "132510.245000", "132511.735000", "132513.225000", "132514.715000", "132516.205000", "132517.695000", "132519.185000", "132520.675000", "132522.165000", "132523.655000", "132525.145000", "132526.635000", "132528.125000", "132529.615000", "132531.105000", "132532.595000", "132534.085000", "132535.575000", "132537.065000", "132538.555000", "132540.045000", "132541.535000", "132543.025000", "132544.515000", "132546.005000", "132547.495000", "132548.985000", "132550.475000", "132551.965000", "132553.455000", "132554.945000", "132556.435000", "132557.925000", "132559.415000", "132600.905000", "132602.395000", "132603.885000", "132605.375000", "132606.865000", "132608.355000", "132609.845000", "132611.335000", "132612.825000", "132614.315000", "132615.805000", "132617.295000", "132618.785000", "132620.275000", "132621.765000", "132623.255000", "132624.745000", "132626.235000", "132627.725000", "132629.215000", "132630.705000", "132632.195000", "132633.685000", "132635.175000", "132636.665000", "132638.155000", "132639.645000", "132641.135000", "132642.625000", "132644.115000", "132645.605000", "132647.095000", "132648.585000", "132650.075000", "132651.565000", "132653.055000", "132654.545000", "132656.035000", "132657.525000", "132659.015000", "132700.505000", "132701.995000", "132703.485000", "132704.975000", "132706.465000", "132707.955000", "132709.445000", "132710.935000", "132712.425000", "132713.915000"],
      "ContentTime": ["132403.895000", "132403.899000", "132403.902000", "132403.906000", "132403.909000", "132403.913000", "132403.916000", "132403.919000", "132403.923000", "132403.926000", "132403.929000", "132403.932000", "132403.936000", "132403.939000", "132403.942000", "132403.945000", "132403.949000", "132403.952000", "132403.955000", "132403.959000", "132403.962000", "132403.965000", "132403.969000", "132403.972000", "132403.981000", "132403.984000", "132403.987000", "132403.991000", "132403.994000", "132403.997000", "132404.002000", "132404.005000", "132404.008000", "132404.012000", "132404.015000", "132404.018000", "132404.022000", "132404.025000", "132404.028000", "132423.843000", "132423.847000", "132423.850000", "132423.853000", "132423.857000", "132423.860000", "132423.863000", "132423.867000", "132423.870000", "132423.873000", "132423.877000", "132423.880000", "132423.883000", "132423.886000", "132423.890000", "132423.894000", "132423.897000", "132423.900000", "132423.903000", "132423.907000", "132443.843000", "132443.847000", "132443.850000", "132443.853000", "132443.857000", "132443.860000", "132443.863000", "132443.867000", "132443.870000", "132443.873000", "132443.876000", "132443.880000", "132443.883000", "132443.897000", "132443.901000", "132443.904000", "132443.907000", "132443.910000", "132443.914000", "132443.917000", "132503.843000", "132503.847000", "132503.850000", "132503.854000", "132503.857000", "132503.860000", "132503.864000", "132503.867000", "132503.872000", "132503.875000", "132503.878000", "132503.882000", "132503.885000", "132503.888000", "132503.892000", "132503.895000", "132503.898000", "132503.902000", "132503.905000", "132503.908000", "132523.842000", "132523.846000", "132523.849000", "132523.853000", "132523.856000", "132523.859000", "132523.863000", "132523.866000", "132523.869000", "132523.872000", "132523.876000", "132523.879000", "132523.882000", "132523.886000", "132523.889000", "132603.842000", "132603.846000", "132603.849000", "132603.853000", "132603.856000", "132603.859000", "132603.862000", "132603.866000", "132603.869000", "132603.872000", "132603.876000", "132603.879000", "132603.882000", "132603.886000", "132603.889000", "132603.892000", "132603.896000", "132603.899000", "132603.902000", "132603.906000", "132603.909000", "132603.912000", "132603.915000", "132603.919000", "132603.922000", "132603.925000", "132603.929000", "132643.843000", "132643.847000", "132643.850000", "132643.853000", "132643.857000", "132643.860000", "132643.863000", "132643.867000", "132643.870000", "132643.873000", "132643.877000", "132643.880000", "132643.883000", "132643.886000", "132643.890000", "132643.893000", "132643.896000", "132643.900000", "132643.903000", "132643.906000", "132643.910000", "132643.913000", "132643.916000", "132643.920000", "132643.923000", "132643.926000", "132643.930000", "132715.887000", "132715.891000", "132715.894000", "132715.898000", "132715.901000", "132715.904000", "132715.908000", "132715.912000", "132715.915000", "132715.919000", "132715.922000", "132715.925000", "132715.929000", "132715.932000", "132715.935000", "132715.939000", "132715.942000", "132715.946000", "132715.949000", "132715.953000", "132715.956000", "132715.959000"],
      "InstanceCreationTime": ["132403.895000", "132403.899000", "132403.902000", "132403.906000", "132403.909000", "132403.913000", "132403.916000", "132403.919000", "132403.923000", "132403.926000", "132403.929000", "132403.932000", "132403.936000", "132403.939000", "132403.942000", "132403.945000", "132403.949000", "132403.952000", "132403.955000", "132403.959000", "132403.962000", "132403.965000", "132403.969000", "132403.972000", "132403.981000", "132403.984000", "132403.987000", "132403.991000", "132403.994000", "132403.997000", "132404.002000", "132404.005000", "132404.008000", "132404.012000", "132404.015000", "132404.018000", "132404.022000", "132404.025000", "132404.028000", "132423.843000", "132423.847000", "132423.850000", "132423.853000", "132423.857000", "132423.860000", "132423.863000", "132423.867000", "132423.870000", "132423.873000", "132423.877000", "132423.880000", "132423.883000", "132423.886000", "132423.890000", "132423.894000", "132423.897000", "132423.900000", "132423.903000", "132423.907000", "132443.843000", "132443.847000", "132443.850000", "132443.853000", "132443.857000", "132443.860000", "132443.863000", "132443.867000", "132443.870000", "132443.873000", "132443.876000", "132443.880000", "132443.883000", "132443.897000", "132443.901000", "132443.904000", "132443.907000", "132443.910000", "132443.914000", "132443.917000", "132503.843000", "132503.847000", "132503.850000", "132503.854000", "132503.857000", "132503.860000", "132503.864000", "132503.867000", "132503.872000", "132503.875000", "132503.878000", "132503.882000", "132503.885000", "132503.888000", "132503.892000", "132503.895000", "132503.898000", "132503.902000", "132503.905000", "132503.908000", "132523.842000", "132523.846000", "132523.849000", "132523.853000", "132523.856000", "132523.859000", "132523.863000", "132523.866000", "132523.869000", "132523.872000", "132523.876000", "132523.879000", "132523.882000", "132523.886000", "132523.889000", "132603.842000", "132603.846000", "132603.849000", "132603.853000", "132603.856000", "132603.859000", "132603.862000", "132603.866000", "132603.869000", "132603.872000", "132603.876000", "132603.879000", "132603.882000", "132603.886000", "132603.889000", "132603.892000", "132603.896000", "132603.899000", "132603.902000", "132603.906000", "132603.909000", "132603.912000", "132603.915000", "132603.919000", "132603.922000", "132603.925000", "132603.929000", "132643.843000", "132643.847000", "132643.850000", "132643.853000", "132643.857000", "132643.860000", "132643.863000", "132643.867000", "132643.870000", "132643.873000", "132643.877000", "132643.880000", "132643.883000", "132643.886000", "132643.890000", "132643.893000", "132643.896000", "132643.900000", "132643.903000", "132643.906000", "132643.910000", "132643.913000", "132643.916000", "132643.920000", "132643.923000", "132643.926000", "132643.930000", "132715.887000", "132715.891000", "132715.894000", "132715.898000", "132715.901000", "132715.904000", "132715.908000", "132715.912000", "132715.915000", "132715.919000", "132715.922000", "132715.925000", "132715.929000", "132715.932000", "132715.935000", "132715.939000", "132715.942000", "132715.946000", "132715.949000", "132715.953000", "132715.956000", "132715.959000"],
      "InstanceNumber": [1, 2, 3, 4, 5, 6, 7, 8, 9, 10, 11, 12, 13, 14, 15, 16, 17, 18, 19, 20, 21, 22, 23, 24, 25, 26, 27, 28, 29, 30, 31, 32, 33, 34, 35, 36, 37, 38, 39, 40, 41, 42, 43, 44, 45, 46, 47, 48, 49, 50, 51, 52, 53, 54, 55, 56, 57, 58, 59, 60, 61, 62, 63, 64, 65, 66, 67, 68, 69, 70, 71, 72, 73, 74, 75, 76, 77, 78, 79, 80, 81, 82, 83, 84, 85, 86, 87, 88, 89, 90, 91, 92, 93, 94, 95, 96, 97, 98, 99, 100, 101, 102, 103, 104, 105, 106, 107, 108, 109, 110, 111, 112, 113, 114, 115, 116, 117, 118, 119, 120, 121, 122, 123, 124, 125, 126, 127, 128, 129, 130, 131, 132, 133, 134, 135, 136, 137, 138, 139, 140, 141, 142, 143, 144, 145, 146, 147, 148, 149, 150, 151, 152, 153, 154, 155, 156, 157, 158, 159, 160, 161, 162, 163, 164, 165, 166, 167, 168, 169, 170, 171, 172, 173, 174, 175, 176, 177, 178, 179, 180, 181, 182, 183, 184, 185, 186, 187, 188, 189, 190],
      "LargestImagePixelValue": [40514, 39642, 39030, 38726, 38532, 38469, 37923, 38257, 38114, 38482, 38170, 37742, 38439, 38166, 38331, 38041, 38524, 38031, 38247, 38229, 38171, 37900, 37960, 37836, 38164, 37929, 38407, 37941, 38140, 37408, 38083, 37896, 38127, 37778, 37607, 37636, 37623, 37928, 37689, 37457, 37584, 38017, 37932, 37816, 38040, 37777, 37462, 37709, 37603, 37885, 37635, 37869, 37365, 37744, 37644, 37867, 37720, 37891, 37775, 38001, 37837, 37538, 37995, 38059, 37892, 37499, 37834, 37478, 37830, 37698, 37853, 37983, 37711, 37699, 37709, 37708, 37933, 37840, 37882, 37618, 37855, 38285, 37723, 37881, 37763, 37814, 37703, 37601, 37841, 37773, 37822, 38072, 37932, 37616, 37539, 37382, 37728, 37791, 37474, 37662, 37740, 37641, 37692, 37189, 37288, 37596, 38054, 37566, 37986, 37158, 37612, 37303, 37787, 37732, 37753, 37748, 37743, 37461, 37866, 37903, 37459, 37639, 38092, 37903, 37643, 37731, 37718, 37228, 37136, 37297, 36845, 37491, 37378, 37642, 37056, 37419, 37380, 37427, 37820, 37287, 37684, 37551, 37293, 37210, 37147, 37168, 37610, 37123, 37880, 37520, 38069, 37640, 37557, 37611, 37223, 37291, 37405, 37622, 37560, 37882, 37401, 37278, 37189, 37385, 37436, 37423, 36978, 37231, 37490, 37740, 37504, 37431, 37126, 37796, 37254, 37638, 37448, 37754, 37428, 37274, 37334, 37247, 37379, 37105, 37344, 37113, 37214, 37226, 37313, 37619],
      "WindowCenter": [10120.0, 10072.0, 10052.0, 10060.0, 10061.0, 10061.0, 10052.0, 10066.0, 10069.0, 10067.0, 10054.0, 10047.0, 10050.0, 10042.0, 10051.0, 10052.0, 10058.0, 10059.0, 10059.0, 10055.0, 10054.0, 10053.0, 10056.0, 10059.0, 10053.0, 10058.0, 10066.0, 10075.0, 10076.0, 10063.0, 10053.0, 10035.0, 10032.0, 10036.0, 10042.0, 10032.0, 10025.0, 10038.0, 10042.0, 10055.0, 10061.0, 10061.0, 10058.0, 10034.0, 10047.0, 10049.0, 10049.0, 10043.0, 10034.0, 10034.0, 10040.0, 10042.0, 10035.0, 10033.0, 10033.0, 10031.0, 10025.0, 10019.0, 10021.0, 10021.0, 10031.0, 10041.0, 10042.0, 10023.0, 10013.0, 10013.0, 10030.0, 10033.0, 10041.0, 10049.0, 10050.0, 10041.0, 10031.0, 10029.0, 10039.0, 10041.0, 10040.0, 10039.0, 10039.0, 10032.0, 10041.0, 10048.0, 10041.0, 10039.0, 10033.0, 10040.0, 10041.0, 10025.0, 10034.0, 10040.0, 10048.0, 10054.0, 10056.0, 10050.0, 10051.0, 10045.0, 10051.0, 10044.0, 10033.0, 10023.0, 10028.0, 10045.0, 10056.0, 10035.0, 10040.0, 10039.0, 10044.0, 10033.0, 10036.0, 10015.0, 10012.0, 10013.0, 10014.0, 10020.0, 10014.0, 10013.0, 10013.0, 10021.0, 10023.0, 10015.0, 10013.0, 10015.0, 10021.0, 10022.0, 10032.0, 10032.0, 10031.0, 10027.0, 10032.0, 10040.0, 10037.0, 10034.0, 10033.0, 10025.0, 10017.0, 10008.0, 10021.0, 10024.0, 10022.0, 10021.0, 10021.0, 10015.0, 10022.0, 10025.0, 10032.0, 10032.0, 10030.0, 10009.0, 9997.0, 9990.0, 10003.0, 10012.0, 10015.0, 10020.0, 10016.0, 10022.0, 10023.0, 10037.0, 10032.0, 10018.0, 10016.0, 10017.0, 10026.0, 10024.0, 10024.0, 10023.0, 10018.0, 10024.0, 10033.0, 10046.0, 10043.0, 10028.0, 10017.0, 10022.0, 10016.0, 10020.0, 10023.0, 10030.0, 10025.0, 10025.0, 10040.0, 10043.0, 10028.0, 10011.0, 10008.0, 10024.0, 10026.0, 10012.0, 10006.0, 9998.0],
      "WindowWidth": [21557.0, 21422.0, 21364.0, 21375.0, 21376.0, 21376.0, 21353.0, 21382.0, 21391.0, 21383.0, 21357.0, 21339.0, 21343.0, 21327.0, 21347.0, 21350.0, 21364.0, 21364.0, 21363.0, 21359.0, 21358.0, 21354.0, 21357.0, 21364.0, 21354.0, 21364.0, 21380.0, 21402.0, 21406.0, 21379.0, 21352.0, 21310.0, 21304.0, 21314.0, 21327.0, 21302.0, 21288.0, 21316.0, 21329.0, 21362.0, 21371.0, 21370.0, 21361.0, 21309.0, 21335.0, 21342.0, 21345.0, 21332.0, 21311.0, 21313.0, 21325.0, 21330.0, 21315.0, 21306.0, 21305.0, 21299.0, 21289.0, 21277.0, 21277.0, 21279.0, 21302.0, 21324.0, 21326.0, 21283.0, 21258.0, 21262.0, 21303.0, 21312.0, 21326.0, 21344.0, 21345.0, 21323.0, 21301.0, 21297.0, 21320.0, 21325.0, 21321.0, 21319.0, 21319.0, 21303.0, 21324.0, 21338.0, 21325.0, 21318.0, 21307.0, 21320.0, 21323.0, 21289.0, 21307.0, 21323.0, 21341.0, 21352.0, 21357.0, 21346.0, 21349.0, 21335.0, 21349.0, 21330.0, 21307.0, 21282.0, 21292.0, 21340.0, 21363.0, 21313.0, 21320.0, 21319.0, 21326.0, 21308.0, 21308.0, 21262.0, 21255.0, 21257.0, 21261.0, 21273.0, 21264.0, 21261.0, 21261.0, 21276.0, 21281.0, 21265.0, 21259.0, 21264.0, 21276.0, 21280.0, 21302.0, 21302.0, 21301.0, 21297.0, 21305.0, 21321.0, 21320.0, 21308.0, 21305.0, 21287.0, 21269.0, 21250.0, 21278.0, 21286.0, 21281.0, 21276.0, 21279.0, 21266.0, 21281.0, 21290.0, 21304.0, 21300.0, 21294.0, 21253.0, 21221.0, 21207.0, 21234.0, 21257.0, 21268.0, 21274.0, 21269.0, 21280.0, 21283.0, 21312.0, 21305.0, 21273.0, 21270.0, 21272.0, 21295.0, 21286.0, 21286.0, 21280.0, 21272.0, 21286.0, 21306.0, 21333.0, 21330.0, 21296.0, 21266.0, 21277.0, 21265.0, 21273.0, 21283.0, 21298.0, 21288.0, 21289.0, 21321.0, 21331.0, 21298.0, 21257.0, 21249.0, 21282.0, 21290.0, 21259.0, 21243.0, 21222.0]
    },
    "slices": {}
  }
}