{
  "AcquisitionMatrixPE": 104,
  "AcquisitionNumber": 1,
  "AcquisitionTime": "13:52:43.280000",
  "BandwidthPerPixelPhaseEncode": 17.17,
  "BaseResolution": 104,
  "BodyPartExamined": "BRAIN",
  "CoilString": "HC1-7;NC1_2",
  "ConsistencyInfo": "N4_VE11C_LATEST_20160120",
  "ConversionSoftware": "dcm2niix",
  "ConversionSoftwareVersion": "v1.0.20190902",
  "DerivedVendorReportedEchoSpacing": 0.000560011,
  "DeviceSerialNumber": "167006",
  "DwellTime": 2.1e-06,
  "EchoTime": 0.037,
  "EchoTrainLength": 104,
  "EffectiveEchoSpacing": 0.000560011,
  "FlipAngle": 52,
  "ImageComments": "Unaliased_MB4_PE3_LB",
  "ImageOrientationPatientDICOM": [0.999599, 0.00398188, 0.0280505, 0.00209356, 0.976986, -0.213292],
  "ImageType": [
    "ORIGINAL",
    "PRIMARY",
    "M",
    "MB",
    "ND",
    "MOSAIC"
],
  "ImagingFrequency": 123.259,
  "InPlanePhaseEncodingDirectionDICOM": "COL",
  "InstitutionAddress": "Chemin_Queen-Mary_4565_Montreal_District_CA_H3W_1W5",
  "InstitutionName": "IUGM",
  "InstitutionalDepartmentName": "Department",
  "MRAcquisitionType": "2D",
  "MagneticFieldStrength": 3,
  "Manufacturer": "Siemens",
  "ManufacturersModelName": "Prisma_fit",
  "Modality": "MR",
  "MultibandAccelerationFactor": 4,
  "PartialFourier": 1,
  "PatientPosition": "HFS",
  "PercentPhaseFOV": 100,
  "PhaseEncodingDirection": "j",
  "PhaseEncodingSteps": 104,
  "PhaseResolution": 1,
  "PixelBandwidth": 2290,
  "ProcedureStepDescription": "memory_things",
  "ProtocolName": "func_task-things_run-6",
  "PulseSequenceDetails": "%CustomerSeq%_cmrr_mbep2d_bold",
  "ReceiveCoilActiveElements": "HC1-7;NC1,2",
  "ReceiveCoilName": "HeadNeck_64",
  "ReconMatrixPE": 104,
  "RepetitionTime": 1.49,
  "SAR": 0.0422643,
  "ScanOptions": "FS",
  "ScanningSequence": "EP",
  "SequenceName": "epfid2d1_104",
  "SequenceVariant": "SK_SS",
  "SeriesDescription": "func_task-things_run-6",
  "SeriesNumber": 25,
  "ShimSetting": [634, -7227, -8787, 737, 41, -40, 108, -15],
  "SliceThickness": 2,
  "SliceTiming": [0, 0.785, 0.0975, 0.8825, 0.195, 0.98, 0.295, 1.0775, 0.3925, 1.175, 0.49, 1.275, 0.5875, 1.3725, 0.685, 0, 0.785, 0.0975, 0.8825, 0.195, 0.98, 0.295, 1.0775, 0.3925, 1.175, 0.49, 1.275, 0.5875, 1.3725, 0.685, 0, 0.785, 0.0975, 0.8825, 0.195, 0.98, 0.295, 1.0775, 0.3925, 1.175, 0.49, 1.275, 0.5875, 1.3725, 0.685, 0, 0.785, 0.0975, 0.8825, 0.195, 0.98, 0.295, 1.0775, 0.3925, 1.175, 0.49, 1.275, 0.5875, 1.3725, 0.685],
  "SoftwareVersions": "syngo_MR_E11",
  "SpacingBetweenSlices": 2,
  "StationName": "MRC35049",
  "TaskName": "things",
  "TotalReadoutTime": 0.0576811,
  "TxRefAmp": 219.208,
  "WipMemBlock": "e2c959fe-f0ce-4b06-8b63-12456c0b3db8||Sequence: R016 ve11c/master r/e634e98; Dec 19 2017 11:00:25 by eja",
  "dcmmeta_affine": [
    [-1.9991971254348755, 0.004187111277133226, 0.05650855600833893, 107.1087875366211],
    [-0.0079637560993433, 1.9539724588394165, -0.4265304207801819, -77.36434173583984],
    [0.05610104650259018, 0.4265842139720917, 1.9531713724136353, -60.128013610839844],
    [0.0, 0.0, 0.0, 1.0]
],
  "dcmmeta_reorient_transform": [
    [0.0, -1.0, 0.0, 103.0],
    [1.0, 0.0, 0.0, 0.0],
    [0.0, 0.0, 1.0, 0.0],
    [0.0, 0.0, 0.0, 1.0]
],
  "dcmmeta_shape": [104, 104, 60, 190],
  "dcmmeta_slice_dim": 2,
  "dcmmeta_version": 0.6,
  "global": {
    "const": {
      "AcquisitionMatrix": [104, 0, 0, 104],
      "AngioFlag": "N",
      "BitsAllocated": 16,
      "BitsStored": 16,
      "BodyPartExamined": "BRAIN",
      "Columns": 832,
      "EchoNumbers": 1,
      "EchoTime": 37.0,
      "EchoTrainLength": 104,
      "FlipAngle": 52.0,
      "HighBit": 15,
      "ImageOrientationPatient": [0.99959857580555, 0.00398187810776, 0.02805052395682, 0.00209355554675, 0.97698623125939, -0.21329210242],
      "ImagePositionPatient": [-836.77192799214, -838.03960487188, 118.6660295973],
      "ImageType": [
        "ORIGINAL",
        "PRIMARY",
        "M",
        "MB",
        "ND",
        "MOSAIC"
],
      "ImagedNucleus": "1H",
      "ImagingFrequency": 123.25894,
      "InPlanePhaseEncodingDirection": "COL",
      "MRAcquisitionType": "2D",
      "MagneticFieldStrength": 3.0,
      "Manufacturer": "SIEMENS",
      "ManufacturerModelName": "Prisma_fit",
      "Modality": "MR",
      "NumberOfAverages": 1.0,
      "NumberOfPhaseEncodingSteps": 104,
      "PercentPhaseFieldOfView": 100.0,
      "PercentSampling": 100.0,
      "PerformedProcedureStepStartTime": "130645.277000",
      "PhotometricInterpretation": "MONOCHROME2",
      "PixelBandwidth": 2290.0,
      "PixelRepresentation": 0,
      "PixelSpacing": [2.0, 2.0],
      "ProtocolName": "func_task-things_run-6",
      "RepetitionTime": 1490.0,
      "Rows": 832,
      "SAR": 0.04226429424597,
      "SamplesPerPixel": 1,
      "ScanOptions": "FS",
      "ScanningSequence": "EP",
      "SequenceName": "epfid2d1_104",
      "SequenceVariant": [
        "SK",
        "SS"
],
      "SeriesDescription": "func_task-things_run-6",
      "SeriesNumber": 25,
      "SeriesTime": "135415.671000",
      "SliceLocation": -39.194753890147,
      "SliceThickness": 2.0,
      "SmallestImagePixelValue": 0,
      "SoftwareVersions": "syngo MR E11",
      "SpacingBetweenSlices": 2.000000000874,
      "SpecificCharacterSet": "ISO_IR 100",
      "StudyID": "1",
      "StudyTime": "130645.137000",
      "TransmitCoilName": "Body",
      "VariableFlipAngleFlag": "N",
      "WindowCenterWidthExplanation": "Algo1",
      "dBdt": 0.0},
    "slices": {}
  },
  "time": {
    "samples": {
      "AcquisitionNumber": [1, 2, 3, 4, 5, 6, 7, 8, 9, 10, 11, 12, 13, 14, 15, 16, 17, 18, 19, 20, 21, 22, 23, 24, 25, 26, 27, 28, 29, 30, 31, 32, 33, 34, 35, 36, 37, 38, 39, 40, 41, 42, 43, 44, 45, 46, 47, 48, 49, 50, 51, 52, 53, 54, 55, 56, 57, 58, 59, 60, 61, 62, 63, 64, 65, 66, 67, 68, 69, 70, 71, 72, 73, 74, 75, 76, 77, 78, 79, 80, 81, 82, 83, 84, 85, 86, 87, 88, 89, 90, 91, 92, 93, 94, 95, 96, 97, 98, 99, 100, 101, 102, 103, 104, 105, 106, 107, 108, 109, 110, 111, 112, 113, 114, 115, 116, 117, 118, 119, 120, 121, 122, 123, 124, 125, 126, 127, 128, 129, 130, 131, 132, 133, 134, 135, 136, 137, 138, 139, 140, 141, 142, 143, 144, 145, 146, 147, 148, 149, 150, 151, 152, 153, 154, 155, 156, 157, 158, 159, 160, 161, 162, 163, 164, 165, 166, 167, 168, 169, 170, 171, 172, 173, 174, 175, 176, 177, 178, 179, 180, 181, 182, 183, 184, 185, 186, 187, 188, 189, 190],
      "AcquisitionTime": ["135243.280000", "135244.770000", "135246.260000", "135247.750000", "135249.240000", "135250.730000", "135252.220000", "135253.710000", "135255.200000", "135256.690000", "135258.180000", "135259.670000", "135301.160000", "135302.650000", "135304.140000", "135305.630000", "135307.120000", "135308.610000", "135310.100000", "135311.590000", "135313.080000", "135314.570000", "135316.060000", "135317.550000", "135319.040000", "135320.530000", "135322.020000", "135323.510000", "135325.000000", "135326.490000", "135327.980000", "135329.470000", "135330.960000", "135332.450000", "135333.940000", "135335.430000", "135336.920000", "135338.410000", "135339.900000", "135341.390000", "135342.880000", "135344.370000", "135345.860000", "135347.350000", "135348.840000", "135350.330000", "135351.820000", "135353.310000", "135354.800000", "135356.290000", "135357.780000", "135359.270000", "135400.760000", "135402.250000", "135403.740000", "135405.230000", "135406.720000", "135408.210000", "135409.700000", "135411.190000", "135412.680000", "135414.170000", "135415.660000", "135417.150000", "135418.640000", "135420.130000", "135421.620000", "135423.110000", "135424.600000", "135426.090000", "135427.580000", "135429.070000", "135430.560000", "135432.050000", "135433.540000", "135435.030000", "135436.520000", "135438.010000", "135439.500000", "135440.990000", "135442.480000", "135443.970000", "135445.460000", "135446.950000", "135448.440000", "135449.930000", "135451.420000", "135452.910000", "135454.400000", "135455.890000", "135457.380000", "135458.870000", "135500.360000", "135501.850000", "135503.340000", "135504.830000", "135506.320000", "135507.810000", "135509.300000", "135510.790000", "135512.280000", "135513.770000", "135515.260000", "135516.750000", "135518.240000", "135519.730000", "135521.220000", "135522.710000", "135524.200000", "135525.690000", "135527.180000", "135528.670000", "135530.160000", "135531.650000", "135533.140000", "135534.630000", "135536.120000", "135537.610000", "135539.100000", "135540.590000", "135542.080000", "135543.570000", "135545.060000", "135546.550000", "135548.040000", "135549.530000", "135551.020000", "135552.510000", "135554.000000", "135555.490000", "135556.980000", "135558.470000", "135559.960000", "135601.450000", "135602.940000", "135604.430000", "135605.920000", "135607.410000", "135608.900000", "135610.390000", "135611.880000", "135613.370000", "135614.860000", "135616.350000", "135617.840000", "135619.330000", "135620.820000", "135622.310000", "135623.800000", "135625.290000", "135626.780000", "135628.270000", "135629.760000", "135631.250000", "135632.740000", "135634.230000", "135635.720000", "135637.210000", "135638.700000", "135640.190000", "135641.680000", "135643.170000", "135644.660000", "135646.150000", "135647.640000", "135649.130000", "135650.620000", "135652.110000", "135653.600000", "135655.090000", "135656.580000", "135658.070000", "135659.560000", "135701.050000", "135702.540000", "135704.030000", "135705.520000", "135707.010000", "135708.500000", "135709.990000", "135711.480000", "135712.970000", "135714.460000", "135715.950000", "135717.440000", "135718.930000", "135720.420000", "135721.910000", "135723.400000", "135724.890000"],
      "ContentTime": ["135415.673000", "135415.677000", "135415.681000", "135415.684000", "135415.687000", "135415.691000", "135415.694000", "135415.697000", "135415.701000", "135415.704000", "135415.707000", "135415.711000", "135415.714000", "135415.717000", "135415.721000", "135415.724000", "135415.743000", "135415.746000", "135415.750000", "135415.753000", "135415.756000", "135415.760000", "135415.763000", "135415.766000", "135415.769000", "135415.777000", "135415.780000", "135415.783000", "135415.787000", "135415.790000", "135415.793000", "135415.797000", "135415.800000", "135415.803000", "135415.806000", "135415.810000", "135415.813000", "135415.817000", "135415.820000", "135435.640000", "135435.644000", "135435.652000", "135435.655000", "135435.659000", "135435.662000", "135435.666000", "135435.669000", "135435.672000", "135435.675000", "135435.679000", "135435.683000", "135435.687000", "135435.690000", "135435.693000", "135435.697000", "135435.700000", "135435.703000", "135435.706000", "135435.710000", "135455.640000", "135455.644000", "135455.647000", "135455.650000", "135455.658000", "135455.662000", "135455.665000", "135455.668000", "135455.672000", "135455.675000", "135455.678000", "135455.681000", "135455.685000", "135455.702000", "135455.705000", "135455.709000", "135455.712000", "135455.715000", "135455.718000", "135455.722000", "135455.725000", "135515.639000", "135515.643000", "135515.657000", "135515.660000", "135515.664000", "135515.667000", "135515.670000", "135515.674000", "135515.677000", "135515.680000", "135515.684000", "135515.687000", "135515.690000", "135515.694000", "135515.697000", "135515.700000", "135515.704000", "135515.707000", "135515.710000", "135515.713000", "135555.640000", "135555.644000", "135555.647000", "135555.650000", "135555.654000", "135555.657000", "135555.660000", "135555.664000", "135555.667000", "135555.670000", "135555.674000", "135555.677000", "135555.680000", "135555.684000", "135555.687000", "135555.690000", "135555.693000", "135555.697000", "135555.700000", "135555.704000", "135555.707000", "135555.710000", "135555.714000", "135555.717000", "135555.720000", "135555.724000", "135555.727000", "135555.730000", "135635.640000", "135635.644000", "135635.647000", "135635.650000", "135635.654000", "135635.657000", "135635.660000", "135635.664000", "135635.667000", "135635.670000", "135635.674000", "135635.677000", "135635.680000", "135635.684000", "135635.687000", "135635.690000", "135635.693000", "135635.697000", "135635.700000", "135635.703000", "135635.707000", "135635.710000", "135635.713000", "135635.717000", "135635.720000", "135635.723000", "135635.726000", "135715.640000", "135715.644000", "135715.647000", "135715.650000", "135715.654000", "135715.657000", "135715.661000", "135715.664000", "135715.668000", "135715.671000", "135715.675000", "135715.678000", "135715.681000", "135715.685000", "135715.688000", "135715.708000", "135715.711000", "135715.715000", "135715.718000", "135715.721000", "135715.725000", "135715.728000", "135715.731000", "135715.735000", "135715.738000", "135715.741000", "135715.744000", "135727.251000", "135727.259000", "135727.263000", "135727.266000", "135727.269000", "135727.273000", "135727.276000", "135727.279000"],
      "InstanceCreationTime": ["135415.673000", "135415.677000", "135415.681000", "135415.684000", "135415.687000", "135415.691000", "135415.694000", "135415.697000", "135415.701000", "135415.704000", "135415.707000", "135415.711000", "135415.714000", "135415.717000", "135415.721000", "135415.724000", "135415.743000", "135415.746000", "135415.750000", "135415.753000", "135415.756000", "135415.760000", "135415.763000", "135415.766000", "135415.769000", "135415.777000", "135415.780000", "135415.783000", "135415.787000", "135415.790000", "135415.793000", "135415.797000", "135415.800000", "135415.803000", "135415.806000", "135415.810000", "135415.813000", "135415.817000", "135415.820000", "135435.640000", "135435.644000", "135435.652000", "135435.655000", "135435.659000", "135435.662000", "135435.666000", "135435.669000", "135435.672000", "135435.675000", "135435.679000", "135435.683000", "135435.687000", "135435.690000", "135435.693000", "135435.697000", "135435.700000", "135435.703000", "135435.706000", "135435.710000", "135455.640000", "135455.644000", "135455.647000", "135455.650000", "135455.658000", "135455.662000", "135455.665000", "135455.668000", "135455.672000", "135455.675000", "135455.678000", "135455.681000", "135455.685000", "135455.702000", "135455.705000", "135455.709000", "135455.712000", "135455.715000", "135455.718000", "135455.722000", "135455.725000", "135515.639000", "135515.643000", "135515.657000", "135515.660000", "135515.664000", "135515.667000", "135515.670000", "135515.674000", "135515.677000", "135515.680000", "135515.684000", "135515.687000", "135515.690000", "135515.694000", "135515.697000", "135515.700000", "135515.704000", "135515.707000", "135515.710000", "135515.713000", "135555.640000", "135555.644000", "135555.647000", "135555.650000", "135555.654000", "135555.657000", "135555.660000", "135555.664000", "135555.667000", "135555.670000", "135555.674000", "135555.677000", "135555.680000", "135555.684000", "135555.687000", "135555.690000", "135555.693000", "135555.697000", "135555.700000", "135555.704000", "135555.707000", "135555.710000", "135555.714000", "135555.717000", "135555.720000", "135555.724000", "135555.727000", "135555.730000", "135635.640000", "135635.644000", "135635.647000", "135635.650000", "135635.654000", "135635.657000", "135635.660000", "135635.664000", "135635.667000", "135635.670000", "135635.674000", "135635.677000", "135635.680000", "135635.684000", "135635.687000", "135635.690000", "135635.693000", "135635.697000", "135635.700000", "135635.703000", "135635.707000", "135635.710000", "135635.713000", "135635.717000", "135635.720000", "135635.723000", "135635.726000", "135715.640000", "135715.644000", "135715.647000", "135715.650000", "135715.654000", "135715.657000", "135715.661000", "135715.664000", "135715.668000", "135715.671000", "135715.675000", "135715.678000", "135715.681000", "135715.685000", "135715.688000", "135715.708000", "135715.711000", "135715.715000", "135715.718000", "135715.721000", "135715.725000", "135715.728000", "135715.731000", "135715.735000", "135715.738000", "135715.741000", "135715.744000", "135727.251000", "135727.259000", "135727.263000", "135727.266000", "135727.269000", "135727.273000", "135727.276000", "135727.279000"],
      "InstanceNumber": [1, 2, 3, 4, 5, 6, 7, 8, 9, 10, 11, 12, 13, 14, 15, 16, 17, 18, 19, 20, 21, 22, 23, 24, 25, 26, 27, 28, 29, 30, 31, 32, 33, 34, 35, 36, 37, 38, 39, 40, 41, 42, 43, 44, 45, 46, 47, 48, 49, 50, 51, 52, 53, 54, 55, 56, 57, 58, 59, 60, 61, 62, 63, 64, 65, 66, 67, 68, 69, 70, 71, 72, 73, 74, 75, 76, 77, 78, 79, 80, 81, 82, 83, 84, 85, 86, 87, 88, 89, 90, 91, 92, 93, 94, 95, 96, 97, 98, 99, 100, 101, 102, 103, 104, 105, 106, 107, 108, 109, 110, 111, 112, 113, 114, 115, 116, 117, 118, 119, 120, 121, 122, 123, 124, 125, 126, 127, 128, 129, 130, 131, 132, 133, 134, 135, 136, 137, 138, 139, 140, 141, 142, 143, 144, 145, 146, 147, 148, 149, 150, 151, 152, 153, 154, 155, 156, 157, 158, 159, 160, 161, 162, 163, 164, 165, 166, 167, 168, 169, 170, 171, 172, 173, 174, 175, 176, 177, 178, 179, 180, 181, 182, 183, 184, 185, 186, 187, 188, 189, 190],
      "LargestImagePixelValue": [39322, 38285, 37568, 37571, 37001, 37383, 36649, 36917, 37467, 37249, 37707, 36880, 37203, 37173, 37106, 37004, 37136, 37216, 37080, 37352, 36620, 37432, 36893, 37113, 36997, 37339, 37267, 37219, 36905, 37445, 36918, 36974, 37301, 37137, 37062, 36897, 37298, 37362, 37049, 36959, 37675, 37087, 36874, 37430, 37206, 37507, 37068, 36998, 37371, 36987, 37026, 37004, 37131, 36723, 37354, 36826, 37126, 37322, 37491, 37614, 37079, 37440, 37519, 37170, 37083, 37165, 37184, 37477, 37089, 37567, 37231, 37589, 37089, 37180, 37334, 37125, 36965, 36480, 36802, 36546, 37285, 37042, 36991, 36822, 36935, 36890, 36770, 36568, 37113, 36987, 37208, 36517, 37245, 36912, 36981, 36963, 36646, 36934, 36793, 36500, 36533, 36716, 36805, 36797, 37044, 36328, 36600, 36763, 36506, 36802, 36520, 37110, 36681, 36717, 36548, 36493, 36737, 36591, 36571, 36590, 36331, 36408, 36617, 36690, 36569, 36565, 36974, 36511, 37049, 36570, 37009, 36456, 36537, 36218, 36826, 37031, 36419, 36901, 36364, 36451, 36613, 36606, 36180, 36735, 36911, 37081, 36799, 36724, 36340, 36991, 36477, 36326, 36511, 36661, 36394, 36908, 36616, 36665, 36319, 36578, 36487, 36436, 36279, 36419, 36754, 36534, 36473, 36444, 36582, 36548, 36619, 36497, 36425, 36456, 36877, 36630, 36394, 36538, 36408, 36308, 36259, 36537, 36493, 36344, 36456, 36450, 36524, 36201, 36438, 36506],
      "WindowCenter": [10056.0, 10021.0, 9996.0, 9994.0, 9994.0, 10008.0, 9988.0, 9980.0, 9989.0, 9991.0, 9998.0, 9995.0, 9994.0, 9993.0, 9992.0, 9993.0, 10000.0, 10002.0, 9993.0, 9994.0, 10004.0, 10009.0, 10001.0, 9987.0, 9984.0, 9996.0, 10000.0, 9996.0, 9992.0, 9985.0, 9968.0, 9959.0, 9965.0, 9975.0, 9992.0, 9996.0, 9993.0, 9983.0, 9983.0, 9984.0, 9981.0, 9982.0, 9985.0, 9999.0, 9986.0, 9991.0, 10000.0, 10011.0, 10013.0, 9994.0, 9979.0, 9961.0, 9960.0, 9961.0, 9972.0, 9976.0, 9968.0, 9957.0, 9948.0, 9953.0, 9955.0, 9971.0, 9990.0, 9993.0, 9979.0, 9975.0, 9967.0, 9982.0, 9999.0, 10008.0, 9994.0, 9984.0, 9976.0, 9984.0, 10009.0, 10005.0, 9995.0, 9979.0, 9969.0, 9961.0, 9966.0, 9968.0, 9974.0, 9977.0, 9970.0, 9969.0, 9968.0, 9962.0, 9975.0, 9983.0, 9984.0, 9970.0, 9968.0, 9960.0, 9958.0, 9972.0, 9976.0, 9979.0, 9986.0, 9978.0, 9972.0, 9978.0, 9987.0, 10002.0, 10001.0, 9973.0, 9955.0, 9958.0, 9961.0, 9978.0, 9980.0, 9985.0, 9987.0, 9987.0, 9980.0, 9988.0, 9995.0, 9988.0, 9980.0, 9970.0, 9960.0, 9970.0, 9988.0, 9995.0, 9980.0, 9962.0, 9949.0, 9950.0, 9965.0, 9968.0, 9977.0, 9979.0, 9981.0, 9979.0, 9971.0, 9982.0, 9990.0, 9997.0, 9991.0, 9981.0, 9965.0, 9961.0, 9954.0, 9959.0, 9968.0, 9974.0, 9961.0, 9943.0, 9941.0, 9947.0, 9957.0, 9969.0, 9979.0, 9986.0, 9980.0, 9979.0, 9970.0, 9970.0, 9973.0, 9972.0, 9974.0, 9972.0, 9981.0, 10000.0, 10008.0, 9984.0, 9957.0, 9938.0, 9926.0, 9926.0, 9943.0, 9959.0, 9969.0, 9971.0, 9962.0, 9960.0, 9963.0, 9977.0, 9987.0, 9983.0, 9974.0, 9983.0, 9997.0, 9989.0, 9971.0, 9970.0, 9986.0, 9991.0, 9991.0, 9998.0],
      "WindowWidth": [21406.0, 21301.0, 21235.0, 21224.0, 21219.0, 21248.0, 21206.0, 21185.0, 21200.0, 21207.0, 21223.0, 21219.0, 21217.0, 21212.0, 21210.0, 21212.0, 21228.0, 21231.0, 21210.0, 21214.0, 21238.0, 21246.0, 21228.0, 21197.0, 21189.0, 21215.0, 21225.0, 21218.0, 21206.0, 21192.0, 21153.0, 21134.0, 21146.0, 21171.0, 21210.0, 21222.0, 21211.0, 21187.0, 21185.0, 21192.0, 21180.0, 21183.0, 21196.0, 21225.0, 21198.0, 21207.0, 21229.0, 21256.0, 21259.0, 21213.0, 21180.0, 21139.0, 21139.0, 21144.0, 21163.0, 21174.0, 21153.0, 21125.0, 21107.0, 21115.0, 21122.0, 21160.0, 21205.0, 21212.0, 21180.0, 21168.0, 21151.0, 21185.0, 21226.0, 21243.0, 21212.0, 21189.0, 21171.0, 21190.0, 21246.0, 21241.0, 21216.0, 21178.0, 21155.0, 21139.0, 21148.0, 21154.0, 21167.0, 21174.0, 21162.0, 21158.0, 21157.0, 21143.0, 21170.0, 21188.0, 21189.0, 21158.0, 21154.0, 21137.0, 21130.0, 21160.0, 21173.0, 21184.0, 21198.0, 21180.0, 21167.0, 21180.0, 21202.0, 21234.0, 21229.0, 21168.0, 21128.0, 21133.0, 21141.0, 21180.0, 21186.0, 21194.0, 21201.0, 21200.0, 21185.0, 21201.0, 21217.0, 21202.0, 21182.0, 21159.0, 21137.0, 21161.0, 21206.0, 21219.0, 21182.0, 21143.0, 21111.0, 21115.0, 21149.0, 21159.0, 21179.0, 21185.0, 21190.0, 21181.0, 21164.0, 21186.0, 21208.0, 21222.0, 21209.0, 21186.0, 21151.0, 21139.0, 21126.0, 21135.0, 21155.0, 21166.0, 21139.0, 21100.0, 21097.0, 21110.0, 21133.0, 21164.0, 21186.0, 21199.0, 21189.0, 21182.0, 21161.0, 21162.0, 21172.0, 21169.0, 21175.0, 21168.0, 21189.0, 21233.0, 21246.0, 21191.0, 21131.0, 21090.0, 21061.0, 21061.0, 21100.0, 21136.0, 21160.0, 21164.0, 21143.0, 21136.0, 21148.0, 21177.0, 21202.0, 21195.0, 21176.0, 21195.0, 21224.0, 21205.0, 21161.0, 21160.0, 21195.0, 21211.0, 21212.0, 21223.0]
    },
    "slices": {}
  }
}