{
  "AcquisitionMatrixPE": 104,
  "AcquisitionNumber": 1,
  "AcquisitionTime": "15:53:31.207500",
  "BandwidthPerPixelPhaseEncode": 17.17,
  "BaseResolution": 104,
  "BodyPartExamined": "BRAIN",
  "CoilString": "HC1-7;NC1_2",
  "ConsistencyInfo": "N4_VE11C_LATEST_20160120",
  "ConversionSoftware": "dcm2niix",
  "ConversionSoftwareVersion": "v1.0.20190902",
  "DerivedVendorReportedEchoSpacing": 0.000560011,
  "DeviceSerialNumber": "167006",
  "DwellTime": 2.1e-06,
  "EchoTime": 0.037,
  "EchoTrainLength": 104,
  "EffectiveEchoSpacing": 0.000560011,
  "FlipAngle": 52,
  "HeudiconvVersion": "0.10.0",
  "ImageComments": "Unaliased_MB4_PE3_LB",
  "ImageOrientationPatientDICOM": [0.999074, -0.0357622, 0.0239149, 0.0418736, 0.935889, -0.349798],
  "ImageType": [
    "ORIGINAL",
    "PRIMARY",
    "M",
    "MB",
    "ND",
    "MOSAIC"
],
  "ImagingFrequency": 123.259,
  "InPlanePhaseEncodingDirectionDICOM": "COL",
  "InstitutionAddress": "Chemin_Queen-Mary_4565_Montreal_District_CA_H3W_1W5",
  "InstitutionName": "IUGM",
  "InstitutionalDepartmentName": "Department",
  "MRAcquisitionType": "2D",
  "MagneticFieldStrength": 3,
  "Manufacturer": "Siemens",
  "ManufacturersModelName": "Prisma_fit",
  "Modality": "MR",
  "MultibandAccelerationFactor": 4,
  "PartialFourier": 1,
  "PatientPosition": "HFS",
  "PercentPhaseFOV": 100,
  "PhaseEncodingDirection": "j",
  "PhaseEncodingSteps": 104,
  "PhaseResolution": 1,
  "PixelBandwidth": 2290,
  "ProcedureStepDescription": "memory_things",
  "ProtocolName": "func_task-things_run-6",
  "PulseSequenceDetails": "%CustomerSeq%_cmrr_mbep2d_bold",
  "ReceiveCoilActiveElements": "HC1-7;NC1,2",
  "ReceiveCoilName": "HeadNeck_64",
  "ReconMatrixPE": 104,
  "RepetitionTime": 1.49,
  "SAR": 0.0492822,
  "ScanOptions": "FS",
  "ScanningSequence": "EP",
  "SequenceName": "epfid2d1_104",
  "SequenceVariant": "SK_SS",
  "SeriesDescription": "func_task-things_run-6",
  "SeriesNumber": 25,
  "ShimSetting": [624, -7251, -8827, 569, -14, -241, -71, -23],
  "SliceThickness": 2,
  "SliceTiming": [0, 0.785, 0.1, 0.8825, 0.1975, 0.98, 0.295, 1.08, 0.3925, 1.1775, 0.49, 1.275, 0.59, 1.3725, 0.6875, 0, 0.785, 0.1, 0.8825, 0.1975, 0.98, 0.295, 1.08, 0.3925, 1.1775, 0.49, 1.275, 0.59, 1.3725, 0.6875, 0, 0.785, 0.1, 0.8825, 0.1975, 0.98, 0.295, 1.08, 0.3925, 1.1775, 0.49, 1.275, 0.59, 1.3725, 0.6875, 0, 0.785, 0.1, 0.8825, 0.1975, 0.98, 0.295, 1.08, 0.3925, 1.1775, 0.49, 1.275, 0.59, 1.3725, 0.6875],
  "SoftwareVersions": "syngo_MR_E11",
  "SpacingBetweenSlices": 2,
  "StationName": "MRC35049",
  "TaskName": "things",
  "TotalReadoutTime": 0.0576811,
  "TxRefAmp": 255.364,
  "WipMemBlock": "68a170d6-bccf-4429-be3c-50ce4deee701||Sequence: R016 ve11c/master r/e634e98; Dec 19 2017 11:00:25 by eja",
  "dcmmeta_affine": [
    [-1.9981483221054077, 0.08374722301959991, 0.019744200631976128, 102.78905487060547],
    [0.07152444124221802, 1.8717775344848633, -0.7009515762329102, -67.42516326904297],
    [0.047829750925302505, 0.6995965242385864, 1.8730394840240479, -66.76980590820312],
    [0.0, 0.0, 0.0, 1.0]
],
  "dcmmeta_reorient_transform": [
    [0.0, -1.0, 0.0, 103.0],
    [1.0, 0.0, 0.0, 0.0],
    [0.0, 0.0, 1.0, 0.0],
    [0.0, 0.0, 0.0, 1.0]
],
  "dcmmeta_shape": [104, 104, 60, 190],
  "dcmmeta_slice_dim": 2,
  "dcmmeta_version": 0.6,
  "global": {
    "const": {
      "AcquisitionMatrix": [104, 0, 0, 104],
      "AngioFlag": "N",
      "BitsAllocated": 16,
      "BitsStored": 16,
      "BodyPartExamined": "BRAIN",
      "Columns": 832,
      "EchoNumbers": 1,
      "EchoTime": 37.0,
      "EchoTrainLength": 104,
      "FlipAngle": 52.0,
      "HighBit": 15,
      "ImageOrientationPatient": [0.99907414259308, -0.0357622197861, 0.02391487482453, 0.0418736102778, 0.93588876300746, -0.3497982619149],
      "ImagePositionPatient": [-869.22498566697, -780.66004660968, 242.53174472177],
      "ImageType": [
        "ORIGINAL",
        "PRIMARY",
        "M",
        "MB",
        "ND",
        "MOSAIC"
],
      "ImagedNucleus": "1H",
      "ImagingFrequency": 123.258869,
      "InPlanePhaseEncodingDirection": "COL",
      "MRAcquisitionType": "2D",
      "MagneticFieldStrength": 3.0,
      "Manufacturer": "SIEMENS",
      "ManufacturerModelName": "Prisma_fit",
      "Modality": "MR",
      "NumberOfAverages": 1.0,
      "NumberOfPhaseEncodingSteps": 104,
      "PercentPhaseFieldOfView": 100.0,
      "PercentSampling": 100.0,
      "PerformedProcedureStepStartTime": "145904.354000",
      "PhotometricInterpretation": "MONOCHROME2",
      "PixelBandwidth": 2290.0,
      "PixelRepresentation": 0,
      "PixelSpacing": [2.0, 2.0],
      "ProtocolName": "func_task-things_run-6",
      "RepetitionTime": 1490.0,
      "Rows": 832,
      "SAR": 0.04928222152169,
      "SamplesPerPixel": 1,
      "ScanOptions": "FS",
      "ScanningSequence": "EP",
      "SequenceName": "epfid2d1_104",
      "SequenceVariant": [
        "SK",
        "SS"
],
      "SeriesDescription": "func_task-things_run-6",
      "SeriesNumber": 25,
      "SeriesTime": "155442.522000",
      "SliceLocation": -37.885608150683,
      "SliceThickness": 2.0,
      "SmallestImagePixelValue": 0,
      "SoftwareVersions": "syngo MR E11",
      "SpacingBetweenSlices": 1.9999999939071,
      "SpecificCharacterSet": "ISO_IR 100",
      "StudyID": "1",
      "StudyTime": "145904.263000",
      "TransmitCoilName": "Body",
      "VariableFlipAngleFlag": "N",
      "dBdt": 0.0},
    "slices": {}
  },
  "time": {
    "samples": {
      "AcquisitionNumber": [1, 2, 3, 4, 5, 6, 7, 8, 9, 10, 11, 12, 13, 14, 15, 16, 17, 18, 19, 20, 21, 22, 23, 24, 25, 26, 27, 28, 29, 30, 31, 32, 33, 34, 35, 36, 37, 38, 39, 40, 41, 42, 43, 44, 45, 46, 47, 48, 49, 50, 51, 52, 53, 54, 55, 56, 57, 58, 59, 60, 61, 62, 63, 64, 65, 66, 67, 68, 69, 70, 71, 72, 73, 74, 75, 76, 77, 78, 79, 80, 81, 82, 83, 84, 85, 86, 87, 88, 89, 90, 91, 92, 93, 94, 95, 96, 97, 98, 99, 100, 101, 102, 103, 104, 105, 106, 107, 108, 109, 110, 111, 112, 113, 114, 115, 116, 117, 118, 119, 120, 121, 122, 123, 124, 125, 126, 127, 128, 129, 130, 131, 132, 133, 134, 135, 136, 137, 138, 139, 140, 141, 142, 143, 144, 145, 146, 147, 148, 149, 150, 151, 152, 153, 154, 155, 156, 157, 158, 159, 160, 161, 162, 163, 164, 165, 166, 167, 168, 169, 170, 171, 172, 173, 174, 175, 176, 177, 178, 179, 180, 181, 182, 183, 184, 185, 186, 187, 188, 189, 190],
      "AcquisitionTime": ["155331.207500", "155332.697500", "155334.187500", "155335.677500", "155337.167500", "155338.657500", "155340.147500", "155341.637500", "155343.127500", "155344.617500", "155346.107500", "155347.597500", "155349.087500", "155350.577500", "155352.067500", "155353.557500", "155355.047500", "155356.537500", "155358.027500", "155359.517500", "155401.007500", "155402.497500", "155403.987500", "155405.477500", "155406.967500", "155408.457500", "155409.947500", "155411.437500", "155412.927500", "155414.417500", "155415.907500", "155417.397500", "155418.887500", "155420.377500", "155421.867500", "155423.357500", "155424.847500", "155426.337500", "155427.827500", "155429.317500", "155430.807500", "155432.297500", "155433.787500", "155435.277500", "155436.767500", "155438.257500", "155439.747500", "155441.237500", "155442.727500", "155444.217500", "155445.707500", "155447.197500", "155448.687500", "155450.177500", "155451.667500", "155453.157500", "155454.647500", "155456.137500", "155457.627500", "155459.117500", "155500.607500", "155502.097500", "155503.587500", "155505.077500", "155506.567500", "155508.057500", "155509.547500", "155511.037500", "155512.527500", "155514.017500", "155515.507500", "155516.997500", "155518.487500", "155519.977500", "155521.467500", "155522.957500", "155524.447500", "155525.937500", "155527.427500", "155528.917500", "155530.407500", "155531.897500", "155533.387500", "155534.877500", "155536.367500", "155537.857500", "155539.347500", "155540.837500", "155542.327500", "155543.817500", "155545.307500", "155546.797500", "155548.287500", "155549.777500", "155551.267500", "155552.757500", "155554.247500", "155555.737500", "155557.227500", "155558.717500", "155600.207500", "155601.697500", "155603.187500", "155604.677500", "155606.167500", "155607.657500", "155609.147500", "155610.637500", "155612.127500", "155613.617500", "155615.107500", "155616.597500", "155618.087500", "155619.577500", "155621.067500", "155622.557500", "155624.047500", "155625.537500", "155627.027500", "155628.517500", "155630.007500", "155631.497500", "155632.987500", "155634.477500", "155635.967500", "155637.457500", "155638.947500", "155640.437500", "155641.927500", "155643.417500", "155644.907500", "155646.397500", "155647.887500", "155649.377500", "155650.867500", "155652.357500", "155653.847500", "155655.337500", "155656.827500", "155658.317500", "155659.807500", "155701.297500", "155702.787500", "155704.277500", "155705.767500", "155707.257500", "155708.747500", "155710.237500", "155711.727500", "155713.217500", "155714.707500", "155716.197500", "155717.687500", "155719.177500", "155720.667500", "155722.157500", "155723.647500", "155725.137500", "155726.627500", "155728.117500", "155729.607500", "155731.097500", "155732.587500", "155734.077500", "155735.567500", "155737.057500", "155738.547500", "155740.037500", "155741.527500", "155743.017500", "155744.507500", "155745.997500", "155747.487500", "155748.977500", "155750.467500", "155751.957500", "155753.447500", "155754.937500", "155756.427500", "155757.917500", "155759.407500", "155800.897500", "155802.387500", "155803.877500", "155805.367500", "155806.857500", "155808.347500", "155809.837500", "155811.327500", "155812.817500"],
      "ContentTime": ["155442.526000", "155442.529000", "155442.533000", "155442.542000", "155442.546000", "155442.549000", "155442.552000", "155442.556000", "155442.559000", "155442.562000", "155442.566000", "155442.569000", "155442.572000", "155442.576000", "155442.579000", "155442.582000", "155442.586000", "155502.481000", "155502.485000", "155502.488000", "155502.491000", "155502.495000", "155502.498000", "155502.508000", "155502.512000", "155502.515000", "155502.518000", "155502.522000", "155502.525000", "155502.528000", "155502.531000", "155502.535000", "155502.538000", "155502.558000", "155502.561000", "155502.565000", "155502.568000", "155502.571000", "155522.481000", "155522.485000", "155522.488000", "155522.491000", "155522.494000", "155522.498000", "155522.501000", "155522.504000", "155522.508000", "155522.511000", "155522.514000", "155522.517000", "155522.521000", "155522.524000", "155522.527000", "155522.531000", "155522.534000", "155522.537000", "155522.540000", "155522.543000", "155542.481000", "155542.485000", "155542.488000", "155542.491000", "155542.494000", "155542.498000", "155542.501000", "155542.504000", "155542.508000", "155542.511000", "155542.514000", "155542.518000", "155542.521000", "155542.524000", "155542.527000", "155542.531000", "155542.534000", "155542.537000", "155542.540000", "155542.544000", "155602.481000", "155602.485000", "155602.488000", "155602.491000", "155602.495000", "155602.498000", "155602.501000", "155602.505000", "155602.508000", "155602.511000", "155602.515000", "155602.518000", "155602.521000", "155602.524000", "155602.528000", "155602.531000", "155602.534000", "155602.538000", "155602.541000", "155602.544000", "155642.482000", "155642.486000", "155642.489000", "155642.493000", "155642.496000", "155642.500000", "155642.503000", "155642.507000", "155642.510000", "155642.513000", "155642.517000", "155642.520000", "155642.523000", "155642.527000", "155642.530000", "155642.533000", "155642.537000", "155642.540000", "155642.543000", "155642.546000", "155642.550000", "155642.553000", "155642.556000", "155642.560000", "155642.563000", "155642.566000", "155642.569000", "155642.573000", "155642.576000", "155722.481000", "155722.485000", "155722.508000", "155722.511000", "155722.515000", "155722.518000", "155722.521000", "155722.524000", "155722.528000", "155722.531000", "155722.534000", "155722.538000", "155722.541000", "155722.544000", "155722.547000", "155722.551000", "155722.554000", "155722.557000", "155722.561000", "155722.564000", "155722.567000", "155722.571000", "155722.574000", "155722.577000", "155722.581000", "155722.584000", "155722.587000", "155802.481000", "155802.485000", "155802.488000", "155802.491000", "155802.495000", "155802.498000", "155802.501000", "155802.505000", "155802.508000", "155802.511000", "155802.514000", "155802.518000", "155802.521000", "155802.524000", "155802.528000", "155802.531000", "155802.534000", "155802.537000", "155802.541000", "155802.544000", "155802.547000", "155802.551000", "155802.554000", "155802.557000", "155802.560000", "155802.564000", "155802.567000", "155814.945000", "155814.949000", "155814.952000", "155814.955000", "155814.959000", "155814.962000", "155814.965000", "155814.969000", "155814.972000"],
      "InstanceCreationTime": ["155442.526000", "155442.529000", "155442.533000", "155442.542000", "155442.546000", "155442.549000", "155442.552000", "155442.556000", "155442.559000", "155442.562000", "155442.566000", "155442.569000", "155442.572000", "155442.576000", "155442.579000", "155442.582000", "155442.586000", "155502.481000", "155502.485000", "155502.488000", "155502.491000", "155502.495000", "155502.498000", "155502.508000", "155502.512000", "155502.515000", "155502.518000", "155502.522000", "155502.525000", "155502.528000", "155502.531000", "155502.535000", "155502.538000", "155502.558000", "155502.561000", "155502.565000", "155502.568000", "155502.571000", "155522.481000", "155522.485000", "155522.488000", "155522.491000", "155522.494000", "155522.498000", "155522.501000", "155522.504000", "155522.508000", "155522.511000", "155522.514000", "155522.517000", "155522.521000", "155522.524000", "155522.527000", "155522.531000", "155522.534000", "155522.537000", "155522.540000", "155522.543000", "155542.481000", "155542.485000", "155542.488000", "155542.491000", "155542.494000", "155542.498000", "155542.501000", "155542.504000", "155542.508000", "155542.511000", "155542.514000", "155542.518000", "155542.521000", "155542.524000", "155542.527000", "155542.531000", "155542.534000", "155542.537000", "155542.540000", "155542.544000", "155602.481000", "155602.485000", "155602.488000", "155602.491000", "155602.495000", "155602.498000", "155602.501000", "155602.505000", "155602.508000", "155602.511000", "155602.515000", "155602.518000", "155602.521000", "155602.524000", "155602.528000", "155602.531000", "155602.534000", "155602.538000", "155602.541000", "155602.544000", "155642.482000", "155642.486000", "155642.489000", "155642.493000", "155642.496000", "155642.500000", "155642.503000", "155642.507000", "155642.510000", "155642.513000", "155642.517000", "155642.520000", "155642.523000", "155642.527000", "155642.530000", "155642.533000", "155642.537000", "155642.540000", "155642.543000", "155642.546000", "155642.550000", "155642.553000", "155642.556000", "155642.560000", "155642.563000", "155642.566000", "155642.569000", "155642.573000", "155642.576000", "155722.481000", "155722.485000", "155722.508000", "155722.511000", "155722.515000", "155722.518000", "155722.521000", "155722.524000", "155722.528000", "155722.531000", "155722.534000", "155722.538000", "155722.541000", "155722.544000", "155722.547000", "155722.551000", "155722.554000", "155722.557000", "155722.561000", "155722.564000", "155722.567000", "155722.571000", "155722.574000", "155722.577000", "155722.581000", "155722.584000", "155722.587000", "155802.481000", "155802.485000", "155802.488000", "155802.491000", "155802.495000", "155802.498000", "155802.501000", "155802.505000", "155802.508000", "155802.511000", "155802.514000", "155802.518000", "155802.521000", "155802.524000", "155802.528000", "155802.531000", "155802.534000", "155802.537000", "155802.541000", "155802.544000", "155802.547000", "155802.551000", "155802.554000", "155802.557000", "155802.560000", "155802.564000", "155802.567000", "155814.945000", "155814.949000", "155814.952000", "155814.955000", "155814.959000", "155814.962000", "155814.965000", "155814.969000", "155814.972000"],
      "InstanceNumber": [1, 2, 3, 4, 5, 6, 7, 8, 9, 10, 11, 12, 13, 14, 15, 16, 17, 18, 19, 20, 21, 22, 23, 24, 25, 26, 27, 28, 29, 30, 31, 32, 33, 34, 35, 36, 37, 38, 39, 40, 41, 42, 43, 44, 45, 46, 47, 48, 49, 50, 51, 52, 53, 54, 55, 56, 57, 58, 59, 60, 61, 62, 63, 64, 65, 66, 67, 68, 69, 70, 71, 72, 73, 74, 75, 76, 77, 78, 79, 80, 81, 82, 83, 84, 85, 86, 87, 88, 89, 90, 91, 92, 93, 94, 95, 96, 97, 98, 99, 100, 101, 102, 103, 104, 105, 106, 107, 108, 109, 110, 111, 112, 113, 114, 115, 116, 117, 118, 119, 120, 121, 122, 123, 124, 125, 126, 127, 128, 129, 130, 131, 132, 133, 134, 135, 136, 137, 138, 139, 140, 141, 142, 143, 144, 145, 146, 147, 148, 149, 150, 151, 152, 153, 154, 155, 156, 157, 158, 159, 160, 161, 162, 163, 164, 165, 166, 167, 168, 169, 170, 171, 172, 173, 174, 175, 176, 177, 178, 179, 180, 181, 182, 183, 184, 185, 186, 187, 188, 189, 190],
      "LargestImagePixelValue": [42391, 41067, 39395, 40180, 41431, 40599, 41024, 40120, 40748, 40042, 39397, 39958, 39387, 40097, 38861, 39608, 39562, 40452, 39867, 39679, 40233, 39046, 40031, 38853, 39746, 39639, 40245, 40167, 41460, 41329, 40922, 40310, 40634, 40311, 40448, 40330, 40754, 40010, 40700, 40631, 40912, 40263, 39581, 41354, 41099, 40857, 39740, 40567, 40319, 39936, 41204, 40514, 40300, 40947, 40592, 40997, 41552, 40815, 40602, 40599, 40105, 40286, 40022, 40772, 41111, 41300, 40949, 40443, 40794, 40330, 41344, 40340, 40671, 41211, 40625, 41818, 40975, 41596, 40661, 41078, 40535, 40255, 40428, 41431, 39946, 41107, 40956, 40699, 40272, 40549, 40872, 39584, 40131, 39628, 40031, 41230, 39912, 40193, 40078, 40706, 41183, 41241, 41618, 41307, 41804, 41023, 41053, 40750, 40570, 40516, 40083, 41470, 41441, 41442, 39716, 39447, 38691, 38988, 39191, 39480, 41121, 41845, 43555, 39851, 40918, 41175, 40988, 40873, 40322, 40207, 39460, 41115, 41240, 41054, 41288, 41824, 41065, 41639, 40773, 39896, 41004, 40656, 40039, 39367, 40972, 40930, 41012, 40502, 40547, 40807, 40096, 39552, 40373, 40610, 40542, 40760, 40961, 40823, 40118, 38051, 39744, 38940, 38407, 39382, 38135, 39684, 38141, 38942, 38843, 38474, 38435, 38611, 38615, 38922, 38755, 38806, 38801, 39150, 38430, 38868, 38678, 38671, 39205, 39119, 38581, 39090, 38796, 38919, 38886, 39326],
      "WindowCenter": [11414.0, 11414.0, 11414.0, 11414.0, 11414.0, 11414.0, 11414.0, 11414.0, 11414.0, 11414.0, 11414.0, 11414.0, 11414.0, 11414.0, 11414.0, 11414.0, 11414.0, 11414.0, 11414.0, 11414.0, 11414.0, 11414.0, 11414.0, 11414.0, 11414.0, 11414.0, 11414.0, 11414.0, 11414.0, 11414.0, 11414.0, 11414.0, 11414.0, 11414.0, 11414.0, 11414.0, 11414.0, 11414.0, 11414.0, 11414.0, 11414.0, 11414.0, 11414.0, 11414.0, 11414.0, 11414.0, 11414.0, 11414.0, 11414.0, 11414.0, 11414.0, 11414.0, 11414.0, 11414.0, 11414.0, 11414.0, 11414.0, 11414.0, 11414.0, 11414.0, 11414.0, 11414.0, 11414.0, 11414.0, 11414.0, 11414.0, 11414.0, 11414.0, 11414.0, 11414.0, 11414.0, 11414.0, 11414.0, 11414.0, 11414.0, 11414.0, 11414.0, 11414.0, 11414.0, 11414.0, 11414.0, 11414.0, 11414.0, 11414.0, 11414.0, 11414.0, 11414.0, 11414.0, 11414.0, 11414.0, 11414.0, 11414.0, 11414.0, 11414.0, 11414.0, 11414.0, 11414.0, 11414.0, 10171.0, 10145.0, 10121.0, 10112.0, 10138.0, 10153.0, 10167.0, 10147.0, 10132.0, 10121.0, 10108.0, 10078.0, 10101.0, 10160.0, 10153.0, 10140.0, 10109.0, 10102.0, 10081.0, 10071.0, 10071.0, 10084.0, 10124.0, 10172.0, 10237.0, 10217.0, 10163.0, 10126.0, 10113.0, 10102.0, 10100.0, 10119.0, 10131.0, 10158.0, 10146.0, 10134.0, 10133.0, 10148.0, 10140.0, 10144.0, 10125.0, 10113.0, 10133.0, 10143.0, 10146.0, 10166.0, 10193.0, 10188.0, 10156.0, 10123.0, 10125.0, 10148.0, 10156.0, 10157.0, 10154.0, 10144.0, 10121.0, 10134.0, 10156.0, 10165.0, 10155.0, 10119.0, 10119.0, 10087.0, 10079.0, 10153.0, 10180.0, 10207.0, 10164.0, 10132.0, 10098.0, 10073.0, 10080.0, 10100.0, 10095.0, 10114.0, 10119.0, 10120.0, 10128.0, 10152.0, 10139.0, 10117.0, 10097.0, 10108.0, 10125.0, 10135.0, 10114.0, 10104.0, 10104.0, 10119.0, 10112.0, 10095.0],
      "WindowCenterWidthExplanation": [
        "WINDOW1",
        "WINDOW1",
        "WINDOW1",
        "WINDOW1",
        "WINDOW1",
        "WINDOW1",
        "WINDOW1",
        "WINDOW1",
        "WINDOW1",
        "WINDOW1",
        "WINDOW1",
        "WINDOW1",
        "WINDOW1",
        "WINDOW1",
        "WINDOW1",
        "WINDOW1",
        "WINDOW1",
        "WINDOW1",
        "WINDOW1",
        "WINDOW1",
        "WINDOW1",
        "WINDOW1",
        "WINDOW1",
        "WINDOW1",
        "WINDOW1",
        "WINDOW1",
        "WINDOW1",
        "WINDOW1",
        "WINDOW1",
        "WINDOW1",
        "WINDOW1",
        "WINDOW1",
        "WINDOW1",
        "WINDOW1",
        "WINDOW1",
        "WINDOW1",
        "WINDOW1",
        "WINDOW1",
        "WINDOW1",
        "WINDOW1",
        "WINDOW1",
        "WINDOW1",
        "WINDOW1",
        "WINDOW1",
        "WINDOW1",
        "WINDOW1",
        "WINDOW1",
        "WINDOW1",
        "WINDOW1",
        "WINDOW1",
        "WINDOW1",
        "WINDOW1",
        "WINDOW1",
        "WINDOW1",
        "WINDOW1",
        "WINDOW1",
        "WINDOW1",
        "WINDOW1",
        "WINDOW1",
        "WINDOW1",
        "WINDOW1",
        "WINDOW1",
        "WINDOW1",
        "WINDOW1",
        "WINDOW1",
        "WINDOW1",
        "WINDOW1",
        "WINDOW1",
        "WINDOW1",
        "WINDOW1",
        "WINDOW1",
        "WINDOW1",
        "WINDOW1",
        "WINDOW1",
        "WINDOW1",
        "WINDOW1",
        "WINDOW1",
        "WINDOW1",
        "WINDOW1",
        "WINDOW1",
        "WINDOW1",
        "WINDOW1",
        "WINDOW1",
        "WINDOW1",
        "WINDOW1",
        "WINDOW1",
        "WINDOW1",
        "WINDOW1",
        "WINDOW1",
        "WINDOW1",
        "WINDOW1",
        "WINDOW1",
        "WINDOW1",
        "WINDOW1",
        "WINDOW1",
        "WINDOW1",
        "WINDOW1",
        "WINDOW1",
        "Algo1",
        "Algo1",
        "Algo1",
        "Algo1",
        "Algo1",
        "Algo1",
        "Algo1",
        "Algo1",
        "Algo1",
        "Algo1",
        "Algo1",
        "Algo1",
        "Algo1",
        "Algo1",
        "Algo1",
        "Algo1",
        "Algo1",
        "Algo1",
        "Algo1",
        "Algo1",
        "Algo1",
        "Algo1",
        "Algo1",
        "Algo1",
        "Algo1",
        "Algo1",
        "Algo1",
        "Algo1",
        "Algo1",
        "Algo1",
        "Algo1",
        "Algo1",
        "Algo1",
        "Algo1",
        "Algo1",
        "Algo1",
        "Algo1",
        "Algo1",
        "Algo1",
        "Algo1",
        "Algo1",
        "Algo1",
        "Algo1",
        "Algo1",
        "Algo1",
        "Algo1",
        "Algo1",
        "Algo1",
        "Algo1",
        "Algo1",
        "Algo1",
        "Algo1",
        "Algo1",
        "Algo1",
        "Algo1",
        "Algo1",
        "Algo1",
        "Algo1",
        "Algo1",
        "Algo1",
        "Algo1",
        "Algo1",
        "Algo1",
        "Algo1",
        "Algo1",
        "Algo1",
        "Algo1",
        "Algo1",
        "Algo1",
        "Algo1",
        "Algo1",
        "Algo1",
        "Algo1",
        "Algo1",
        "Algo1",
        "Algo1",
        "Algo1",
        "Algo1",
        "Algo1",
        "Algo1",
        "Algo1",
        "Algo1",
        "Algo1",
        "Algo1",
        "Algo1",
        "Algo1",
        "Algo1",
        "Algo1",
        "Algo1",
        "Algo1",
        "Algo1",
        "Algo1"
],
      "WindowWidth": [16836.0, 16836.0, 16836.0, 16836.0, 16836.0, 16836.0, 16836.0, 16836.0, 16836.0, 16836.0, 16836.0, 16836.0, 16836.0, 16836.0, 16836.0, 16836.0, 16836.0, 16836.0, 16836.0, 16836.0, 16836.0, 16836.0, 16836.0, 16836.0, 16836.0, 16836.0, 16836.0, 16836.0, 16836.0, 16836.0, 16836.0, 16836.0, 16836.0, 16836.0, 16836.0, 16836.0, 16836.0, 16836.0, 16836.0, 16836.0, 16836.0, 16836.0, 16836.0, 16836.0, 16836.0, 16836.0, 16836.0, 16836.0, 16836.0, 16836.0, 16836.0, 16836.0, 16836.0, 16836.0, 16836.0, 16836.0, 16836.0, 16836.0, 16836.0, 16836.0, 16836.0, 16836.0, 16836.0, 16836.0, 16836.0, 16836.0, 16836.0, 16836.0, 16836.0, 16836.0, 16836.0, 16836.0, 16836.0, 16836.0, 16836.0, 16836.0, 16836.0, 16836.0, 16836.0, 16836.0, 16836.0, 16836.0, 16836.0, 16836.0, 16836.0, 16836.0, 16836.0, 16836.0, 16836.0, 16836.0, 16836.0, 16836.0, 16836.0, 16836.0, 16836.0, 16836.0, 16836.0, 16836.0, 21837.0, 21777.0, 21726.0, 21700.0, 21759.0, 21796.0, 21822.0, 21777.0, 21746.0, 21723.0, 21695.0, 21631.0, 21683.0, 21807.0, 21794.0, 21764.0, 21699.0, 21685.0, 21641.0, 21619.0, 21616.0, 21646.0, 21729.0, 21842.0, 22002.0, 21980.0, 21827.0, 21734.0, 21701.0, 21672.0, 21672.0, 21715.0, 21746.0, 21799.0, 21777.0, 21752.0, 21751.0, 21781.0, 21766.0, 21770.0, 21731.0, 21704.0, 21747.0, 21771.0, 21782.0, 21831.0, 21885.0, 21874.0, 21802.0, 21734.0, 21732.0, 21783.0, 21804.0, 21805.0, 21798.0, 21774.0, 21726.0, 21752.0, 21798.0, 21821.0, 21803.0, 21726.0, 21722.0, 21654.0, 21637.0, 21794.0, 21861.0, 21918.0, 21829.0, 21754.0, 21677.0, 21625.0, 21638.0, 21682.0, 21675.0, 21712.0, 21724.0, 21731.0, 21746.0, 21798.0, 21771.0, 21722.0, 21679.0, 21699.0, 21737.0, 21759.0, 21714.0, 21691.0, 21691.0, 21722.0, 21710.0, 21674.0]
    },
    "slices": {}
  }
}