{
  "AcquisitionMatrixPE": 104,
  "AcquisitionNumber": 1,
  "AcquisitionTime": "15:21:16.660000",
  "BandwidthPerPixelPhaseEncode": 17.17,
  "BaseResolution": 104,
  "BodyPartExamined": "BRAIN",
  "CoilString": "HC1-7;NC1_2",
  "ConsistencyInfo": "N4_VE11C_LATEST_20160120",
  "ConversionSoftware": "dcm2niix",
  "ConversionSoftwareVersion": "v1.0.20190902",
  "DerivedVendorReportedEchoSpacing": 0.000560011,
  "DeviceSerialNumber": "167006",
  "DwellTime": 2.1e-06,
  "EchoTime": 0.037,
  "EchoTrainLength": 104,
  "EffectiveEchoSpacing": 0.000560011,
  "FlipAngle": 52,
  "HeudiconvVersion": "0.10.0",
  "ImageComments": "Unaliased_MB4_PE3_LB",
  "ImageOrientationPatientDICOM": [0.999074, -0.0357622, 0.0239149, 0.0418736, 0.935889, -0.349798],
  "ImageType": [
    "ORIGINAL",
    "PRIMARY",
    "M",
    "MB",
    "ND",
    "MOSAIC"
],
  "ImagingFrequency": 123.259,
  "InPlanePhaseEncodingDirectionDICOM": "COL",
  "InstitutionAddress": "Chemin_Queen-Mary_4565_Montreal_District_CA_H3W_1W5",
  "InstitutionName": "IUGM",
  "InstitutionalDepartmentName": "Department",
  "MRAcquisitionType": "2D",
  "MagneticFieldStrength": 3,
  "Manufacturer": "Siemens",
  "ManufacturersModelName": "Prisma_fit",
  "Modality": "MR",
  "MultibandAccelerationFactor": 4,
  "PartialFourier": 1,
  "PatientPosition": "HFS",
  "PercentPhaseFOV": 100,
  "PhaseEncodingDirection": "j",
  "PhaseEncodingSteps": 104,
  "PhaseResolution": 1,
  "PixelBandwidth": 2290,
  "ProcedureStepDescription": "memory_things",
  "ProtocolName": "func_task-things_run-1",
  "PulseSequenceDetails": "%CustomerSeq%_cmrr_mbep2d_bold",
  "ReceiveCoilActiveElements": "HC1-7;NC1,2",
  "ReceiveCoilName": "HeadNeck_64",
  "ReconMatrixPE": 104,
  "RepetitionTime": 1.49,
  "SAR": 0.0492822,
  "ScanOptions": "FS",
  "ScanningSequence": "EP",
  "SequenceName": "epfid2d1_104",
  "SequenceVariant": "SK_SS",
  "SeriesDescription": "func_task-things_run-1",
  "SeriesNumber": 10,
  "ShimSetting": [624, -7251, -8827, 569, -14, -241, -71, -23],
  "SliceThickness": 2,
  "SliceTiming": [0, 0.785, 0.0975, 0.8825, 0.1975, 0.98, 0.295, 1.0775, 0.3925, 1.175, 0.49, 1.275, 0.5875, 1.3725, 0.6875, 0, 0.785, 0.0975, 0.8825, 0.1975, 0.98, 0.295, 1.0775, 0.3925, 1.175, 0.49, 1.275, 0.5875, 1.3725, 0.6875, 0, 0.785, 0.0975, 0.8825, 0.1975, 0.98, 0.295, 1.0775, 0.3925, 1.175, 0.49, 1.275, 0.5875, 1.3725, 0.6875, 0, 0.785, 0.0975, 0.8825, 0.1975, 0.98, 0.295, 1.0775, 0.3925, 1.175, 0.49, 1.275, 0.5875, 1.3725, 0.6875],
  "SoftwareVersions": "syngo_MR_E11",
  "SpacingBetweenSlices": 2,
  "StationName": "MRC35049",
  "TaskName": "things",
  "TotalReadoutTime": 0.0576811,
  "TxRefAmp": 255.364,
  "WipMemBlock": "da8fb35b-154d-453b-9bcd-3f7da4413586||Sequence: R016 ve11c/master r/e634e98; Dec 19 2017 11:00:25 by eja",
  "dcmmeta_affine": [
    [-1.9981483221054077, 0.08374722301959991, 0.019744200631976128, 102.78905487060547],
    [0.07152444124221802, 1.8717775344848633, -0.7009515762329102, -67.42516326904297],
    [0.047829750925302505, 0.6995965242385864, 1.8730394840240479, -66.76980590820312],
    [0.0, 0.0, 0.0, 1.0]
],
  "dcmmeta_reorient_transform": [
    [0.0, -1.0, 0.0, 103.0],
    [1.0, 0.0, 0.0, 0.0],
    [0.0, 0.0, 1.0, 0.0],
    [0.0, 0.0, 0.0, 1.0]
],
  "dcmmeta_shape": [104, 104, 60, 190],
  "dcmmeta_slice_dim": 2,
  "dcmmeta_version": 0.6,
  "global": {
    "const": {
      "AcquisitionMatrix": [104, 0, 0, 104],
      "AngioFlag": "N",
      "BitsAllocated": 16,
      "BitsStored": 16,
      "BodyPartExamined": "BRAIN",
      "Columns": 832,
      "EchoNumbers": 1,
      "EchoTime": 37.0,
      "EchoTrainLength": 104,
      "FlipAngle": 52.0,
      "HighBit": 15,
      "ImageOrientationPatient": [0.99907414259308, -0.0357622197861, 0.02391487482453, 0.0418736102778, 0.93588876300746, -0.3497982619149],
      "ImagePositionPatient": [-869.22498566697, -780.66004660968, 242.53174472177],
      "ImageType": [
        "ORIGINAL",
        "PRIMARY",
        "M",
        "MB",
        "ND",
        "MOSAIC"
],
      "ImagedNucleus": "1H",
      "ImagingFrequency": 123.258856,
      "InPlanePhaseEncodingDirection": "COL",
      "MRAcquisitionType": "2D",
      "MagneticFieldStrength": 3.0,
      "Manufacturer": "SIEMENS",
      "ManufacturerModelName": "Prisma_fit",
      "Modality": "MR",
      "NumberOfAverages": 1.0,
      "NumberOfPhaseEncodingSteps": 104,
      "PercentPhaseFieldOfView": 100.0,
      "PercentSampling": 100.0,
      "PerformedProcedureStepStartTime": "145904.354000",
      "PhotometricInterpretation": "MONOCHROME2",
      "PixelBandwidth": 2290.0,
      "PixelRepresentation": 0,
      "PixelSpacing": [2.0, 2.0],
      "ProtocolName": "func_task-things_run-1",
      "RepetitionTime": 1490.0,
      "Rows": 832,
      "SAR": 0.04928222152169,
      "SamplesPerPixel": 1,
      "ScanOptions": "FS",
      "ScanningSequence": "EP",
      "SequenceName": "epfid2d1_104",
      "SequenceVariant": [
        "SK",
        "SS"
],
      "SeriesDescription": "func_task-things_run-1",
      "SeriesNumber": 10,
      "SeriesTime": "152219.921000",
      "SliceLocation": -37.885608150683,
      "SliceThickness": 2.0,
      "SmallestImagePixelValue": 0,
      "SoftwareVersions": "syngo MR E11",
      "SpacingBetweenSlices": 1.9999999939071,
      "SpecificCharacterSet": "ISO_IR 100",
      "StudyID": "1",
      "StudyTime": "145904.263000",
      "TransmitCoilName": "Body",
      "VariableFlipAngleFlag": "N",
      "WindowCenterWidthExplanation": "Algo1",
      "dBdt": 0.0},
    "slices": {}
  },
  "time": {
    "samples": {
      "AcquisitionNumber": [1, 2, 3, 4, 5, 6, 7, 8, 9, 10, 11, 12, 13, 14, 15, 16, 17, 18, 19, 20, 21, 22, 23, 24, 25, 26, 27, 28, 29, 30, 31, 32, 33, 34, 35, 36, 37, 38, 39, 40, 41, 42, 43, 44, 45, 46, 47, 48, 49, 50, 51, 52, 53, 54, 55, 56, 57, 58, 59, 60, 61, 62, 63, 64, 65, 66, 67, 68, 69, 70, 71, 72, 73, 74, 75, 76, 77, 78, 79, 80, 81, 82, 83, 84, 85, 86, 87, 88, 89, 90, 91, 92, 93, 94, 95, 96, 97, 98, 99, 100, 101, 102, 103, 104, 105, 106, 107, 108, 109, 110, 111, 112, 113, 114, 115, 116, 117, 118, 119, 120, 121, 122, 123, 124, 125, 126, 127, 128, 129, 130, 131, 132, 133, 134, 135, 136, 137, 138, 139, 140, 141, 142, 143, 144, 145, 146, 147, 148, 149, 150, 151, 152, 153, 154, 155, 156, 157, 158, 159, 160, 161, 162, 163, 164, 165, 166, 167, 168, 169, 170, 171, 172, 173, 174, 175, 176, 177, 178, 179, 180, 181, 182, 183, 184, 185, 186, 187, 188, 189, 190],
      "AcquisitionTime": ["152116.660000", "152118.150000", "152119.640000", "152121.130000", "152122.620000", "152124.110000", "152125.600000", "152127.090000", "152128.580000", "152130.070000", "152131.560000", "152133.050000", "152134.540000", "152136.030000", "152137.520000", "152139.010000", "152140.500000", "152141.990000", "152143.480000", "152144.970000", "152146.460000", "152147.950000", "152149.440000", "152150.930000", "152152.420000", "152153.910000", "152155.400000", "152156.890000", "152158.380000", "152159.870000", "152201.360000", "152202.850000", "152204.340000", "152205.830000", "152207.320000", "152208.810000", "152210.300000", "152211.790000", "152213.280000", "152214.770000", "152216.260000", "152217.750000", "152219.240000", "152220.730000", "152222.220000", "152223.710000", "152225.200000", "152226.690000", "152228.180000", "152229.670000", "152231.160000", "152232.650000", "152234.140000", "152235.630000", "152237.120000", "152238.610000", "152240.100000", "152241.590000", "152243.080000", "152244.570000", "152246.060000", "152247.550000", "152249.040000", "152250.530000", "152252.020000", "152253.510000", "152255.000000", "152256.490000", "152257.980000", "152259.470000", "152300.960000", "152302.450000", "152303.940000", "152305.430000", "152306.920000", "152308.410000", "152309.900000", "152311.390000", "152312.880000", "152314.370000", "152315.860000", "152317.350000", "152318.840000", "152320.330000", "152321.820000", "152323.310000", "152324.800000", "152326.290000", "152327.780000", "152329.270000", "152330.760000", "152332.250000", "152333.740000", "152335.230000", "152336.720000", "152338.210000", "152339.700000", "152341.190000", "152342.680000", "152344.170000", "152345.660000", "152347.150000", "152348.640000", "152350.130000", "152351.620000", "152353.110000", "152354.600000", "152356.090000", "152357.580000", "152359.070000", "152400.560000", "152402.050000", "152403.540000", "152405.030000", "152406.520000", "152408.010000", "152409.500000", "152410.990000", "152412.480000", "152413.970000", "152415.460000", "152416.950000", "152418.440000", "152419.930000", "152421.420000", "152422.910000", "152424.400000", "152425.890000", "152427.380000", "152428.870000", "152430.360000", "152431.850000", "152433.340000", "152434.830000", "152436.320000", "152437.810000", "152439.300000", "152440.790000", "152442.280000", "152443.770000", "152445.260000", "152446.750000", "152448.240000", "152449.730000", "152451.220000", "152452.710000", "152454.200000", "152455.690000", "152457.180000", "152458.670000", "152500.160000", "152501.650000", "152503.140000", "152504.630000", "152506.120000", "152507.610000", "152509.100000", "152510.590000", "152512.080000", "152513.570000", "152515.060000", "152516.550000", "152518.040000", "152519.530000", "152521.020000", "152522.510000", "152524.000000", "152525.490000", "152526.980000", "152528.470000", "152529.960000", "152531.450000", "152532.940000", "152534.430000", "152535.920000", "152537.410000", "152538.900000", "152540.390000", "152541.880000", "152543.370000", "152544.860000", "152546.350000", "152547.840000", "152549.330000", "152550.820000", "152552.310000", "152553.800000", "152555.290000", "152556.780000", "152558.270000"],
      "ContentTime": ["152219.924000", "152219.928000", "152219.931000", "152219.934000", "152219.938000", "152219.941000", "152219.945000", "152219.948000", "152219.951000", "152239.883000", "152239.887000", "152239.890000", "152239.893000", "152239.897000", "152239.900000", "152239.903000", "152239.907000", "152239.910000", "152239.913000", "152239.917000", "152239.920000", "152239.923000", "152239.927000", "152239.930000", "152239.933000", "152239.936000", "152239.940000", "152239.955000", "152239.958000", "152259.883000", "152259.887000", "152259.897000", "152259.900000", "152259.904000", "152259.907000", "152259.910000", "152259.913000", "152259.917000", "152259.920000", "152259.923000", "152259.927000", "152259.930000", "152259.933000", "152259.937000", "152259.940000", "152259.943000", "152259.947000", "152259.950000", "152259.953000", "152319.882000", "152319.886000", "152319.889000", "152319.892000", "152319.896000", "152319.899000", "152319.902000", "152319.906000", "152319.909000", "152319.912000", "152319.915000", "152319.919000", "152319.922000", "152319.925000", "152319.932000", "152319.935000", "152319.938000", "152319.941000", "152319.945000", "152319.948000", "152319.951000", "152339.882000", "152339.886000", "152339.889000", "152339.892000", "152339.896000", "152339.899000", "152339.902000", "152339.906000", "152339.909000", "152339.912000", "152339.915000", "152339.919000", "152339.922000", "152339.925000", "152339.932000", "152339.935000", "152339.938000", "152339.942000", "152339.945000", "152339.948000", "152419.883000", "152419.887000", "152419.890000", "152419.893000", "152419.897000", "152419.900000", "152419.903000", "152419.907000", "152419.910000", "152419.913000", "152419.916000", "152419.920000", "152419.923000", "152419.926000", "152419.929000", "152419.933000", "152419.936000", "152419.939000", "152419.943000", "152419.946000", "152419.949000", "152419.952000", "152419.956000", "152419.959000", "152419.962000", "152419.965000", "152419.969000", "152419.972000", "152419.975000", "152419.979000", "152419.982000", "152419.985000", "152459.893000", "152459.897000", "152459.900000", "152459.904000", "152459.907000", "152459.910000", "152459.914000", "152459.917000", "152459.920000", "152459.924000", "152459.927000", "152459.930000", "152459.933000", "152459.937000", "152459.940000", "152459.943000", "152459.947000", "152459.950000", "152459.953000", "152459.956000", "152459.960000", "152459.963000", "152459.966000", "152459.970000", "152459.973000", "152459.976000", "152459.979000", "152539.882000", "152539.886000", "152539.889000", "152539.892000", "152539.896000", "152539.899000", "152539.902000", "152539.906000", "152539.909000", "152539.912000", "152539.915000", "152539.919000", "152539.922000", "152539.925000", "152539.929000", "152539.932000", "152539.935000", "152539.938000", "152539.942000", "152539.945000", "152539.948000", "152539.951000", "152539.955000", "152539.958000", "152539.961000", "152539.965000", "152539.968000", "152600.087000", "152600.090000", "152600.094000", "152600.097000", "152600.100000", "152600.104000", "152600.107000", "152600.110000", "152600.114000", "152600.117000", "152600.121000", "152600.124000", "152600.128000", "152600.131000"],
      "InstanceCreationTime": ["152219.924000", "152219.928000", "152219.931000", "152219.934000", "152219.938000", "152219.941000", "152219.945000", "152219.948000", "152219.951000", "152239.883000", "152239.887000", "152239.890000", "152239.893000", "152239.897000", "152239.900000", "152239.903000", "152239.907000", "152239.910000", "152239.913000", "152239.917000", "152239.920000", "152239.923000", "152239.927000", "152239.930000", "152239.933000", "152239.936000", "152239.940000", "152239.955000", "152239.958000", "152259.883000", "152259.887000", "152259.897000", "152259.900000", "152259.904000", "152259.907000", "152259.910000", "152259.913000", "152259.917000", "152259.920000", "152259.923000", "152259.927000", "152259.930000", "152259.933000", "152259.937000", "152259.940000", "152259.943000", "152259.947000", "152259.950000", "152259.953000", "152319.882000", "152319.886000", "152319.889000", "152319.892000", "152319.896000", "152319.899000", "152319.902000", "152319.906000", "152319.909000", "152319.912000", "152319.915000", "152319.919000", "152319.922000", "152319.925000", "152319.932000", "152319.935000", "152319.938000", "152319.941000", "152319.945000", "152319.948000", "152319.951000", "152339.882000", "152339.886000", "152339.889000", "152339.892000", "152339.896000", "152339.899000", "152339.902000", "152339.906000", "152339.909000", "152339.912000", "152339.915000", "152339.919000", "152339.922000", "152339.925000", "152339.932000", "152339.935000", "152339.938000", "152339.942000", "152339.945000", "152339.948000", "152419.883000", "152419.887000", "152419.890000", "152419.893000", "152419.897000", "152419.900000", "152419.903000", "152419.907000", "152419.910000", "152419.913000", "152419.916000", "152419.920000", "152419.923000", "152419.926000", "152419.929000", "152419.933000", "152419.936000", "152419.939000", "152419.943000", "152419.946000", "152419.949000", "152419.952000", "152419.956000", "152419.959000", "152419.962000", "152419.965000", "152419.969000", "152419.972000", "152419.975000", "152419.979000", "152419.982000", "152419.985000", "152459.893000", "152459.897000", "152459.900000", "152459.904000", "152459.907000", "152459.910000", "152459.914000", "152459.917000", "152459.920000", "152459.924000", "152459.927000", "152459.930000", "152459.933000", "152459.937000", "152459.940000", "152459.943000", "152459.947000", "152459.950000", "152459.953000", "152459.956000", "152459.960000", "152459.963000", "152459.966000", "152459.970000", "152459.973000", "152459.976000", "152459.979000", "152539.882000", "152539.886000", "152539.889000", "152539.892000", "152539.896000", "152539.899000", "152539.902000", "152539.906000", "152539.909000", "152539.912000", "152539.915000", "152539.919000", "152539.922000", "152539.925000", "152539.929000", "152539.932000", "152539.935000", "152539.938000", "152539.942000", "152539.945000", "152539.948000", "152539.951000", "152539.955000", "152539.958000", "152539.961000", "152539.965000", "152539.968000", "152600.087000", "152600.090000", "152600.094000", "152600.097000", "152600.100000", "152600.104000", "152600.107000", "152600.110000", "152600.114000", "152600.117000", "152600.121000", "152600.124000", "152600.128000", "152600.131000"],
      "InstanceNumber": [1, 2, 3, 4, 5, 6, 7, 8, 9, 10, 11, 12, 13, 14, 15, 16, 17, 18, 19, 20, 21, 22, 23, 24, 25, 26, 27, 28, 29, 30, 31, 32, 33, 34, 35, 36, 37, 38, 39, 40, 41, 42, 43, 44, 45, 46, 47, 48, 49, 50, 51, 52, 53, 54, 55, 56, 57, 58, 59, 60, 61, 62, 63, 64, 65, 66, 67, 68, 69, 70, 71, 72, 73, 74, 75, 76, 77, 78, 79, 80, 81, 82, 83, 84, 85, 86, 87, 88, 89, 90, 91, 92, 93, 94, 95, 96, 97, 98, 99, 100, 101, 102, 103, 104, 105, 106, 107, 108, 109, 110, 111, 112, 113, 114, 115, 116, 117, 118, 119, 120, 121, 122, 123, 124, 125, 126, 127, 128, 129, 130, 131, 132, 133, 134, 135, 136, 137, 138, 139, 140, 141, 142, 143, 144, 145, 146, 147, 148, 149, 150, 151, 152, 153, 154, 155, 156, 157, 158, 159, 160, 161, 162, 163, 164, 165, 166, 167, 168, 169, 170, 171, 172, 173, 174, 175, 176, 177, 178, 179, 180, 181, 182, 183, 184, 185, 186, 187, 188, 189, 190],
      "LargestImagePixelValue": [44639, 42709, 42694, 41620, 41116, 41979, 41516, 43250, 42095, 42112, 43028, 42352, 42376, 42611, 41696, 42891, 42312, 42668, 42072, 41854, 41684, 41310, 42172, 41798, 42467, 42136, 42317, 42392, 42058, 42676, 41057, 41663, 41093, 40840, 41962, 41116, 41479, 42044, 42488, 42367, 42327, 41637, 42705, 41523, 42016, 41318, 41348, 42341, 41960, 42421, 42044, 42370, 41929, 42161, 42361, 41246, 42422, 41272, 41743, 40997, 42140, 42592, 41893, 42078, 41396, 42276, 41121, 42425, 40998, 41719, 41248, 41540, 41957, 41433, 42105, 41227, 41792, 40986, 41460, 41358, 41264, 41833, 40505, 41946, 40728, 41553, 40955, 42186, 41551, 41940, 41662, 41925, 41263, 41385, 43213, 41937, 42582, 41253, 41203, 41250, 40599, 41526, 41009, 42039, 40935, 42420, 41252, 41631, 41167, 40956, 40922, 40315, 41441, 40909, 41501, 40962, 41517, 40873, 40925, 40610, 41048, 40438, 40930, 41830, 43082, 41557, 40783, 40776, 42154, 43004, 42160, 40675, 40488, 40538, 40558, 40384, 40386, 40955, 40501, 40821, 40439, 40201, 40007, 40648, 40171, 40863, 40118, 40740, 40420, 40342, 40212, 40036, 40024, 40201, 40613, 40711, 40750, 40187, 40191, 40428, 40115, 40407, 40802, 40184, 40533, 40117, 39780, 40655, 40230, 39776, 40575, 39910, 40204, 40544, 40161, 40769, 40095, 41132, 40473, 40050, 40197, 39883, 40504, 40598, 39896, 39941, 42161, 40066, 40349, 41009],
      "WindowCenter": [10512.0, 10468.0, 10452.0, 10438.0, 10421.0, 10436.0, 10444.0, 10460.0, 10440.0, 10438.0, 10443.0, 10439.0, 10431.0, 10422.0, 10423.0, 10435.0, 10432.0, 10423.0, 10414.0, 10414.0, 10416.0, 10412.0, 10414.0, 10431.0, 10436.0, 10423.0, 10415.0, 10416.0, 10424.0, 10429.0, 10413.0, 10405.0, 10405.0, 10406.0, 10424.0, 10422.0, 10428.0, 10432.0, 10429.0, 10416.0, 10407.0, 10407.0, 10413.0, 10424.0, 10433.0, 10416.0, 10412.0, 10421.0, 10432.0, 10433.0, 10424.0, 10415.0, 10408.0, 10413.0, 10416.0, 10417.0, 10428.0, 10428.0, 10427.0, 10421.0, 10423.0, 10415.0, 10415.0, 10410.0, 10403.0, 10407.0, 10409.0, 10414.0, 10406.0, 10402.0, 10402.0, 10402.0, 10409.0, 10413.0, 10416.0, 10399.0, 10402.0, 10414.0, 10427.0, 10421.0, 10414.0, 10409.0, 10399.0, 10416.0, 10421.0, 10422.0, 10408.0, 10402.0, 10402.0, 10416.0, 10421.0, 10425.0, 10420.0, 10428.0, 10442.0, 10424.0, 10421.0, 10411.0, 10406.0, 10393.0, 10377.0, 10377.0, 10366.0, 10366.0, 10370.0, 10381.0, 10385.0, 10380.0, 10379.0, 10387.0, 10412.0, 10409.0, 10404.0, 10398.0, 10395.0, 10395.0, 10415.0, 10422.0, 10417.0, 10401.0, 10384.0, 10384.0, 10413.0, 10416.0, 10438.0, 10407.0, 10396.0, 10408.0, 10421.0, 10403.0, 10360.0, 10331.0, 10329.0, 10336.0, 10330.0, 10311.0, 10323.0, 10352.0, 10371.0, 10386.0, 10400.0, 10404.0, 10405.0, 10414.0, 10418.0, 10438.0, 10428.0, 10426.0, 10417.0, 10423.0, 10424.0, 10427.0, 10427.0, 10404.0, 10392.0, 10383.0, 10391.0, 10400.0, 10400.0, 10398.0, 10385.0, 10383.0, 10379.0, 10389.0, 10396.0, 10400.0, 10382.0, 10390.0, 10392.0, 10404.0, 10414.0, 10389.0, 10385.0, 10382.0, 10368.0, 10374.0, 10369.0, 10378.0, 10366.0, 10376.0, 10391.0, 10370.0, 10363.0, 10388.0, 10403.0, 10404.0, 10408.0, 10365.0, 10368.0, 10378.0],
      "WindowWidth": [22766.0, 22631.0, 22568.0, 22525.0, 22477.0, 22503.0, 22517.0, 22546.0, 22503.0, 22498.0, 22505.0, 22502.0, 22482.0, 22460.0, 22465.0, 22489.0, 22485.0, 22461.0, 22442.0, 22441.0, 22447.0, 22440.0, 22441.0, 22482.0, 22490.0, 22465.0, 22445.0, 22446.0, 22466.0, 22474.0, 22444.0, 22424.0, 22427.0, 22429.0, 22472.0, 22466.0, 22478.0, 22482.0, 22475.0, 22447.0, 22427.0, 22427.0, 22440.0, 22467.0, 22486.0, 22455.0, 22441.0, 22458.0, 22484.0, 22483.0, 22466.0, 22443.0, 22430.0, 22438.0, 22446.0, 22450.0, 22473.0, 22476.0, 22474.0, 22462.0, 22462.0, 22447.0, 22446.0, 22436.0, 22418.0, 22423.0, 22433.0, 22442.0, 22428.0, 22416.0, 22415.0, 22416.0, 22430.0, 22441.0, 22443.0, 22411.0, 22415.0, 22444.0, 22472.0, 22461.0, 22443.0, 22430.0, 22410.0, 22444.0, 22463.0, 22463.0, 22433.0, 22412.0, 22412.0, 22445.0, 22460.0, 22472.0, 22460.0, 22476.0, 22504.0, 22467.0, 22456.0, 22440.0, 22428.0, 22397.0, 22357.0, 22352.0, 22334.0, 22328.0, 22338.0, 22362.0, 22375.0, 22365.0, 22362.0, 22381.0, 22435.0, 22432.0, 22417.0, 22406.0, 22394.0, 22398.0, 22439.0, 22461.0, 22451.0, 22415.0, 22375.0, 22378.0, 22441.0, 22444.0, 22490.0, 22421.0, 22402.0, 22429.0, 22455.0, 22414.0, 22318.0, 22253.0, 22249.0, 22259.0, 22246.0, 22206.0, 22230.0, 22298.0, 22345.0, 22379.0, 22415.0, 22425.0, 22429.0, 22443.0, 22457.0, 22496.0, 22477.0, 22473.0, 22451.0, 22463.0, 22466.0, 22476.0, 22475.0, 22424.0, 22396.0, 22375.0, 22393.0, 22412.0, 22411.0, 22403.0, 22377.0, 22371.0, 22358.0, 22385.0, 22399.0, 22412.0, 22377.0, 22390.0, 22394.0, 22424.0, 22443.0, 22391.0, 22380.0, 22368.0, 22339.0, 22350.0, 22341.0, 22362.0, 22337.0, 22360.0, 22391.0, 22347.0, 22326.0, 22381.0, 22422.0, 22423.0, 22427.0, 22334.0, 22339.0, 22356.0]
    },
    "slices": {}
  }
}