{
  "AcquisitionMatrixPE": 104,
  "AcquisitionNumber": 1,
  "AcquisitionTime": "15:27:35.302500",
  "BandwidthPerPixelPhaseEncode": 17.17,
  "BaseResolution": 104,
  "BodyPartExamined": "BRAIN",
  "CoilString": "HC1-7;NC1_2",
  "ConsistencyInfo": "N4_VE11C_LATEST_20160120",
  "ConversionSoftware": "dcm2niix",
  "ConversionSoftwareVersion": "v1.0.20190902",
  "DerivedVendorReportedEchoSpacing": 0.000560011,
  "DeviceSerialNumber": "167006",
  "DwellTime": 2.1e-06,
  "EchoTime": 0.037,
  "EchoTrainLength": 104,
  "EffectiveEchoSpacing": 0.000560011,
  "FlipAngle": 52,
  "HeudiconvVersion": "0.10.0",
  "ImageComments": "Unaliased_MB4_PE3_LB",
  "ImageOrientationPatientDICOM": [0.999074, -0.0357622, 0.0239149, 0.0418736, 0.935889, -0.349798],
  "ImageType": [
    "ORIGINAL",
    "PRIMARY",
    "M",
    "MB",
    "ND",
    "MOSAIC"
],
  "ImagingFrequency": 123.259,
  "InPlanePhaseEncodingDirectionDICOM": "COL",
  "InstitutionAddress": "Chemin_Queen-Mary_4565_Montreal_District_CA_H3W_1W5",
  "InstitutionName": "IUGM",
  "InstitutionalDepartmentName": "Department",
  "MRAcquisitionType": "2D",
  "MagneticFieldStrength": 3,
  "Manufacturer": "Siemens",
  "ManufacturersModelName": "Prisma_fit",
  "Modality": "MR",
  "MultibandAccelerationFactor": 4,
  "PartialFourier": 1,
  "PatientPosition": "HFS",
  "PercentPhaseFOV": 100,
  "PhaseEncodingDirection": "j",
  "PhaseEncodingSteps": 104,
  "PhaseResolution": 1,
  "PixelBandwidth": 2290,
  "ProcedureStepDescription": "memory_things",
  "ProtocolName": "func_task-things_run-2",
  "PulseSequenceDetails": "%CustomerSeq%_cmrr_mbep2d_bold",
  "ReceiveCoilActiveElements": "HC1-7;NC1,2",
  "ReceiveCoilName": "HeadNeck_64",
  "ReconMatrixPE": 104,
  "RepetitionTime": 1.49,
  "SAR": 0.0492822,
  "ScanOptions": "FS",
  "ScanningSequence": "EP",
  "SequenceName": "epfid2d1_104",
  "SequenceVariant": "SK_SS",
  "SeriesDescription": "func_task-things_run-2",
  "SeriesNumber": 13,
  "ShimSetting": [624, -7251, -8827, 569, -14, -241, -71, -23],
  "SliceThickness": 2,
  "SliceTiming": [0, 0.7825, 0.0975, 0.88, 0.195, 0.9775, 0.2925, 1.0775, 0.39, 1.175, 0.4875, 1.2725, 0.5875, 1.37, 0.685, 0, 0.7825, 0.0975, 0.88, 0.195, 0.9775, 0.2925, 1.0775, 0.39, 1.175, 0.4875, 1.2725, 0.5875, 1.37, 0.685, 0, 0.7825, 0.0975, 0.88, 0.195, 0.9775, 0.2925, 1.0775, 0.39, 1.175, 0.4875, 1.2725, 0.5875, 1.37, 0.685, 0, 0.7825, 0.0975, 0.88, 0.195, 0.9775, 0.2925, 1.0775, 0.39, 1.175, 0.4875, 1.2725, 0.5875, 1.37, 0.685],
  "SoftwareVersions": "syngo_MR_E11",
  "SpacingBetweenSlices": 2,
  "StationName": "MRC35049",
  "TaskName": "things",
  "TotalReadoutTime": 0.0576811,
  "TxRefAmp": 255.364,
  "WipMemBlock": "c8b09b64-7a32-42f6-bedb-06751c56b71a||Sequence: R016 ve11c/master r/e634e98; Dec 19 2017 11:00:25 by eja",
  "dcmmeta_affine": [
    [-1.9981483221054077, 0.08374722301959991, 0.019744200631976128, 102.78905487060547],
    [0.07152444124221802, 1.8717775344848633, -0.7009515762329102, -67.42516326904297],
    [0.047829750925302505, 0.6995965242385864, 1.8730394840240479, -66.76980590820312],
    [0.0, 0.0, 0.0, 1.0]
],
  "dcmmeta_reorient_transform": [
    [0.0, -1.0, 0.0, 103.0],
    [1.0, 0.0, 0.0, 0.0],
    [0.0, 0.0, 1.0, 0.0],
    [0.0, 0.0, 0.0, 1.0]
],
  "dcmmeta_shape": [104, 104, 60, 190],
  "dcmmeta_slice_dim": 2,
  "dcmmeta_version": 0.6,
  "global": {
    "const": {
      "AcquisitionMatrix": [104, 0, 0, 104],
      "AngioFlag": "N",
      "BitsAllocated": 16,
      "BitsStored": 16,
      "BodyPartExamined": "BRAIN",
      "Columns": 832,
      "EchoNumbers": 1,
      "EchoTime": 37.0,
      "EchoTrainLength": 104,
      "FlipAngle": 52.0,
      "HighBit": 15,
      "ImageOrientationPatient": [0.99907414259308, -0.0357622197861, 0.02391487482453, 0.0418736102778, 0.93588876300746, -0.3497982619149],
      "ImagePositionPatient": [-869.22498566697, -780.66004660968, 242.53174472177],
      "ImageType": [
        "ORIGINAL",
        "PRIMARY",
        "M",
        "MB",
        "ND",
        "MOSAIC"
],
      "ImagedNucleus": "1H",
      "ImagingFrequency": 123.25886,
      "InPlanePhaseEncodingDirection": "COL",
      "MRAcquisitionType": "2D",
      "MagneticFieldStrength": 3.0,
      "Manufacturer": "SIEMENS",
      "ManufacturerModelName": "Prisma_fit",
      "Modality": "MR",
      "NumberOfAverages": 1.0,
      "NumberOfPhaseEncodingSteps": 104,
      "PercentPhaseFieldOfView": 100.0,
      "PercentSampling": 100.0,
      "PerformedProcedureStepStartTime": "145904.354000",
      "PhotometricInterpretation": "MONOCHROME2",
      "PixelBandwidth": 2290.0,
      "PixelRepresentation": 0,
      "PixelSpacing": [2.0, 2.0],
      "ProtocolName": "func_task-things_run-2",
      "RepetitionTime": 1490.0,
      "Rows": 832,
      "SAR": 0.04928222152169,
      "SamplesPerPixel": 1,
      "ScanOptions": "FS",
      "ScanningSequence": "EP",
      "SequenceName": "epfid2d1_104",
      "SequenceVariant": [
        "SK",
        "SS"
],
      "SeriesDescription": "func_task-things_run-2",
      "SeriesNumber": 13,
      "SeriesTime": "152851.498000",
      "SliceLocation": -37.885608150683,
      "SliceThickness": 2.0,
      "SmallestImagePixelValue": 0,
      "SoftwareVersions": "syngo MR E11",
      "SpacingBetweenSlices": 1.9999999939071,
      "SpecificCharacterSet": "ISO_IR 100",
      "StudyID": "1",
      "StudyTime": "145904.263000",
      "TransmitCoilName": "Body",
      "VariableFlipAngleFlag": "N",
      "WindowCenterWidthExplanation": "Algo1",
      "dBdt": 0.0},
    "slices": {}
  },
  "time": {
    "samples": {
      "AcquisitionNumber": [1, 2, 3, 4, 5, 6, 7, 8, 9, 10, 11, 12, 13, 14, 15, 16, 17, 18, 19, 20, 21, 22, 23, 24, 25, 26, 27, 28, 29, 30, 31, 32, 33, 34, 35, 36, 37, 38, 39, 40, 41, 42, 43, 44, 45, 46, 47, 48, 49, 50, 51, 52, 53, 54, 55, 56, 57, 58, 59, 60, 61, 62, 63, 64, 65, 66, 67, 68, 69, 70, 71, 72, 73, 74, 75, 76, 77, 78, 79, 80, 81, 82, 83, 84, 85, 86, 87, 88, 89, 90, 91, 92, 93, 94, 95, 96, 97, 98, 99, 100, 101, 102, 103, 104, 105, 106, 107, 108, 109, 110, 111, 112, 113, 114, 115, 116, 117, 118, 119, 120, 121, 122, 123, 124, 125, 126, 127, 128, 129, 130, 131, 132, 133, 134, 135, 136, 137, 138, 139, 140, 141, 142, 143, 144, 145, 146, 147, 148, 149, 150, 151, 152, 153, 154, 155, 156, 157, 158, 159, 160, 161, 162, 163, 164, 165, 166, 167, 168, 169, 170, 171, 172, 173, 174, 175, 176, 177, 178, 179, 180, 181, 182, 183, 184, 185, 186, 187, 188, 189, 190],
      "AcquisitionTime": ["152735.302500", "152736.792500", "152738.282500", "152739.772500", "152741.262500", "152742.752500", "152744.242500", "152745.732500", "152747.222500", "152748.712500", "152750.202500", "152751.692500", "152753.182500", "152754.672500", "152756.162500", "152757.652500", "152759.142500", "152800.632500", "152802.122500", "152803.612500", "152805.102500", "152806.592500", "152808.082500", "152809.572500", "152811.062500", "152812.552500", "152814.042500", "152815.532500", "152817.022500", "152818.512500", "152820.002500", "152821.492500", "152822.982500", "152824.472500", "152825.962500", "152827.452500", "152828.942500", "152830.432500", "152831.922500", "152833.412500", "152834.902500", "152836.392500", "152837.882500", "152839.372500", "152840.862500", "152842.352500", "152843.842500", "152845.332500", "152846.822500", "152848.312500", "152849.802500", "152851.292500", "152852.782500", "152854.272500", "152855.762500", "152857.252500", "152858.742500", "152900.232500", "152901.722500", "152903.212500", "152904.702500", "152906.192500", "152907.682500", "152909.172500", "152910.662500", "152912.152500", "152913.642500", "152915.132500", "152916.622500", "152918.112500", "152919.602500", "152921.092500", "152922.582500", "152924.072500", "152925.562500", "152927.052500", "152928.542500", "152930.032500", "152931.522500", "152933.012500", "152934.502500", "152935.992500", "152937.482500", "152938.972500", "152940.462500", "152941.952500", "152943.442500", "152944.932500", "152946.422500", "152947.912500", "152949.402500", "152950.892500", "152952.382500", "152953.872500", "152955.362500", "152956.852500", "152958.342500", "152959.832500", "153001.322500", "153002.812500", "153004.302500", "153005.792500", "153007.282500", "153008.772500", "153010.262500", "153011.752500", "153013.242500", "153014.732500", "153016.222500", "153017.712500", "153019.202500", "153020.692500", "153022.182500", "153023.672500", "153025.162500", "153026.652500", "153028.142500", "153029.632500", "153031.122500", "153032.612500", "153034.102500", "153035.592500", "153037.082500", "153038.572500", "153040.062500", "153041.552500", "153043.042500", "153044.532500", "153046.022500", "153047.512500", "153049.002500", "153050.492500", "153051.982500", "153053.472500", "153054.962500", "153056.452500", "153057.942500", "153059.432500", "153100.922500", "153102.412500", "153103.902500", "153105.392500", "153106.882500", "153108.372500", "153109.862500", "153111.352500", "153112.842500", "153114.332500", "153115.822500", "153117.312500", "153118.802500", "153120.292500", "153121.782500", "153123.272500", "153124.762500", "153126.252500", "153127.742500", "153129.232500", "153130.722500", "153132.212500", "153133.702500", "153135.192500", "153136.682500", "153138.172500", "153139.662500", "153141.152500", "153142.642500", "153144.132500", "153145.622500", "153147.112500", "153148.602500", "153150.092500", "153151.582500", "153153.072500", "153154.562500", "153156.052500", "153157.542500", "153159.032500", "153200.522500", "153202.012500", "153203.502500", "153204.992500", "153206.482500", "153207.972500", "153209.462500", "153210.952500", "153212.442500", "153213.932500", "153215.422500", "153216.912500"],
      "ContentTime": ["152851.502000", "152851.505000", "152851.509000", "152851.512000", "152851.515000", "152851.519000", "152851.522000", "152851.525000", "152851.528000", "152851.532000", "152851.535000", "152851.538000", "152851.541000", "152851.545000", "152851.548000", "152851.551000", "152851.555000", "152851.558000", "152851.561000", "152851.564000", "152851.568000", "152911.466000", "152911.470000", "152911.473000", "152911.476000", "152911.489000", "152911.492000", "152911.496000", "152911.499000", "152911.502000", "152911.505000", "152911.508000", "152911.512000", "152911.515000", "152911.518000", "152911.521000", "152911.525000", "152911.528000", "152911.531000", "152911.534000", "152911.538000", "152931.466000", "152931.470000", "152931.473000", "152931.476000", "152931.479000", "152931.483000", "152931.486000", "152931.489000", "152931.500000", "152931.503000", "152931.506000", "152931.509000", "152931.513000", "152931.516000", "152931.519000", "152931.522000", "152931.526000", "152931.529000", "152931.532000", "152931.536000", "152951.466000", "152951.470000", "152951.473000", "152951.476000", "152951.480000", "152951.483000", "152951.486000", "152951.489000", "152951.494000", "152951.497000", "152951.500000", "152951.503000", "152951.507000", "152951.510000", "152951.513000", "152951.516000", "152951.520000", "152951.523000", "152951.526000", "152951.530000", "153011.467000", "153011.471000", "153011.474000", "153011.477000", "153011.481000", "153011.484000", "153011.488000", "153011.491000", "153011.496000", "153011.499000", "153011.503000", "153011.506000", "153011.509000", "153011.513000", "153011.516000", "153011.519000", "153011.522000", "153011.526000", "153011.529000", "153011.532000", "153051.466000", "153051.470000", "153051.473000", "153051.476000", "153051.480000", "153051.483000", "153051.486000", "153051.489000", "153051.493000", "153051.496000", "153051.499000", "153051.503000", "153051.506000", "153051.509000", "153051.512000", "153051.516000", "153051.519000", "153051.523000", "153051.526000", "153051.529000", "153051.532000", "153051.536000", "153051.539000", "153051.542000", "153051.546000", "153051.549000", "153051.552000", "153051.556000", "153051.560000", "153131.466000", "153131.470000", "153131.473000", "153131.477000", "153131.480000", "153131.483000", "153131.486000", "153131.490000", "153131.493000", "153131.497000", "153131.500000", "153131.503000", "153131.507000", "153131.510000", "153131.513000", "153131.517000", "153131.520000", "153131.523000", "153131.526000", "153131.530000", "153131.533000", "153131.536000", "153131.540000", "153131.543000", "153131.546000", "153131.549000", "153131.553000", "153211.467000", "153211.471000", "153211.474000", "153211.478000", "153211.481000", "153211.484000", "153211.488000", "153211.491000", "153211.494000", "153211.498000", "153211.501000", "153211.504000", "153211.508000", "153211.511000", "153211.514000", "153211.517000", "153211.521000", "153211.524000", "153211.527000", "153211.531000", "153211.534000", "153211.538000", "153211.541000", "153211.544000", "153211.547000", "153211.551000", "153211.554000", "153219.541000", "153219.544000", "153219.548000", "153219.551000", "153219.555000", "153219.558000"],
      "InstanceCreationTime": ["152851.502000", "152851.505000", "152851.509000", "152851.512000", "152851.515000", "152851.519000", "152851.522000", "152851.525000", "152851.528000", "152851.532000", "152851.535000", "152851.538000", "152851.541000", "152851.545000", "152851.548000", "152851.551000", "152851.555000", "152851.558000", "152851.561000", "152851.564000", "152851.568000", "152911.466000", "152911.470000", "152911.473000", "152911.476000", "152911.489000", "152911.492000", "152911.496000", "152911.499000", "152911.502000", "152911.505000", "152911.508000", "152911.512000", "152911.515000", "152911.518000", "152911.521000", "152911.525000", "152911.528000", "152911.531000", "152911.534000", "152911.538000", "152931.466000", "152931.470000", "152931.473000", "152931.476000", "152931.479000", "152931.483000", "152931.486000", "152931.489000", "152931.500000", "152931.503000", "152931.506000", "152931.509000", "152931.513000", "152931.516000", "152931.519000", "152931.522000", "152931.526000", "152931.529000", "152931.532000", "152931.536000", "152951.466000", "152951.470000", "152951.473000", "152951.476000", "152951.480000", "152951.483000", "152951.486000", "152951.489000", "152951.494000", "152951.497000", "152951.500000", "152951.503000", "152951.507000", "152951.510000", "152951.513000", "152951.516000", "152951.520000", "152951.523000", "152951.526000", "152951.530000", "153011.467000", "153011.471000", "153011.474000", "153011.477000", "153011.481000", "153011.484000", "153011.488000", "153011.491000", "153011.496000", "153011.499000", "153011.503000", "153011.506000", "153011.509000", "153011.513000", "153011.516000", "153011.519000", "153011.522000", "153011.526000", "153011.529000", "153011.532000", "153051.466000", "153051.470000", "153051.473000", "153051.476000", "153051.480000", "153051.483000", "153051.486000", "153051.489000", "153051.493000", "153051.496000", "153051.499000", "153051.503000", "153051.506000", "153051.509000", "153051.512000", "153051.516000", "153051.519000", "153051.523000", "153051.526000", "153051.529000", "153051.532000", "153051.536000", "153051.539000", "153051.542000", "153051.546000", "153051.549000", "153051.552000", "153051.556000", "153051.560000", "153131.466000", "153131.470000", "153131.473000", "153131.477000", "153131.480000", "153131.483000", "153131.486000", "153131.490000", "153131.493000", "153131.497000", "153131.500000", "153131.503000", "153131.507000", "153131.510000", "153131.513000", "153131.517000", "153131.520000", "153131.523000", "153131.526000", "153131.530000", "153131.533000", "153131.536000", "153131.540000", "153131.543000", "153131.546000", "153131.549000", "153131.553000", "153211.467000", "153211.471000", "153211.474000", "153211.478000", "153211.481000", "153211.484000", "153211.488000", "153211.491000", "153211.494000", "153211.498000", "153211.501000", "153211.504000", "153211.508000", "153211.511000", "153211.514000", "153211.517000", "153211.521000", "153211.524000", "153211.527000", "153211.531000", "153211.534000", "153211.538000", "153211.541000", "153211.544000", "153211.547000", "153211.551000", "153211.554000", "153219.541000", "153219.544000", "153219.548000", "153219.551000", "153219.555000", "153219.558000"],
      "InstanceNumber": [1, 2, 3, 4, 5, 6, 7, 8, 9, 10, 11, 12, 13, 14, 15, 16, 17, 18, 19, 20, 21, 22, 23, 24, 25, 26, 27, 28, 29, 30, 31, 32, 33, 34, 35, 36, 37, 38, 39, 40, 41, 42, 43, 44, 45, 46, 47, 48, 49, 50, 51, 52, 53, 54, 55, 56, 57, 58, 59, 60, 61, 62, 63, 64, 65, 66, 67, 68, 69, 70, 71, 72, 73, 74, 75, 76, 77, 78, 79, 80, 81, 82, 83, 84, 85, 86, 87, 88, 89, 90, 91, 92, 93, 94, 95, 96, 97, 98, 99, 100, 101, 102, 103, 104, 105, 106, 107, 108, 109, 110, 111, 112, 113, 114, 115, 116, 117, 118, 119, 120, 121, 122, 123, 124, 125, 126, 127, 128, 129, 130, 131, 132, 133, 134, 135, 136, 137, 138, 139, 140, 141, 142, 143, 144, 145, 146, 147, 148, 149, 150, 151, 152, 153, 154, 155, 156, 157, 158, 159, 160, 161, 162, 163, 164, 165, 166, 167, 168, 169, 170, 171, 172, 173, 174, 175, 176, 177, 178, 179, 180, 181, 182, 183, 184, 185, 186, 187, 188, 189, 190],
      "LargestImagePixelValue": [44722, 42909, 41460, 42413, 42093, 41334, 41317, 40740, 40288, 41024, 40729, 40674, 40914, 40909, 40099, 40416, 40130, 40306, 40260, 40230, 40318, 40268, 40650, 40818, 40993, 40680, 39391, 40434, 40664, 40363, 40729, 41593, 40914, 41443, 40866, 40944, 40132, 39457, 39916, 40653, 40995, 40695, 39933, 40958, 40435, 39403, 39935, 40033, 40144, 39597, 40281, 40553, 40022, 40732, 40216, 40740, 39518, 40667, 39134, 40025, 39447, 40156, 39583, 39772, 39953, 39852, 40335, 39610, 39653, 40594, 39842, 40735, 39726, 39843, 38994, 39978, 39904, 40277, 39600, 40504, 39468, 40282, 39702, 40427, 39370, 40125, 39256, 40518, 39975, 39320, 39843, 39129, 40414, 39590, 39843, 39687, 40099, 39866, 39315, 39520, 39701, 41133, 41423, 40521, 40162, 40192, 39158, 40108, 40126, 39823, 41138, 41551, 41296, 40760, 40571, 39771, 39722, 39715, 39942, 39705, 40005, 40579, 40160, 40292, 40471, 39664, 39650, 39705, 39828, 40438, 40042, 40514, 40551, 40805, 40783, 41036, 40352, 40632, 40578, 40317, 40418, 40485, 39930, 40352, 39736, 40834, 40378, 40202, 41083, 41136, 40191, 40318, 40028, 40502, 40194, 40595, 40792, 40313, 41112, 40233, 40862, 40701, 40990, 40963, 40596, 40513, 40383, 40537, 40284, 40652, 40272, 40125, 40845, 41096, 40796, 40657, 41024, 40411, 40261, 40292, 40638, 40832, 40672, 40403, 40346, 40388, 39960, 40218, 40222, 39938],
      "WindowCenter": [10409.0, 10365.0, 10388.0, 10434.0, 10419.0, 10364.0, 10336.0, 10333.0, 10321.0, 10316.0, 10302.0, 10295.0, 10299.0, 10301.0, 10310.0, 10339.0, 10338.0, 10332.0, 10338.0, 10331.0, 10337.0, 10344.0, 10357.0, 10373.0, 10396.0, 10386.0, 10355.0, 10343.0, 10338.0, 10330.0, 10363.0, 10398.0, 10364.0, 10323.0, 10291.0, 10287.0, 10268.0, 10265.0, 10289.0, 10319.0, 10322.0, 10309.0, 10303.0, 10334.0, 10343.0, 10330.0, 10327.0, 10340.0, 10341.0, 10330.0, 10338.0, 10362.0, 10367.0, 10350.0, 10326.0, 10314.0, 10310.0, 10344.0, 10354.0, 10360.0, 10336.0, 10312.0, 10303.0, 10304.0, 10321.0, 10332.0, 10331.0, 10325.0, 10326.0, 10331.0, 10299.0, 10316.0, 10347.0, 10365.0, 10332.0, 10296.0, 10284.0, 10297.0, 10308.0, 10328.0, 10319.0, 10323.0, 10302.0, 10305.0, 10308.0, 10338.0, 10321.0, 10315.0, 10308.0, 10326.0, 10355.0, 10334.0, 10331.0, 10318.0, 10318.0, 10275.0, 10279.0, 10344.0, 10352.0, 10343.0, 10326.0, 10349.0, 10334.0, 10326.0, 10297.0, 10293.0, 10292.0, 10283.0, 10275.0, 10265.0, 10321.0, 10342.0, 10303.0, 10231.0, 10227.0, 10253.0, 10259.0, 10231.0, 10218.0, 10218.0, 10249.0, 10273.0, 10294.0, 10295.0, 10272.0, 10267.0, 10324.0, 10359.0, 10354.0, 10353.0, 10337.0, 10332.0, 10333.0, 10339.0, 10334.0, 10338.0, 10326.0, 10319.0, 10318.0, 10325.0, 10334.0, 10334.0, 10314.0, 10309.0, 10297.0, 10320.0, 10331.0, 10340.0, 10334.0, 10328.0, 10323.0, 10332.0, 10336.0, 10326.0, 10311.0, 10312.0, 10327.0, 10347.0, 10355.0, 10354.0, 10334.0, 10326.0, 10314.0, 10297.0, 10280.0, 10281.0, 10280.0, 10272.0, 10263.0, 10299.0, 10321.0, 10327.0, 10310.0, 10282.0, 10243.0, 10251.0, 10283.0, 10312.0, 10301.0, 10283.0, 10272.0, 10286.0, 10304.0, 10317.0, 10324.0, 10310.0, 10312.0, 10324.0, 10311.0, 10297.0],
      "WindowWidth": [22520.0, 22380.0, 22402.0, 22501.0, 22464.0, 22328.0, 22256.0, 22249.0, 22223.0, 22209.0, 22175.0, 22160.0, 22168.0, 22177.0, 22199.0, 22268.0, 22263.0, 22248.0, 22262.0, 22245.0, 22256.0, 22277.0, 22305.0, 22344.0, 22403.0, 22377.0, 22312.0, 22280.0, 22268.0, 22252.0, 22332.0, 22413.0, 22331.0, 22230.0, 22153.0, 22140.0, 22100.0, 22096.0, 22149.0, 22213.0, 22224.0, 22194.0, 22186.0, 22249.0, 22277.0, 22249.0, 22237.0, 22266.0, 22269.0, 22249.0, 22264.0, 22316.0, 22328.0, 22290.0, 22236.0, 22207.0, 22203.0, 22277.0, 22307.0, 22315.0, 22262.0, 22208.0, 22187.0, 22191.0, 22223.0, 22249.0, 22244.0, 22236.0, 22239.0, 22250.0, 22177.0, 22210.0, 22287.0, 22326.0, 22258.0, 22173.0, 22143.0, 22171.0, 22198.0, 22241.0, 22224.0, 22230.0, 22183.0, 22190.0, 22199.0, 22263.0, 22231.0, 22214.0, 22199.0, 22241.0, 22302.0, 22260.0, 22246.0, 22219.0, 22221.0, 22124.0, 22126.0, 22273.0, 22297.0, 22284.0, 22239.0, 22288.0, 22259.0, 22241.0, 22169.0, 22156.0, 22161.0, 22137.0, 22119.0, 22099.0, 22226.0, 22276.0, 22183.0, 22018.0, 22003.0, 22062.0, 22078.0, 22016.0, 21981.0, 21983.0, 22057.0, 22113.0, 22161.0, 22163.0, 22113.0, 22101.0, 22230.0, 22313.0, 22303.0, 22296.0, 22259.0, 22244.0, 22247.0, 22262.0, 22253.0, 22261.0, 22234.0, 22216.0, 22214.0, 22233.0, 22255.0, 22254.0, 22209.0, 22194.0, 22174.0, 22221.0, 22246.0, 22270.0, 22256.0, 22236.0, 22228.0, 22248.0, 22259.0, 22235.0, 22204.0, 22203.0, 22239.0, 22285.0, 22300.0, 22305.0, 22255.0, 22236.0, 22208.0, 22169.0, 22130.0, 22131.0, 22130.0, 22113.0, 22091.0, 22174.0, 22220.0, 22239.0, 22194.0, 22126.0, 22040.0, 22058.0, 22127.0, 22197.0, 22174.0, 22132.0, 22107.0, 22140.0, 22183.0, 22213.0, 22229.0, 22200.0, 22204.0, 22227.0, 22198.0, 22170.0]
    },
    "slices": {}
  }
}