{
  "AcquisitionMatrixPE": 104,
  "AcquisitionNumber": 1,
  "AcquisitionTime": "15:34:5.780000",
  "BandwidthPerPixelPhaseEncode": 17.17,
  "BaseResolution": 104,
  "BodyPartExamined": "BRAIN",
  "CoilString": "HC1-7;NC1_2",
  "ConsistencyInfo": "N4_VE11C_LATEST_20160120",
  "ConversionSoftware": "dcm2niix",
  "ConversionSoftwareVersion": "v1.0.20190902",
  "DerivedVendorReportedEchoSpacing": 0.000560011,
  "DeviceSerialNumber": "167006",
  "DwellTime": 2.1e-06,
  "EchoTime": 0.037,
  "EchoTrainLength": 104,
  "EffectiveEchoSpacing": 0.000560011,
  "FlipAngle": 52,
  "HeudiconvVersion": "0.10.0",
  "ImageComments": "Unaliased_MB4_PE3_LB",
  "ImageOrientationPatientDICOM": [0.999074, -0.0357622, 0.0239149, 0.0418736, 0.935889, -0.349798],
  "ImageType": [
    "ORIGINAL",
    "PRIMARY",
    "P",
    "MB",
    "ND",
    "MOSAIC"
],
  "ImagingFrequency": 123.259,
  "InPlanePhaseEncodingDirectionDICOM": "COL",
  "InstitutionAddress": "Chemin_Queen-Mary_4565_Montreal_District_CA_H3W_1W5",
  "InstitutionName": "IUGM",
  "InstitutionalDepartmentName": "Department",
  "MRAcquisitionType": "2D",
  "MagneticFieldStrength": 3,
  "Manufacturer": "Siemens",
  "ManufacturersModelName": "Prisma_fit",
  "Modality": "MR",
  "MultibandAccelerationFactor": 4,
  "PartialFourier": 1,
  "PatientPosition": "HFS",
  "PercentPhaseFOV": 100,
  "PhaseEncodingDirection": "j",
  "PhaseEncodingSteps": 104,
  "PhaseResolution": 1,
  "PixelBandwidth": 2290,
  "ProcedureStepDescription": "memory_things",
  "ProtocolName": "func_task-things_run-3",
  "PulseSequenceDetails": "%CustomerSeq%_cmrr_mbep2d_bold",
  "ReceiveCoilActiveElements": "HC1-7;NC1,2",
  "ReceiveCoilName": "HeadNeck_64",
  "ReconMatrixPE": 104,
  "RepetitionTime": 1.49,
  "SAR": 0.0492822,
  "ScanOptions": "FS",
  "ScanningSequence": "EP",
  "SequenceName": "epfid2d1_104",
  "SequenceVariant": "SK_SS",
  "SeriesDescription": "func_task-things_run-3",
  "SeriesNumber": 17,
  "ShimSetting": [624, -7251, -8827, 569, -14, -241, -71, -23],
  "SliceThickness": 2,
  "SliceTiming": [0, 0.785, 0.0975, 0.8825, 0.1975, 0.98, 0.295, 1.0775, 0.3925, 1.1775, 0.49, 1.275, 0.5875, 1.3725, 0.6875, 0, 0.785, 0.0975, 0.8825, 0.1975, 0.98, 0.295, 1.0775, 0.3925, 1.1775, 0.49, 1.275, 0.5875, 1.3725, 0.6875, 0, 0.785, 0.0975, 0.8825, 0.1975, 0.98, 0.295, 1.0775, 0.3925, 1.1775, 0.49, 1.275, 0.5875, 1.3725, 0.6875, 0, 0.785, 0.0975, 0.8825, 0.1975, 0.98, 0.295, 1.0775, 0.3925, 1.1775, 0.49, 1.275, 0.5875, 1.3725, 0.6875],
  "SoftwareVersions": "syngo_MR_E11",
  "SpacingBetweenSlices": 2,
  "StationName": "MRC35049",
  "TaskName": "things",
  "TotalReadoutTime": 0.0576811,
  "TxRefAmp": 255.364,
  "WipMemBlock": "4e184704-09e4-4551-8cc4-e992e020d968||Sequence: R016 ve11c/master r/e634e98; Dec 19 2017 11:00:25 by eja",
  "dcmmeta_affine": [
    [-1.9981483221054077, 0.08374722301959991, 0.019744200631976128, 102.78905487060547],
    [0.07152444124221802, 1.8717775344848633, -0.7009515762329102, -67.42516326904297],
    [0.047829750925302505, 0.6995965242385864, 1.8730394840240479, -66.76980590820312],
    [0.0, 0.0, 0.0, 1.0]
],
  "dcmmeta_reorient_transform": [
    [0.0, -1.0, 0.0, 103.0],
    [1.0, 0.0, 0.0, 0.0],
    [0.0, 0.0, 1.0, 0.0],
    [0.0, 0.0, 0.0, 1.0]
],
  "dcmmeta_shape": [104, 104, 60, 190],
  "dcmmeta_slice_dim": 2,
  "dcmmeta_version": 0.6,
  "global": {
    "const": {
      "AcquisitionMatrix": [104, 0, 0, 104],
      "AngioFlag": "N",
      "BitsAllocated": 16,
      "BitsStored": 16,
      "BodyPartExamined": "BRAIN",
      "Columns": 832,
      "EchoNumbers": 1,
      "EchoTime": 37.0,
      "EchoTrainLength": 104,
      "FlipAngle": 52.0,
      "HighBit": 15,
      "ImageOrientationPatient": [0.99907414259308, -0.0357622197861, 0.02391487482453, 0.0418736102778, 0.93588876300746, -0.3497982619149],
      "ImagePositionPatient": [-869.22498566697, -780.66004660968, 242.53174472177],
      "ImageType": [
        "ORIGINAL",
        "PRIMARY",
        "P",
        "MB",
        "ND",
        "MOSAIC"
],
      "ImagedNucleus": "1H",
      "ImagingFrequency": 123.258862,
      "InPlanePhaseEncodingDirection": "COL",
      "LargestImagePixelValue": 4095,
      "MRAcquisitionType": "2D",
      "MagneticFieldStrength": 3.0,
      "Manufacturer": "SIEMENS",
      "ManufacturerModelName": "Prisma_fit",
      "Modality": "MR",
      "NumberOfAverages": 1.0,
      "NumberOfPhaseEncodingSteps": 104,
      "PercentPhaseFieldOfView": 100.0,
      "PercentSampling": 100.0,
      "PerformedProcedureStepStartTime": "145904.354000",
      "PhotometricInterpretation": "MONOCHROME2",
      "PixelBandwidth": 2290.0,
      "PixelRepresentation": 0,
      "PixelSpacing": [2.0, 2.0],
      "ProtocolName": "func_task-things_run-3",
      "RepetitionTime": 1490.0,
      "RescaleIntercept": -4096.0,
      "RescaleSlope": 2.0,
      "RescaleType": "US",
      "Rows": 832,
      "SAR": 0.04928222152169,
      "SamplesPerPixel": 1,
      "ScanOptions": "FS",
      "ScanningSequence": "EP",
      "SequenceName": "epfid2d1_104",
      "SequenceVariant": [
        "SK",
        "SS"
],
      "SeriesDescription": "func_task-things_run-3",
      "SeriesNumber": 17,
      "SeriesTime": "153542.707000",
      "SliceLocation": -37.885608150683,
      "SliceThickness": 2.0,
      "SmallestImagePixelValue": 0,
      "SoftwareVersions": "syngo MR E11",
      "SpacingBetweenSlices": 1.9999999939071,
      "SpecificCharacterSet": "ISO_IR 100",
      "StudyID": "1",
      "StudyTime": "145904.263000",
      "TransmitCoilName": "Body",
      "VariableFlipAngleFlag": "N",
      "WindowCenterWidthExplanation": "Algo1",
      "dBdt": 0.0},
    "slices": {}
  },
  "time": {
    "samples": {
      "AcquisitionNumber": [1, 2, 3, 4, 5, 6, 7, 8, 9, 10, 11, 12, 13, 14, 15, 16, 17, 18, 19, 20, 21, 22, 23, 24, 25, 26, 27, 28, 29, 30, 31, 32, 33, 34, 35, 36, 37, 38, 39, 40, 41, 42, 43, 44, 45, 46, 47, 48, 49, 50, 51, 52, 53, 54, 55, 56, 57, 58, 59, 60, 61, 62, 63, 64, 65, 66, 67, 68, 69, 70, 71, 72, 73, 74, 75, 76, 77, 78, 79, 80, 81, 82, 83, 84, 85, 86, 87, 88, 89, 90, 91, 92, 93, 94, 95, 96, 97, 98, 99, 100, 101, 102, 103, 104, 105, 106, 107, 108, 109, 110, 111, 112, 113, 114, 115, 116, 117, 118, 119, 120, 121, 122, 123, 124, 125, 126, 127, 128, 129, 130, 131, 132, 133, 134, 135, 136, 137, 138, 139, 140, 141, 142, 143, 144, 145, 146, 147, 148, 149, 150, 151, 152, 153, 154, 155, 156, 157, 158, 159, 160, 161, 162, 163, 164, 165, 166, 167, 168, 169, 170, 171, 172, 173, 174, 175, 176, 177, 178, 179, 180, 181, 182, 183, 184, 185, 186, 187, 188, 189, 190],
      "AcquisitionTime": ["153405.780000", "153407.270000", "153408.760000", "153410.250000", "153411.740000", "153413.230000", "153414.720000", "153416.210000", "153417.700000", "153419.190000", "153420.680000", "153422.170000", "153423.660000", "153425.150000", "153426.640000", "153428.130000", "153429.620000", "153431.110000", "153432.600000", "153434.090000", "153435.580000", "153437.070000", "153438.560000", "153440.050000", "153441.540000", "153443.030000", "153444.520000", "153446.010000", "153447.500000", "153448.990000", "153450.480000", "153451.970000", "153453.460000", "153454.950000", "153456.440000", "153457.930000", "153459.420000", "153500.910000", "153502.400000", "153503.890000", "153505.380000", "153506.870000", "153508.360000", "153509.850000", "153511.340000", "153512.830000", "153514.320000", "153515.810000", "153517.300000", "153518.790000", "153520.280000", "153521.770000", "153523.260000", "153524.750000", "153526.240000", "153527.730000", "153529.220000", "153530.710000", "153532.200000", "153533.690000", "153535.180000", "153536.670000", "153538.160000", "153539.650000", "153541.140000", "153542.630000", "153544.120000", "153545.610000", "153547.100000", "153548.590000", "153550.080000", "153551.570000", "153553.060000", "153554.550000", "153556.040000", "153557.530000", "153559.020000", "153600.510000", "153602.000000", "153603.490000", "153604.980000", "153606.470000", "153607.960000", "153609.450000", "153610.940000", "153612.430000", "153613.920000", "153615.410000", "153616.900000", "153618.390000", "153619.880000", "153621.370000", "153622.860000", "153624.350000", "153625.840000", "153627.330000", "153628.820000", "153630.310000", "153631.800000", "153633.290000", "153634.780000", "153636.270000", "153637.760000", "153639.250000", "153640.740000", "153642.230000", "153643.720000", "153645.210000", "153646.700000", "153648.190000", "153649.680000", "153651.170000", "153652.660000", "153654.150000", "153655.640000", "153657.130000", "153658.620000", "153700.110000", "153701.600000", "153703.090000", "153704.580000", "153706.070000", "153707.560000", "153709.050000", "153710.540000", "153712.030000", "153713.520000", "153715.010000", "153716.500000", "153717.990000", "153719.480000", "153720.970000", "153722.460000", "153723.950000", "153725.440000", "153726.930000", "153728.420000", "153729.910000", "153731.400000", "153732.890000", "153734.380000", "153735.870000", "153737.360000", "153738.850000", "153740.340000", "153741.830000", "153743.320000", "153744.810000", "153746.300000", "153747.790000", "153749.280000", "153750.770000", "153752.260000", "153753.750000", "153755.240000", "153756.730000", "153758.220000", "153759.710000", "153801.200000", "153802.690000", "153804.180000", "153805.670000", "153807.160000", "153808.650000", "153810.140000", "153811.630000", "153813.120000", "153814.610000", "153816.100000", "153817.590000", "153819.080000", "153820.570000", "153822.060000", "153823.550000", "153825.040000", "153826.530000", "153828.020000", "153829.510000", "153831.000000", "153832.490000", "153833.980000", "153835.470000", "153836.960000", "153838.450000", "153839.940000", "153841.430000", "153842.920000", "153844.410000", "153845.900000", "153847.390000"],
      "ContentTime": ["153542.709000", "153542.712000", "153542.714000", "153542.717000", "153542.719000", "153542.722000", "153542.724000", "153542.727000", "153542.729000", "153542.732000", "153542.734000", "153542.737000", "153542.739000", "153542.742000", "153542.744000", "153542.747000", "153542.749000", "153542.752000", "153542.754000", "153542.757000", "153542.759000", "153542.762000", "153542.764000", "153542.767000", "153542.769000", "153542.772000", "153542.774000", "153542.777000", "153542.779000", "153542.782000", "153542.784000", "153542.787000", "153542.789000", "153542.792000", "153542.796000", "153542.798000", "153542.801000", "153542.803000", "153542.806000", "153602.586000", "153602.589000", "153602.591000", "153602.594000", "153602.596000", "153602.599000", "153602.601000", "153602.604000", "153602.606000", "153602.616000", "153602.619000", "153602.622000", "153602.624000", "153602.626000", "153602.629000", "153602.632000", "153602.634000", "153602.636000", "153602.639000", "153602.642000", "153622.579000", "153622.582000", "153622.585000", "153622.587000", "153622.590000", "153622.592000", "153622.595000", "153622.597000", "153622.600000", "153622.602000", "153622.605000", "153622.607000", "153622.610000", "153622.612000", "153622.615000", "153622.618000", "153622.620000", "153622.622000", "153622.625000", "153622.628000", "153642.584000", "153642.587000", "153642.589000", "153642.592000", "153642.594000", "153642.597000", "153642.599000", "153642.602000", "153642.605000", "153642.608000", "153642.610000", "153642.613000", "153642.615000", "153642.618000", "153642.620000", "153642.623000", "153642.626000", "153642.628000", "153642.631000", "153642.633000", "153722.655000", "153722.658000", "153722.661000", "153722.663000", "153722.666000", "153722.668000", "153722.671000", "153722.673000", "153722.676000", "153722.678000", "153722.681000", "153722.683000", "153722.686000", "153722.688000", "153722.691000", "153722.694000", "153722.716000", "153722.718000", "153722.721000", "153722.724000", "153722.726000", "153722.729000", "153722.731000", "153722.734000", "153722.736000", "153722.739000", "153722.741000", "153722.743000", "153722.746000", "153722.748000", "153722.751000", "153722.753000", "153802.618000", "153802.620000", "153802.623000", "153802.625000", "153802.628000", "153802.631000", "153802.633000", "153802.636000", "153802.638000", "153802.641000", "153802.643000", "153802.646000", "153802.648000", "153802.651000", "153802.653000", "153802.656000", "153802.658000", "153802.661000", "153802.663000", "153802.665000", "153802.668000", "153802.670000", "153802.673000", "153802.675000", "153802.678000", "153802.680000", "153802.683000", "153842.625000", "153842.628000", "153842.630000", "153842.633000", "153842.635000", "153842.638000", "153842.640000", "153842.643000", "153842.645000", "153842.648000", "153842.650000", "153842.653000", "153842.655000", "153842.658000", "153842.660000", "153842.663000", "153842.665000", "153842.668000", "153842.670000", "153842.673000", "153842.675000", "153842.678000", "153842.680000", "153842.683000", "153842.685000", "153842.688000", "153842.690000", "153849.507000", "153849.509000", "153849.512000", "153849.515000", "153849.518000"],
      "InstanceCreationTime": ["153542.709000", "153542.712000", "153542.714000", "153542.717000", "153542.719000", "153542.722000", "153542.724000", "153542.727000", "153542.729000", "153542.732000", "153542.734000", "153542.737000", "153542.739000", "153542.742000", "153542.744000", "153542.747000", "153542.749000", "153542.752000", "153542.754000", "153542.757000", "153542.759000", "153542.762000", "153542.764000", "153542.767000", "153542.769000", "153542.772000", "153542.774000", "153542.777000", "153542.779000", "153542.782000", "153542.784000", "153542.787000", "153542.789000", "153542.792000", "153542.796000", "153542.798000", "153542.801000", "153542.803000", "153542.806000", "153602.586000", "153602.589000", "153602.591000", "153602.594000", "153602.596000", "153602.599000", "153602.601000", "153602.604000", "153602.606000", "153602.616000", "153602.619000", "153602.622000", "153602.624000", "153602.626000", "153602.629000", "153602.632000", "153602.634000", "153602.636000", "153602.639000", "153602.642000", "153622.579000", "153622.582000", "153622.585000", "153622.587000", "153622.590000", "153622.592000", "153622.595000", "153622.597000", "153622.600000", "153622.602000", "153622.605000", "153622.607000", "153622.610000", "153622.612000", "153622.615000", "153622.618000", "153622.620000", "153622.622000", "153622.625000", "153622.628000", "153642.584000", "153642.587000", "153642.589000", "153642.592000", "153642.594000", "153642.597000", "153642.599000", "153642.602000", "153642.605000", "153642.608000", "153642.610000", "153642.613000", "153642.615000", "153642.618000", "153642.620000", "153642.623000", "153642.626000", "153642.628000", "153642.631000", "153642.633000", "153722.655000", "153722.658000", "153722.661000", "153722.663000", "153722.666000", "153722.668000", "153722.671000", "153722.673000", "153722.676000", "153722.678000", "153722.681000", "153722.683000", "153722.686000", "153722.688000", "153722.691000", "153722.694000", "153722.716000", "153722.718000", "153722.721000", "153722.724000", "153722.726000", "153722.729000", "153722.731000", "153722.734000", "153722.736000", "153722.739000", "153722.741000", "153722.743000", "153722.746000", "153722.748000", "153722.751000", "153722.753000", "153802.618000", "153802.620000", "153802.623000", "153802.625000", "153802.628000", "153802.631000", "153802.633000", "153802.636000", "153802.638000", "153802.641000", "153802.643000", "153802.646000", "153802.648000", "153802.651000", "153802.653000", "153802.656000", "153802.658000", "153802.661000", "153802.663000", "153802.665000", "153802.668000", "153802.670000", "153802.673000", "153802.675000", "153802.678000", "153802.680000", "153802.683000", "153842.625000", "153842.628000", "153842.630000", "153842.633000", "153842.635000", "153842.638000", "153842.640000", "153842.643000", "153842.645000", "153842.648000", "153842.650000", "153842.653000", "153842.655000", "153842.658000", "153842.660000", "153842.663000", "153842.665000", "153842.668000", "153842.670000", "153842.673000", "153842.675000", "153842.678000", "153842.680000", "153842.683000", "153842.685000", "153842.688000", "153842.690000", "153849.507000", "153849.509000", "153849.512000", "153849.515000", "153849.518000"],
      "InstanceNumber": [1, 2, 3, 4, 5, 6, 7, 8, 9, 10, 11, 12, 13, 14, 15, 16, 17, 18, 19, 20, 21, 22, 23, 24, 25, 26, 27, 28, 29, 30, 31, 32, 33, 34, 35, 36, 37, 38, 39, 40, 41, 42, 43, 44, 45, 46, 47, 48, 49, 50, 51, 52, 53, 54, 55, 56, 57, 58, 59, 60, 61, 62, 63, 64, 65, 66, 67, 68, 69, 70, 71, 72, 73, 74, 75, 76, 77, 78, 79, 80, 81, 82, 83, 84, 85, 86, 87, 88, 89, 90, 91, 92, 93, 94, 95, 96, 97, 98, 99, 100, 101, 102, 103, 104, 105, 106, 107, 108, 109, 110, 111, 112, 113, 114, 115, 116, 117, 118, 119, 120, 121, 122, 123, 124, 125, 126, 127, 128, 129, 130, 131, 132, 133, 134, 135, 136, 137, 138, 139, 140, 141, 142, 143, 144, 145, 146, 147, 148, 149, 150, 151, 152, 153, 154, 155, 156, 157, 158, 159, 160, 161, 162, 163, 164, 165, 166, 167, 168, 169, 170, 171, 172, 173, 174, 175, 176, 177, 178, 179, 180, 181, 182, 183, 184, 185, 186, 187, 188, 189, 190],
      "WindowCenter": [4806.0, 4810.0, 4808.0, 4810.0, 4822.0, 4810.0, 4806.0, 4842.0, 4816.0, 4808.0, 4804.0, 4810.0, 4808.0, 4818.0, 4814.0, 4810.0, 4810.0, 4806.0, 4810.0, 4806.0, 4806.0, 4808.0, 4806.0, 4806.0, 4810.0, 4812.0, 4816.0, 4812.0, 4810.0, 4806.0, 4806.0, 4806.0, 4784.0, 4802.0, 4808.0, 4812.0, 4808.0, 4808.0, 4812.0, 4808.0, 4810.0, 4808.0, 4808.0, 4806.0, 4806.0, 4806.0, 4808.0, 4812.0, 4802.0, 4808.0, 4808.0, 4808.0, 4806.0, 4812.0, 4804.0, 4808.0, 4822.0, 4820.0, 4816.0, 4784.0, 4806.0, 4842.0, 4814.0, 4802.0, 4808.0, 4810.0, 4818.0, 4822.0, 4816.0, 4818.0, 4806.0, 4780.0, 4808.0, 4810.0, 4806.0, 4804.0, 4810.0, 4814.0, 4812.0, 4816.0, 4812.0, 4808.0, 4808.0, 4802.0, 4782.0, 4806.0, 4808.0, 4810.0, 4808.0, 4812.0, 4810.0, 4814.0, 4816.0, 4810.0, 4808.0, 4808.0, 4806.0, 4780.0, 4780.0, 4804.0, 4782.0, 4812.0, 4812.0, 4816.0, 4812.0, 4812.0, 4806.0, 4802.0, 4778.0, 4804.0, 4806.0, 4806.0, 4812.0, 4810.0, 4818.0, 4818.0, 4780.0, 4802.0, 4810.0, 4804.0, 4812.0, 4818.0, 4810.0, 4812.0, 4808.0, 4806.0, 4810.0, 4808.0, 4806.0, 4808.0, 4806.0, 4812.0, 4808.0, 4812.0, 4808.0, 4808.0, 4808.0, 4806.0, 4808.0, 4784.0, 4808.0, 4806.0, 4806.0, 4810.0, 4808.0, 4810.0, 4808.0, 4810.0, 4808.0, 4810.0, 4806.0, 4810.0, 4808.0, 4812.0, 4808.0, 4808.0, 4806.0, 4808.0, 4808.0, 4810.0, 4814.0, 4806.0, 4808.0, 4806.0, 4806.0, 4784.0, 4812.0, 4810.0, 4806.0, 4814.0, 4810.0, 4812.0, 4784.0, 4808.0, 4806.0, 4788.0, 4806.0, 4804.0, 4810.0, 4814.0, 4810.0, 4810.0, 4806.0, 4808.0, 4782.0, 4806.0, 4812.0, 4806.0, 4806.0, 4808.0],
      "WindowWidth": [18592.0, 18598.0, 18590.0, 18604.0, 18616.0, 18602.0, 18590.0, 18642.0, 18598.0, 18588.0, 18584.0, 18598.0, 18600.0, 18610.0, 18612.0, 18600.0, 18600.0, 18588.0, 18596.0, 18586.0, 18586.0, 18592.0, 18592.0, 18596.0, 18598.0, 18608.0, 18610.0, 18602.0, 18598.0, 18590.0, 18592.0, 18590.0, 18558.0, 18584.0, 18596.0, 18602.0, 18598.0, 18598.0, 18604.0, 18596.0, 18598.0, 18592.0, 18592.0, 18586.0, 18592.0, 18594.0, 18596.0, 18602.0, 18592.0, 18598.0, 18596.0, 18602.0, 18598.0, 18604.0, 18592.0, 18594.0, 18610.0, 18608.0, 18600.0, 18568.0, 18596.0, 18642.0, 18604.0, 18586.0, 18596.0, 18600.0, 18614.0, 18620.0, 18618.0, 18616.0, 18594.0, 18562.0, 18592.0, 18600.0, 18596.0, 18586.0, 18598.0, 18606.0, 18596.0, 18610.0, 18608.0, 18596.0, 18596.0, 18584.0, 18552.0, 18586.0, 18592.0, 18594.0, 18594.0, 18604.0, 18598.0, 18610.0, 18614.0, 18602.0, 18598.0, 18602.0, 18588.0, 18556.0, 18554.0, 18586.0, 18560.0, 18596.0, 18598.0, 18608.0, 18604.0, 18604.0, 18594.0, 18588.0, 18558.0, 18592.0, 18594.0, 18592.0, 18604.0, 18600.0, 18606.0, 18604.0, 18560.0, 18584.0, 18588.0, 18588.0, 18602.0, 18610.0, 18598.0, 18604.0, 18594.0, 18594.0, 18598.0, 18594.0, 18590.0, 18598.0, 18596.0, 18598.0, 18598.0, 18602.0, 18594.0, 18592.0, 18596.0, 18588.0, 18596.0, 18564.0, 18596.0, 18590.0, 18594.0, 18598.0, 18588.0, 18596.0, 18596.0, 18598.0, 18598.0, 18590.0, 18596.0, 18590.0, 18596.0, 18598.0, 18596.0, 18598.0, 18592.0, 18598.0, 18598.0, 18600.0, 18606.0, 18596.0, 18592.0, 18590.0, 18594.0, 18564.0, 18594.0, 18602.0, 18596.0, 18612.0, 18602.0, 18602.0, 18562.0, 18600.0, 18592.0, 18564.0, 18588.0, 18592.0, 18598.0, 18606.0, 18602.0, 18604.0, 18592.0, 18596.0, 18558.0, 18592.0, 18602.0, 18592.0, 18588.0, 18594.0]
    },
    "slices": {}
  }
}