{
  "AcquisitionMatrixPE": 104,
  "AcquisitionNumber": 1,
  "AcquisitionTime": "15:21:16.660000",
  "BandwidthPerPixelPhaseEncode": 17.17,
  "BaseResolution": 104,
  "BodyPartExamined": "BRAIN",
  "CoilString": "HC1-7;NC1_2",
  "ConsistencyInfo": "N4_VE11C_LATEST_20160120",
  "ConversionSoftware": "dcm2niix",
  "ConversionSoftwareVersion": "v1.0.20190902",
  "DerivedVendorReportedEchoSpacing": 0.000560011,
  "DeviceSerialNumber": "167006",
  "DwellTime": 2.1e-06,
  "EchoTime": 0.037,
  "EchoTrainLength": 104,
  "EffectiveEchoSpacing": 0.000560011,
  "FlipAngle": 52,
  "HeudiconvVersion": "0.10.0",
  "ImageComments": "Unaliased_MB4_PE3_LB",
  "ImageOrientationPatientDICOM": [0.999074, -0.0357622, 0.0239149, 0.0418736, 0.935889, -0.349798],
  "ImageType": [
    "ORIGINAL",
    "PRIMARY",
    "P",
    "MB",
    "ND",
    "MOSAIC"
],
  "ImagingFrequency": 123.259,
  "InPlanePhaseEncodingDirectionDICOM": "COL",
  "InstitutionAddress": "Chemin_Queen-Mary_4565_Montreal_District_CA_H3W_1W5",
  "InstitutionName": "IUGM",
  "InstitutionalDepartmentName": "Department",
  "MRAcquisitionType": "2D",
  "MagneticFieldStrength": 3,
  "Manufacturer": "Siemens",
  "ManufacturersModelName": "Prisma_fit",
  "Modality": "MR",
  "MultibandAccelerationFactor": 4,
  "PartialFourier": 1,
  "PatientPosition": "HFS",
  "PercentPhaseFOV": 100,
  "PhaseEncodingDirection": "j",
  "PhaseEncodingSteps": 104,
  "PhaseResolution": 1,
  "PixelBandwidth": 2290,
  "ProcedureStepDescription": "memory_things",
  "ProtocolName": "func_task-things_run-1",
  "PulseSequenceDetails": "%CustomerSeq%_cmrr_mbep2d_bold",
  "ReceiveCoilActiveElements": "HC1-7;NC1,2",
  "ReceiveCoilName": "HeadNeck_64",
  "ReconMatrixPE": 104,
  "RepetitionTime": 1.49,
  "SAR": 0.0492822,
  "ScanOptions": "FS",
  "ScanningSequence": "EP",
  "SequenceName": "epfid2d1_104",
  "SequenceVariant": "SK_SS",
  "SeriesDescription": "func_task-things_run-1",
  "SeriesNumber": 11,
  "ShimSetting": [624, -7251, -8827, 569, -14, -241, -71, -23],
  "SliceThickness": 2,
  "SliceTiming": [0, 0.785, 0.0975, 0.8825, 0.1975, 0.98, 0.295, 1.0775, 0.3925, 1.175, 0.49, 1.275, 0.5875, 1.3725, 0.6875, 0, 0.785, 0.0975, 0.8825, 0.1975, 0.98, 0.295, 1.0775, 0.3925, 1.175, 0.49, 1.275, 0.5875, 1.3725, 0.6875, 0, 0.785, 0.0975, 0.8825, 0.1975, 0.98, 0.295, 1.0775, 0.3925, 1.175, 0.49, 1.275, 0.5875, 1.3725, 0.6875, 0, 0.785, 0.0975, 0.8825, 0.1975, 0.98, 0.295, 1.0775, 0.3925, 1.175, 0.49, 1.275, 0.5875, 1.3725, 0.6875],
  "SoftwareVersions": "syngo_MR_E11",
  "SpacingBetweenSlices": 2,
  "StationName": "MRC35049",
  "TaskName": "things",
  "TotalReadoutTime": 0.0576811,
  "TxRefAmp": 255.364,
  "WipMemBlock": "da8fb35b-154d-453b-9bcd-3f7da4413586||Sequence: R016 ve11c/master r/e634e98; Dec 19 2017 11:00:25 by eja",
  "dcmmeta_affine": [
    [-1.9981483221054077, 0.08374722301959991, 0.019744200631976128, 102.78905487060547],
    [0.07152444124221802, 1.8717775344848633, -0.7009515762329102, -67.42516326904297],
    [0.047829750925302505, 0.6995965242385864, 1.8730394840240479, -66.76980590820312],
    [0.0, 0.0, 0.0, 1.0]
],
  "dcmmeta_reorient_transform": [
    [0.0, -1.0, 0.0, 103.0],
    [1.0, 0.0, 0.0, 0.0],
    [0.0, 0.0, 1.0, 0.0],
    [0.0, 0.0, 0.0, 1.0]
],
  "dcmmeta_shape": [104, 104, 60, 190],
  "dcmmeta_slice_dim": 2,
  "dcmmeta_version": 0.6,
  "global": {
    "const": {
      "AcquisitionMatrix": [104, 0, 0, 104],
      "AngioFlag": "N",
      "BitsAllocated": 16,
      "BitsStored": 16,
      "BodyPartExamined": "BRAIN",
      "Columns": 832,
      "EchoNumbers": 1,
      "EchoTime": 37.0,
      "EchoTrainLength": 104,
      "FlipAngle": 52.0,
      "HighBit": 15,
      "ImageOrientationPatient": [0.99907414259308, -0.0357622197861, 0.02391487482453, 0.0418736102778, 0.93588876300746, -0.3497982619149],
      "ImagePositionPatient": [-869.22498566697, -780.66004660968, 242.53174472177],
      "ImageType": [
        "ORIGINAL",
        "PRIMARY",
        "P",
        "MB",
        "ND",
        "MOSAIC"
],
      "ImagedNucleus": "1H",
      "ImagingFrequency": 123.258856,
      "InPlanePhaseEncodingDirection": "COL",
      "LargestImagePixelValue": 4095,
      "MRAcquisitionType": "2D",
      "MagneticFieldStrength": 3.0,
      "Manufacturer": "SIEMENS",
      "ManufacturerModelName": "Prisma_fit",
      "Modality": "MR",
      "NumberOfAverages": 1.0,
      "NumberOfPhaseEncodingSteps": 104,
      "PercentPhaseFieldOfView": 100.0,
      "PercentSampling": 100.0,
      "PerformedProcedureStepStartTime": "145904.354000",
      "PhotometricInterpretation": "MONOCHROME2",
      "PixelBandwidth": 2290.0,
      "PixelRepresentation": 0,
      "PixelSpacing": [2.0, 2.0],
      "ProtocolName": "func_task-things_run-1",
      "RepetitionTime": 1490.0,
      "RescaleIntercept": -4096.0,
      "RescaleSlope": 2.0,
      "RescaleType": "US",
      "Rows": 832,
      "SAR": 0.04928222152169,
      "SamplesPerPixel": 1,
      "ScanOptions": "FS",
      "ScanningSequence": "EP",
      "SequenceName": "epfid2d1_104",
      "SequenceVariant": [
        "SK",
        "SS"
],
      "SeriesDescription": "func_task-things_run-1",
      "SeriesNumber": 11,
      "SeriesTime": "152219.984000",
      "SliceLocation": -37.885608150683,
      "SliceThickness": 2.0,
      "SmallestImagePixelValue": 0,
      "SoftwareVersions": "syngo MR E11",
      "SpacingBetweenSlices": 1.9999999939071,
      "SpecificCharacterSet": "ISO_IR 100",
      "StudyID": "1",
      "StudyTime": "145904.263000",
      "TransmitCoilName": "Body",
      "VariableFlipAngleFlag": "N",
      "WindowCenterWidthExplanation": "Algo1",
      "dBdt": 0.0},
    "slices": {}
  },
  "time": {
    "samples": {
      "AcquisitionNumber": [1, 2, 3, 4, 5, 6, 7, 8, 9, 10, 11, 12, 13, 14, 15, 16, 17, 18, 19, 20, 21, 22, 23, 24, 25, 26, 27, 28, 29, 30, 31, 32, 33, 34, 35, 36, 37, 38, 39, 40, 41, 42, 43, 44, 45, 46, 47, 48, 49, 50, 51, 52, 53, 54, 55, 56, 57, 58, 59, 60, 61, 62, 63, 64, 65, 66, 67, 68, 69, 70, 71, 72, 73, 74, 75, 76, 77, 78, 79, 80, 81, 82, 83, 84, 85, 86, 87, 88, 89, 90, 91, 92, 93, 94, 95, 96, 97, 98, 99, 100, 101, 102, 103, 104, 105, 106, 107, 108, 109, 110, 111, 112, 113, 114, 115, 116, 117, 118, 119, 120, 121, 122, 123, 124, 125, 126, 127, 128, 129, 130, 131, 132, 133, 134, 135, 136, 137, 138, 139, 140, 141, 142, 143, 144, 145, 146, 147, 148, 149, 150, 151, 152, 153, 154, 155, 156, 157, 158, 159, 160, 161, 162, 163, 164, 165, 166, 167, 168, 169, 170, 171, 172, 173, 174, 175, 176, 177, 178, 179, 180, 181, 182, 183, 184, 185, 186, 187, 188, 189, 190],
      "AcquisitionTime": ["152116.660000", "152118.150000", "152119.640000", "152121.130000", "152122.620000", "152124.110000", "152125.600000", "152127.090000", "152128.580000", "152130.070000", "152131.560000", "152133.050000", "152134.540000", "152136.030000", "152137.520000", "152139.010000", "152140.500000", "152141.990000", "152143.480000", "152144.970000", "152146.460000", "152147.950000", "152149.440000", "152150.930000", "152152.420000", "152153.910000", "152155.400000", "152156.890000", "152158.380000", "152159.870000", "152201.360000", "152202.850000", "152204.340000", "152205.830000", "152207.320000", "152208.810000", "152210.300000", "152211.790000", "152213.280000", "152214.770000", "152216.260000", "152217.750000", "152219.240000", "152220.730000", "152222.220000", "152223.710000", "152225.200000", "152226.690000", "152228.180000", "152229.670000", "152231.160000", "152232.650000", "152234.140000", "152235.630000", "152237.120000", "152238.610000", "152240.100000", "152241.590000", "152243.080000", "152244.570000", "152246.060000", "152247.550000", "152249.040000", "152250.530000", "152252.020000", "152253.510000", "152255.000000", "152256.490000", "152257.980000", "152259.470000", "152300.960000", "152302.450000", "152303.940000", "152305.430000", "152306.920000", "152308.410000", "152309.900000", "152311.390000", "152312.880000", "152314.370000", "152315.860000", "152317.350000", "152318.840000", "152320.330000", "152321.820000", "152323.310000", "152324.800000", "152326.290000", "152327.780000", "152329.270000", "152330.760000", "152332.250000", "152333.740000", "152335.230000", "152336.720000", "152338.210000", "152339.700000", "152341.190000", "152342.680000", "152344.170000", "152345.660000", "152347.150000", "152348.640000", "152350.130000", "152351.620000", "152353.110000", "152354.600000", "152356.090000", "152357.580000", "152359.070000", "152400.560000", "152402.050000", "152403.540000", "152405.030000", "152406.520000", "152408.010000", "152409.500000", "152410.990000", "152412.480000", "152413.970000", "152415.460000", "152416.950000", "152418.440000", "152419.930000", "152421.420000", "152422.910000", "152424.400000", "152425.890000", "152427.380000", "152428.870000", "152430.360000", "152431.850000", "152433.340000", "152434.830000", "152436.320000", "152437.810000", "152439.300000", "152440.790000", "152442.280000", "152443.770000", "152445.260000", "152446.750000", "152448.240000", "152449.730000", "152451.220000", "152452.710000", "152454.200000", "152455.690000", "152457.180000", "152458.670000", "152500.160000", "152501.650000", "152503.140000", "152504.630000", "152506.120000", "152507.610000", "152509.100000", "152510.590000", "152512.080000", "152513.570000", "152515.060000", "152516.550000", "152518.040000", "152519.530000", "152521.020000", "152522.510000", "152524.000000", "152525.490000", "152526.980000", "152528.470000", "152529.960000", "152531.450000", "152532.940000", "152534.430000", "152535.920000", "152537.410000", "152538.900000", "152540.390000", "152541.880000", "152543.370000", "152544.860000", "152546.350000", "152547.840000", "152549.330000", "152550.820000", "152552.310000", "152553.800000", "152555.290000", "152556.780000", "152558.270000"],
      "ContentTime": ["152219.986000", "152219.989000", "152219.992000", "152219.994000", "152219.997000", "152220.000000", "152220.003000", "152220.005000", "152220.012000", "152240.002000", "152240.005000", "152240.008000", "152240.010000", "152240.012000", "152240.015000", "152240.018000", "152240.020000", "152240.022000", "152240.025000", "152240.028000", "152240.030000", "152240.032000", "152240.035000", "152240.037000", "152240.040000", "152240.042000", "152240.048000", "152240.051000", "152240.053000", "152259.994000", "152259.997000", "152300.000000", "152300.003000", "152300.005000", "152300.008000", "152300.010000", "152300.013000", "152300.015000", "152300.018000", "152300.020000", "152300.023000", "152300.025000", "152300.028000", "152300.030000", "152300.033000", "152300.035000", "152300.038000", "152300.040000", "152300.043000", "152320.004000", "152320.006000", "152320.009000", "152320.011000", "152320.014000", "152320.016000", "152320.019000", "152320.021000", "152320.024000", "152320.026000", "152320.029000", "152320.031000", "152320.034000", "152320.037000", "152320.039000", "152320.042000", "152320.044000", "152320.047000", "152320.049000", "152320.052000", "152339.986000", "152339.989000", "152339.992000", "152339.994000", "152339.997000", "152340.000000", "152340.003000", "152340.005000", "152340.008000", "152340.010000", "152340.012000", "152340.015000", "152340.017000", "152340.020000", "152340.022000", "152340.025000", "152340.027000", "152340.030000", "152340.032000", "152340.035000", "152340.037000", "152420.036000", "152420.039000", "152420.041000", "152420.044000", "152420.046000", "152420.049000", "152420.051000", "152420.054000", "152420.056000", "152420.059000", "152420.061000", "152420.064000", "152420.066000", "152420.069000", "152420.073000", "152420.075000", "152420.078000", "152420.080000", "152420.083000", "152420.085000", "152420.088000", "152420.090000", "152420.093000", "152420.095000", "152420.098000", "152420.100000", "152420.103000", "152420.105000", "152420.108000", "152420.110000", "152420.112000", "152420.115000", "152500.026000", "152500.029000", "152500.031000", "152500.034000", "152500.036000", "152500.039000", "152500.041000", "152500.044000", "152500.046000", "152500.049000", "152500.051000", "152500.054000", "152500.056000", "152500.059000", "152500.061000", "152500.064000", "152500.066000", "152500.069000", "152500.071000", "152500.074000", "152500.076000", "152500.079000", "152500.081000", "152500.084000", "152500.086000", "152500.089000", "152500.091000", "152540.017000", "152540.019000", "152540.022000", "152540.024000", "152540.027000", "152540.029000", "152540.032000", "152540.034000", "152540.037000", "152540.039000", "152540.042000", "152540.044000", "152540.047000", "152540.049000", "152540.052000", "152540.054000", "152540.057000", "152540.059000", "152540.062000", "152540.064000", "152540.067000", "152540.069000", "152540.072000", "152540.074000", "152540.077000", "152540.079000", "152540.082000", "152600.163000", "152600.166000", "152600.169000", "152600.171000", "152600.174000", "152600.176000", "152600.179000", "152600.181000", "152600.184000", "152600.186000", "152600.189000", "152600.192000", "152600.195000", "152600.197000"],
      "InstanceCreationTime": ["152219.986000", "152219.989000", "152219.992000", "152219.994000", "152219.997000", "152220.000000", "152220.003000", "152220.005000", "152220.012000", "152240.002000", "152240.005000", "152240.008000", "152240.010000", "152240.012000", "152240.015000", "152240.018000", "152240.020000", "152240.022000", "152240.025000", "152240.028000", "152240.030000", "152240.032000", "152240.035000", "152240.037000", "152240.040000", "152240.042000", "152240.048000", "152240.051000", "152240.053000", "152259.994000", "152259.997000", "152300.000000", "152300.003000", "152300.005000", "152300.008000", "152300.010000", "152300.013000", "152300.015000", "152300.018000", "152300.020000", "152300.023000", "152300.025000", "152300.028000", "152300.030000", "152300.033000", "152300.035000", "152300.038000", "152300.040000", "152300.043000", "152320.004000", "152320.006000", "152320.009000", "152320.011000", "152320.014000", "152320.016000", "152320.019000", "152320.021000", "152320.024000", "152320.026000", "152320.029000", "152320.031000", "152320.034000", "152320.037000", "152320.039000", "152320.042000", "152320.044000", "152320.047000", "152320.049000", "152320.052000", "152339.986000", "152339.989000", "152339.992000", "152339.994000", "152339.997000", "152340.000000", "152340.003000", "152340.005000", "152340.008000", "152340.010000", "152340.012000", "152340.015000", "152340.017000", "152340.020000", "152340.022000", "152340.025000", "152340.027000", "152340.030000", "152340.032000", "152340.035000", "152340.037000", "152420.036000", "152420.039000", "152420.041000", "152420.044000", "152420.046000", "152420.049000", "152420.051000", "152420.054000", "152420.056000", "152420.059000", "152420.061000", "152420.064000", "152420.066000", "152420.069000", "152420.073000", "152420.075000", "152420.078000", "152420.080000", "152420.083000", "152420.085000", "152420.088000", "152420.090000", "152420.093000", "152420.095000", "152420.098000", "152420.100000", "152420.103000", "152420.105000", "152420.108000", "152420.110000", "152420.112000", "152420.115000", "152500.026000", "152500.029000", "152500.031000", "152500.034000", "152500.036000", "152500.039000", "152500.041000", "152500.044000", "152500.046000", "152500.049000", "152500.051000", "152500.054000", "152500.056000", "152500.059000", "152500.061000", "152500.064000", "152500.066000", "152500.069000", "152500.071000", "152500.074000", "152500.076000", "152500.079000", "152500.081000", "152500.084000", "152500.086000", "152500.089000", "152500.091000", "152540.017000", "152540.019000", "152540.022000", "152540.024000", "152540.027000", "152540.029000", "152540.032000", "152540.034000", "152540.037000", "152540.039000", "152540.042000", "152540.044000", "152540.047000", "152540.049000", "152540.052000", "152540.054000", "152540.057000", "152540.059000", "152540.062000", "152540.064000", "152540.067000", "152540.069000", "152540.072000", "152540.074000", "152540.077000", "152540.079000", "152540.082000", "152600.163000", "152600.166000", "152600.169000", "152600.171000", "152600.174000", "152600.176000", "152600.179000", "152600.181000", "152600.184000", "152600.186000", "152600.189000", "152600.192000", "152600.195000", "152600.197000"],
      "InstanceNumber": [1, 2, 3, 4, 5, 6, 7, 8, 9, 10, 11, 12, 13, 14, 15, 16, 17, 18, 19, 20, 21, 22, 23, 24, 25, 26, 27, 28, 29, 30, 31, 32, 33, 34, 35, 36, 37, 38, 39, 40, 41, 42, 43, 44, 45, 46, 47, 48, 49, 50, 51, 52, 53, 54, 55, 56, 57, 58, 59, 60, 61, 62, 63, 64, 65, 66, 67, 68, 69, 70, 71, 72, 73, 74, 75, 76, 77, 78, 79, 80, 81, 82, 83, 84, 85, 86, 87, 88, 89, 90, 91, 92, 93, 94, 95, 96, 97, 98, 99, 100, 101, 102, 103, 104, 105, 106, 107, 108, 109, 110, 111, 112, 113, 114, 115, 116, 117, 118, 119, 120, 121, 122, 123, 124, 125, 126, 127, 128, 129, 130, 131, 132, 133, 134, 135, 136, 137, 138, 139, 140, 141, 142, 143, 144, 145, 146, 147, 148, 149, 150, 151, 152, 153, 154, 155, 156, 157, 158, 159, 160, 161, 162, 163, 164, 165, 166, 167, 168, 169, 170, 171, 172, 173, 174, 175, 176, 177, 178, 179, 180, 181, 182, 183, 184, 185, 186, 187, 188, 189, 190],
      "WindowCenter": [4810.0, 4806.0, 4808.0, 4812.0, 4808.0, 4806.0, 4810.0, 4814.0, 4836.0, 4808.0, 4806.0, 4808.0, 4806.0, 4806.0, 4808.0, 4808.0, 4808.0, 4812.0, 4812.0, 4810.0, 4812.0, 4808.0, 4808.0, 4808.0, 4808.0, 4806.0, 4804.0, 4812.0, 4808.0, 4810.0, 4808.0, 4810.0, 4806.0, 4808.0, 4806.0, 4808.0, 4806.0, 4810.0, 4808.0, 4808.0, 4810.0, 4808.0, 4806.0, 4806.0, 4806.0, 4808.0, 4808.0, 4834.0, 4808.0, 4810.0, 4808.0, 4806.0, 4808.0, 4808.0, 4810.0, 4810.0, 4812.0, 4806.0, 4810.0, 4810.0, 4810.0, 4806.0, 4808.0, 4808.0, 4810.0, 4812.0, 4806.0, 4810.0, 4808.0, 4810.0, 4812.0, 4810.0, 4808.0, 4806.0, 4836.0, 4808.0, 4806.0, 4808.0, 4808.0, 4808.0, 4806.0, 4810.0, 4810.0, 4810.0, 4808.0, 4806.0, 4806.0, 4810.0, 4812.0, 4808.0, 4810.0, 4806.0, 4810.0, 4810.0, 4806.0, 4806.0, 4834.0, 4810.0, 4804.0, 4808.0, 4806.0, 4808.0, 4810.0, 4812.0, 4806.0, 4810.0, 4808.0, 4834.0, 4810.0, 4806.0, 4810.0, 4808.0, 4808.0, 4806.0, 4810.0, 4810.0, 4806.0, 4806.0, 4808.0, 4810.0, 4812.0, 4806.0, 4808.0, 4834.0, 4806.0, 4812.0, 4812.0, 4812.0, 4810.0, 4806.0, 4844.0, 4846.0, 4838.0, 4838.0, 4814.0, 4808.0, 4816.0, 4810.0, 4838.0, 4812.0, 4810.0, 4814.0, 4840.0, 4810.0, 4816.0, 4806.0, 4812.0, 4808.0, 4810.0, 4810.0, 4810.0, 4808.0, 4808.0, 4808.0, 4808.0, 4836.0, 4810.0, 4810.0, 4836.0, 4810.0, 4810.0, 4812.0, 4810.0, 4808.0, 4812.0, 4810.0, 4840.0, 4810.0, 4810.0, 4812.0, 4808.0, 4812.0, 4810.0, 4810.0, 4812.0, 4810.0, 4812.0, 4812.0, 4810.0, 4812.0, 4808.0, 4812.0, 4808.0, 4812.0, 4810.0, 4808.0, 4812.0, 4810.0, 4812.0, 4810.0],
      "WindowWidth": [18594.0, 18590.0, 18594.0, 18596.0, 18598.0, 18590.0, 18592.0, 18596.0, 18628.0, 18598.0, 18592.0, 18598.0, 18594.0, 18592.0, 18596.0, 18590.0, 18596.0, 18594.0, 18586.0, 18592.0, 18590.0, 18594.0, 18590.0, 18596.0, 18594.0, 18594.0, 18592.0, 18594.0, 18594.0, 18592.0, 18592.0, 18594.0, 18590.0, 18588.0, 18588.0, 18590.0, 18594.0, 18598.0, 18594.0, 18596.0, 18594.0, 18596.0, 18588.0, 18588.0, 18588.0, 18588.0, 18592.0, 18622.0, 18594.0, 18594.0, 18598.0, 18588.0, 18590.0, 18592.0, 18594.0, 18590.0, 18600.0, 18588.0, 18588.0, 18592.0, 18592.0, 18596.0, 18592.0, 18594.0, 18596.0, 18598.0, 18592.0, 18594.0, 18588.0, 18590.0, 18592.0, 18598.0, 18594.0, 18592.0, 18626.0, 18590.0, 18592.0, 18590.0, 18592.0, 18596.0, 18588.0, 18594.0, 18588.0, 18594.0, 18588.0, 18590.0, 18586.0, 18598.0, 18598.0, 18592.0, 18596.0, 18594.0, 18600.0, 18604.0, 18592.0, 18592.0, 18626.0, 18592.0, 18590.0, 18588.0, 18592.0, 18588.0, 18594.0, 18596.0, 18594.0, 18592.0, 18588.0, 18630.0, 18594.0, 18586.0, 18592.0, 18588.0, 18590.0, 18590.0, 18592.0, 18596.0, 18592.0, 18588.0, 18590.0, 18592.0, 18590.0, 18590.0, 18592.0, 18628.0, 18596.0, 18592.0, 18600.0, 18612.0, 18608.0, 18588.0, 18636.0, 18640.0, 18632.0, 18624.0, 18592.0, 18594.0, 18600.0, 18596.0, 18636.0, 18596.0, 18592.0, 18590.0, 18624.0, 18592.0, 18592.0, 18588.0, 18594.0, 18590.0, 18592.0, 18594.0, 18594.0, 18592.0, 18592.0, 18590.0, 18590.0, 18624.0, 18594.0, 18592.0, 18624.0, 18596.0, 18590.0, 18594.0, 18594.0, 18590.0, 18594.0, 18588.0, 18628.0, 18594.0, 18594.0, 18594.0, 18590.0, 18590.0, 18594.0, 18594.0, 18592.0, 18594.0, 18594.0, 18596.0, 18594.0, 18594.0, 18596.0, 18590.0, 18590.0, 18594.0, 18594.0, 18590.0, 18596.0, 18592.0, 18600.0, 18598.0]
    },
    "slices": {}
  }
}