{
  "AcquisitionMatrixPE": 104,
  "AcquisitionNumber": 1,
  "AcquisitionTime": "15:40:43.545000",
  "BandwidthPerPixelPhaseEncode": 17.17,
  "BaseResolution": 104,
  "BodyPartExamined": "BRAIN",
  "CoilString": "HC1-7;NC1_2",
  "ConsistencyInfo": "N4_VE11C_LATEST_20160120",
  "ConversionSoftware": "dcm2niix",
  "ConversionSoftwareVersion": "v1.0.20190902",
  "DerivedVendorReportedEchoSpacing": 0.000560011,
  "DeviceSerialNumber": "167006",
  "DwellTime": 2.1e-06,
  "EchoTime": 0.037,
  "EchoTrainLength": 104,
  "EffectiveEchoSpacing": 0.000560011,
  "FlipAngle": 52,
  "HeudiconvVersion": "0.10.0",
  "ImageComments": "Unaliased_MB4_PE3_LB",
  "ImageOrientationPatientDICOM": [0.999074, -0.0357622, 0.0239149, 0.0418736, 0.935889, -0.349798],
  "ImageType": [
    "ORIGINAL",
    "PRIMARY",
    "M",
    "MB",
    "ND",
    "MOSAIC"
],
  "ImagingFrequency": 123.259,
  "InPlanePhaseEncodingDirectionDICOM": "COL",
  "InstitutionAddress": "Chemin_Queen-Mary_4565_Montreal_District_CA_H3W_1W5",
  "InstitutionName": "IUGM",
  "InstitutionalDepartmentName": "Department",
  "MRAcquisitionType": "2D",
  "MagneticFieldStrength": 3,
  "Manufacturer": "Siemens",
  "ManufacturersModelName": "Prisma_fit",
  "Modality": "MR",
  "MultibandAccelerationFactor": 4,
  "PartialFourier": 1,
  "PatientPosition": "HFS",
  "PercentPhaseFOV": 100,
  "PhaseEncodingDirection": "j",
  "PhaseEncodingSteps": 104,
  "PhaseResolution": 1,
  "PixelBandwidth": 2290,
  "ProcedureStepDescription": "memory_things",
  "ProtocolName": "func_task-things_run-4",
  "PulseSequenceDetails": "%CustomerSeq%_cmrr_mbep2d_bold",
  "ReceiveCoilActiveElements": "HC1-7;NC1,2",
  "ReceiveCoilName": "HeadNeck_64",
  "ReconMatrixPE": 104,
  "RepetitionTime": 1.49,
  "SAR": 0.0492822,
  "ScanOptions": "FS",
  "ScanningSequence": "EP",
  "SequenceName": "epfid2d1_104",
  "SequenceVariant": "SK_SS",
  "SeriesDescription": "func_task-things_run-4",
  "SeriesNumber": 19,
  "ShimSetting": [624, -7251, -8827, 569, -14, -241, -71, -23],
  "SliceThickness": 2,
  "SliceTiming": [0, 0.7825, 0.0975, 0.8825, 0.195, 0.98, 0.2925, 1.0775, 0.3925, 1.175, 0.49, 1.2725, 0.5875, 1.3725, 0.685, 0, 0.7825, 0.0975, 0.8825, 0.195, 0.98, 0.2925, 1.0775, 0.3925, 1.175, 0.49, 1.2725, 0.5875, 1.3725, 0.685, 0, 0.7825, 0.0975, 0.8825, 0.195, 0.98, 0.2925, 1.0775, 0.3925, 1.175, 0.49, 1.2725, 0.5875, 1.3725, 0.685, 0, 0.7825, 0.0975, 0.8825, 0.195, 0.98, 0.2925, 1.0775, 0.3925, 1.175, 0.49, 1.2725, 0.5875, 1.3725, 0.685],
  "SoftwareVersions": "syngo_MR_E11",
  "SpacingBetweenSlices": 2,
  "StationName": "MRC35049",
  "TaskName": "things",
  "TotalReadoutTime": 0.0576811,
  "TxRefAmp": 255.364,
  "WipMemBlock": "6d9fcf59-681e-4b54-944e-319826a80fdc||Sequence: R016 ve11c/master r/e634e98; Dec 19 2017 11:00:25 by eja",
  "dcmmeta_affine": [
    [-1.9981483221054077, 0.08374722301959991, 0.019744200631976128, 102.78905487060547],
    [0.07152444124221802, 1.8717775344848633, -0.7009515762329102, -67.42516326904297],
    [0.047829750925302505, 0.6995965242385864, 1.8730394840240479, -66.76980590820312],
    [0.0, 0.0, 0.0, 1.0]
],
  "dcmmeta_reorient_transform": [
    [0.0, -1.0, 0.0, 103.0],
    [1.0, 0.0, 0.0, 0.0],
    [0.0, 0.0, 1.0, 0.0],
    [0.0, 0.0, 0.0, 1.0]
],
  "dcmmeta_shape": [104, 104, 60, 190],
  "dcmmeta_slice_dim": 2,
  "dcmmeta_version": 0.6,
  "global": {
    "const": {
      "AcquisitionMatrix": [104, 0, 0, 104],
      "AngioFlag": "N",
      "BitsAllocated": 16,
      "BitsStored": 16,
      "BodyPartExamined": "BRAIN",
      "Columns": 832,
      "EchoNumbers": 1,
      "EchoTime": 37.0,
      "EchoTrainLength": 104,
      "FlipAngle": 52.0,
      "HighBit": 15,
      "ImageOrientationPatient": [0.99907414259308, -0.0357622197861, 0.02391487482453, 0.0418736102778, 0.93588876300746, -0.3497982619149],
      "ImagePositionPatient": [-869.22498566697, -780.66004660968, 242.53174472177],
      "ImageType": [
        "ORIGINAL",
        "PRIMARY",
        "M",
        "MB",
        "ND",
        "MOSAIC"
],
      "ImagedNucleus": "1H",
      "ImagingFrequency": 123.258865,
      "InPlanePhaseEncodingDirection": "COL",
      "MRAcquisitionType": "2D",
      "MagneticFieldStrength": 3.0,
      "Manufacturer": "SIEMENS",
      "ManufacturerModelName": "Prisma_fit",
      "Modality": "MR",
      "NumberOfAverages": 1.0,
      "NumberOfPhaseEncodingSteps": 104,
      "PercentPhaseFieldOfView": 100.0,
      "PercentSampling": 100.0,
      "PerformedProcedureStepStartTime": "145904.354000",
      "PhotometricInterpretation": "MONOCHROME2",
      "PixelBandwidth": 2290.0,
      "PixelRepresentation": 0,
      "PixelSpacing": [2.0, 2.0],
      "ProtocolName": "func_task-things_run-4",
      "RepetitionTime": 1490.0,
      "Rows": 832,
      "SAR": 0.04928222152169,
      "SamplesPerPixel": 1,
      "ScanOptions": "FS",
      "ScanningSequence": "EP",
      "SequenceName": "epfid2d1_104",
      "SequenceVariant": [
        "SK",
        "SS"
],
      "SeriesDescription": "func_task-things_run-4",
      "SeriesNumber": 19,
      "SeriesTime": "154159.911000",
      "SliceLocation": -37.885608150683,
      "SliceThickness": 2.0,
      "SmallestImagePixelValue": 0,
      "SoftwareVersions": "syngo MR E11",
      "SpacingBetweenSlices": 1.9999999939071,
      "SpecificCharacterSet": "ISO_IR 100",
      "StudyID": "1",
      "StudyTime": "145904.263000",
      "TransmitCoilName": "Body",
      "VariableFlipAngleFlag": "N",
      "WindowCenterWidthExplanation": "Algo1",
      "dBdt": 0.0},
    "slices": {}
  },
  "time": {
    "samples": {
      "AcquisitionNumber": [1, 2, 3, 4, 5, 6, 7, 8, 9, 10, 11, 12, 13, 14, 15, 16, 17, 18, 19, 20, 21, 22, 23, 24, 25, 26, 27, 28, 29, 30, 31, 32, 33, 34, 35, 36, 37, 38, 39, 40, 41, 42, 43, 44, 45, 46, 47, 48, 49, 50, 51, 52, 53, 54, 55, 56, 57, 58, 59, 60, 61, 62, 63, 64, 65, 66, 67, 68, 69, 70, 71, 72, 73, 74, 75, 76, 77, 78, 79, 80, 81, 82, 83, 84, 85, 86, 87, 88, 89, 90, 91, 92, 93, 94, 95, 96, 97, 98, 99, 100, 101, 102, 103, 104, 105, 106, 107, 108, 109, 110, 111, 112, 113, 114, 115, 116, 117, 118, 119, 120, 121, 122, 123, 124, 125, 126, 127, 128, 129, 130, 131, 132, 133, 134, 135, 136, 137, 138, 139, 140, 141, 142, 143, 144, 145, 146, 147, 148, 149, 150, 151, 152, 153, 154, 155, 156, 157, 158, 159, 160, 161, 162, 163, 164, 165, 166, 167, 168, 169, 170, 171, 172, 173, 174, 175, 176, 177, 178, 179, 180, 181, 182, 183, 184, 185, 186, 187, 188, 189, 190],
      "AcquisitionTime": ["154043.545000", "154045.035000", "154046.525000", "154048.015000", "154049.505000", "154050.995000", "154052.485000", "154053.975000", "154055.465000", "154056.955000", "154058.445000", "154059.935000", "154101.425000", "154102.915000", "154104.405000", "154105.895000", "154107.385000", "154108.875000", "154110.365000", "154111.855000", "154113.345000", "154114.835000", "154116.325000", "154117.815000", "154119.305000", "154120.795000", "154122.285000", "154123.775000", "154125.265000", "154126.755000", "154128.245000", "154129.735000", "154131.225000", "154132.715000", "154134.205000", "154135.695000", "154137.185000", "154138.675000", "154140.165000", "154141.655000", "154143.145000", "154144.635000", "154146.125000", "154147.615000", "154149.105000", "154150.595000", "154152.085000", "154153.575000", "154155.065000", "154156.555000", "154158.045000", "154159.535000", "154201.025000", "154202.515000", "154204.005000", "154205.495000", "154206.985000", "154208.475000", "154209.965000", "154211.455000", "154212.945000", "154214.435000", "154215.925000", "154217.415000", "154218.905000", "154220.395000", "154221.885000", "154223.375000", "154224.865000", "154226.355000", "154227.845000", "154229.335000", "154230.825000", "154232.315000", "154233.805000", "154235.295000", "154236.785000", "154238.275000", "154239.765000", "154241.255000", "154242.745000", "154244.235000", "154245.725000", "154247.215000", "154248.705000", "154250.195000", "154251.685000", "154253.175000", "154254.665000", "154256.155000", "154257.645000", "154259.135000", "154300.625000", "154302.115000", "154303.605000", "154305.095000", "154306.585000", "154308.075000", "154309.565000", "154311.055000", "154312.545000", "154314.035000", "154315.525000", "154317.015000", "154318.505000", "154319.995000", "154321.485000", "154322.975000", "154324.465000", "154325.955000", "154327.445000", "154328.935000", "154330.425000", "154331.915000", "154333.405000", "154334.895000", "154336.385000", "154337.875000", "154339.365000", "154340.855000", "154342.345000", "154343.835000", "154345.325000", "154346.815000", "154348.305000", "154349.795000", "154351.285000", "154352.775000", "154354.265000", "154355.755000", "154357.245000", "154358.735000", "154400.225000", "154401.715000", "154403.205000", "154404.695000", "154406.185000", "154407.675000", "154409.165000", "154410.655000", "154412.145000", "154413.635000", "154415.125000", "154416.615000", "154418.105000", "154419.595000", "154421.085000", "154422.575000", "154424.065000", "154425.555000", "154427.045000", "154428.535000", "154430.025000", "154431.515000", "154433.005000", "154434.495000", "154435.985000", "154437.475000", "154438.965000", "154440.455000", "154441.945000", "154443.435000", "154444.925000", "154446.415000", "154447.905000", "154449.395000", "154450.885000", "154452.375000", "154453.865000", "154455.355000", "154456.845000", "154458.335000", "154459.825000", "154501.315000", "154502.805000", "154504.295000", "154505.785000", "154507.275000", "154508.765000", "154510.255000", "154511.745000", "154513.235000", "154514.725000", "154516.215000", "154517.705000", "154519.195000", "154520.685000", "154522.175000", "154523.665000", "154525.155000"],
      "ContentTime": ["154159.914000", "154159.918000", "154159.921000", "154159.924000", "154159.928000", "154159.931000", "154159.934000", "154159.938000", "154159.941000", "154159.944000", "154159.947000", "154159.951000", "154159.954000", "154159.957000", "154159.960000", "154159.964000", "154159.967000", "154159.975000", "154159.979000", "154159.982000", "154159.985000", "154159.988000", "154219.882000", "154219.886000", "154219.889000", "154219.902000", "154219.906000", "154219.909000", "154219.912000", "154219.916000", "154219.919000", "154219.922000", "154219.926000", "154219.929000", "154219.933000", "154219.936000", "154219.939000", "154219.943000", "154219.946000", "154219.949000", "154219.953000", "154219.956000", "154239.882000", "154239.886000", "154239.889000", "154239.892000", "154239.895000", "154239.899000", "154239.902000", "154239.905000", "154239.908000", "154239.912000", "154239.915000", "154239.918000", "154239.921000", "154239.925000", "154239.928000", "154239.931000", "154239.934000", "154239.938000", "154239.941000", "154239.944000", "154259.883000", "154259.887000", "154259.890000", "154259.893000", "154259.897000", "154259.900000", "154259.903000", "154259.906000", "154259.910000", "154259.913000", "154259.916000", "154259.919000", "154259.923000", "154259.926000", "154259.929000", "154259.933000", "154259.937000", "154259.940000", "154259.944000", "154259.947000", "154319.883000", "154319.887000", "154319.890000", "154319.893000", "154319.897000", "154319.900000", "154319.903000", "154319.906000", "154319.909000", "154319.913000", "154319.916000", "154319.919000", "154319.923000", "154319.926000", "154319.929000", "154319.932000", "154319.936000", "154319.939000", "154319.942000", "154319.946000", "154319.949000", "154359.883000", "154359.887000", "154359.890000", "154359.893000", "154359.897000", "154359.900000", "154359.903000", "154359.907000", "154359.910000", "154359.913000", "154359.916000", "154359.920000", "154359.923000", "154359.926000", "154359.929000", "154359.933000", "154359.936000", "154359.939000", "154359.942000", "154359.946000", "154359.949000", "154359.952000", "154359.956000", "154359.959000", "154359.962000", "154359.965000", "154359.969000", "154359.972000", "154439.882000", "154439.934000", "154439.938000", "154439.941000", "154439.944000", "154439.947000", "154439.951000", "154439.954000", "154439.957000", "154439.960000", "154439.964000", "154439.967000", "154439.970000", "154439.974000", "154439.977000", "154439.980000", "154439.983000", "154439.987000", "154439.990000", "154439.993000", "154439.996000", "154440.001000", "154440.004000", "154440.007000", "154440.011000", "154440.014000", "154440.017000", "154519.883000", "154519.887000", "154519.890000", "154519.893000", "154519.897000", "154519.900000", "154519.903000", "154519.907000", "154519.910000", "154519.913000", "154519.916000", "154519.920000", "154519.923000", "154519.926000", "154519.930000", "154519.933000", "154519.936000", "154519.939000", "154519.943000", "154519.946000", "154519.949000", "154519.953000", "154519.956000", "154519.959000", "154519.962000", "154519.966000", "154519.973000", "154527.036000", "154527.039000", "154527.043000", "154527.046000", "154527.058000"],
      "InstanceCreationTime": ["154159.914000", "154159.918000", "154159.921000", "154159.924000", "154159.928000", "154159.931000", "154159.934000", "154159.938000", "154159.941000", "154159.944000", "154159.947000", "154159.951000", "154159.954000", "154159.957000", "154159.960000", "154159.964000", "154159.967000", "154159.975000", "154159.979000", "154159.982000", "154159.985000", "154159.988000", "154219.882000", "154219.886000", "154219.889000", "154219.902000", "154219.906000", "154219.909000", "154219.912000", "154219.916000", "154219.919000", "154219.922000", "154219.926000", "154219.929000", "154219.933000", "154219.936000", "154219.939000", "154219.943000", "154219.946000", "154219.949000", "154219.953000", "154219.956000", "154239.882000", "154239.886000", "154239.889000", "154239.892000", "154239.895000", "154239.899000", "154239.902000", "154239.905000", "154239.908000", "154239.912000", "154239.915000", "154239.918000", "154239.921000", "154239.925000", "154239.928000", "154239.931000", "154239.934000", "154239.938000", "154239.941000", "154239.944000", "154259.883000", "154259.887000", "154259.890000", "154259.893000", "154259.897000", "154259.900000", "154259.903000", "154259.906000", "154259.910000", "154259.913000", "154259.916000", "154259.919000", "154259.923000", "154259.926000", "154259.929000", "154259.933000", "154259.937000", "154259.940000", "154259.944000", "154259.947000", "154319.883000", "154319.887000", "154319.890000", "154319.893000", "154319.897000", "154319.900000", "154319.903000", "154319.906000", "154319.909000", "154319.913000", "154319.916000", "154319.919000", "154319.923000", "154319.926000", "154319.929000", "154319.932000", "154319.936000", "154319.939000", "154319.942000", "154319.946000", "154319.949000", "154359.883000", "154359.887000", "154359.890000", "154359.893000", "154359.897000", "154359.900000", "154359.903000", "154359.907000", "154359.910000", "154359.913000", "154359.916000", "154359.920000", "154359.923000", "154359.926000", "154359.929000", "154359.933000", "154359.936000", "154359.939000", "154359.942000", "154359.946000", "154359.949000", "154359.952000", "154359.956000", "154359.959000", "154359.962000", "154359.965000", "154359.969000", "154359.972000", "154439.882000", "154439.934000", "154439.938000", "154439.941000", "154439.944000", "154439.947000", "154439.951000", "154439.954000", "154439.957000", "154439.960000", "154439.964000", "154439.967000", "154439.970000", "154439.974000", "154439.977000", "154439.980000", "154439.983000", "154439.987000", "154439.990000", "154439.993000", "154439.996000", "154440.001000", "154440.004000", "154440.007000", "154440.011000", "154440.014000", "154440.017000", "154519.883000", "154519.887000", "154519.890000", "154519.893000", "154519.897000", "154519.900000", "154519.903000", "154519.907000", "154519.910000", "154519.913000", "154519.916000", "154519.920000", "154519.923000", "154519.926000", "154519.930000", "154519.933000", "154519.936000", "154519.939000", "154519.943000", "154519.946000", "154519.949000", "154519.953000", "154519.956000", "154519.959000", "154519.962000", "154519.966000", "154519.973000", "154527.036000", "154527.039000", "154527.043000", "154527.046000", "154527.058000"],
      "InstanceNumber": [1, 2, 3, 4, 5, 6, 7, 8, 9, 10, 11, 12, 13, 14, 15, 16, 17, 18, 19, 20, 21, 22, 23, 24, 25, 26, 27, 28, 29, 30, 31, 32, 33, 34, 35, 36, 37, 38, 39, 40, 41, 42, 43, 44, 45, 46, 47, 48, 49, 50, 51, 52, 53, 54, 55, 56, 57, 58, 59, 60, 61, 62, 63, 64, 65, 66, 67, 68, 69, 70, 71, 72, 73, 74, 75, 76, 77, 78, 79, 80, 81, 82, 83, 84, 85, 86, 87, 88, 89, 90, 91, 92, 93, 94, 95, 96, 97, 98, 99, 100, 101, 102, 103, 104, 105, 106, 107, 108, 109, 110, 111, 112, 113, 114, 115, 116, 117, 118, 119, 120, 121, 122, 123, 124, 125, 126, 127, 128, 129, 130, 131, 132, 133, 134, 135, 136, 137, 138, 139, 140, 141, 142, 143, 144, 145, 146, 147, 148, 149, 150, 151, 152, 153, 154, 155, 156, 157, 158, 159, 160, 161, 162, 163, 164, 165, 166, 167, 168, 169, 170, 171, 172, 173, 174, 175, 176, 177, 178, 179, 180, 181, 182, 183, 184, 185, 186, 187, 188, 189, 190],
      "LargestImagePixelValue": [42856, 41766, 40941, 40723, 40554, 40649, 40999, 40740, 40198, 40233, 40858, 40017, 40492, 39995, 39747, 39463, 40127, 40165, 40446, 40318, 39805, 39840, 39754, 39865, 40246, 39783, 39632, 39710, 39793, 39551, 40279, 40346, 39668, 40357, 39957, 39752, 39787, 40223, 39993, 39557, 39929, 40241, 39586, 40452, 40969, 41306, 40773, 40390, 40251, 40890, 40448, 39811, 40148, 40199, 40286, 39970, 40404, 40535, 39582, 40769, 40099, 39639, 40032, 40035, 39834, 39727, 39516, 40256, 40452, 40728, 40213, 39755, 40056, 39913, 40043, 40387, 40374, 39988, 40070, 40150, 40555, 40334, 40655, 40241, 40753, 40485, 40351, 40359, 40390, 40473, 40236, 40755, 40827, 40750, 40610, 40802, 40203, 40413, 40493, 40878, 41109, 40864, 40595, 41126, 40828, 40068, 40851, 40698, 40745, 40862, 40672, 41251, 40669, 40179, 41805, 41111, 41114, 41612, 41262, 40246, 40800, 39923, 40905, 39977, 40437, 40405, 41222, 39975, 41287, 40586, 40847, 40949, 40645, 40714, 41126, 41525, 41278, 41615, 41513, 41311, 41338, 40390, 41593, 41127, 40746, 40848, 40827, 41432, 40856, 40070, 39927, 40051, 39482, 40034, 40325, 40186, 41067, 41081, 41881, 39713, 41242, 41521, 40630, 40304, 40719, 40428, 40003, 40408, 40209, 39936, 40547, 41137, 40254, 40509, 40996, 40180, 41099, 41357, 39628, 39853, 39239, 40958, 40838, 39834, 40273, 39082, 38676, 38615, 39215, 39288],
      "WindowCenter": [10397.0, 10347.0, 10305.0, 10291.0, 10273.0, 10230.0, 10224.0, 10263.0, 10276.0, 10283.0, 10267.0, 10238.0, 10226.0, 10228.0, 10238.0, 10241.0, 10259.0, 10275.0, 10292.0, 10272.0, 10249.0, 10238.0, 10224.0, 10250.0, 10266.0, 10263.0, 10256.0, 10248.0, 10240.0, 10239.0, 10250.0, 10252.0, 10238.0, 10266.0, 10276.0, 10259.0, 10236.0, 10221.0, 10225.0, 10243.0, 10270.0, 10262.0, 10240.0, 10228.0, 10229.0, 10244.0, 10249.0, 10233.0, 10230.0, 10227.0, 10209.0, 10197.0, 10200.0, 10219.0, 10239.0, 10243.0, 10257.0, 10273.0, 10260.0, 10249.0, 10227.0, 10216.0, 10228.0, 10253.0, 10282.0, 10280.0, 10264.0, 10244.0, 10232.0, 10223.0, 10224.0, 10217.0, 10255.0, 10291.0, 10293.0, 10278.0, 10260.0, 10246.0, 10247.0, 10242.0, 10247.0, 10234.0, 10224.0, 10216.0, 10212.0, 10218.0, 10228.0, 10245.0, 10246.0, 10231.0, 10216.0, 10221.0, 10233.0, 10261.0, 10279.0, 10274.0, 10246.0, 10218.0, 10229.0, 10251.0, 10266.0, 10252.0, 10231.0, 10236.0, 10234.0, 10214.0, 10223.0, 10209.0, 10186.0, 10158.0, 10185.0, 10265.0, 10282.0, 10261.0, 10268.0, 10248.0, 10245.0, 10258.0, 10262.0, 10259.0, 10281.0, 10278.0, 10276.0, 10249.0, 10235.0, 10235.0, 10247.0, 10235.0, 10244.0, 10248.0, 10255.0, 10257.0, 10243.0, 10246.0, 10261.0, 10262.0, 10255.0, 10251.0, 10266.0, 10255.0, 10258.0, 10248.0, 10257.0, 10251.0, 10252.0, 10277.0, 10270.0, 10257.0, 10252.0, 10223.0, 10215.0, 10227.0, 10204.0, 10192.0, 10174.0, 10169.0, 10205.0, 10245.0, 10258.0, 10211.0, 10234.0, 10202.0, 10162.0, 10147.0, 10151.0, 10171.0, 10183.0, 10199.0, 10210.0, 10194.0, 10243.0, 10300.0, 10300.0, 10276.0, 10260.0, 10235.0, 10248.0, 10273.0, 10272.0, 10263.0, 10233.0, 10221.0, 10196.0, 10169.0, 10182.0, 10197.0, 10194.0, 10187.0, 10205.0, 10230.0],
      "WindowWidth": [22468.0, 22314.0, 22196.0, 22149.0, 22102.0, 22002.0, 21978.0, 22067.0, 22097.0, 22111.0, 22072.0, 22012.0, 21984.0, 21989.0, 22013.0, 22023.0, 22060.0, 22093.0, 22133.0, 22085.0, 22037.0, 22010.0, 21981.0, 22036.0, 22072.0, 22069.0, 22053.0, 22037.0, 22020.0, 22017.0, 22037.0, 22045.0, 22015.0, 22075.0, 22095.0, 22062.0, 22011.0, 21976.0, 21984.0, 22025.0, 22083.0, 22065.0, 22017.0, 21991.0, 21988.0, 22017.0, 22033.0, 21994.0, 21985.0, 21978.0, 21939.0, 21916.0, 21920.0, 21961.0, 22006.0, 22021.0, 22052.0, 22088.0, 22061.0, 22030.0, 21984.0, 21960.0, 21982.0, 22042.0, 22109.0, 22106.0, 22072.0, 22025.0, 21994.0, 21976.0, 21981.0, 21966.0, 22050.0, 22132.0, 22136.0, 22102.0, 22061.0, 22030.0, 22036.0, 22026.0, 22034.0, 22004.0, 21981.0, 21960.0, 21949.0, 21961.0, 21986.0, 22021.0, 22022.0, 21993.0, 21959.0, 21973.0, 22000.0, 22063.0, 22103.0, 22091.0, 22032.0, 21972.0, 21992.0, 22041.0, 22076.0, 22045.0, 21995.0, 22003.0, 22002.0, 21965.0, 21975.0, 21948.0, 21899.0, 21831.0, 21889.0, 22065.0, 22107.0, 22062.0, 22072.0, 22029.0, 22020.0, 22049.0, 22064.0, 22062.0, 22109.0, 22103.0, 22096.0, 22041.0, 22008.0, 22006.0, 22029.0, 22006.0, 22020.0, 22034.0, 22048.0, 22052.0, 22023.0, 22027.0, 22059.0, 22062.0, 22046.0, 22036.0, 22068.0, 22046.0, 22051.0, 22031.0, 22046.0, 22036.0, 22042.0, 22096.0, 22082.0, 22056.0, 22055.0, 21978.0, 21957.0, 21978.0, 21934.0, 21904.0, 21868.0, 21858.0, 21937.0, 22030.0, 22061.0, 21958.0, 22000.0, 21921.0, 21830.0, 21795.0, 21803.0, 21850.0, 21879.0, 21915.0, 21943.0, 21909.0, 22013.0, 22142.0, 22145.0, 22087.0, 22054.0, 21999.0, 22025.0, 22078.0, 22085.0, 22063.0, 22001.0, 21964.0, 21908.0, 21857.0, 21884.0, 21924.0, 21922.0, 21906.0, 21942.0, 21999.0]
    },
    "slices": {}
  }
}