{
  "AcquisitionMatrixPE": 104,
  "AcquisitionNumber": 1,
  "AcquisitionTime": "15:34:5.780000",
  "BandwidthPerPixelPhaseEncode": 17.17,
  "BaseResolution": 104,
  "BodyPartExamined": "BRAIN",
  "CoilString": "HC1-7;NC1_2",
  "ConsistencyInfo": "N4_VE11C_LATEST_20160120",
  "ConversionSoftware": "dcm2niix",
  "ConversionSoftwareVersion": "v1.0.20190902",
  "DerivedVendorReportedEchoSpacing": 0.000560011,
  "DeviceSerialNumber": "167006",
  "DwellTime": 2.1e-06,
  "EchoTime": 0.037,
  "EchoTrainLength": 104,
  "EffectiveEchoSpacing": 0.000560011,
  "FlipAngle": 52,
  "HeudiconvVersion": "0.10.0",
  "ImageComments": "Unaliased_MB4_PE3_LB",
  "ImageOrientationPatientDICOM": [0.999074, -0.0357622, 0.0239149, 0.0418736, 0.935889, -0.349798],
  "ImageType": [
    "ORIGINAL",
    "PRIMARY",
    "M",
    "MB",
    "ND",
    "MOSAIC"
],
  "ImagingFrequency": 123.259,
  "InPlanePhaseEncodingDirectionDICOM": "COL",
  "InstitutionAddress": "Chemin_Queen-Mary_4565_Montreal_District_CA_H3W_1W5",
  "InstitutionName": "IUGM",
  "InstitutionalDepartmentName": "Department",
  "MRAcquisitionType": "2D",
  "MagneticFieldStrength": 3,
  "Manufacturer": "Siemens",
  "ManufacturersModelName": "Prisma_fit",
  "Modality": "MR",
  "MultibandAccelerationFactor": 4,
  "PartialFourier": 1,
  "PatientPosition": "HFS",
  "PercentPhaseFOV": 100,
  "PhaseEncodingDirection": "j",
  "PhaseEncodingSteps": 104,
  "PhaseResolution": 1,
  "PixelBandwidth": 2290,
  "ProcedureStepDescription": "memory_things",
  "ProtocolName": "func_task-things_run-3",
  "PulseSequenceDetails": "%CustomerSeq%_cmrr_mbep2d_bold",
  "ReceiveCoilActiveElements": "HC1-7;NC1,2",
  "ReceiveCoilName": "HeadNeck_64",
  "ReconMatrixPE": 104,
  "RepetitionTime": 1.49,
  "SAR": 0.0492822,
  "ScanOptions": "FS",
  "ScanningSequence": "EP",
  "SequenceName": "epfid2d1_104",
  "SequenceVariant": "SK_SS",
  "SeriesDescription": "func_task-things_run-3",
  "SeriesNumber": 16,
  "ShimSetting": [624, -7251, -8827, 569, -14, -241, -71, -23],
  "SliceThickness": 2,
  "SliceTiming": [0, 0.785, 0.0975, 0.8825, 0.1975, 0.98, 0.295, 1.0775, 0.3925, 1.1775, 0.49, 1.275, 0.5875, 1.3725, 0.6875, 0, 0.785, 0.0975, 0.8825, 0.1975, 0.98, 0.295, 1.0775, 0.3925, 1.1775, 0.49, 1.275, 0.5875, 1.3725, 0.6875, 0, 0.785, 0.0975, 0.8825, 0.1975, 0.98, 0.295, 1.0775, 0.3925, 1.1775, 0.49, 1.275, 0.5875, 1.3725, 0.6875, 0, 0.785, 0.0975, 0.8825, 0.1975, 0.98, 0.295, 1.0775, 0.3925, 1.1775, 0.49, 1.275, 0.5875, 1.3725, 0.6875],
  "SoftwareVersions": "syngo_MR_E11",
  "SpacingBetweenSlices": 2,
  "StationName": "MRC35049",
  "TaskName": "things",
  "TotalReadoutTime": 0.0576811,
  "TxRefAmp": 255.364,
  "WipMemBlock": "4e184704-09e4-4551-8cc4-e992e020d968||Sequence: R016 ve11c/master r/e634e98; Dec 19 2017 11:00:25 by eja",
  "dcmmeta_affine": [
    [-1.9981483221054077, 0.08374722301959991, 0.019744200631976128, 102.78905487060547],
    [0.07152444124221802, 1.8717775344848633, -0.7009515762329102, -67.42516326904297],
    [0.047829750925302505, 0.6995965242385864, 1.8730394840240479, -66.76980590820312],
    [0.0, 0.0, 0.0, 1.0]
],
  "dcmmeta_reorient_transform": [
    [0.0, -1.0, 0.0, 103.0],
    [1.0, 0.0, 0.0, 0.0],
    [0.0, 0.0, 1.0, 0.0],
    [0.0, 0.0, 0.0, 1.0]
],
  "dcmmeta_shape": [104, 104, 60, 190],
  "dcmmeta_slice_dim": 2,
  "dcmmeta_version": 0.6,
  "global": {
    "const": {
      "AcquisitionMatrix": [104, 0, 0, 104],
      "AngioFlag": "N",
      "BitsAllocated": 16,
      "BitsStored": 16,
      "BodyPartExamined": "BRAIN",
      "Columns": 832,
      "EchoNumbers": 1,
      "EchoTime": 37.0,
      "EchoTrainLength": 104,
      "FlipAngle": 52.0,
      "HighBit": 15,
      "ImageOrientationPatient": [0.99907414259308, -0.0357622197861, 0.02391487482453, 0.0418736102778, 0.93588876300746, -0.3497982619149],
      "ImagePositionPatient": [-869.22498566697, -780.66004660968, 242.53174472177],
      "ImageType": [
        "ORIGINAL",
        "PRIMARY",
        "M",
        "MB",
        "ND",
        "MOSAIC"
],
      "ImagedNucleus": "1H",
      "ImagingFrequency": 123.258862,
      "InPlanePhaseEncodingDirection": "COL",
      "MRAcquisitionType": "2D",
      "MagneticFieldStrength": 3.0,
      "Manufacturer": "SIEMENS",
      "ManufacturerModelName": "Prisma_fit",
      "Modality": "MR",
      "NumberOfAverages": 1.0,
      "NumberOfPhaseEncodingSteps": 104,
      "PercentPhaseFieldOfView": 100.0,
      "PercentSampling": 100.0,
      "PerformedProcedureStepStartTime": "145904.354000",
      "PhotometricInterpretation": "MONOCHROME2",
      "PixelBandwidth": 2290.0,
      "PixelRepresentation": 0,
      "PixelSpacing": [2.0, 2.0],
      "ProtocolName": "func_task-things_run-3",
      "RepetitionTime": 1490.0,
      "Rows": 832,
      "SAR": 0.04928222152169,
      "SamplesPerPixel": 1,
      "ScanOptions": "FS",
      "ScanningSequence": "EP",
      "SequenceName": "epfid2d1_104",
      "SequenceVariant": [
        "SK",
        "SS"
],
      "SeriesDescription": "func_task-things_run-3",
      "SeriesNumber": 16,
      "SeriesTime": "153542.512000",
      "SliceLocation": -37.885608150683,
      "SliceThickness": 2.0,
      "SmallestImagePixelValue": 0,
      "SoftwareVersions": "syngo MR E11",
      "SpacingBetweenSlices": 1.9999999939071,
      "SpecificCharacterSet": "ISO_IR 100",
      "StudyID": "1",
      "StudyTime": "145904.263000",
      "TransmitCoilName": "Body",
      "VariableFlipAngleFlag": "N",
      "WindowCenterWidthExplanation": "Algo1",
      "dBdt": 0.0},
    "slices": {}
  },
  "time": {
    "samples": {
      "AcquisitionNumber": [1, 2, 3, 4, 5, 6, 7, 8, 9, 10, 11, 12, 13, 14, 15, 16, 17, 18, 19, 20, 21, 22, 23, 24, 25, 26, 27, 28, 29, 30, 31, 32, 33, 34, 35, 36, 37, 38, 39, 40, 41, 42, 43, 44, 45, 46, 47, 48, 49, 50, 51, 52, 53, 54, 55, 56, 57, 58, 59, 60, 61, 62, 63, 64, 65, 66, 67, 68, 69, 70, 71, 72, 73, 74, 75, 76, 77, 78, 79, 80, 81, 82, 83, 84, 85, 86, 87, 88, 89, 90, 91, 92, 93, 94, 95, 96, 97, 98, 99, 100, 101, 102, 103, 104, 105, 106, 107, 108, 109, 110, 111, 112, 113, 114, 115, 116, 117, 118, 119, 120, 121, 122, 123, 124, 125, 126, 127, 128, 129, 130, 131, 132, 133, 134, 135, 136, 137, 138, 139, 140, 141, 142, 143, 144, 145, 146, 147, 148, 149, 150, 151, 152, 153, 154, 155, 156, 157, 158, 159, 160, 161, 162, 163, 164, 165, 166, 167, 168, 169, 170, 171, 172, 173, 174, 175, 176, 177, 178, 179, 180, 181, 182, 183, 184, 185, 186, 187, 188, 189, 190],
      "AcquisitionTime": ["153405.780000", "153407.270000", "153408.760000", "153410.250000", "153411.740000", "153413.230000", "153414.720000", "153416.210000", "153417.700000", "153419.190000", "153420.680000", "153422.170000", "153423.660000", "153425.150000", "153426.640000", "153428.130000", "153429.620000", "153431.110000", "153432.600000", "153434.090000", "153435.580000", "153437.070000", "153438.560000", "153440.050000", "153441.540000", "153443.030000", "153444.520000", "153446.010000", "153447.500000", "153448.990000", "153450.480000", "153451.970000", "153453.460000", "153454.950000", "153456.440000", "153457.930000", "153459.420000", "153500.910000", "153502.400000", "153503.890000", "153505.380000", "153506.870000", "153508.360000", "153509.850000", "153511.340000", "153512.830000", "153514.320000", "153515.810000", "153517.300000", "153518.790000", "153520.280000", "153521.770000", "153523.260000", "153524.750000", "153526.240000", "153527.730000", "153529.220000", "153530.710000", "153532.200000", "153533.690000", "153535.180000", "153536.670000", "153538.160000", "153539.650000", "153541.140000", "153542.630000", "153544.120000", "153545.610000", "153547.100000", "153548.590000", "153550.080000", "153551.570000", "153553.060000", "153554.550000", "153556.040000", "153557.530000", "153559.020000", "153600.510000", "153602.000000", "153603.490000", "153604.980000", "153606.470000", "153607.960000", "153609.450000", "153610.940000", "153612.430000", "153613.920000", "153615.410000", "153616.900000", "153618.390000", "153619.880000", "153621.370000", "153622.860000", "153624.350000", "153625.840000", "153627.330000", "153628.820000", "153630.310000", "153631.800000", "153633.290000", "153634.780000", "153636.270000", "153637.760000", "153639.250000", "153640.740000", "153642.230000", "153643.720000", "153645.210000", "153646.700000", "153648.190000", "153649.680000", "153651.170000", "153652.660000", "153654.150000", "153655.640000", "153657.130000", "153658.620000", "153700.110000", "153701.600000", "153703.090000", "153704.580000", "153706.070000", "153707.560000", "153709.050000", "153710.540000", "153712.030000", "153713.520000", "153715.010000", "153716.500000", "153717.990000", "153719.480000", "153720.970000", "153722.460000", "153723.950000", "153725.440000", "153726.930000", "153728.420000", "153729.910000", "153731.400000", "153732.890000", "153734.380000", "153735.870000", "153737.360000", "153738.850000", "153740.340000", "153741.830000", "153743.320000", "153744.810000", "153746.300000", "153747.790000", "153749.280000", "153750.770000", "153752.260000", "153753.750000", "153755.240000", "153756.730000", "153758.220000", "153759.710000", "153801.200000", "153802.690000", "153804.180000", "153805.670000", "153807.160000", "153808.650000", "153810.140000", "153811.630000", "153813.120000", "153814.610000", "153816.100000", "153817.590000", "153819.080000", "153820.570000", "153822.060000", "153823.550000", "153825.040000", "153826.530000", "153828.020000", "153829.510000", "153831.000000", "153832.490000", "153833.980000", "153835.470000", "153836.960000", "153838.450000", "153839.940000", "153841.430000", "153842.920000", "153844.410000", "153845.900000", "153847.390000"],
      "ContentTime": ["153542.516000", "153542.528000", "153542.531000", "153542.535000", "153542.538000", "153542.541000", "153542.544000", "153542.548000", "153542.551000", "153542.554000", "153542.557000", "153542.561000", "153542.564000", "153542.568000", "153542.571000", "153542.574000", "153542.578000", "153542.581000", "153542.584000", "153542.588000", "153542.591000", "153542.594000", "153542.597000", "153542.601000", "153542.604000", "153542.607000", "153542.611000", "153542.614000", "153542.617000", "153542.620000", "153542.624000", "153542.637000", "153542.640000", "153542.643000", "153542.646000", "153542.650000", "153542.658000", "153542.662000", "153542.665000", "153602.482000", "153602.486000", "153602.489000", "153602.492000", "153602.496000", "153602.499000", "153602.502000", "153602.506000", "153602.509000", "153602.512000", "153602.515000", "153602.519000", "153602.522000", "153602.525000", "153602.529000", "153602.532000", "153602.535000", "153602.538000", "153602.542000", "153602.545000", "153622.481000", "153622.485000", "153622.488000", "153622.491000", "153622.495000", "153622.498000", "153622.501000", "153622.505000", "153622.508000", "153622.511000", "153622.515000", "153622.518000", "153622.521000", "153622.525000", "153622.528000", "153622.531000", "153622.535000", "153622.538000", "153622.541000", "153622.544000", "153642.481000", "153642.485000", "153642.488000", "153642.491000", "153642.495000", "153642.498000", "153642.501000", "153642.505000", "153642.508000", "153642.511000", "153642.515000", "153642.518000", "153642.522000", "153642.525000", "153642.528000", "153642.532000", "153642.535000", "153642.538000", "153642.541000", "153642.545000", "153722.481000", "153722.485000", "153722.488000", "153722.491000", "153722.495000", "153722.498000", "153722.502000", "153722.505000", "153722.508000", "153722.511000", "153722.515000", "153722.518000", "153722.521000", "153722.525000", "153722.528000", "153722.531000", "153722.534000", "153722.538000", "153722.541000", "153722.544000", "153722.548000", "153722.551000", "153722.554000", "153722.558000", "153722.561000", "153722.564000", "153722.568000", "153722.571000", "153722.574000", "153722.578000", "153722.581000", "153722.584000", "153802.482000", "153802.486000", "153802.489000", "153802.493000", "153802.496000", "153802.499000", "153802.503000", "153802.506000", "153802.509000", "153802.512000", "153802.516000", "153802.519000", "153802.522000", "153802.526000", "153802.529000", "153802.532000", "153802.535000", "153802.538000", "153802.542000", "153802.545000", "153802.548000", "153802.552000", "153802.555000", "153802.558000", "153802.561000", "153802.565000", "153802.568000", "153842.481000", "153842.485000", "153842.488000", "153842.491000", "153842.495000", "153842.498000", "153842.501000", "153842.504000", "153842.508000", "153842.511000", "153842.514000", "153842.518000", "153842.521000", "153842.524000", "153842.528000", "153842.531000", "153842.534000", "153842.537000", "153842.541000", "153842.544000", "153842.547000", "153842.550000", "153842.554000", "153842.557000", "153842.560000", "153842.563000", "153842.567000", "153849.452000", "153849.455000", "153849.459000", "153849.462000", "153849.465000"],
      "InstanceCreationTime": ["153542.516000", "153542.528000", "153542.531000", "153542.535000", "153542.538000", "153542.541000", "153542.544000", "153542.548000", "153542.551000", "153542.554000", "153542.557000", "153542.561000", "153542.564000", "153542.568000", "153542.571000", "153542.574000", "153542.578000", "153542.581000", "153542.584000", "153542.588000", "153542.591000", "153542.594000", "153542.597000", "153542.601000", "153542.604000", "153542.607000", "153542.611000", "153542.614000", "153542.617000", "153542.620000", "153542.624000", "153542.637000", "153542.640000", "153542.643000", "153542.646000", "153542.650000", "153542.658000", "153542.662000", "153542.665000", "153602.482000", "153602.486000", "153602.489000", "153602.492000", "153602.496000", "153602.499000", "153602.502000", "153602.506000", "153602.509000", "153602.512000", "153602.515000", "153602.519000", "153602.522000", "153602.525000", "153602.529000", "153602.532000", "153602.535000", "153602.538000", "153602.542000", "153602.545000", "153622.481000", "153622.485000", "153622.488000", "153622.491000", "153622.495000", "153622.498000", "153622.501000", "153622.505000", "153622.508000", "153622.511000", "153622.515000", "153622.518000", "153622.521000", "153622.525000", "153622.528000", "153622.531000", "153622.535000", "153622.538000", "153622.541000", "153622.544000", "153642.481000", "153642.485000", "153642.488000", "153642.491000", "153642.495000", "153642.498000", "153642.501000", "153642.505000", "153642.508000", "153642.511000", "153642.515000", "153642.518000", "153642.522000", "153642.525000", "153642.528000", "153642.532000", "153642.535000", "153642.538000", "153642.541000", "153642.545000", "153722.481000", "153722.485000", "153722.488000", "153722.491000", "153722.495000", "153722.498000", "153722.502000", "153722.505000", "153722.508000", "153722.511000", "153722.515000", "153722.518000", "153722.521000", "153722.525000", "153722.528000", "153722.531000", "153722.534000", "153722.538000", "153722.541000", "153722.544000", "153722.548000", "153722.551000", "153722.554000", "153722.558000", "153722.561000", "153722.564000", "153722.568000", "153722.571000", "153722.574000", "153722.578000", "153722.581000", "153722.584000", "153802.482000", "153802.486000", "153802.489000", "153802.493000", "153802.496000", "153802.499000", "153802.503000", "153802.506000", "153802.509000", "153802.512000", "153802.516000", "153802.519000", "153802.522000", "153802.526000", "153802.529000", "153802.532000", "153802.535000", "153802.538000", "153802.542000", "153802.545000", "153802.548000", "153802.552000", "153802.555000", "153802.558000", "153802.561000", "153802.565000", "153802.568000", "153842.481000", "153842.485000", "153842.488000", "153842.491000", "153842.495000", "153842.498000", "153842.501000", "153842.504000", "153842.508000", "153842.511000", "153842.514000", "153842.518000", "153842.521000", "153842.524000", "153842.528000", "153842.531000", "153842.534000", "153842.537000", "153842.541000", "153842.544000", "153842.547000", "153842.550000", "153842.554000", "153842.557000", "153842.560000", "153842.563000", "153842.567000", "153849.452000", "153849.455000", "153849.459000", "153849.462000", "153849.465000"],
      "InstanceNumber": [1, 2, 3, 4, 5, 6, 7, 8, 9, 10, 11, 12, 13, 14, 15, 16, 17, 18, 19, 20, 21, 22, 23, 24, 25, 26, 27, 28, 29, 30, 31, 32, 33, 34, 35, 36, 37, 38, 39, 40, 41, 42, 43, 44, 45, 46, 47, 48, 49, 50, 51, 52, 53, 54, 55, 56, 57, 58, 59, 60, 61, 62, 63, 64, 65, 66, 67, 68, 69, 70, 71, 72, 73, 74, 75, 76, 77, 78, 79, 80, 81, 82, 83, 84, 85, 86, 87, 88, 89, 90, 91, 92, 93, 94, 95, 96, 97, 98, 99, 100, 101, 102, 103, 104, 105, 106, 107, 108, 109, 110, 111, 112, 113, 114, 115, 116, 117, 118, 119, 120, 121, 122, 123, 124, 125, 126, 127, 128, 129, 130, 131, 132, 133, 134, 135, 136, 137, 138, 139, 140, 141, 142, 143, 144, 145, 146, 147, 148, 149, 150, 151, 152, 153, 154, 155, 156, 157, 158, 159, 160, 161, 162, 163, 164, 165, 166, 167, 168, 169, 170, 171, 172, 173, 174, 175, 176, 177, 178, 179, 180, 181, 182, 183, 184, 185, 186, 187, 188, 189, 190],
      "LargestImagePixelValue": [43196, 41929, 41141, 40482, 40047, 40771, 40549, 40462, 39651, 40226, 39170, 39856, 41297, 41030, 40568, 40656, 40773, 40676, 40300, 40126, 40234, 40170, 40912, 39948, 39759, 39697, 40297, 40464, 40349, 40474, 40286, 40705, 40323, 39963, 40092, 39828, 40244, 39919, 39891, 40242, 40254, 40049, 39532, 39668, 40056, 39571, 40072, 40048, 40490, 40062, 39740, 39837, 40178, 40060, 41084, 40010, 39287, 42115, 42771, 41093, 41243, 39908, 39296, 38947, 39914, 39605, 40116, 41287, 41058, 41158, 41568, 40664, 40928, 40818, 40601, 40737, 39756, 39939, 40903, 39990, 40669, 41419, 40212, 39982, 39828, 40020, 39324, 40395, 40483, 40276, 40600, 40989, 41150, 41826, 40177, 39972, 40581, 40468, 41450, 41115, 41705, 41351, 41786, 41589, 42032, 41776, 41505, 41239, 40657, 40290, 40565, 40458, 39499, 40215, 39508, 39492, 40381, 38523, 39199, 39499, 39345, 40026, 40975, 40343, 40733, 40811, 40156, 41143, 39732, 40334, 40989, 39965, 40351, 39175, 39717, 39576, 39173, 40678, 40378, 40293, 39706, 39818, 39742, 39438, 40283, 39515, 39876, 39663, 39017, 39437, 38760, 39293, 39169, 39217, 39161, 39228, 39325, 38817, 38976, 39423, 39589, 39219, 38930, 38679, 38734, 39395, 39123, 39445, 39805, 38999, 39265, 39341, 39716, 38999, 39730, 38618, 39032, 39198, 38946, 39003, 40073, 38781, 38574, 38927, 39086, 39211, 39631, 39273, 39061, 40364],
      "WindowCenter": [10397.0, 10352.0, 10349.0, 10348.0, 10359.0, 10342.0, 10287.0, 10265.0, 10267.0, 10273.0, 10242.0, 10243.0, 10242.0, 10244.0, 10260.0, 10279.0, 10296.0, 10297.0, 10308.0, 10317.0, 10320.0, 10311.0, 10304.0, 10295.0, 10298.0, 10305.0, 10330.0, 10341.0, 10351.0, 10330.0, 10312.0, 10314.0, 10327.0, 10330.0, 10305.0, 10298.0, 10306.0, 10295.0, 10302.0, 10316.0, 10321.0, 10307.0, 10278.0, 10267.0, 10294.0, 10315.0, 10314.0, 10307.0, 10314.0, 10320.0, 10315.0, 10307.0, 10300.0, 10286.0, 10293.0, 10295.0, 10309.0, 10333.0, 10344.0, 10294.0, 10263.0, 10217.0, 10180.0, 10175.0, 10229.0, 10251.0, 10271.0, 10296.0, 10286.0, 10304.0, 10296.0, 10308.0, 10319.0, 10324.0, 10325.0, 10306.0, 10268.0, 10264.0, 10281.0, 10289.0, 10307.0, 10316.0, 10304.0, 10283.0, 10267.0, 10264.0, 10266.0, 10299.0, 10316.0, 10304.0, 10279.0, 10253.0, 10241.0, 10303.0, 10340.0, 10338.0, 10312.0, 10262.0, 10237.0, 10228.0, 10232.0, 10240.0, 10246.0, 10242.0, 10241.0, 10238.0, 10246.0, 10266.0, 10287.0, 10274.0, 10286.0, 10279.0, 10279.0, 10290.0, 10268.0, 10268.0, 10265.0, 10227.0, 10216.0, 10222.0, 10231.0, 10241.0, 10231.0, 10208.0, 10197.0, 10191.0, 10232.0, 10286.0, 10268.0, 10249.0, 10258.0, 10278.0, 10290.0, 10288.0, 10287.0, 10261.0, 10238.0, 10243.0, 10246.0, 10267.0, 10281.0, 10282.0, 10260.0, 10245.0, 10248.0, 10237.0, 10242.0, 10248.0, 10259.0, 10262.0, 10243.0, 10230.0, 10221.0, 10233.0, 10259.0, 10283.0, 10271.0, 10252.0, 10245.0, 10236.0, 10239.0, 10243.0, 10252.0, 10239.0, 10223.0, 10225.0, 10226.0, 10249.0, 10264.0, 10253.0, 10250.0, 10237.0, 10216.0, 10193.0, 10211.0, 10226.0, 10236.0, 10215.0, 10190.0, 10202.0, 10245.0, 10279.0, 10275.0, 10250.0, 10224.0, 10226.0, 10246.0, 10249.0, 10241.0, 10250.0],
      "WindowWidth": [22487.0, 22340.0, 22312.0, 22301.0, 22317.0, 22270.0, 22139.0, 22084.0, 22088.0, 22102.0, 22038.0, 22032.0, 22031.0, 22037.0, 22070.0, 22116.0, 22157.0, 22160.0, 22187.0, 22205.0, 22211.0, 22194.0, 22174.0, 22155.0, 22165.0, 22181.0, 22234.0, 22260.0, 22283.0, 22237.0, 22199.0, 22198.0, 22232.0, 22236.0, 22180.0, 22162.0, 22178.0, 22155.0, 22174.0, 22204.0, 22218.0, 22185.0, 22124.0, 22099.0, 22158.0, 22204.0, 22202.0, 22189.0, 22201.0, 22219.0, 22208.0, 22189.0, 22171.0, 22141.0, 22149.0, 22155.0, 22194.0, 22246.0, 22280.0, 22163.0, 22086.0, 21977.0, 21894.0, 21879.0, 21996.0, 22046.0, 22091.0, 22148.0, 22129.0, 22168.0, 22150.0, 22176.0, 22200.0, 22211.0, 22216.0, 22174.0, 22091.0, 22080.0, 22114.0, 22140.0, 22176.0, 22196.0, 22170.0, 22125.0, 22090.0, 22081.0, 22089.0, 22167.0, 22198.0, 22170.0, 22112.0, 22058.0, 22027.0, 22165.0, 22256.0, 22255.0, 22191.0, 22077.0, 22012.0, 21993.0, 21999.0, 22021.0, 22031.0, 22025.0, 22021.0, 22015.0, 22037.0, 22083.0, 22131.0, 22103.0, 22130.0, 22114.0, 22121.0, 22142.0, 22090.0, 22092.0, 22077.0, 21995.0, 21967.0, 21978.0, 21998.0, 22020.0, 21996.0, 21946.0, 21921.0, 21903.0, 21997.0, 22114.0, 22083.0, 22041.0, 22058.0, 22107.0, 22134.0, 22136.0, 22127.0, 22069.0, 22018.0, 22024.0, 22036.0, 22078.0, 22114.0, 22115.0, 22063.0, 22032.0, 22036.0, 22019.0, 22027.0, 22041.0, 22067.0, 22074.0, 22035.0, 22001.0, 21983.0, 22009.0, 22067.0, 22120.0, 22096.0, 22057.0, 22035.0, 22018.0, 22022.0, 22032.0, 22051.0, 22022.0, 21988.0, 21990.0, 21993.0, 22045.0, 22082.0, 22054.0, 22049.0, 22021.0, 21967.0, 21917.0, 21952.0, 21988.0, 22012.0, 21965.0, 21913.0, 21940.0, 22033.0, 22113.0, 22105.0, 22051.0, 21995.0, 21994.0, 22036.0, 22043.0, 22027.0, 22052.0]
    },
    "slices": {}
  }
}