{
  "AcquisitionMatrixPE": 104,
  "AcquisitionNumber": 1,
  "AcquisitionTime": "15:27:35.302500",
  "BandwidthPerPixelPhaseEncode": 17.17,
  "BaseResolution": 104,
  "BodyPartExamined": "BRAIN",
  "CoilString": "HC1-7;NC1_2",
  "ConsistencyInfo": "N4_VE11C_LATEST_20160120",
  "ConversionSoftware": "dcm2niix",
  "ConversionSoftwareVersion": "v1.0.20190902",
  "DerivedVendorReportedEchoSpacing": 0.000560011,
  "DeviceSerialNumber": "167006",
  "DwellTime": 2.1e-06,
  "EchoTime": 0.037,
  "EchoTrainLength": 104,
  "EffectiveEchoSpacing": 0.000560011,
  "FlipAngle": 52,
  "HeudiconvVersion": "0.10.0",
  "ImageComments": "Unaliased_MB4_PE3_LB",
  "ImageOrientationPatientDICOM": [0.999074, -0.0357622, 0.0239149, 0.0418736, 0.935889, -0.349798],
  "ImageType": [
    "ORIGINAL",
    "PRIMARY",
    "P",
    "MB",
    "ND",
    "MOSAIC"
],
  "ImagingFrequency": 123.259,
  "InPlanePhaseEncodingDirectionDICOM": "COL",
  "InstitutionAddress": "Chemin_Queen-Mary_4565_Montreal_District_CA_H3W_1W5",
  "InstitutionName": "IUGM",
  "InstitutionalDepartmentName": "Department",
  "MRAcquisitionType": "2D",
  "MagneticFieldStrength": 3,
  "Manufacturer": "Siemens",
  "ManufacturersModelName": "Prisma_fit",
  "Modality": "MR",
  "MultibandAccelerationFactor": 4,
  "PartialFourier": 1,
  "PatientPosition": "HFS",
  "PercentPhaseFOV": 100,
  "PhaseEncodingDirection": "j",
  "PhaseEncodingSteps": 104,
  "PhaseResolution": 1,
  "PixelBandwidth": 2290,
  "ProcedureStepDescription": "memory_things",
  "ProtocolName": "func_task-things_run-2",
  "PulseSequenceDetails": "%CustomerSeq%_cmrr_mbep2d_bold",
  "ReceiveCoilActiveElements": "HC1-7;NC1,2",
  "ReceiveCoilName": "HeadNeck_64",
  "ReconMatrixPE": 104,
  "RepetitionTime": 1.49,
  "SAR": 0.0492822,
  "ScanOptions": "FS",
  "ScanningSequence": "EP",
  "SequenceName": "epfid2d1_104",
  "SequenceVariant": "SK_SS",
  "SeriesDescription": "func_task-things_run-2",
  "SeriesNumber": 14,
  "ShimSetting": [624, -7251, -8827, 569, -14, -241, -71, -23],
  "SliceThickness": 2,
  "SliceTiming": [0, 0.7825, 0.0975, 0.88, 0.195, 0.9775, 0.2925, 1.0775, 0.39, 1.175, 0.4875, 1.2725, 0.5875, 1.37, 0.685, 0, 0.7825, 0.0975, 0.88, 0.195, 0.9775, 0.2925, 1.0775, 0.39, 1.175, 0.4875, 1.2725, 0.5875, 1.37, 0.685, 0, 0.7825, 0.0975, 0.88, 0.195, 0.9775, 0.2925, 1.0775, 0.39, 1.175, 0.4875, 1.2725, 0.5875, 1.37, 0.685, 0, 0.7825, 0.0975, 0.88, 0.195, 0.9775, 0.2925, 1.0775, 0.39, 1.175, 0.4875, 1.2725, 0.5875, 1.37, 0.685],
  "SoftwareVersions": "syngo_MR_E11",
  "SpacingBetweenSlices": 2,
  "StationName": "MRC35049",
  "TaskName": "things",
  "TotalReadoutTime": 0.0576811,
  "TxRefAmp": 255.364,
  "WipMemBlock": "c8b09b64-7a32-42f6-bedb-06751c56b71a||Sequence: R016 ve11c/master r/e634e98; Dec 19 2017 11:00:25 by eja",
  "dcmmeta_affine": [
    [-1.9981483221054077, 0.08374722301959991, 0.019744200631976128, 102.78905487060547],
    [0.07152444124221802, 1.8717775344848633, -0.7009515762329102, -67.42516326904297],
    [0.047829750925302505, 0.6995965242385864, 1.8730394840240479, -66.76980590820312],
    [0.0, 0.0, 0.0, 1.0]
],
  "dcmmeta_reorient_transform": [
    [0.0, -1.0, 0.0, 103.0],
    [1.0, 0.0, 0.0, 0.0],
    [0.0, 0.0, 1.0, 0.0],
    [0.0, 0.0, 0.0, 1.0]
],
  "dcmmeta_shape": [104, 104, 60, 190],
  "dcmmeta_slice_dim": 2,
  "dcmmeta_version": 0.6,
  "global": {
    "const": {
      "AcquisitionMatrix": [104, 0, 0, 104],
      "AngioFlag": "N",
      "BitsAllocated": 16,
      "BitsStored": 16,
      "BodyPartExamined": "BRAIN",
      "Columns": 832,
      "EchoNumbers": 1,
      "EchoTime": 37.0,
      "EchoTrainLength": 104,
      "FlipAngle": 52.0,
      "HighBit": 15,
      "ImageOrientationPatient": [0.99907414259308, -0.0357622197861, 0.02391487482453, 0.0418736102778, 0.93588876300746, -0.3497982619149],
      "ImagePositionPatient": [-869.22498566697, -780.66004660968, 242.53174472177],
      "ImageType": [
        "ORIGINAL",
        "PRIMARY",
        "P",
        "MB",
        "ND",
        "MOSAIC"
],
      "ImagedNucleus": "1H",
      "ImagingFrequency": 123.25886,
      "InPlanePhaseEncodingDirection": "COL",
      "LargestImagePixelValue": 4095,
      "MRAcquisitionType": "2D",
      "MagneticFieldStrength": 3.0,
      "Manufacturer": "SIEMENS",
      "ManufacturerModelName": "Prisma_fit",
      "Modality": "MR",
      "NumberOfAverages": 1.0,
      "NumberOfPhaseEncodingSteps": 104,
      "PercentPhaseFieldOfView": 100.0,
      "PercentSampling": 100.0,
      "PerformedProcedureStepStartTime": "145904.354000",
      "PhotometricInterpretation": "MONOCHROME2",
      "PixelBandwidth": 2290.0,
      "PixelRepresentation": 0,
      "PixelSpacing": [2.0, 2.0],
      "ProtocolName": "func_task-things_run-2",
      "RepetitionTime": 1490.0,
      "RescaleIntercept": -4096.0,
      "RescaleSlope": 2.0,
      "RescaleType": "US",
      "Rows": 832,
      "SAR": 0.04928222152169,
      "SamplesPerPixel": 1,
      "ScanOptions": "FS",
      "ScanningSequence": "EP",
      "SequenceName": "epfid2d1_104",
      "SequenceVariant": [
        "SK",
        "SS"
],
      "SeriesDescription": "func_task-things_run-2",
      "SeriesNumber": 14,
      "SeriesTime": "152851.604000",
      "SliceLocation": -37.885608150683,
      "SliceThickness": 2.0,
      "SmallestImagePixelValue": 0,
      "SoftwareVersions": "syngo MR E11",
      "SpacingBetweenSlices": 1.9999999939071,
      "SpecificCharacterSet": "ISO_IR 100",
      "StudyID": "1",
      "StudyTime": "145904.263000",
      "TransmitCoilName": "Body",
      "VariableFlipAngleFlag": "N",
      "WindowCenterWidthExplanation": "Algo1",
      "dBdt": 0.0},
    "slices": {}
  },
  "time": {
    "samples": {
      "AcquisitionNumber": [1, 2, 3, 4, 5, 6, 7, 8, 9, 10, 11, 12, 13, 14, 15, 16, 17, 18, 19, 20, 21, 22, 23, 24, 25, 26, 27, 28, 29, 30, 31, 32, 33, 34, 35, 36, 37, 38, 39, 40, 41, 42, 43, 44, 45, 46, 47, 48, 49, 50, 51, 52, 53, 54, 55, 56, 57, 58, 59, 60, 61, 62, 63, 64, 65, 66, 67, 68, 69, 70, 71, 72, 73, 74, 75, 76, 77, 78, 79, 80, 81, 82, 83, 84, 85, 86, 87, 88, 89, 90, 91, 92, 93, 94, 95, 96, 97, 98, 99, 100, 101, 102, 103, 104, 105, 106, 107, 108, 109, 110, 111, 112, 113, 114, 115, 116, 117, 118, 119, 120, 121, 122, 123, 124, 125, 126, 127, 128, 129, 130, 131, 132, 133, 134, 135, 136, 137, 138, 139, 140, 141, 142, 143, 144, 145, 146, 147, 148, 149, 150, 151, 152, 153, 154, 155, 156, 157, 158, 159, 160, 161, 162, 163, 164, 165, 166, 167, 168, 169, 170, 171, 172, 173, 174, 175, 176, 177, 178, 179, 180, 181, 182, 183, 184, 185, 186, 187, 188, 189, 190],
      "AcquisitionTime": ["152735.302500", "152736.792500", "152738.282500", "152739.772500", "152741.262500", "152742.752500", "152744.242500", "152745.732500", "152747.222500", "152748.712500", "152750.202500", "152751.692500", "152753.182500", "152754.672500", "152756.162500", "152757.652500", "152759.142500", "152800.632500", "152802.122500", "152803.612500", "152805.102500", "152806.592500", "152808.082500", "152809.572500", "152811.062500", "152812.552500", "152814.042500", "152815.532500", "152817.022500", "152818.512500", "152820.002500", "152821.492500", "152822.982500", "152824.472500", "152825.962500", "152827.452500", "152828.942500", "152830.432500", "152831.922500", "152833.412500", "152834.902500", "152836.392500", "152837.882500", "152839.372500", "152840.862500", "152842.352500", "152843.842500", "152845.332500", "152846.822500", "152848.312500", "152849.802500", "152851.292500", "152852.782500", "152854.272500", "152855.762500", "152857.252500", "152858.742500", "152900.232500", "152901.722500", "152903.212500", "152904.702500", "152906.192500", "152907.682500", "152909.172500", "152910.662500", "152912.152500", "152913.642500", "152915.132500", "152916.622500", "152918.112500", "152919.602500", "152921.092500", "152922.582500", "152924.072500", "152925.562500", "152927.052500", "152928.542500", "152930.032500", "152931.522500", "152933.012500", "152934.502500", "152935.992500", "152937.482500", "152938.972500", "152940.462500", "152941.952500", "152943.442500", "152944.932500", "152946.422500", "152947.912500", "152949.402500", "152950.892500", "152952.382500", "152953.872500", "152955.362500", "152956.852500", "152958.342500", "152959.832500", "153001.322500", "153002.812500", "153004.302500", "153005.792500", "153007.282500", "153008.772500", "153010.262500", "153011.752500", "153013.242500", "153014.732500", "153016.222500", "153017.712500", "153019.202500", "153020.692500", "153022.182500", "153023.672500", "153025.162500", "153026.652500", "153028.142500", "153029.632500", "153031.122500", "153032.612500", "153034.102500", "153035.592500", "153037.082500", "153038.572500", "153040.062500", "153041.552500", "153043.042500", "153044.532500", "153046.022500", "153047.512500", "153049.002500", "153050.492500", "153051.982500", "153053.472500", "153054.962500", "153056.452500", "153057.942500", "153059.432500", "153100.922500", "153102.412500", "153103.902500", "153105.392500", "153106.882500", "153108.372500", "153109.862500", "153111.352500", "153112.842500", "153114.332500", "153115.822500", "153117.312500", "153118.802500", "153120.292500", "153121.782500", "153123.272500", "153124.762500", "153126.252500", "153127.742500", "153129.232500", "153130.722500", "153132.212500", "153133.702500", "153135.192500", "153136.682500", "153138.172500", "153139.662500", "153141.152500", "153142.642500", "153144.132500", "153145.622500", "153147.112500", "153148.602500", "153150.092500", "153151.582500", "153153.072500", "153154.562500", "153156.052500", "153157.542500", "153159.032500", "153200.522500", "153202.012500", "153203.502500", "153204.992500", "153206.482500", "153207.972500", "153209.462500", "153210.952500", "153212.442500", "153213.932500", "153215.422500", "153216.912500"],
      "ContentTime": ["152851.606000", "152851.612000", "152851.615000", "152851.617000", "152851.620000", "152851.622000", "152851.625000", "152851.627000", "152851.630000", "152851.632000", "152851.635000", "152851.637000", "152851.640000", "152851.642000", "152851.645000", "152851.651000", "152851.660000", "152851.662000", "152851.664000", "152851.667000", "152851.670000", "152911.575000", "152911.577000", "152911.580000", "152911.582000", "152911.585000", "152911.587000", "152911.590000", "152911.592000", "152911.595000", "152911.597000", "152911.600000", "152911.602000", "152911.605000", "152911.608000", "152911.611000", "152911.613000", "152911.615000", "152911.618000", "152911.620000", "152911.623000", "152931.585000", "152931.588000", "152931.590000", "152931.593000", "152931.595000", "152931.598000", "152931.600000", "152931.603000", "152931.605000", "152931.608000", "152931.610000", "152931.613000", "152931.615000", "152931.618000", "152931.620000", "152931.623000", "152931.625000", "152931.628000", "152931.630000", "152931.633000", "152951.574000", "152951.576000", "152951.579000", "152951.581000", "152951.584000", "152951.594000", "152951.596000", "152951.599000", "152951.601000", "152951.604000", "152951.606000", "152951.609000", "152951.611000", "152951.614000", "152951.617000", "152951.619000", "152951.622000", "152951.624000", "152951.627000", "152951.629000", "153011.573000", "153011.575000", "153011.578000", "153011.580000", "153011.583000", "153011.585000", "153011.588000", "153011.590000", "153011.593000", "153011.599000", "153011.602000", "153011.604000", "153011.607000", "153011.610000", "153011.612000", "153011.615000", "153011.617000", "153011.620000", "153011.622000", "153011.625000", "153051.621000", "153051.624000", "153051.626000", "153051.628000", "153051.631000", "153051.634000", "153051.636000", "153051.639000", "153051.641000", "153051.644000", "153051.646000", "153051.649000", "153051.651000", "153051.654000", "153051.656000", "153051.659000", "153051.662000", "153051.664000", "153051.667000", "153051.669000", "153051.672000", "153051.692000", "153051.694000", "153051.697000", "153051.707000", "153051.709000", "153051.712000", "153051.714000", "153051.717000", "153131.605000", "153131.608000", "153131.610000", "153131.613000", "153131.615000", "153131.618000", "153131.620000", "153131.623000", "153131.625000", "153131.628000", "153131.630000", "153131.633000", "153131.635000", "153131.638000", "153131.640000", "153131.643000", "153131.645000", "153131.648000", "153131.650000", "153131.653000", "153131.655000", "153131.658000", "153131.660000", "153131.664000", "153131.667000", "153131.669000", "153131.672000", "153211.602000", "153211.605000", "153211.607000", "153211.610000", "153211.612000", "153211.615000", "153211.618000", "153211.620000", "153211.623000", "153211.625000", "153211.628000", "153211.630000", "153211.633000", "153211.635000", "153211.638000", "153211.640000", "153211.643000", "153211.645000", "153211.648000", "153211.650000", "153211.653000", "153211.655000", "153211.658000", "153211.660000", "153211.663000", "153211.665000", "153211.668000", "153220.030000", "153220.033000", "153220.035000", "153220.038000", "153220.041000", "153220.044000"],
      "InstanceCreationTime": ["152851.606000", "152851.612000", "152851.615000", "152851.617000", "152851.620000", "152851.622000", "152851.625000", "152851.627000", "152851.630000", "152851.632000", "152851.635000", "152851.637000", "152851.640000", "152851.642000", "152851.645000", "152851.651000", "152851.660000", "152851.662000", "152851.664000", "152851.667000", "152851.670000", "152911.575000", "152911.577000", "152911.580000", "152911.582000", "152911.585000", "152911.587000", "152911.590000", "152911.592000", "152911.595000", "152911.597000", "152911.600000", "152911.602000", "152911.605000", "152911.608000", "152911.611000", "152911.613000", "152911.615000", "152911.618000", "152911.620000", "152911.623000", "152931.585000", "152931.588000", "152931.590000", "152931.593000", "152931.595000", "152931.598000", "152931.600000", "152931.603000", "152931.605000", "152931.608000", "152931.610000", "152931.613000", "152931.615000", "152931.618000", "152931.620000", "152931.623000", "152931.625000", "152931.628000", "152931.630000", "152931.633000", "152951.574000", "152951.576000", "152951.579000", "152951.581000", "152951.584000", "152951.594000", "152951.596000", "152951.599000", "152951.601000", "152951.604000", "152951.606000", "152951.609000", "152951.611000", "152951.614000", "152951.617000", "152951.619000", "152951.622000", "152951.624000", "152951.627000", "152951.629000", "153011.573000", "153011.575000", "153011.578000", "153011.580000", "153011.583000", "153011.585000", "153011.588000", "153011.590000", "153011.593000", "153011.599000", "153011.602000", "153011.604000", "153011.607000", "153011.610000", "153011.612000", "153011.615000", "153011.617000", "153011.620000", "153011.622000", "153011.625000", "153051.621000", "153051.624000", "153051.626000", "153051.628000", "153051.631000", "153051.634000", "153051.636000", "153051.639000", "153051.641000", "153051.644000", "153051.646000", "153051.649000", "153051.651000", "153051.654000", "153051.656000", "153051.659000", "153051.662000", "153051.664000", "153051.667000", "153051.669000", "153051.672000", "153051.692000", "153051.694000", "153051.697000", "153051.707000", "153051.709000", "153051.712000", "153051.714000", "153051.717000", "153131.605000", "153131.608000", "153131.610000", "153131.613000", "153131.615000", "153131.618000", "153131.620000", "153131.623000", "153131.625000", "153131.628000", "153131.630000", "153131.633000", "153131.635000", "153131.638000", "153131.640000", "153131.643000", "153131.645000", "153131.648000", "153131.650000", "153131.653000", "153131.655000", "153131.658000", "153131.660000", "153131.664000", "153131.667000", "153131.669000", "153131.672000", "153211.602000", "153211.605000", "153211.607000", "153211.610000", "153211.612000", "153211.615000", "153211.618000", "153211.620000", "153211.623000", "153211.625000", "153211.628000", "153211.630000", "153211.633000", "153211.635000", "153211.638000", "153211.640000", "153211.643000", "153211.645000", "153211.648000", "153211.650000", "153211.653000", "153211.655000", "153211.658000", "153211.660000", "153211.663000", "153211.665000", "153211.668000", "153220.030000", "153220.033000", "153220.035000", "153220.038000", "153220.041000", "153220.044000"],
      "InstanceNumber": [1, 2, 3, 4, 5, 6, 7, 8, 9, 10, 11, 12, 13, 14, 15, 16, 17, 18, 19, 20, 21, 22, 23, 24, 25, 26, 27, 28, 29, 30, 31, 32, 33, 34, 35, 36, 37, 38, 39, 40, 41, 42, 43, 44, 45, 46, 47, 48, 49, 50, 51, 52, 53, 54, 55, 56, 57, 58, 59, 60, 61, 62, 63, 64, 65, 66, 67, 68, 69, 70, 71, 72, 73, 74, 75, 76, 77, 78, 79, 80, 81, 82, 83, 84, 85, 86, 87, 88, 89, 90, 91, 92, 93, 94, 95, 96, 97, 98, 99, 100, 101, 102, 103, 104, 105, 106, 107, 108, 109, 110, 111, 112, 113, 114, 115, 116, 117, 118, 119, 120, 121, 122, 123, 124, 125, 126, 127, 128, 129, 130, 131, 132, 133, 134, 135, 136, 137, 138, 139, 140, 141, 142, 143, 144, 145, 146, 147, 148, 149, 150, 151, 152, 153, 154, 155, 156, 157, 158, 159, 160, 161, 162, 163, 164, 165, 166, 167, 168, 169, 170, 171, 172, 173, 174, 175, 176, 177, 178, 179, 180, 181, 182, 183, 184, 185, 186, 187, 188, 189, 190],
      "WindowCenter": [4836.0, 4812.0, 4836.0, 4814.0, 4808.0, 4834.0, 4848.0, 4810.0, 4840.0, 4806.0, 4804.0, 4812.0, 4808.0, 4816.0, 4812.0, 4810.0, 4810.0, 4838.0, 4810.0, 4810.0, 4812.0, 4804.0, 4810.0, 4818.0, 4816.0, 4810.0, 4810.0, 4842.0, 4832.0, 4812.0, 4810.0, 4816.0, 4804.0, 4836.0, 4838.0, 4836.0, 4810.0, 4810.0, 4816.0, 4812.0, 4808.0, 4806.0, 4808.0, 4806.0, 4812.0, 4808.0, 4806.0, 4806.0, 4808.0, 4808.0, 4808.0, 4808.0, 4806.0, 4808.0, 4806.0, 4808.0, 4810.0, 4806.0, 4806.0, 4806.0, 4804.0, 4806.0, 4808.0, 4804.0, 4806.0, 4806.0, 4808.0, 4808.0, 4810.0, 4806.0, 4804.0, 4808.0, 4806.0, 4780.0, 4806.0, 4804.0, 4808.0, 4804.0, 4808.0, 4810.0, 4804.0, 4808.0, 4808.0, 4808.0, 4808.0, 4806.0, 4806.0, 4806.0, 4806.0, 4804.0, 4808.0, 4808.0, 4806.0, 4806.0, 4808.0, 4808.0, 4808.0, 4810.0, 4810.0, 4808.0, 4808.0, 4816.0, 4804.0, 4806.0, 4806.0, 4806.0, 4804.0, 4806.0, 4808.0, 4814.0, 4820.0, 4814.0, 4778.0, 4814.0, 4842.0, 4838.0, 4810.0, 4806.0, 4812.0, 4816.0, 4822.0, 4814.0, 4810.0, 4814.0, 4836.0, 4814.0, 4816.0, 4806.0, 4810.0, 4810.0, 4814.0, 4810.0, 4812.0, 4810.0, 4810.0, 4808.0, 4808.0, 4810.0, 4804.0, 4806.0, 4810.0, 4808.0, 4808.0, 4810.0, 4810.0, 4812.0, 4810.0, 4810.0, 4804.0, 4808.0, 4808.0, 4808.0, 4808.0, 4808.0, 4810.0, 4804.0, 4812.0, 4810.0, 4808.0, 4808.0, 4808.0, 4810.0, 4806.0, 4808.0, 4806.0, 4808.0, 4804.0, 4808.0, 4808.0, 4812.0, 4816.0, 4812.0, 4808.0, 4808.0, 4810.0, 4804.0, 4808.0, 4806.0, 4804.0, 4808.0, 4806.0, 4812.0, 4812.0, 4808.0, 4810.0, 4808.0, 4806.0, 4804.0, 4810.0, 4806.0],
      "WindowWidth": [18620.0, 18596.0, 18624.0, 18618.0, 18608.0, 18622.0, 18646.0, 18594.0, 18634.0, 18592.0, 18588.0, 18594.0, 18594.0, 18612.0, 18594.0, 18598.0, 18590.0, 18624.0, 18592.0, 18594.0, 18594.0, 18588.0, 18600.0, 18622.0, 18616.0, 18596.0, 18588.0, 18624.0, 18622.0, 18588.0, 18602.0, 18608.0, 18602.0, 18630.0, 18634.0, 18630.0, 18594.0, 18590.0, 18610.0, 18606.0, 18598.0, 18584.0, 18592.0, 18592.0, 18592.0, 18592.0, 18592.0, 18594.0, 18592.0, 18596.0, 18598.0, 18586.0, 18590.0, 18594.0, 18586.0, 18588.0, 18598.0, 18592.0, 18594.0, 18594.0, 18592.0, 18590.0, 18592.0, 18588.0, 18590.0, 18590.0, 18592.0, 18600.0, 18598.0, 18584.0, 18590.0, 18592.0, 18590.0, 18556.0, 18590.0, 18586.0, 18592.0, 18590.0, 18592.0, 18598.0, 18592.0, 18590.0, 18590.0, 18590.0, 18592.0, 18588.0, 18592.0, 18588.0, 18590.0, 18586.0, 18592.0, 18590.0, 18596.0, 18588.0, 18590.0, 18594.0, 18592.0, 18596.0, 18586.0, 18598.0, 18600.0, 18612.0, 18598.0, 18590.0, 18596.0, 18590.0, 18594.0, 18590.0, 18590.0, 18602.0, 18616.0, 18604.0, 18560.0, 18606.0, 18638.0, 18632.0, 18596.0, 18590.0, 18598.0, 18614.0, 18622.0, 18608.0, 18594.0, 18596.0, 18626.0, 18598.0, 18598.0, 18588.0, 18598.0, 18598.0, 18606.0, 18600.0, 18598.0, 18594.0, 18596.0, 18590.0, 18586.0, 18592.0, 18586.0, 18588.0, 18596.0, 18594.0, 18590.0, 18590.0, 18594.0, 18598.0, 18594.0, 18590.0, 18590.0, 18590.0, 18592.0, 18594.0, 18592.0, 18594.0, 18592.0, 18592.0, 18596.0, 18602.0, 18592.0, 18596.0, 18590.0, 18600.0, 18590.0, 18594.0, 18592.0, 18592.0, 18588.0, 18594.0, 18594.0, 18596.0, 18608.0, 18614.0, 18594.0, 18586.0, 18594.0, 18588.0, 18588.0, 18586.0, 18590.0, 18588.0, 18592.0, 18596.0, 18604.0, 18592.0, 18594.0, 18586.0, 18590.0, 18592.0, 18590.0, 18592.0]
    },
    "slices": {}
  }
}