{
  "AcquisitionMatrixPE": 104,
  "AcquisitionNumber": 1,
  "AcquisitionTime": "15:38:40.137500",
  "BandwidthPerPixelPhaseEncode": 17.17,
  "BaseResolution": 104,
  "BodyPartExamined": "BRAIN",
  "CoilString": "HC1-7;NC1_2",
  "ConsistencyInfo": "N4_VE11C_LATEST_20160120",
  "ConversionSoftware": "dcm2niix",
  "ConversionSoftwareVersion": "v1.0.20190902",
  "DerivedVendorReportedEchoSpacing": 0.000560011,
  "DeviceSerialNumber": "167006",
  "DwellTime": 2.1e-06,
  "EchoTime": 0.037,
  "EchoTrainLength": 104,
  "EffectiveEchoSpacing": 0.000560011,
  "FlipAngle": 52,
  "ImageComments": "Unaliased_MB4_PE3_LB",
  "ImageOrientationPatientDICOM": [0.999607, -0.019974, 0.0196608, 0.0249536, 0.953659, -0.299854],
  "ImageType": [
    "ORIGINAL",
    "PRIMARY",
    "M",
    "MB",
    "ND",
    "MOSAIC"
],
  "ImagingFrequency": 123.259,
  "InPlanePhaseEncodingDirectionDICOM": "COL",
  "InstitutionAddress": "Chemin_Queen-Mary_4565_Montreal_District_CA_H3W_1W5",
  "InstitutionName": "IUGM",
  "InstitutionalDepartmentName": "Department",
  "MRAcquisitionType": "2D",
  "MagneticFieldStrength": 3,
  "Manufacturer": "Siemens",
  "ManufacturersModelName": "Prisma_fit",
  "Modality": "MR",
  "MultibandAccelerationFactor": 4,
  "PartialFourier": 1,
  "PatientPosition": "HFS",
  "PercentPhaseFOV": 100,
  "PhaseEncodingDirection": "j",
  "PhaseEncodingSteps": 104,
  "PhaseResolution": 1,
  "PixelBandwidth": 2290,
  "ProcedureStepDescription": "memory_things",
  "ProtocolName": "func_task-things_run-2",
  "PulseSequenceDetails": "%CustomerSeq%_cmrr_mbep2d_bold",
  "ReceiveCoilActiveElements": "HC1-7;NC1,2",
  "ReceiveCoilName": "HeadNeck_64",
  "ReconMatrixPE": 104,
  "RepetitionTime": 1.49,
  "SAR": 0.0308791,
  "ScanOptions": "FS",
  "ScanningSequence": "EP",
  "SequenceName": "epfid2d1_104",
  "SequenceVariant": "SK_SS",
  "SeriesDescription": "func_task-things_run-2",
  "SeriesNumber": 13,
  "ShimSetting": [627, -7270, -8815, 615, -7, -230, 7, -7],
  "SliceThickness": 2,
  "SliceTiming": [0, 0.7825, 0.0975, 0.8825, 0.195, 0.98, 0.2925, 1.0775, 0.3925, 1.175, 0.49, 1.2725, 0.5875, 1.3725, 0.685, 0, 0.7825, 0.0975, 0.8825, 0.195, 0.98, 0.2925, 1.0775, 0.3925, 1.175, 0.49, 1.2725, 0.5875, 1.3725, 0.685, 0, 0.7825, 0.0975, 0.8825, 0.195, 0.98, 0.2925, 1.0775, 0.3925, 1.175, 0.49, 1.2725, 0.5875, 1.3725, 0.685, 0, 0.7825, 0.0975, 0.8825, 0.195, 0.98, 0.2925, 1.0775, 0.3925, 1.175, 0.49, 1.2725, 0.5875, 1.3725, 0.685],
  "SoftwareVersions": "syngo_MR_E11",
  "SpacingBetweenSlices": 2,
  "StationName": "MRC35049",
  "TaskName": "things",
  "TotalReadoutTime": 0.0576811,
  "TxRefAmp": 218.267,
  "WipMemBlock": "37b288fc-3e5f-4994-b5a3-09624d816237||Sequence: R016 ve11c/master r/e634e98; Dec 19 2017 11:00:25 by eja",
  "dcmmeta_affine": [
    [-1.9992142915725708, 0.049907173961400986, 0.02552083507180214, 103.4371566772461],
    [0.03994808346033096, 1.9073176383972168, -0.600452721118927, -69.52543640136719],
    [0.039321620017290115, 0.5997071266174316, 1.9075652360916138, -59.45892333984375],
    [0.0, 0.0, 0.0, 1.0]
],
  "dcmmeta_reorient_transform": [
    [0.0, -1.0, 0.0, 103.0],
    [1.0, 0.0, 0.0, 0.0],
    [0.0, 0.0, 1.0, 0.0],
    [0.0, 0.0, 0.0, 1.0]
],
  "dcmmeta_shape": [104, 104, 60, 190],
  "dcmmeta_slice_dim": 2,
  "dcmmeta_version": 0.6,
  "global": {
    "const": {
      "AcquisitionMatrix": [104, 0, 0, 104],
      "AngioFlag": "N",
      "BitsAllocated": 16,
      "BitsStored": 16,
      "BodyPartExamined": "BRAIN",
      "Columns": 832,
      "EchoNumbers": 1,
      "EchoTime": 37.0,
      "EchoTrainLength": 104,
      "FlipAngle": 52.0,
      "HighBit": 15,
      "ImageOrientationPatient": [0.99960716794681, -0.0199740420961, 0.01966080953836, 0.02495358778657, 0.95365883074422, -0.2998535525888],
      "ImagePositionPatient": [-854.45782939074, -806.65081167539, 206.29122632322],
      "ImageType": [
        "ORIGINAL",
        "PRIMARY",
        "M",
        "MB",
        "ND",
        "MOSAIC"
],
      "ImagedNucleus": "1H",
      "ImagingFrequency": 123.258928,
      "InPlanePhaseEncodingDirection": "COL",
      "MRAcquisitionType": "2D",
      "MagneticFieldStrength": 3.0,
      "Manufacturer": "SIEMENS",
      "ManufacturerModelName": "Prisma_fit",
      "Modality": "MR",
      "NumberOfAverages": 1.0,
      "NumberOfPhaseEncodingSteps": 104,
      "PercentPhaseFieldOfView": 100.0,
      "PercentSampling": 100.0,
      "PerformedProcedureStepStartTime": "152536.184000",
      "PhotometricInterpretation": "MONOCHROME2",
      "PixelBandwidth": 2290.0,
      "PixelRepresentation": 0,
      "PixelSpacing": [2.0, 2.0],
      "ProtocolName": "func_task-things_run-2",
      "RepetitionTime": 1490.0,
      "Rows": 832,
      "SAR": 0.03087906587526,
      "SamplesPerPixel": 1,
      "ScanOptions": "FS",
      "ScanningSequence": "EP",
      "SequenceName": "epfid2d1_104",
      "SequenceVariant": [
        "SK",
        "SS"
],
      "SeriesDescription": "func_task-things_run-2",
      "SeriesNumber": 13,
      "SeriesTime": "154012.561000",
      "SliceLocation": -34.517617513189,
      "SliceThickness": 2.0,
      "SmallestImagePixelValue": 0,
      "SoftwareVersions": "syngo MR E11",
      "SpacingBetweenSlices": 2.0000000346974,
      "SpecificCharacterSet": "ISO_IR 100",
      "StudyID": "1",
      "StudyTime": "152536.115000",
      "TransmitCoilName": "Body",
      "VariableFlipAngleFlag": "N",
      "WindowCenterWidthExplanation": "Algo1",
      "dBdt": 0.0},
    "slices": {}
  },
  "time": {
    "samples": {
      "AcquisitionNumber": [1, 2, 3, 4, 5, 6, 7, 8, 9, 10, 11, 12, 13, 14, 15, 16, 17, 18, 19, 20, 21, 22, 23, 24, 25, 26, 27, 28, 29, 30, 31, 32, 33, 34, 35, 36, 37, 38, 39, 40, 41, 42, 43, 44, 45, 46, 47, 48, 49, 50, 51, 52, 53, 54, 55, 56, 57, 58, 59, 60, 61, 62, 63, 64, 65, 66, 67, 68, 69, 70, 71, 72, 73, 74, 75, 76, 77, 78, 79, 80, 81, 82, 83, 84, 85, 86, 87, 88, 89, 90, 91, 92, 93, 94, 95, 96, 97, 98, 99, 100, 101, 102, 103, 104, 105, 106, 107, 108, 109, 110, 111, 112, 113, 114, 115, 116, 117, 118, 119, 120, 121, 122, 123, 124, 125, 126, 127, 128, 129, 130, 131, 132, 133, 134, 135, 136, 137, 138, 139, 140, 141, 142, 143, 144, 145, 146, 147, 148, 149, 150, 151, 152, 153, 154, 155, 156, 157, 158, 159, 160, 161, 162, 163, 164, 165, 166, 167, 168, 169, 170, 171, 172, 173, 174, 175, 176, 177, 178, 179, 180, 181, 182, 183, 184, 185, 186, 187, 188, 189, 190],
      "AcquisitionTime": ["153840.137500", "153841.627500", "153843.117500", "153844.607500", "153846.097500", "153847.587500", "153849.077500", "153850.567500", "153852.057500", "153853.547500", "153855.037500", "153856.527500", "153858.017500", "153859.507500", "153900.997500", "153902.487500", "153903.977500", "153905.467500", "153906.957500", "153908.447500", "153909.937500", "153911.427500", "153912.917500", "153914.407500", "153915.897500", "153917.387500", "153918.877500", "153920.367500", "153921.857500", "153923.347500", "153924.837500", "153926.327500", "153927.817500", "153929.307500", "153930.797500", "153932.287500", "153933.777500", "153935.267500", "153936.757500", "153938.247500", "153939.737500", "153941.227500", "153942.717500", "153944.207500", "153945.697500", "153947.187500", "153948.677500", "153950.167500", "153951.657500", "153953.147500", "153954.637500", "153956.127500", "153957.617500", "153959.107500", "154000.597500", "154002.087500", "154003.577500", "154005.067500", "154006.557500", "154008.047500", "154009.537500", "154011.027500", "154012.517500", "154014.007500", "154015.497500", "154016.987500", "154018.477500", "154019.967500", "154021.457500", "154022.947500", "154024.437500", "154025.927500", "154027.417500", "154028.907500", "154030.397500", "154031.887500", "154033.377500", "154034.867500", "154036.357500", "154037.847500", "154039.337500", "154040.827500", "154042.317500", "154043.807500", "154045.297500", "154046.787500", "154048.277500", "154049.767500", "154051.257500", "154052.747500", "154054.237500", "154055.727500", "154057.217500", "154058.707500", "154100.197500", "154101.687500", "154103.177500", "154104.667500", "154106.157500", "154107.647500", "154109.137500", "154110.627500", "154112.117500", "154113.607500", "154115.097500", "154116.587500", "154118.077500", "154119.567500", "154121.057500", "154122.547500", "154124.037500", "154125.527500", "154127.017500", "154128.507500", "154129.997500", "154131.487500", "154132.977500", "154134.467500", "154135.957500", "154137.447500", "154138.937500", "154140.427500", "154141.917500", "154143.407500", "154144.897500", "154146.387500", "154147.877500", "154149.367500", "154150.857500", "154152.347500", "154153.837500", "154155.327500", "154156.817500", "154158.307500", "154159.797500", "154201.287500", "154202.777500", "154204.267500", "154205.757500", "154207.247500", "154208.737500", "154210.227500", "154211.717500", "154213.207500", "154214.697500", "154216.187500", "154217.677500", "154219.167500", "154220.657500", "154222.147500", "154223.637500", "154225.127500", "154226.617500", "154228.107500", "154229.597500", "154231.087500", "154232.577500", "154234.067500", "154235.557500", "154237.047500", "154238.537500", "154240.027500", "154241.517500", "154243.007500", "154244.497500", "154245.987500", "154247.477500", "154248.967500", "154250.457500", "154251.947500", "154253.437500", "154254.927500", "154256.417500", "154257.907500", "154259.397500", "154300.887500", "154302.377500", "154303.867500", "154305.357500", "154306.847500", "154308.337500", "154309.827500", "154311.317500", "154312.807500", "154314.297500", "154315.787500", "154317.277500", "154318.767500", "154320.257500", "154321.747500"],
      "ContentTime": ["154012.564000", "154012.568000", "154012.571000", "154012.575000", "154012.578000", "154012.582000", "154012.585000", "154012.589000", "154012.592000", "154012.596000", "154012.599000", "154012.602000", "154012.606000", "154012.609000", "154012.613000", "154012.616000", "154012.620000", "154012.623000", "154012.626000", "154012.630000", "154012.633000", "154012.637000", "154012.640000", "154012.643000", "154012.647000", "154012.650000", "154012.654000", "154012.657000", "154012.661000", "154012.664000", "154012.676000", "154012.679000", "154012.683000", "154012.686000", "154012.690000", "154032.529000", "154032.533000", "154032.536000", "154032.540000", "154032.543000", "154032.547000", "154032.550000", "154032.554000", "154032.557000", "154032.561000", "154032.564000", "154032.567000", "154032.571000", "154032.574000", "154032.578000", "154032.581000", "154032.584000", "154032.588000", "154032.591000", "154032.595000", "154052.529000", "154052.533000", "154052.536000", "154052.540000", "154052.543000", "154052.547000", "154052.550000", "154052.553000", "154052.557000", "154052.561000", "154052.564000", "154052.567000", "154052.571000", "154052.574000", "154052.578000", "154052.581000", "154052.585000", "154052.588000", "154052.591000", "154052.595000", "154112.529000", "154112.533000", "154112.536000", "154112.540000", "154112.543000", "154112.547000", "154112.550000", "154112.553000", "154112.557000", "154112.561000", "154112.564000", "154112.568000", "154112.571000", "154112.575000", "154112.578000", "154112.581000", "154112.585000", "154112.588000", "154112.592000", "154112.595000", "154112.599000", "154152.529000", "154152.533000", "154152.537000", "154152.540000", "154152.543000", "154152.547000", "154152.551000", "154152.554000", "154152.566000", "154152.569000", "154152.573000", "154152.576000", "154152.580000", "154152.583000", "154152.587000", "154152.590000", "154152.594000", "154152.597000", "154152.600000", "154152.604000", "154152.607000", "154152.611000", "154152.614000", "154152.618000", "154152.621000", "154152.624000", "154152.628000", "154152.631000", "154152.635000", "154152.638000", "154152.642000", "154152.645000", "154232.529000", "154232.533000", "154232.537000", "154232.540000", "154232.544000", "154232.547000", "154232.551000", "154232.554000", "154232.557000", "154232.561000", "154232.564000", "154232.568000", "154232.571000", "154232.575000", "154232.578000", "154232.582000", "154232.585000", "154232.588000", "154232.592000", "154232.595000", "154232.599000", "154232.602000", "154232.606000", "154232.609000", "154232.612000", "154232.616000", "154232.619000", "154312.529000", "154312.533000", "154312.537000", "154312.540000", "154312.544000", "154312.547000", "154312.551000", "154312.554000", "154312.558000", "154312.561000", "154312.565000", "154312.568000", "154312.572000", "154312.575000", "154312.578000", "154312.582000", "154312.586000", "154312.589000", "154312.592000", "154312.596000", "154312.599000", "154312.603000", "154312.606000", "154312.610000", "154312.613000", "154312.616000", "154312.620000", "154323.612000", "154323.616000", "154323.619000", "154323.622000", "154323.626000", "154323.629000", "154323.633000", "154323.637000"],
      "InstanceCreationTime": ["154012.564000", "154012.568000", "154012.571000", "154012.575000", "154012.578000", "154012.582000", "154012.585000", "154012.589000", "154012.592000", "154012.596000", "154012.599000", "154012.602000", "154012.606000", "154012.609000", "154012.613000", "154012.616000", "154012.620000", "154012.623000", "154012.626000", "154012.630000", "154012.633000", "154012.637000", "154012.640000", "154012.643000", "154012.647000", "154012.650000", "154012.654000", "154012.657000", "154012.661000", "154012.664000", "154012.676000", "154012.679000", "154012.683000", "154012.686000", "154012.690000", "154032.529000", "154032.533000", "154032.536000", "154032.540000", "154032.543000", "154032.547000", "154032.550000", "154032.554000", "154032.557000", "154032.561000", "154032.564000", "154032.567000", "154032.571000", "154032.574000", "154032.578000", "154032.581000", "154032.584000", "154032.588000", "154032.591000", "154032.595000", "154052.529000", "154052.533000", "154052.536000", "154052.540000", "154052.543000", "154052.547000", "154052.550000", "154052.553000", "154052.557000", "154052.561000", "154052.564000", "154052.567000", "154052.571000", "154052.574000", "154052.578000", "154052.581000", "154052.585000", "154052.588000", "154052.591000", "154052.595000", "154112.529000", "154112.533000", "154112.536000", "154112.540000", "154112.543000", "154112.547000", "154112.550000", "154112.553000", "154112.557000", "154112.561000", "154112.564000", "154112.568000", "154112.571000", "154112.575000", "154112.578000", "154112.581000", "154112.585000", "154112.588000", "154112.592000", "154112.595000", "154112.599000", "154152.529000", "154152.533000", "154152.537000", "154152.540000", "154152.543000", "154152.547000", "154152.551000", "154152.554000", "154152.566000", "154152.569000", "154152.573000", "154152.576000", "154152.580000", "154152.583000", "154152.587000", "154152.590000", "154152.594000", "154152.597000", "154152.600000", "154152.604000", "154152.607000", "154152.611000", "154152.614000", "154152.618000", "154152.621000", "154152.624000", "154152.628000", "154152.631000", "154152.635000", "154152.638000", "154152.642000", "154152.645000", "154232.529000", "154232.533000", "154232.537000", "154232.540000", "154232.544000", "154232.547000", "154232.551000", "154232.554000", "154232.557000", "154232.561000", "154232.564000", "154232.568000", "154232.571000", "154232.575000", "154232.578000", "154232.582000", "154232.585000", "154232.588000", "154232.592000", "154232.595000", "154232.599000", "154232.602000", "154232.606000", "154232.609000", "154232.612000", "154232.616000", "154232.619000", "154312.529000", "154312.533000", "154312.537000", "154312.540000", "154312.544000", "154312.547000", "154312.551000", "154312.554000", "154312.558000", "154312.561000", "154312.565000", "154312.568000", "154312.572000", "154312.575000", "154312.578000", "154312.582000", "154312.586000", "154312.589000", "154312.592000", "154312.596000", "154312.599000", "154312.603000", "154312.606000", "154312.610000", "154312.613000", "154312.616000", "154312.620000", "154323.612000", "154323.616000", "154323.619000", "154323.622000", "154323.626000", "154323.629000", "154323.633000", "154323.637000"],
      "InstanceNumber": [1, 2, 3, 4, 5, 6, 7, 8, 9, 10, 11, 12, 13, 14, 15, 16, 17, 18, 19, 20, 21, 22, 23, 24, 25, 26, 27, 28, 29, 30, 31, 32, 33, 34, 35, 36, 37, 38, 39, 40, 41, 42, 43, 44, 45, 46, 47, 48, 49, 50, 51, 52, 53, 54, 55, 56, 57, 58, 59, 60, 61, 62, 63, 64, 65, 66, 67, 68, 69, 70, 71, 72, 73, 74, 75, 76, 77, 78, 79, 80, 81, 82, 83, 84, 85, 86, 87, 88, 89, 90, 91, 92, 93, 94, 95, 96, 97, 98, 99, 100, 101, 102, 103, 104, 105, 106, 107, 108, 109, 110, 111, 112, 113, 114, 115, 116, 117, 118, 119, 120, 121, 122, 123, 124, 125, 126, 127, 128, 129, 130, 131, 132, 133, 134, 135, 136, 137, 138, 139, 140, 141, 142, 143, 144, 145, 146, 147, 148, 149, 150, 151, 152, 153, 154, 155, 156, 157, 158, 159, 160, 161, 162, 163, 164, 165, 166, 167, 168, 169, 170, 171, 172, 173, 174, 175, 176, 177, 178, 179, 180, 181, 182, 183, 184, 185, 186, 187, 188, 189, 190],
      "LargestImagePixelValue": [46352, 43571, 42926, 42244, 42103, 42273, 42051, 41769, 41707, 42444, 42428, 42502, 42367, 42201, 42132, 42651, 42067, 42356, 42453, 41162, 41975, 42563, 40800, 40857, 42235, 40579, 41178, 40081, 41401, 41570, 41025, 41045, 40923, 41644, 40853, 41110, 42063, 41205, 41411, 41926, 40431, 41279, 41867, 41093, 42383, 40975, 41650, 41953, 40173, 41330, 40403, 41642, 41359, 40681, 41554, 40902, 41401, 40430, 41359, 42946, 40516, 41943, 41857, 41070, 42119, 40743, 42275, 41605, 41139, 42429, 41659, 41307, 41474, 42212, 40907, 41337, 42018, 40436, 41549, 42248, 41049, 41499, 41835, 41011, 42254, 42021, 41505, 41797, 41821, 39925, 41378, 40941, 40471, 41737, 40620, 40667, 41254, 40827, 41250, 41701, 41842, 40587, 40632, 41539, 40398, 40918, 41551, 40641, 42006, 41550, 41161, 41849, 41286, 41691, 42025, 41276, 41825, 40871, 42030, 42463, 40726, 41296, 41558, 41335, 41529, 41392, 41557, 41699, 41600, 40871, 41401, 41526, 40903, 41584, 42161, 41424, 41751, 42567, 41655, 40709, 41634, 40824, 42023, 41694, 41444, 41596, 41605, 41507, 40652, 42503, 41495, 41504, 42782, 41357, 40915, 42126, 42323, 41669, 41314, 42161, 42256, 41000, 38651, 39651, 41179, 40304, 41791, 40036, 41295, 42555, 40291, 41143, 41312, 40636, 40915, 41950, 41228, 40786, 41640, 40713, 41840, 42148, 41064, 41326, 41515, 41188, 41644, 42428, 41993, 42263],
      "WindowCenter": [10426.0, 10334.0, 10304.0, 10294.0, 10298.0, 10284.0, 10260.0, 10256.0, 10271.0, 10301.0, 10310.0, 10312.0, 10304.0, 10295.0, 10318.0, 10336.0, 10322.0, 10313.0, 10304.0, 10292.0, 10311.0, 10325.0, 10304.0, 10300.0, 10303.0, 10286.0, 10312.0, 10300.0, 10295.0, 10290.0, 10292.0, 10299.0, 10292.0, 10290.0, 10283.0, 10291.0, 10296.0, 10285.0, 10290.0, 10297.0, 10288.0, 10316.0, 10322.0, 10304.0, 10304.0, 10285.0, 10288.0, 10301.0, 10296.0, 10298.0, 10279.0, 10289.0, 10295.0, 10295.0, 10290.0, 10274.0, 10274.0, 10273.0, 10289.0, 10305.0, 10279.0, 10279.0, 10271.0, 10275.0, 10300.0, 10285.0, 10286.0, 10280.0, 10283.0, 10284.0, 10280.0, 10291.0, 10291.0, 10288.0, 10289.0, 10298.0, 10302.0, 10275.0, 10280.0, 10285.0, 10298.0, 10296.0, 10289.0, 10277.0, 10292.0, 10295.0, 10304.0, 10294.0, 10294.0, 10289.0, 10284.0, 10275.0, 10270.0, 10292.0, 10278.0, 10271.0, 10266.0, 10259.0, 10266.0, 10262.0, 10269.0, 10278.0, 10278.0, 10272.0, 10253.0, 10273.0, 10296.0, 10302.0, 10304.0, 10297.0, 10285.0, 10296.0, 10293.0, 10298.0, 10281.0, 10272.0, 10285.0, 10284.0, 10288.0, 10299.0, 10299.0, 10306.0, 10291.0, 10275.0, 10273.0, 10274.0, 10278.0, 10267.0, 10272.0, 10268.0, 10261.0, 10279.0, 10294.0, 10300.0, 10288.0, 10275.0, 10288.0, 10329.0, 10316.0, 10288.0, 10281.0, 10269.0, 10294.0, 10291.0, 10276.0, 10257.0, 10261.0, 10278.0, 10288.0, 10290.0, 10269.0, 10267.0, 10283.0, 10302.0, 10301.0, 10289.0, 10272.0, 10279.0, 10292.0, 10281.0, 10263.0, 10258.0, 10253.0, 10257.0, 10272.0, 10284.0, 10302.0, 10280.0, 10276.0, 10291.0, 10280.0, 10292.0, 10285.0, 10270.0, 10263.0, 10271.0, 10281.0, 10280.0, 10283.0, 10271.0, 10280.0, 10300.0, 10308.0, 10302.0, 10277.0, 10260.0, 10272.0, 10292.0, 10290.0, 10274.0],
      "WindowWidth": [22556.0, 22310.0, 22216.0, 22183.0, 22181.0, 22146.0, 22090.0, 22077.0, 22111.0, 22176.0, 22196.0, 22201.0, 22185.0, 22160.0, 22212.0, 22255.0, 22224.0, 22201.0, 22184.0, 22160.0, 22199.0, 22230.0, 22192.0, 22179.0, 22179.0, 22148.0, 22201.0, 22184.0, 22168.0, 22152.0, 22160.0, 22174.0, 22160.0, 22154.0, 22138.0, 22157.0, 22168.0, 22144.0, 22154.0, 22170.0, 22155.0, 22214.0, 22228.0, 22189.0, 22185.0, 22145.0, 22148.0, 22177.0, 22175.0, 22176.0, 22135.0, 22153.0, 22167.0, 22173.0, 22156.0, 22118.0, 22121.0, 22124.0, 22156.0, 22184.0, 22134.0, 22129.0, 22112.0, 22123.0, 22174.0, 22146.0, 22145.0, 22133.0, 22141.0, 22141.0, 22134.0, 22160.0, 22158.0, 22150.0, 22155.0, 22177.0, 22182.0, 22127.0, 22131.0, 22141.0, 22174.0, 22169.0, 22150.0, 22130.0, 22160.0, 22168.0, 22187.0, 22164.0, 22161.0, 22162.0, 22150.0, 22126.0, 22114.0, 22159.0, 22133.0, 22118.0, 22105.0, 22090.0, 22102.0, 22090.0, 22106.0, 22135.0, 22135.0, 22117.0, 22078.0, 22122.0, 22170.0, 22187.0, 22187.0, 22172.0, 22148.0, 22169.0, 22166.0, 22177.0, 22133.0, 22114.0, 22144.0, 22145.0, 22152.0, 22174.0, 22181.0, 22195.0, 22159.0, 22125.0, 22118.0, 22119.0, 22127.0, 22105.0, 22115.0, 22108.0, 22097.0, 22130.0, 22169.0, 22179.0, 22153.0, 22124.0, 22154.0, 22241.0, 22220.0, 22156.0, 22136.0, 22113.0, 22165.0, 22160.0, 22128.0, 22080.0, 22088.0, 22128.0, 22158.0, 22160.0, 22113.0, 22107.0, 22138.0, 22184.0, 22188.0, 22153.0, 22115.0, 22131.0, 22163.0, 22136.0, 22091.0, 22084.0, 22091.0, 22094.0, 22115.0, 22146.0, 22181.0, 22140.0, 22126.0, 22153.0, 22141.0, 22165.0, 22145.0, 22113.0, 22096.0, 22109.0, 22135.0, 22138.0, 22141.0, 22118.0, 22135.0, 22176.0, 22203.0, 22187.0, 22130.0, 22092.0, 22115.0, 22160.0, 22161.0, 22124.0]
    },
    "slices": {}
  }
}