{
  "AcquisitionMatrixPE": 104,
  "AcquisitionNumber": 1,
  "AcquisitionTime": "15:38:40.137500",
  "BandwidthPerPixelPhaseEncode": 17.17,
  "BaseResolution": 104,
  "BodyPartExamined": "BRAIN",
  "CoilString": "HC1-7;NC1_2",
  "ConsistencyInfo": "N4_VE11C_LATEST_20160120",
  "ConversionSoftware": "dcm2niix",
  "ConversionSoftwareVersion": "v1.0.20190902",
  "DerivedVendorReportedEchoSpacing": 0.000560011,
  "DeviceSerialNumber": "167006",
  "DwellTime": 2.1e-06,
  "EchoTime": 0.037,
  "EchoTrainLength": 104,
  "EffectiveEchoSpacing": 0.000560011,
  "FlipAngle": 52,
  "ImageComments": "Unaliased_MB4_PE3_LB",
  "ImageOrientationPatientDICOM": [0.999607, -0.019974, 0.0196608, 0.0249536, 0.953659, -0.299854],
  "ImageType": [
    "ORIGINAL",
    "PRIMARY",
    "P",
    "MB",
    "ND",
    "MOSAIC"
],
  "ImagingFrequency": 123.259,
  "InPlanePhaseEncodingDirectionDICOM": "COL",
  "InstitutionAddress": "Chemin_Queen-Mary_4565_Montreal_District_CA_H3W_1W5",
  "InstitutionName": "IUGM",
  "InstitutionalDepartmentName": "Department",
  "MRAcquisitionType": "2D",
  "MagneticFieldStrength": 3,
  "Manufacturer": "Siemens",
  "ManufacturersModelName": "Prisma_fit",
  "Modality": "MR",
  "MultibandAccelerationFactor": 4,
  "PartialFourier": 1,
  "PatientPosition": "HFS",
  "PercentPhaseFOV": 100,
  "PhaseEncodingDirection": "j",
  "PhaseEncodingSteps": 104,
  "PhaseResolution": 1,
  "PixelBandwidth": 2290,
  "ProcedureStepDescription": "memory_things",
  "ProtocolName": "func_task-things_run-2",
  "PulseSequenceDetails": "%CustomerSeq%_cmrr_mbep2d_bold",
  "ReceiveCoilActiveElements": "HC1-7;NC1,2",
  "ReceiveCoilName": "HeadNeck_64",
  "ReconMatrixPE": 104,
  "RepetitionTime": 1.49,
  "SAR": 0.0308791,
  "ScanOptions": "FS",
  "ScanningSequence": "EP",
  "SequenceName": "epfid2d1_104",
  "SequenceVariant": "SK_SS",
  "SeriesDescription": "func_task-things_run-2",
  "SeriesNumber": 14,
  "ShimSetting": [627, -7270, -8815, 615, -7, -230, 7, -7],
  "SliceThickness": 2,
  "SliceTiming": [0, 0.7825, 0.0975, 0.8825, 0.195, 0.98, 0.2925, 1.0775, 0.3925, 1.175, 0.49, 1.2725, 0.5875, 1.3725, 0.685, 0, 0.7825, 0.0975, 0.8825, 0.195, 0.98, 0.2925, 1.0775, 0.3925, 1.175, 0.49, 1.2725, 0.5875, 1.3725, 0.685, 0, 0.7825, 0.0975, 0.8825, 0.195, 0.98, 0.2925, 1.0775, 0.3925, 1.175, 0.49, 1.2725, 0.5875, 1.3725, 0.685, 0, 0.7825, 0.0975, 0.8825, 0.195, 0.98, 0.2925, 1.0775, 0.3925, 1.175, 0.49, 1.2725, 0.5875, 1.3725, 0.685],
  "SoftwareVersions": "syngo_MR_E11",
  "SpacingBetweenSlices": 2,
  "StationName": "MRC35049",
  "TaskName": "things",
  "TotalReadoutTime": 0.0576811,
  "TxRefAmp": 218.267,
  "WipMemBlock": "37b288fc-3e5f-4994-b5a3-09624d816237||Sequence: R016 ve11c/master r/e634e98; Dec 19 2017 11:00:25 by eja",
  "dcmmeta_affine": [
    [-1.9992142915725708, 0.049907173961400986, 0.02552083507180214, 103.4371566772461],
    [0.03994808346033096, 1.9073176383972168, -0.600452721118927, -69.52543640136719],
    [0.039321620017290115, 0.5997071266174316, 1.9075652360916138, -59.45892333984375],
    [0.0, 0.0, 0.0, 1.0]
],
  "dcmmeta_reorient_transform": [
    [0.0, -1.0, 0.0, 103.0],
    [1.0, 0.0, 0.0, 0.0],
    [0.0, 0.0, 1.0, 0.0],
    [0.0, 0.0, 0.0, 1.0]
],
  "dcmmeta_shape": [104, 104, 60, 190],
  "dcmmeta_slice_dim": 2,
  "dcmmeta_version": 0.6,
  "global": {
    "const": {
      "AcquisitionMatrix": [104, 0, 0, 104],
      "AngioFlag": "N",
      "BitsAllocated": 16,
      "BitsStored": 16,
      "BodyPartExamined": "BRAIN",
      "Columns": 832,
      "EchoNumbers": 1,
      "EchoTime": 37.0,
      "EchoTrainLength": 104,
      "FlipAngle": 52.0,
      "HighBit": 15,
      "ImageOrientationPatient": [0.99960716794681, -0.0199740420961, 0.01966080953836, 0.02495358778657, 0.95365883074422, -0.2998535525888],
      "ImagePositionPatient": [-854.45782939074, -806.65081167539, 206.29122632322],
      "ImageType": [
        "ORIGINAL",
        "PRIMARY",
        "P",
        "MB",
        "ND",
        "MOSAIC"
],
      "ImagedNucleus": "1H",
      "ImagingFrequency": 123.258928,
      "InPlanePhaseEncodingDirection": "COL",
      "LargestImagePixelValue": 4095,
      "MRAcquisitionType": "2D",
      "MagneticFieldStrength": 3.0,
      "Manufacturer": "SIEMENS",
      "ManufacturerModelName": "Prisma_fit",
      "Modality": "MR",
      "NumberOfAverages": 1.0,
      "NumberOfPhaseEncodingSteps": 104,
      "PercentPhaseFieldOfView": 100.0,
      "PercentSampling": 100.0,
      "PerformedProcedureStepStartTime": "152536.184000",
      "PhotometricInterpretation": "MONOCHROME2",
      "PixelBandwidth": 2290.0,
      "PixelRepresentation": 0,
      "PixelSpacing": [2.0, 2.0],
      "ProtocolName": "func_task-things_run-2",
      "RepetitionTime": 1490.0,
      "RescaleIntercept": -4096.0,
      "RescaleSlope": 2.0,
      "RescaleType": "US",
      "Rows": 832,
      "SAR": 0.03087906587526,
      "SamplesPerPixel": 1,
      "ScanOptions": "FS",
      "ScanningSequence": "EP",
      "SequenceName": "epfid2d1_104",
      "SequenceVariant": [
        "SK",
        "SS"
],
      "SeriesDescription": "func_task-things_run-2",
      "SeriesNumber": 14,
      "SeriesTime": "154012.737000",
      "SliceLocation": -34.517617513189,
      "SliceThickness": 2.0,
      "SmallestImagePixelValue": 0,
      "SoftwareVersions": "syngo MR E11",
      "SpacingBetweenSlices": 2.0000000346974,
      "SpecificCharacterSet": "ISO_IR 100",
      "StudyID": "1",
      "StudyTime": "152536.115000",
      "TransmitCoilName": "Body",
      "VariableFlipAngleFlag": "N",
      "WindowCenterWidthExplanation": "Algo1",
      "dBdt": 0.0},
    "slices": {}
  },
  "time": {
    "samples": {
      "AcquisitionNumber": [1, 2, 3, 4, 5, 6, 7, 8, 9, 10, 11, 12, 13, 14, 15, 16, 17, 18, 19, 20, 21, 22, 23, 24, 25, 26, 27, 28, 29, 30, 31, 32, 33, 34, 35, 36, 37, 38, 39, 40, 41, 42, 43, 44, 45, 46, 47, 48, 49, 50, 51, 52, 53, 54, 55, 56, 57, 58, 59, 60, 61, 62, 63, 64, 65, 66, 67, 68, 69, 70, 71, 72, 73, 74, 75, 76, 77, 78, 79, 80, 81, 82, 83, 84, 85, 86, 87, 88, 89, 90, 91, 92, 93, 94, 95, 96, 97, 98, 99, 100, 101, 102, 103, 104, 105, 106, 107, 108, 109, 110, 111, 112, 113, 114, 115, 116, 117, 118, 119, 120, 121, 122, 123, 124, 125, 126, 127, 128, 129, 130, 131, 132, 133, 134, 135, 136, 137, 138, 139, 140, 141, 142, 143, 144, 145, 146, 147, 148, 149, 150, 151, 152, 153, 154, 155, 156, 157, 158, 159, 160, 161, 162, 163, 164, 165, 166, 167, 168, 169, 170, 171, 172, 173, 174, 175, 176, 177, 178, 179, 180, 181, 182, 183, 184, 185, 186, 187, 188, 189, 190],
      "AcquisitionTime": ["153840.137500", "153841.627500", "153843.117500", "153844.607500", "153846.097500", "153847.587500", "153849.077500", "153850.567500", "153852.057500", "153853.547500", "153855.037500", "153856.527500", "153858.017500", "153859.507500", "153900.997500", "153902.487500", "153903.977500", "153905.467500", "153906.957500", "153908.447500", "153909.937500", "153911.427500", "153912.917500", "153914.407500", "153915.897500", "153917.387500", "153918.877500", "153920.367500", "153921.857500", "153923.347500", "153924.837500", "153926.327500", "153927.817500", "153929.307500", "153930.797500", "153932.287500", "153933.777500", "153935.267500", "153936.757500", "153938.247500", "153939.737500", "153941.227500", "153942.717500", "153944.207500", "153945.697500", "153947.187500", "153948.677500", "153950.167500", "153951.657500", "153953.147500", "153954.637500", "153956.127500", "153957.617500", "153959.107500", "154000.597500", "154002.087500", "154003.577500", "154005.067500", "154006.557500", "154008.047500", "154009.537500", "154011.027500", "154012.517500", "154014.007500", "154015.497500", "154016.987500", "154018.477500", "154019.967500", "154021.457500", "154022.947500", "154024.437500", "154025.927500", "154027.417500", "154028.907500", "154030.397500", "154031.887500", "154033.377500", "154034.867500", "154036.357500", "154037.847500", "154039.337500", "154040.827500", "154042.317500", "154043.807500", "154045.297500", "154046.787500", "154048.277500", "154049.767500", "154051.257500", "154052.747500", "154054.237500", "154055.727500", "154057.217500", "154058.707500", "154100.197500", "154101.687500", "154103.177500", "154104.667500", "154106.157500", "154107.647500", "154109.137500", "154110.627500", "154112.117500", "154113.607500", "154115.097500", "154116.587500", "154118.077500", "154119.567500", "154121.057500", "154122.547500", "154124.037500", "154125.527500", "154127.017500", "154128.507500", "154129.997500", "154131.487500", "154132.977500", "154134.467500", "154135.957500", "154137.447500", "154138.937500", "154140.427500", "154141.917500", "154143.407500", "154144.897500", "154146.387500", "154147.877500", "154149.367500", "154150.857500", "154152.347500", "154153.837500", "154155.327500", "154156.817500", "154158.307500", "154159.797500", "154201.287500", "154202.777500", "154204.267500", "154205.757500", "154207.247500", "154208.737500", "154210.227500", "154211.717500", "154213.207500", "154214.697500", "154216.187500", "154217.677500", "154219.167500", "154220.657500", "154222.147500", "154223.637500", "154225.127500", "154226.617500", "154228.107500", "154229.597500", "154231.087500", "154232.577500", "154234.067500", "154235.557500", "154237.047500", "154238.537500", "154240.027500", "154241.517500", "154243.007500", "154244.497500", "154245.987500", "154247.477500", "154248.967500", "154250.457500", "154251.947500", "154253.437500", "154254.927500", "154256.417500", "154257.907500", "154259.397500", "154300.887500", "154302.377500", "154303.867500", "154305.357500", "154306.847500", "154308.337500", "154309.827500", "154311.317500", "154312.807500", "154314.297500", "154315.787500", "154317.277500", "154318.767500", "154320.257500", "154321.747500"],
      "ContentTime": ["154012.739000", "154012.742000", "154012.744000", "154012.747000", "154012.750000", "154012.752000", "154012.755000", "154012.758000", "154012.760000", "154012.763000", "154012.765000", "154012.768000", "154012.771000", "154012.773000", "154012.776000", "154012.778000", "154012.781000", "154012.783000", "154012.786000", "154012.789000", "154012.791000", "154012.799000", "154012.802000", "154012.805000", "154012.807000", "154012.810000", "154012.812000", "154012.815000", "154012.818000", "154012.820000", "154012.823000", "154012.825000", "154012.828000", "154012.831000", "154012.833000", "154032.639000", "154032.642000", "154032.644000", "154032.647000", "154032.649000", "154032.652000", "154032.654000", "154032.657000", "154032.660000", "154032.662000", "154032.665000", "154032.667000", "154032.670000", "154032.673000", "154032.675000", "154032.678000", "154032.680000", "154032.683000", "154032.685000", "154032.688000", "154053.123000", "154053.126000", "154053.128000", "154053.131000", "154053.133000", "154053.136000", "154053.138000", "154053.141000", "154053.144000", "154053.146000", "154053.149000", "154053.151000", "154053.154000", "154053.157000", "154053.159000", "154053.162000", "154053.165000", "154053.167000", "154053.170000", "154053.172000", "154112.637000", "154112.640000", "154112.642000", "154112.645000", "154112.648000", "154112.650000", "154112.653000", "154112.655000", "154112.658000", "154112.661000", "154112.663000", "154112.666000", "154112.668000", "154112.671000", "154112.673000", "154112.676000", "154112.679000", "154112.681000", "154112.684000", "154112.687000", "154112.689000", "154152.691000", "154152.694000", "154152.697000", "154152.699000", "154152.702000", "154152.704000", "154152.707000", "154152.710000", "154152.712000", "154152.715000", "154152.718000", "154152.720000", "154152.723000", "154152.725000", "154152.728000", "154152.731000", "154152.733000", "154152.736000", "154152.739000", "154152.741000", "154152.744000", "154152.746000", "154152.751000", "154152.754000", "154152.756000", "154152.759000", "154152.762000", "154152.764000", "154152.767000", "154152.769000", "154152.772000", "154152.775000", "154232.671000", "154232.674000", "154232.676000", "154232.679000", "154232.682000", "154232.684000", "154232.687000", "154232.689000", "154232.692000", "154232.695000", "154232.697000", "154232.700000", "154232.702000", "154232.705000", "154232.708000", "154232.710000", "154232.713000", "154232.715000", "154232.718000", "154232.721000", "154232.723000", "154232.726000", "154232.728000", "154232.731000", "154232.734000", "154232.736000", "154232.739000", "154312.678000", "154312.681000", "154312.684000", "154312.686000", "154312.689000", "154312.691000", "154312.694000", "154312.697000", "154312.699000", "154312.702000", "154312.704000", "154312.707000", "154312.710000", "154312.712000", "154312.715000", "154312.717000", "154312.720000", "154312.723000", "154312.725000", "154312.728000", "154312.730000", "154312.733000", "154312.736000", "154312.738000", "154312.741000", "154312.743000", "154312.746000", "154323.670000", "154323.673000", "154323.682000", "154323.685000", "154323.687000", "154323.690000", "154323.693000", "154323.695000"],
      "InstanceCreationTime": ["154012.739000", "154012.742000", "154012.744000", "154012.747000", "154012.750000", "154012.752000", "154012.755000", "154012.758000", "154012.760000", "154012.763000", "154012.765000", "154012.768000", "154012.771000", "154012.773000", "154012.776000", "154012.778000", "154012.781000", "154012.783000", "154012.786000", "154012.789000", "154012.791000", "154012.799000", "154012.802000", "154012.805000", "154012.807000", "154012.810000", "154012.812000", "154012.815000", "154012.818000", "154012.820000", "154012.823000", "154012.825000", "154012.828000", "154012.831000", "154012.833000", "154032.639000", "154032.642000", "154032.644000", "154032.647000", "154032.649000", "154032.652000", "154032.654000", "154032.657000", "154032.660000", "154032.662000", "154032.665000", "154032.667000", "154032.670000", "154032.673000", "154032.675000", "154032.678000", "154032.680000", "154032.683000", "154032.685000", "154032.688000", "154053.123000", "154053.126000", "154053.128000", "154053.131000", "154053.133000", "154053.136000", "154053.138000", "154053.141000", "154053.144000", "154053.146000", "154053.149000", "154053.151000", "154053.154000", "154053.157000", "154053.159000", "154053.162000", "154053.165000", "154053.167000", "154053.170000", "154053.172000", "154112.637000", "154112.640000", "154112.642000", "154112.645000", "154112.648000", "154112.650000", "154112.653000", "154112.655000", "154112.658000", "154112.661000", "154112.663000", "154112.666000", "154112.668000", "154112.671000", "154112.673000", "154112.676000", "154112.679000", "154112.681000", "154112.684000", "154112.687000", "154112.689000", "154152.691000", "154152.694000", "154152.697000", "154152.699000", "154152.702000", "154152.704000", "154152.707000", "154152.710000", "154152.712000", "154152.715000", "154152.718000", "154152.720000", "154152.723000", "154152.725000", "154152.728000", "154152.731000", "154152.733000", "154152.736000", "154152.739000", "154152.741000", "154152.744000", "154152.746000", "154152.751000", "154152.754000", "154152.756000", "154152.759000", "154152.762000", "154152.764000", "154152.767000", "154152.769000", "154152.772000", "154152.775000", "154232.671000", "154232.674000", "154232.676000", "154232.679000", "154232.682000", "154232.684000", "154232.687000", "154232.689000", "154232.692000", "154232.695000", "154232.697000", "154232.700000", "154232.702000", "154232.705000", "154232.708000", "154232.710000", "154232.713000", "154232.715000", "154232.718000", "154232.721000", "154232.723000", "154232.726000", "154232.728000", "154232.731000", "154232.734000", "154232.736000", "154232.739000", "154312.678000", "154312.681000", "154312.684000", "154312.686000", "154312.689000", "154312.691000", "154312.694000", "154312.697000", "154312.699000", "154312.702000", "154312.704000", "154312.707000", "154312.710000", "154312.712000", "154312.715000", "154312.717000", "154312.720000", "154312.723000", "154312.725000", "154312.728000", "154312.730000", "154312.733000", "154312.736000", "154312.738000", "154312.741000", "154312.743000", "154312.746000", "154323.670000", "154323.673000", "154323.682000", "154323.685000", "154323.687000", "154323.690000", "154323.693000", "154323.695000"],
      "InstanceNumber": [1, 2, 3, 4, 5, 6, 7, 8, 9, 10, 11, 12, 13, 14, 15, 16, 17, 18, 19, 20, 21, 22, 23, 24, 25, 26, 27, 28, 29, 30, 31, 32, 33, 34, 35, 36, 37, 38, 39, 40, 41, 42, 43, 44, 45, 46, 47, 48, 49, 50, 51, 52, 53, 54, 55, 56, 57, 58, 59, 60, 61, 62, 63, 64, 65, 66, 67, 68, 69, 70, 71, 72, 73, 74, 75, 76, 77, 78, 79, 80, 81, 82, 83, 84, 85, 86, 87, 88, 89, 90, 91, 92, 93, 94, 95, 96, 97, 98, 99, 100, 101, 102, 103, 104, 105, 106, 107, 108, 109, 110, 111, 112, 113, 114, 115, 116, 117, 118, 119, 120, 121, 122, 123, 124, 125, 126, 127, 128, 129, 130, 131, 132, 133, 134, 135, 136, 137, 138, 139, 140, 141, 142, 143, 144, 145, 146, 147, 148, 149, 150, 151, 152, 153, 154, 155, 156, 157, 158, 159, 160, 161, 162, 163, 164, 165, 166, 167, 168, 169, 170, 171, 172, 173, 174, 175, 176, 177, 178, 179, 180, 181, 182, 183, 184, 185, 186, 187, 188, 189, 190],
      "WindowCenter": [4838.0, 4868.0, 4870.0, 4842.0, 4842.0, 4868.0, 4842.0, 4832.0, 4844.0, 4834.0, 4836.0, 4872.0, 4842.0, 4838.0, 4872.0, 4844.0, 4834.0, 4868.0, 4830.0, 4842.0, 4844.0, 4808.0, 4838.0, 4844.0, 4838.0, 4838.0, 4834.0, 4846.0, 4834.0, 4834.0, 4842.0, 4838.0, 4870.0, 4838.0, 4842.0, 4870.0, 4836.0, 4838.0, 4868.0, 4828.0, 4836.0, 4840.0, 4844.0, 4844.0, 4836.0, 4846.0, 4810.0, 4812.0, 4840.0, 4808.0, 4842.0, 4830.0, 4840.0, 4844.0, 4840.0, 4846.0, 4834.0, 4836.0, 4832.0, 4804.0, 4842.0, 4840.0, 4842.0, 4848.0, 4842.0, 4844.0, 4804.0, 4840.0, 4840.0, 4834.0, 4864.0, 4846.0, 4838.0, 4828.0, 4840.0, 4842.0, 4832.0, 4868.0, 4838.0, 4832.0, 4844.0, 4840.0, 4836.0, 4844.0, 4806.0, 4836.0, 4868.0, 4832.0, 4806.0, 4868.0, 4836.0, 4836.0, 4844.0, 4810.0, 4842.0, 4834.0, 4834.0, 4840.0, 4842.0, 4838.0, 4806.0, 4834.0, 4870.0, 4844.0, 4874.0, 4838.0, 4838.0, 4868.0, 4828.0, 4836.0, 4866.0, 4810.0, 4864.0, 4838.0, 4842.0, 4842.0, 4832.0, 4842.0, 4838.0, 4804.0, 4836.0, 4844.0, 4840.0, 4874.0, 4836.0, 4866.0, 4842.0, 4802.0, 4836.0, 4842.0, 4830.0, 4834.0, 4838.0, 4846.0, 4836.0, 4842.0, 4828.0, 4804.0, 4838.0, 4868.0, 4844.0, 4876.0, 4838.0, 4836.0, 4842.0, 4866.0, 4832.0, 4838.0, 4838.0, 4830.0, 4842.0, 4868.0, 4806.0, 4834.0, 4874.0, 4876.0, 4838.0, 4840.0, 4870.0, 4842.0, 4806.0, 4832.0, 4840.0, 4834.0, 4832.0, 4842.0, 4828.0, 4846.0, 4844.0, 4830.0, 4842.0, 4840.0, 4834.0, 4844.0, 4866.0, 4808.0, 4838.0, 4838.0, 4840.0, 4868.0, 4836.0, 4806.0, 4838.0, 4872.0, 4878.0, 4872.0, 4840.0, 4832.0, 4832.0, 4838.0],
      "WindowWidth": [18644.0, 18678.0, 18674.0, 18644.0, 18646.0, 18678.0, 18642.0, 18630.0, 18646.0, 18634.0, 18640.0, 18678.0, 18644.0, 18640.0, 18680.0, 18642.0, 18636.0, 18674.0, 18632.0, 18644.0, 18644.0, 18602.0, 18640.0, 18644.0, 18640.0, 18640.0, 18638.0, 18648.0, 18634.0, 18636.0, 18642.0, 18638.0, 18678.0, 18634.0, 18644.0, 18678.0, 18634.0, 18638.0, 18674.0, 18630.0, 18640.0, 18642.0, 18648.0, 18642.0, 18634.0, 18644.0, 18602.0, 18604.0, 18642.0, 18598.0, 18644.0, 18630.0, 18644.0, 18648.0, 18648.0, 18646.0, 18638.0, 18640.0, 18632.0, 18600.0, 18646.0, 18640.0, 18640.0, 18642.0, 18644.0, 18648.0, 18596.0, 18636.0, 18640.0, 18636.0, 18674.0, 18646.0, 18638.0, 18626.0, 18644.0, 18644.0, 18636.0, 18674.0, 18636.0, 18632.0, 18646.0, 18638.0, 18636.0, 18646.0, 18600.0, 18638.0, 18680.0, 18632.0, 18600.0, 18676.0, 18640.0, 18642.0, 18650.0, 18604.0, 18648.0, 18638.0, 18632.0, 18640.0, 18640.0, 18638.0, 18600.0, 18636.0, 18676.0, 18648.0, 18678.0, 18642.0, 18638.0, 18672.0, 18630.0, 18638.0, 18676.0, 18600.0, 18678.0, 18640.0, 18646.0, 18644.0, 18636.0, 18646.0, 18642.0, 18596.0, 18634.0, 18650.0, 18644.0, 18680.0, 18634.0, 18670.0, 18642.0, 18596.0, 18634.0, 18646.0, 18630.0, 18638.0, 18644.0, 18646.0, 18638.0, 18640.0, 18632.0, 18602.0, 18640.0, 18682.0, 18648.0, 18684.0, 18640.0, 18640.0, 18642.0, 18676.0, 18630.0, 18638.0, 18640.0, 18630.0, 18642.0, 18672.0, 18600.0, 18644.0, 18682.0, 18686.0, 18640.0, 18642.0, 18678.0, 18644.0, 18596.0, 18634.0, 18644.0, 18640.0, 18634.0, 18644.0, 18630.0, 18642.0, 18644.0, 18632.0, 18650.0, 18644.0, 18634.0, 18640.0, 18676.0, 18598.0, 18636.0, 18638.0, 18640.0, 18678.0, 18634.0, 18602.0, 18640.0, 18684.0, 18684.0, 18678.0, 18644.0, 18630.0, 18632.0, 18638.0]
    },
    "slices": {}
  }
}