{
  "AcquisitionMatrixPE": 104,
  "AcquisitionNumber": 1,
  "AcquisitionTime": "15:43:47.370000",
  "BandwidthPerPixelPhaseEncode": 17.17,
  "BaseResolution": 104,
  "BodyPartExamined": "BRAIN",
  "CoilString": "HC1-7;NC1_2",
  "ConsistencyInfo": "N4_VE11C_LATEST_20160120",
  "ConversionSoftware": "dcm2niix",
  "ConversionSoftwareVersion": "v1.0.20190902",
  "DerivedVendorReportedEchoSpacing": 0.000560011,
  "DeviceSerialNumber": "167006",
  "DwellTime": 2.1e-06,
  "EchoTime": 0.037,
  "EchoTrainLength": 104,
  "EffectiveEchoSpacing": 0.000560011,
  "FlipAngle": 52,
  "ImageComments": "Unaliased_MB4_PE3_LB",
  "ImageOrientationPatientDICOM": [0.999607, -0.019974, 0.0196608, 0.0249536, 0.953659, -0.299854],
  "ImageType": [
    "ORIGINAL",
    "PRIMARY",
    "M",
    "MB",
    "ND",
    "MOSAIC"
],
  "ImagingFrequency": 123.259,
  "InPlanePhaseEncodingDirectionDICOM": "COL",
  "InstitutionAddress": "Chemin_Queen-Mary_4565_Montreal_District_CA_H3W_1W5",
  "InstitutionName": "IUGM",
  "InstitutionalDepartmentName": "Department",
  "MRAcquisitionType": "2D",
  "MagneticFieldStrength": 3,
  "Manufacturer": "Siemens",
  "ManufacturersModelName": "Prisma_fit",
  "Modality": "MR",
  "MultibandAccelerationFactor": 4,
  "PartialFourier": 1,
  "PatientPosition": "HFS",
  "PercentPhaseFOV": 100,
  "PhaseEncodingDirection": "j",
  "PhaseEncodingSteps": 104,
  "PhaseResolution": 1,
  "PixelBandwidth": 2290,
  "ProcedureStepDescription": "memory_things",
  "ProtocolName": "func_task-things_run-3",
  "PulseSequenceDetails": "%CustomerSeq%_cmrr_mbep2d_bold",
  "ReceiveCoilActiveElements": "HC1-7;NC1,2",
  "ReceiveCoilName": "HeadNeck_64",
  "ReconMatrixPE": 104,
  "RepetitionTime": 1.49,
  "SAR": 0.0308791,
  "ScanOptions": "FS",
  "ScanningSequence": "EP",
  "SequenceName": "epfid2d1_104",
  "SequenceVariant": "SK_SS",
  "SeriesDescription": "func_task-things_run-3",
  "SeriesNumber": 16,
  "ShimSetting": [627, -7270, -8815, 615, -7, -230, 7, -7],
  "SliceThickness": 2,
  "SliceTiming": [0, 0.7825, 0.0975, 0.88, 0.195, 0.98, 0.2925, 1.0775, 0.3925, 1.175, 0.49, 1.2725, 0.5875, 1.37, 0.685, 0, 0.7825, 0.0975, 0.88, 0.195, 0.98, 0.2925, 1.0775, 0.3925, 1.175, 0.49, 1.2725, 0.5875, 1.37, 0.685, 0, 0.7825, 0.0975, 0.88, 0.195, 0.98, 0.2925, 1.0775, 0.3925, 1.175, 0.49, 1.2725, 0.5875, 1.37, 0.685, 0, 0.7825, 0.0975, 0.88, 0.195, 0.98, 0.2925, 1.0775, 0.3925, 1.175, 0.49, 1.2725, 0.5875, 1.37, 0.685],
  "SoftwareVersions": "syngo_MR_E11",
  "SpacingBetweenSlices": 2,
  "StationName": "MRC35049",
  "TaskName": "things",
  "TotalReadoutTime": 0.0576811,
  "TxRefAmp": 218.267,
  "WipMemBlock": "d416c7bd-c2f5-4326-b87e-79ec9c2a61a9||Sequence: R016 ve11c/master r/e634e98; Dec 19 2017 11:00:25 by eja",
  "dcmmeta_affine": [
    [-1.9992142915725708, 0.049907173961400986, 0.02552083507180214, 103.4371566772461],
    [0.03994808346033096, 1.9073176383972168, -0.600452721118927, -69.52543640136719],
    [0.039321620017290115, 0.5997071266174316, 1.9075652360916138, -59.45892333984375],
    [0.0, 0.0, 0.0, 1.0]
],
  "dcmmeta_reorient_transform": [
    [0.0, -1.0, 0.0, 103.0],
    [1.0, 0.0, 0.0, 0.0],
    [0.0, 0.0, 1.0, 0.0],
    [0.0, 0.0, 0.0, 1.0]
],
  "dcmmeta_shape": [104, 104, 60, 190],
  "dcmmeta_slice_dim": 2,
  "dcmmeta_version": 0.6,
  "global": {
    "const": {
      "AcquisitionMatrix": [104, 0, 0, 104],
      "AngioFlag": "N",
      "BitsAllocated": 16,
      "BitsStored": 16,
      "BodyPartExamined": "BRAIN",
      "Columns": 832,
      "EchoNumbers": 1,
      "EchoTime": 37.0,
      "EchoTrainLength": 104,
      "FlipAngle": 52.0,
      "HighBit": 15,
      "ImageOrientationPatient": [0.99960716794681, -0.0199740420961, 0.01966080953836, 0.02495358778657, 0.95365883074422, -0.2998535525888],
      "ImagePositionPatient": [-854.45782939074, -806.65081167539, 206.29122632322],
      "ImageType": [
        "ORIGINAL",
        "PRIMARY",
        "M",
        "MB",
        "ND",
        "MOSAIC"
],
      "ImagedNucleus": "1H",
      "ImagingFrequency": 123.258931,
      "InPlanePhaseEncodingDirection": "COL",
      "MRAcquisitionType": "2D",
      "MagneticFieldStrength": 3.0,
      "Manufacturer": "SIEMENS",
      "ManufacturerModelName": "Prisma_fit",
      "Modality": "MR",
      "NumberOfAverages": 1.0,
      "NumberOfPhaseEncodingSteps": 104,
      "PercentPhaseFieldOfView": 100.0,
      "PercentSampling": 100.0,
      "PerformedProcedureStepStartTime": "152536.184000",
      "PhotometricInterpretation": "MONOCHROME2",
      "PixelBandwidth": 2290.0,
      "PixelRepresentation": 0,
      "PixelSpacing": [2.0, 2.0],
      "ProtocolName": "func_task-things_run-3",
      "RepetitionTime": 1490.0,
      "Rows": 832,
      "SAR": 0.03087906587526,
      "SamplesPerPixel": 1,
      "ScanOptions": "FS",
      "ScanningSequence": "EP",
      "SequenceName": "epfid2d1_104",
      "SequenceVariant": [
        "SK",
        "SS"
],
      "SeriesDescription": "func_task-things_run-3",
      "SeriesNumber": 16,
      "SeriesTime": "154503.707000",
      "SliceLocation": -34.517617513189,
      "SliceThickness": 2.0,
      "SmallestImagePixelValue": 0,
      "SoftwareVersions": "syngo MR E11",
      "SpacingBetweenSlices": 2.0000000346974,
      "SpecificCharacterSet": "ISO_IR 100",
      "StudyID": "1",
      "StudyTime": "152536.115000",
      "TransmitCoilName": "Body",
      "VariableFlipAngleFlag": "N",
      "WindowCenterWidthExplanation": "Algo1",
      "dBdt": 0.0},
    "slices": {}
  },
  "time": {
    "samples": {
      "AcquisitionNumber": [1, 2, 3, 4, 5, 6, 7, 8, 9, 10, 11, 12, 13, 14, 15, 16, 17, 18, 19, 20, 21, 22, 23, 24, 25, 26, 27, 28, 29, 30, 31, 32, 33, 34, 35, 36, 37, 38, 39, 40, 41, 42, 43, 44, 45, 46, 47, 48, 49, 50, 51, 52, 53, 54, 55, 56, 57, 58, 59, 60, 61, 62, 63, 64, 65, 66, 67, 68, 69, 70, 71, 72, 73, 74, 75, 76, 77, 78, 79, 80, 81, 82, 83, 84, 85, 86, 87, 88, 89, 90, 91, 92, 93, 94, 95, 96, 97, 98, 99, 100, 101, 102, 103, 104, 105, 106, 107, 108, 109, 110, 111, 112, 113, 114, 115, 116, 117, 118, 119, 120, 121, 122, 123, 124, 125, 126, 127, 128, 129, 130, 131, 132, 133, 134, 135, 136, 137, 138, 139, 140, 141, 142, 143, 144, 145, 146, 147, 148, 149, 150, 151, 152, 153, 154, 155, 156, 157, 158, 159, 160, 161, 162, 163, 164, 165, 166, 167, 168, 169, 170, 171, 172, 173, 174, 175, 176, 177, 178, 179, 180, 181, 182, 183, 184, 185, 186, 187, 188, 189, 190],
      "AcquisitionTime": ["154347.370000", "154348.860000", "154350.350000", "154351.840000", "154353.330000", "154354.820000", "154356.310000", "154357.800000", "154359.290000", "154400.780000", "154402.270000", "154403.760000", "154405.250000", "154406.740000", "154408.230000", "154409.720000", "154411.210000", "154412.700000", "154414.190000", "154415.680000", "154417.170000", "154418.660000", "154420.150000", "154421.640000", "154423.130000", "154424.620000", "154426.110000", "154427.600000", "154429.090000", "154430.580000", "154432.070000", "154433.560000", "154435.050000", "154436.540000", "154438.030000", "154439.520000", "154441.010000", "154442.500000", "154443.990000", "154445.480000", "154446.970000", "154448.460000", "154449.950000", "154451.440000", "154452.930000", "154454.420000", "154455.910000", "154457.400000", "154458.890000", "154500.380000", "154501.870000", "154503.360000", "154504.850000", "154506.340000", "154507.830000", "154509.320000", "154510.810000", "154512.300000", "154513.790000", "154515.280000", "154516.770000", "154518.260000", "154519.750000", "154521.240000", "154522.730000", "154524.220000", "154525.710000", "154527.200000", "154528.690000", "154530.180000", "154531.670000", "154533.160000", "154534.650000", "154536.140000", "154537.630000", "154539.120000", "154540.610000", "154542.100000", "154543.590000", "154545.080000", "154546.570000", "154548.060000", "154549.550000", "154551.040000", "154552.530000", "154554.020000", "154555.510000", "154557.000000", "154558.490000", "154559.980000", "154601.470000", "154602.960000", "154604.450000", "154605.940000", "154607.430000", "154608.920000", "154610.410000", "154611.900000", "154613.390000", "154614.880000", "154616.370000", "154617.860000", "154619.350000", "154620.840000", "154622.330000", "154623.820000", "154625.310000", "154626.800000", "154628.290000", "154629.780000", "154631.270000", "154632.760000", "154634.250000", "154635.740000", "154637.230000", "154638.720000", "154640.210000", "154641.700000", "154643.190000", "154644.680000", "154646.170000", "154647.660000", "154649.150000", "154650.640000", "154652.130000", "154653.620000", "154655.110000", "154656.600000", "154658.090000", "154659.580000", "154701.070000", "154702.560000", "154704.050000", "154705.540000", "154707.030000", "154708.520000", "154710.010000", "154711.500000", "154712.990000", "154714.480000", "154715.970000", "154717.460000", "154718.950000", "154720.440000", "154721.930000", "154723.420000", "154724.910000", "154726.400000", "154727.890000", "154729.380000", "154730.870000", "154732.360000", "154733.850000", "154735.340000", "154736.830000", "154738.320000", "154739.810000", "154741.300000", "154742.790000", "154744.280000", "154745.770000", "154747.260000", "154748.750000", "154750.240000", "154751.730000", "154753.220000", "154754.710000", "154756.200000", "154757.690000", "154759.180000", "154800.670000", "154802.160000", "154803.650000", "154805.140000", "154806.630000", "154808.120000", "154809.610000", "154811.100000", "154812.590000", "154814.080000", "154815.570000", "154817.060000", "154818.550000", "154820.040000", "154821.530000", "154823.020000", "154824.510000", "154826.000000", "154827.490000", "154828.980000"],
      "ContentTime": ["154503.711000", "154503.715000", "154503.724000", "154503.727000", "154503.731000", "154503.734000", "154503.738000", "154503.741000", "154503.745000", "154503.748000", "154503.752000", "154503.755000", "154503.758000", "154503.762000", "154503.766000", "154503.769000", "154503.773000", "154503.776000", "154503.780000", "154503.792000", "154503.795000", "154523.661000", "154523.665000", "154523.669000", "154523.672000", "154523.675000", "154523.679000", "154523.682000", "154523.686000", "154523.689000", "154523.692000", "154523.696000", "154523.699000", "154523.703000", "154523.706000", "154523.709000", "154523.713000", "154523.716000", "154523.719000", "154523.723000", "154523.726000", "154543.662000", "154543.666000", "154543.669000", "154543.673000", "154543.676000", "154543.680000", "154543.683000", "154543.687000", "154543.690000", "154543.693000", "154543.697000", "154543.700000", "154543.704000", "154543.707000", "154543.711000", "154543.714000", "154543.718000", "154543.721000", "154543.724000", "154543.728000", "154603.662000", "154603.666000", "154603.670000", "154603.673000", "154603.676000", "154603.680000", "154603.683000", "154603.687000", "154603.690000", "154603.693000", "154603.697000", "154603.700000", "154603.704000", "154603.707000", "154603.711000", "154603.714000", "154603.717000", "154603.721000", "154603.724000", "154603.728000", "154623.662000", "154623.666000", "154623.669000", "154623.673000", "154623.676000", "154623.679000", "154623.683000", "154623.686000", "154623.690000", "154623.693000", "154623.697000", "154623.700000", "154623.704000", "154623.707000", "154623.710000", "154623.714000", "154623.717000", "154623.721000", "154623.724000", "154623.728000", "154703.661000", "154703.665000", "154703.669000", "154703.672000", "154703.675000", "154703.679000", "154703.682000", "154703.686000", "154703.689000", "154703.693000", "154703.696000", "154703.700000", "154703.703000", "154703.706000", "154703.710000", "154703.713000", "154703.717000", "154703.720000", "154703.724000", "154703.727000", "154703.731000", "154703.734000", "154703.738000", "154703.741000", "154703.745000", "154703.748000", "154703.752000", "154703.755000", "154703.758000", "154703.762000", "154743.661000", "154743.665000", "154743.669000", "154743.672000", "154743.675000", "154743.679000", "154743.682000", "154743.686000", "154743.689000", "154743.693000", "154743.696000", "154743.700000", "154743.703000", "154743.707000", "154743.710000", "154743.714000", "154743.717000", "154743.720000", "154743.724000", "154743.727000", "154743.731000", "154743.734000", "154743.738000", "154743.741000", "154743.745000", "154743.748000", "154743.752000", "154823.662000", "154823.666000", "154823.669000", "154823.673000", "154823.676000", "154823.680000", "154823.683000", "154823.687000", "154823.690000", "154823.694000", "154823.697000", "154823.701000", "154823.704000", "154823.708000", "154823.711000", "154823.714000", "154823.718000", "154823.721000", "154823.725000", "154823.728000", "154823.732000", "154823.735000", "154823.739000", "154823.742000", "154823.746000", "154823.749000", "154823.753000", "154831.081000", "154831.085000", "154831.089000", "154831.092000", "154831.096000"],
      "InstanceCreationTime": ["154503.711000", "154503.715000", "154503.724000", "154503.727000", "154503.731000", "154503.734000", "154503.738000", "154503.741000", "154503.745000", "154503.748000", "154503.752000", "154503.755000", "154503.758000", "154503.762000", "154503.766000", "154503.769000", "154503.773000", "154503.776000", "154503.780000", "154503.792000", "154503.795000", "154523.661000", "154523.665000", "154523.669000", "154523.672000", "154523.675000", "154523.679000", "154523.682000", "154523.686000", "154523.689000", "154523.692000", "154523.696000", "154523.699000", "154523.703000", "154523.706000", "154523.709000", "154523.713000", "154523.716000", "154523.719000", "154523.723000", "154523.726000", "154543.662000", "154543.666000", "154543.669000", "154543.673000", "154543.676000", "154543.680000", "154543.683000", "154543.687000", "154543.690000", "154543.693000", "154543.697000", "154543.700000", "154543.704000", "154543.707000", "154543.711000", "154543.714000", "154543.718000", "154543.721000", "154543.724000", "154543.728000", "154603.662000", "154603.666000", "154603.670000", "154603.673000", "154603.676000", "154603.680000", "154603.683000", "154603.687000", "154603.690000", "154603.693000", "154603.697000", "154603.700000", "154603.704000", "154603.707000", "154603.711000", "154603.714000", "154603.717000", "154603.721000", "154603.724000", "154603.728000", "154623.662000", "154623.666000", "154623.669000", "154623.673000", "154623.676000", "154623.679000", "154623.683000", "154623.686000", "154623.690000", "154623.693000", "154623.697000", "154623.700000", "154623.704000", "154623.707000", "154623.710000", "154623.714000", "154623.717000", "154623.721000", "154623.724000", "154623.728000", "154703.661000", "154703.665000", "154703.669000", "154703.672000", "154703.675000", "154703.679000", "154703.682000", "154703.686000", "154703.689000", "154703.693000", "154703.696000", "154703.700000", "154703.703000", "154703.706000", "154703.710000", "154703.713000", "154703.717000", "154703.720000", "154703.724000", "154703.727000", "154703.731000", "154703.734000", "154703.738000", "154703.741000", "154703.745000", "154703.748000", "154703.752000", "154703.755000", "154703.758000", "154703.762000", "154743.661000", "154743.665000", "154743.669000", "154743.672000", "154743.675000", "154743.679000", "154743.682000", "154743.686000", "154743.689000", "154743.693000", "154743.696000", "154743.700000", "154743.703000", "154743.707000", "154743.710000", "154743.714000", "154743.717000", "154743.720000", "154743.724000", "154743.727000", "154743.731000", "154743.734000", "154743.738000", "154743.741000", "154743.745000", "154743.748000", "154743.752000", "154823.662000", "154823.666000", "154823.669000", "154823.673000", "154823.676000", "154823.680000", "154823.683000", "154823.687000", "154823.690000", "154823.694000", "154823.697000", "154823.701000", "154823.704000", "154823.708000", "154823.711000", "154823.714000", "154823.718000", "154823.721000", "154823.725000", "154823.728000", "154823.732000", "154823.735000", "154823.739000", "154823.742000", "154823.746000", "154823.749000", "154823.753000", "154831.081000", "154831.085000", "154831.089000", "154831.092000", "154831.096000"],
      "InstanceNumber": [1, 2, 3, 4, 5, 6, 7, 8, 9, 10, 11, 12, 13, 14, 15, 16, 17, 18, 19, 20, 21, 22, 23, 24, 25, 26, 27, 28, 29, 30, 31, 32, 33, 34, 35, 36, 37, 38, 39, 40, 41, 42, 43, 44, 45, 46, 47, 48, 49, 50, 51, 52, 53, 54, 55, 56, 57, 58, 59, 60, 61, 62, 63, 64, 65, 66, 67, 68, 69, 70, 71, 72, 73, 74, 75, 76, 77, 78, 79, 80, 81, 82, 83, 84, 85, 86, 87, 88, 89, 90, 91, 92, 93, 94, 95, 96, 97, 98, 99, 100, 101, 102, 103, 104, 105, 106, 107, 108, 109, 110, 111, 112, 113, 114, 115, 116, 117, 118, 119, 120, 121, 122, 123, 124, 125, 126, 127, 128, 129, 130, 131, 132, 133, 134, 135, 136, 137, 138, 139, 140, 141, 142, 143, 144, 145, 146, 147, 148, 149, 150, 151, 152, 153, 154, 155, 156, 157, 158, 159, 160, 161, 162, 163, 164, 165, 166, 167, 168, 169, 170, 171, 172, 173, 174, 175, 176, 177, 178, 179, 180, 181, 182, 183, 184, 185, 186, 187, 188, 189, 190],
      "LargestImagePixelValue": [46056, 44377, 42245, 41826, 42178, 42205, 42495, 42057, 41951, 42319, 41164, 41303, 42451, 41383, 41551, 42105, 41952, 42376, 42374, 42012, 42658, 41823, 42588, 42728, 41611, 42495, 42295, 42141, 42687, 42772, 41468, 42669, 41505, 42230, 42381, 40861, 42481, 41947, 40915, 41603, 41374, 41193, 41846, 41280, 41287, 41264, 41710, 42033, 41879, 42386, 41813, 41839, 42013, 41640, 42275, 42075, 41746, 41831, 42240, 41193, 41803, 42053, 41601, 42258, 42436, 40925, 41231, 42112, 41302, 41510, 41699, 41939, 41237, 41991, 41926, 41629, 41469, 42557, 41169, 41496, 41882, 40968, 42337, 41381, 41524, 41934, 41636, 41479, 41771, 41680, 41807, 41864, 40945, 42060, 41006, 41507, 41953, 41204, 41855, 41699, 41961, 41523, 41416, 40090, 40497, 42244, 42357, 41615, 41320, 40383, 40204, 40372, 40142, 40083, 40624, 40509, 40415, 40236, 39777, 40197, 40432, 39804, 40295, 41235, 41416, 40604, 41675, 41293, 41530, 41471, 41593, 40169, 41613, 39970, 39963, 40187, 40957, 40213, 39756, 40761, 40386, 40303, 40580, 40452, 40509, 41009, 40867, 40730, 40805, 40475, 40999, 41067, 41019, 41093, 41599, 41132, 41009, 41018, 40503, 41009, 41123, 41520, 41237, 41171, 40205, 40450, 40491, 40827, 40386, 40110, 40133, 40404, 40502, 40628, 40257, 40198, 40589, 40133, 41016, 40500, 41014, 40848, 40884, 41118, 40226, 41300, 41509, 40795, 41404, 40321],
      "WindowCenter": [10412.0, 10393.0, 10355.0, 10306.0, 10277.0, 10273.0, 10281.0, 10289.0, 10277.0, 10259.0, 10245.0, 10273.0, 10295.0, 10278.0, 10268.0, 10269.0, 10265.0, 10288.0, 10297.0, 10291.0, 10289.0, 10292.0, 10313.0, 10312.0, 10282.0, 10275.0, 10279.0, 10289.0, 10301.0, 10318.0, 10318.0, 10312.0, 10291.0, 10302.0, 10318.0, 10313.0, 10300.0, 10269.0, 10263.0, 10291.0, 10291.0, 10259.0, 10232.0, 10229.0, 10266.0, 10302.0, 10297.0, 10272.0, 10260.0, 10279.0, 10300.0, 10294.0, 10277.0, 10275.0, 10290.0, 10291.0, 10285.0, 10292.0, 10292.0, 10282.0, 10269.0, 10261.0, 10269.0, 10282.0, 10303.0, 10296.0, 10272.0, 10258.0, 10246.0, 10258.0, 10251.0, 10250.0, 10252.0, 10260.0, 10253.0, 10246.0, 10251.0, 10283.0, 10300.0, 10300.0, 10291.0, 10280.0, 10290.0, 10287.0, 10286.0, 10285.0, 10276.0, 10271.0, 10281.0, 10285.0, 10283.0, 10266.0, 10255.0, 10265.0, 10264.0, 10289.0, 10292.0, 10280.0, 10279.0, 10276.0, 10299.0, 10296.0, 10264.0, 10236.0, 10252.0, 10301.0, 10341.0, 10333.0, 10289.0, 10242.0, 10222.0, 10220.0, 10215.0, 10214.0, 10213.0, 10204.0, 10220.0, 10241.0, 10252.0, 10245.0, 10248.0, 10273.0, 10308.0, 10308.0, 10299.0, 10299.0, 10304.0, 10300.0, 10323.0, 10315.0, 10296.0, 10279.0, 10287.0, 10278.0, 10270.0, 10259.0, 10256.0, 10265.0, 10272.0, 10261.0, 10232.0, 10227.0, 10248.0, 10274.0, 10278.0, 10262.0, 10259.0, 10259.0, 10282.0, 10303.0, 10294.0, 10277.0, 10262.0, 10273.0, 10302.0, 10309.0, 10287.0, 10275.0, 10278.0, 10277.0, 10280.0, 10296.0, 10303.0, 10299.0, 10281.0, 10270.0, 10268.0, 10260.0, 10239.0, 10238.0, 10254.0, 10256.0, 10253.0, 10262.0, 10278.0, 10288.0, 10302.0, 10298.0, 10299.0, 10285.0, 10290.0, 10284.0, 10277.0, 10261.0, 10248.0, 10254.0, 10273.0, 10286.0, 10285.0, 10254.0],
      "WindowWidth": [22525.0, 22444.0, 22351.0, 22221.0, 22141.0, 22122.0, 22139.0, 22156.0, 22127.0, 22084.0, 22060.0, 22119.0, 22170.0, 22137.0, 22110.0, 22105.0, 22098.0, 22148.0, 22169.0, 22159.0, 22152.0, 22160.0, 22207.0, 22204.0, 22143.0, 22124.0, 22129.0, 22151.0, 22179.0, 22216.0, 22223.0, 22207.0, 22160.0, 22182.0, 22221.0, 22217.0, 22178.0, 22109.0, 22099.0, 22161.0, 22164.0, 22094.0, 22029.0, 22022.0, 22104.0, 22188.0, 22176.0, 22118.0, 22087.0, 22127.0, 22181.0, 22166.0, 22129.0, 22120.0, 22155.0, 22160.0, 22148.0, 22161.0, 22160.0, 22140.0, 22110.0, 22091.0, 22109.0, 22141.0, 22183.0, 22175.0, 22122.0, 22085.0, 22060.0, 22085.0, 22069.0, 22067.0, 22072.0, 22091.0, 22078.0, 22065.0, 22073.0, 22138.0, 22184.0, 22184.0, 22159.0, 22140.0, 22159.0, 22156.0, 22151.0, 22145.0, 22125.0, 22119.0, 22137.0, 22150.0, 22143.0, 22104.0, 22080.0, 22100.0, 22104.0, 22157.0, 22160.0, 22137.0, 22133.0, 22128.0, 22179.0, 22177.0, 22107.0, 22051.0, 22075.0, 22181.0, 22277.0, 22268.0, 22170.0, 22063.0, 22013.0, 22004.0, 21995.0, 21989.0, 21983.0, 21966.0, 22001.0, 22053.0, 22081.0, 22063.0, 22067.0, 22126.0, 22204.0, 22202.0, 22178.0, 22172.0, 22177.0, 22174.0, 22226.0, 22210.0, 22169.0, 22134.0, 22147.0, 22133.0, 22114.0, 22087.0, 22077.0, 22100.0, 22122.0, 22092.0, 22028.0, 22013.0, 22060.0, 22123.0, 22130.0, 22092.0, 22079.0, 22083.0, 22134.0, 22184.0, 22162.0, 22120.0, 22089.0, 22112.0, 22176.0, 22199.0, 22151.0, 22121.0, 22128.0, 22125.0, 22124.0, 22161.0, 22184.0, 22175.0, 22139.0, 22112.0, 22104.0, 22087.0, 22044.0, 22042.0, 22078.0, 22084.0, 22074.0, 22093.0, 22133.0, 22156.0, 22186.0, 22179.0, 22175.0, 22146.0, 22153.0, 22142.0, 22129.0, 22093.0, 22064.0, 22074.0, 22113.0, 22149.0, 22140.0, 22067.0]
    },
    "slices": {}
  }
}