{
  "AcquisitionMatrixPE": 104,
  "AcquisitionNumber": 1,
  "AcquisitionTime": "15:49:2.357500",
  "BandwidthPerPixelPhaseEncode": 17.17,
  "BaseResolution": 104,
  "BodyPartExamined": "BRAIN",
  "CoilString": "HC1-7;NC1_2",
  "ConsistencyInfo": "N4_VE11C_LATEST_20160120",
  "ConversionSoftware": "dcm2niix",
  "ConversionSoftwareVersion": "v1.0.20190902",
  "DerivedVendorReportedEchoSpacing": 0.000560011,
  "DeviceSerialNumber": "167006",
  "DwellTime": 2.1e-06,
  "EchoTime": 0.037,
  "EchoTrainLength": 104,
  "EffectiveEchoSpacing": 0.000560011,
  "FlipAngle": 52,
  "ImageComments": "Unaliased_MB4_PE3_LB",
  "ImageOrientationPatientDICOM": [0.999607, -0.019974, 0.0196608, 0.0249536, 0.953659, -0.299854],
  "ImageType": [
    "ORIGINAL",
    "PRIMARY",
    "M",
    "MB",
    "ND",
    "MOSAIC"
],
  "ImagingFrequency": 123.259,
  "InPlanePhaseEncodingDirectionDICOM": "COL",
  "InstitutionAddress": "Chemin_Queen-Mary_4565_Montreal_District_CA_H3W_1W5",
  "InstitutionName": "IUGM",
  "InstitutionalDepartmentName": "Department",
  "MRAcquisitionType": "2D",
  "MagneticFieldStrength": 3,
  "Manufacturer": "Siemens",
  "ManufacturersModelName": "Prisma_fit",
  "Modality": "MR",
  "MultibandAccelerationFactor": 4,
  "PartialFourier": 1,
  "PatientPosition": "HFS",
  "PercentPhaseFOV": 100,
  "PhaseEncodingDirection": "j",
  "PhaseEncodingSteps": 104,
  "PhaseResolution": 1,
  "PixelBandwidth": 2290,
  "ProcedureStepDescription": "memory_things",
  "ProtocolName": "func_task-things_run-4",
  "PulseSequenceDetails": "%CustomerSeq%_cmrr_mbep2d_bold",
  "ReceiveCoilActiveElements": "HC1-7;NC1,2",
  "ReceiveCoilName": "HeadNeck_64",
  "ReconMatrixPE": 104,
  "RepetitionTime": 1.49,
  "SAR": 0.0308791,
  "ScanOptions": "FS",
  "ScanningSequence": "EP",
  "SequenceName": "epfid2d1_104",
  "SequenceVariant": "SK_SS",
  "SeriesDescription": "func_task-things_run-4",
  "SeriesNumber": 19,
  "ShimSetting": [627, -7270, -8815, 615, -7, -230, 7, -7],
  "SliceThickness": 2,
  "SliceTiming": [0, 0.785, 0.1, 0.8825, 0.1975, 0.98, 0.295, 1.08, 0.3925, 1.1775, 0.49, 1.275, 0.59, 1.3725, 0.6875, 0, 0.785, 0.1, 0.8825, 0.1975, 0.98, 0.295, 1.08, 0.3925, 1.1775, 0.49, 1.275, 0.59, 1.3725, 0.6875, 0, 0.785, 0.1, 0.8825, 0.1975, 0.98, 0.295, 1.08, 0.3925, 1.1775, 0.49, 1.275, 0.59, 1.3725, 0.6875, 0, 0.785, 0.1, 0.8825, 0.1975, 0.98, 0.295, 1.08, 0.3925, 1.1775, 0.49, 1.275, 0.59, 1.3725, 0.6875],
  "SoftwareVersions": "syngo_MR_E11",
  "SpacingBetweenSlices": 2,
  "StationName": "MRC35049",
  "TaskName": "things",
  "TotalReadoutTime": 0.0576811,
  "TxRefAmp": 218.267,
  "WipMemBlock": "100c8a1f-a80a-4810-93ca-411b27d27406||Sequence: R016 ve11c/master r/e634e98; Dec 19 2017 11:00:25 by eja",
  "dcmmeta_affine": [
    [-1.9992142915725708, 0.049907173961400986, 0.02552083507180214, 103.4371566772461],
    [0.03994808346033096, 1.9073176383972168, -0.600452721118927, -69.52543640136719],
    [0.039321620017290115, 0.5997071266174316, 1.9075652360916138, -59.45892333984375],
    [0.0, 0.0, 0.0, 1.0]
],
  "dcmmeta_reorient_transform": [
    [0.0, -1.0, 0.0, 103.0],
    [1.0, 0.0, 0.0, 0.0],
    [0.0, 0.0, 1.0, 0.0],
    [0.0, 0.0, 0.0, 1.0]
],
  "dcmmeta_shape": [104, 104, 60, 190],
  "dcmmeta_slice_dim": 2,
  "dcmmeta_version": 0.6,
  "global": {
    "const": {
      "AcquisitionMatrix": [104, 0, 0, 104],
      "AngioFlag": "N",
      "BitsAllocated": 16,
      "BitsStored": 16,
      "BodyPartExamined": "BRAIN",
      "Columns": 832,
      "EchoNumbers": 1,
      "EchoTime": 37.0,
      "EchoTrainLength": 104,
      "FlipAngle": 52.0,
      "HighBit": 15,
      "ImageOrientationPatient": [0.99960716794681, -0.0199740420961, 0.01966080953836, 0.02495358778657, 0.95365883074422, -0.2998535525888],
      "ImagePositionPatient": [-854.45782939074, -806.65081167539, 206.29122632322],
      "ImageType": [
        "ORIGINAL",
        "PRIMARY",
        "M",
        "MB",
        "ND",
        "MOSAIC"
],
      "ImagedNucleus": "1H",
      "ImagingFrequency": 123.258934,
      "InPlanePhaseEncodingDirection": "COL",
      "MRAcquisitionType": "2D",
      "MagneticFieldStrength": 3.0,
      "Manufacturer": "SIEMENS",
      "ManufacturerModelName": "Prisma_fit",
      "Modality": "MR",
      "NumberOfAverages": 1.0,
      "NumberOfPhaseEncodingSteps": 104,
      "PercentPhaseFieldOfView": 100.0,
      "PercentSampling": 100.0,
      "PerformedProcedureStepStartTime": "152536.184000",
      "PhotometricInterpretation": "MONOCHROME2",
      "PixelBandwidth": 2290.0,
      "PixelRepresentation": 0,
      "PixelSpacing": [2.0, 2.0],
      "ProtocolName": "func_task-things_run-4",
      "RepetitionTime": 1490.0,
      "Rows": 832,
      "SAR": 0.03087906587526,
      "SamplesPerPixel": 1,
      "ScanOptions": "FS",
      "ScanningSequence": "EP",
      "SequenceName": "epfid2d1_104",
      "SequenceVariant": [
        "SK",
        "SS"
],
      "SeriesDescription": "func_task-things_run-4",
      "SeriesNumber": 19,
      "SeriesTime": "155018.516000",
      "SliceLocation": -34.517617513189,
      "SliceThickness": 2.0,
      "SmallestImagePixelValue": 0,
      "SoftwareVersions": "syngo MR E11",
      "SpacingBetweenSlices": 2.0000000346974,
      "SpecificCharacterSet": "ISO_IR 100",
      "StudyID": "1",
      "StudyTime": "152536.115000",
      "TransmitCoilName": "Body",
      "VariableFlipAngleFlag": "N",
      "WindowCenterWidthExplanation": "Algo1",
      "dBdt": 0.0},
    "slices": {}
  },
  "time": {
    "samples": {
      "AcquisitionNumber": [1, 2, 3, 4, 5, 6, 7, 8, 9, 10, 11, 12, 13, 14, 15, 16, 17, 18, 19, 20, 21, 22, 23, 24, 25, 26, 27, 28, 29, 30, 31, 32, 33, 34, 35, 36, 37, 38, 39, 40, 41, 42, 43, 44, 45, 46, 47, 48, 49, 50, 51, 52, 53, 54, 55, 56, 57, 58, 59, 60, 61, 62, 63, 64, 65, 66, 67, 68, 69, 70, 71, 72, 73, 74, 75, 76, 77, 78, 79, 80, 81, 82, 83, 84, 85, 86, 87, 88, 89, 90, 91, 92, 93, 94, 95, 96, 97, 98, 99, 100, 101, 102, 103, 104, 105, 106, 107, 108, 109, 110, 111, 112, 113, 114, 115, 116, 117, 118, 119, 120, 121, 122, 123, 124, 125, 126, 127, 128, 129, 130, 131, 132, 133, 134, 135, 136, 137, 138, 139, 140, 141, 142, 143, 144, 145, 146, 147, 148, 149, 150, 151, 152, 153, 154, 155, 156, 157, 158, 159, 160, 161, 162, 163, 164, 165, 166, 167, 168, 169, 170, 171, 172, 173, 174, 175, 176, 177, 178, 179, 180, 181, 182, 183, 184, 185, 186, 187, 188, 189, 190],
      "AcquisitionTime": ["154902.357500", "154903.847500", "154905.337500", "154906.827500", "154908.317500", "154909.807500", "154911.297500", "154912.787500", "154914.277500", "154915.767500", "154917.257500", "154918.747500", "154920.237500", "154921.727500", "154923.217500", "154924.707500", "154926.197500", "154927.687500", "154929.177500", "154930.667500", "154932.157500", "154933.647500", "154935.137500", "154936.627500", "154938.117500", "154939.607500", "154941.097500", "154942.587500", "154944.077500", "154945.567500", "154947.057500", "154948.547500", "154950.037500", "154951.527500", "154953.017500", "154954.507500", "154955.997500", "154957.487500", "154958.977500", "155000.467500", "155001.957500", "155003.447500", "155004.937500", "155006.427500", "155007.917500", "155009.407500", "155010.897500", "155012.387500", "155013.877500", "155015.367500", "155016.857500", "155018.347500", "155019.837500", "155021.327500", "155022.817500", "155024.307500", "155025.797500", "155027.287500", "155028.777500", "155030.267500", "155031.757500", "155033.247500", "155034.737500", "155036.227500", "155037.717500", "155039.207500", "155040.697500", "155042.187500", "155043.677500", "155045.167500", "155046.657500", "155048.147500", "155049.637500", "155051.127500", "155052.617500", "155054.107500", "155055.597500", "155057.087500", "155058.577500", "155100.067500", "155101.557500", "155103.047500", "155104.537500", "155106.027500", "155107.517500", "155109.007500", "155110.497500", "155111.987500", "155113.477500", "155114.967500", "155116.457500", "155117.947500", "155119.437500", "155120.927500", "155122.417500", "155123.907500", "155125.397500", "155126.887500", "155128.377500", "155129.867500", "155131.357500", "155132.847500", "155134.337500", "155135.827500", "155137.317500", "155138.807500", "155140.297500", "155141.787500", "155143.277500", "155144.767500", "155146.257500", "155147.747500", "155149.237500", "155150.727500", "155152.217500", "155153.707500", "155155.197500", "155156.687500", "155158.177500", "155159.667500", "155201.157500", "155202.647500", "155204.137500", "155205.627500", "155207.117500", "155208.607500", "155210.097500", "155211.587500", "155213.077500", "155214.567500", "155216.057500", "155217.547500", "155219.037500", "155220.527500", "155222.017500", "155223.507500", "155224.997500", "155226.487500", "155227.977500", "155229.467500", "155230.957500", "155232.447500", "155233.937500", "155235.427500", "155236.917500", "155238.407500", "155239.897500", "155241.387500", "155242.877500", "155244.367500", "155245.857500", "155247.347500", "155248.837500", "155250.327500", "155251.817500", "155253.307500", "155254.797500", "155256.287500", "155257.777500", "155259.267500", "155300.757500", "155302.247500", "155303.737500", "155305.227500", "155306.717500", "155308.207500", "155309.697500", "155311.187500", "155312.677500", "155314.167500", "155315.657500", "155317.147500", "155318.637500", "155320.127500", "155321.617500", "155323.107500", "155324.597500", "155326.087500", "155327.577500", "155329.067500", "155330.557500", "155332.047500", "155333.537500", "155335.027500", "155336.517500", "155338.007500", "155339.497500", "155340.987500", "155342.477500", "155343.967500"],
      "ContentTime": ["155018.520000", "155018.524000", "155018.527000", "155018.531000", "155018.541000", "155018.544000", "155018.553000", "155018.556000", "155018.560000", "155018.563000", "155018.566000", "155018.570000", "155018.573000", "155018.577000", "155018.580000", "155018.584000", "155018.587000", "155018.591000", "155018.594000", "155018.597000", "155018.601000", "155018.604000", "155038.479000", "155038.483000", "155038.487000", "155038.491000", "155038.494000", "155038.498000", "155038.502000", "155038.505000", "155038.509000", "155038.512000", "155038.516000", "155038.519000", "155038.523000", "155038.526000", "155038.530000", "155038.533000", "155038.537000", "155038.540000", "155038.543000", "155038.547000", "155058.480000", "155058.487000", "155058.491000", "155058.494000", "155058.498000", "155058.501000", "155058.505000", "155058.508000", "155058.512000", "155058.515000", "155058.518000", "155058.522000", "155058.525000", "155058.529000", "155058.532000", "155058.536000", "155058.539000", "155058.542000", "155058.546000", "155058.549000", "155118.480000", "155118.484000", "155118.488000", "155118.491000", "155118.494000", "155118.498000", "155118.501000", "155118.505000", "155118.508000", "155118.512000", "155118.515000", "155118.518000", "155118.522000", "155118.525000", "155118.529000", "155118.532000", "155118.536000", "155118.539000", "155118.542000", "155118.546000", "155138.480000", "155138.484000", "155138.488000", "155138.491000", "155138.495000", "155138.498000", "155138.501000", "155138.505000", "155138.509000", "155138.513000", "155138.516000", "155138.520000", "155138.523000", "155138.527000", "155138.530000", "155138.534000", "155138.550000", "155138.554000", "155138.557000", "155138.561000", "155218.480000", "155218.484000", "155218.488000", "155218.491000", "155218.495000", "155218.498000", "155218.502000", "155218.505000", "155218.508000", "155218.512000", "155218.515000", "155218.519000", "155218.522000", "155218.526000", "155218.529000", "155218.533000", "155218.537000", "155218.540000", "155218.544000", "155218.547000", "155218.552000", "155218.556000", "155218.559000", "155218.563000", "155218.567000", "155218.570000", "155218.574000", "155218.620000", "155258.479000", "155258.483000", "155258.486000", "155258.490000", "155258.493000", "155258.497000", "155258.500000", "155258.504000", "155258.507000", "155258.511000", "155258.514000", "155258.518000", "155258.521000", "155258.524000", "155258.528000", "155258.531000", "155258.535000", "155258.538000", "155258.542000", "155258.545000", "155258.548000", "155258.552000", "155258.555000", "155258.559000", "155258.562000", "155258.566000", "155258.569000", "155338.480000", "155338.484000", "155338.488000", "155338.491000", "155338.495000", "155338.498000", "155338.502000", "155338.505000", "155338.509000", "155338.512000", "155338.516000", "155338.519000", "155338.523000", "155338.526000", "155338.530000", "155338.533000", "155338.537000", "155338.540000", "155338.544000", "155338.548000", "155338.552000", "155338.555000", "155338.559000", "155338.562000", "155338.566000", "155338.569000", "155338.572000", "155346.519000", "155346.523000", "155346.526000", "155346.530000", "155346.533000", "155346.537000"],
      "InstanceCreationTime": ["155018.520000", "155018.524000", "155018.527000", "155018.531000", "155018.541000", "155018.544000", "155018.553000", "155018.556000", "155018.560000", "155018.563000", "155018.566000", "155018.570000", "155018.573000", "155018.577000", "155018.580000", "155018.584000", "155018.587000", "155018.591000", "155018.594000", "155018.597000", "155018.601000", "155018.604000", "155038.479000", "155038.483000", "155038.487000", "155038.491000", "155038.494000", "155038.498000", "155038.502000", "155038.505000", "155038.509000", "155038.512000", "155038.516000", "155038.519000", "155038.523000", "155038.526000", "155038.530000", "155038.533000", "155038.537000", "155038.540000", "155038.543000", "155038.547000", "155058.480000", "155058.487000", "155058.491000", "155058.494000", "155058.498000", "155058.501000", "155058.505000", "155058.508000", "155058.512000", "155058.515000", "155058.518000", "155058.522000", "155058.525000", "155058.529000", "155058.532000", "155058.536000", "155058.539000", "155058.542000", "155058.546000", "155058.549000", "155118.480000", "155118.484000", "155118.488000", "155118.491000", "155118.494000", "155118.498000", "155118.501000", "155118.505000", "155118.508000", "155118.512000", "155118.515000", "155118.518000", "155118.522000", "155118.525000", "155118.529000", "155118.532000", "155118.536000", "155118.539000", "155118.542000", "155118.546000", "155138.480000", "155138.484000", "155138.488000", "155138.491000", "155138.495000", "155138.498000", "155138.501000", "155138.505000", "155138.509000", "155138.513000", "155138.516000", "155138.520000", "155138.523000", "155138.527000", "155138.530000", "155138.534000", "155138.550000", "155138.554000", "155138.557000", "155138.561000", "155218.480000", "155218.484000", "155218.488000", "155218.491000", "155218.495000", "155218.498000", "155218.502000", "155218.505000", "155218.508000", "155218.512000", "155218.515000", "155218.519000", "155218.522000", "155218.526000", "155218.529000", "155218.533000", "155218.537000", "155218.540000", "155218.544000", "155218.547000", "155218.552000", "155218.556000", "155218.559000", "155218.563000", "155218.567000", "155218.570000", "155218.574000", "155218.620000", "155258.479000", "155258.483000", "155258.486000", "155258.490000", "155258.493000", "155258.497000", "155258.500000", "155258.504000", "155258.507000", "155258.511000", "155258.514000", "155258.518000", "155258.521000", "155258.524000", "155258.528000", "155258.531000", "155258.535000", "155258.538000", "155258.542000", "155258.545000", "155258.548000", "155258.552000", "155258.555000", "155258.559000", "155258.562000", "155258.566000", "155258.569000", "155338.480000", "155338.484000", "155338.488000", "155338.491000", "155338.495000", "155338.498000", "155338.502000", "155338.505000", "155338.509000", "155338.512000", "155338.516000", "155338.519000", "155338.523000", "155338.526000", "155338.530000", "155338.533000", "155338.537000", "155338.540000", "155338.544000", "155338.548000", "155338.552000", "155338.555000", "155338.559000", "155338.562000", "155338.566000", "155338.569000", "155338.572000", "155346.519000", "155346.523000", "155346.526000", "155346.530000", "155346.533000", "155346.537000"],
      "InstanceNumber": [1, 2, 3, 4, 5, 6, 7, 8, 9, 10, 11, 12, 13, 14, 15, 16, 17, 18, 19, 20, 21, 22, 23, 24, 25, 26, 27, 28, 29, 30, 31, 32, 33, 34, 35, 36, 37, 38, 39, 40, 41, 42, 43, 44, 45, 46, 47, 48, 49, 50, 51, 52, 53, 54, 55, 56, 57, 58, 59, 60, 61, 62, 63, 64, 65, 66, 67, 68, 69, 70, 71, 72, 73, 74, 75, 76, 77, 78, 79, 80, 81, 82, 83, 84, 85, 86, 87, 88, 89, 90, 91, 92, 93, 94, 95, 96, 97, 98, 99, 100, 101, 102, 103, 104, 105, 106, 107, 108, 109, 110, 111, 112, 113, 114, 115, 116, 117, 118, 119, 120, 121, 122, 123, 124, 125, 126, 127, 128, 129, 130, 131, 132, 133, 134, 135, 136, 137, 138, 139, 140, 141, 142, 143, 144, 145, 146, 147, 148, 149, 150, 151, 152, 153, 154, 155, 156, 157, 158, 159, 160, 161, 162, 163, 164, 165, 166, 167, 168, 169, 170, 171, 172, 173, 174, 175, 176, 177, 178, 179, 180, 181, 182, 183, 184, 185, 186, 187, 188, 189, 190],
      "LargestImagePixelValue": [44010, 43126, 41512, 40645, 40793, 41268, 40503, 39597, 39451, 40268, 39149, 39206, 38938, 40371, 39686, 39593, 40113, 40467, 39577, 39325, 39100, 39218, 38839, 39590, 39372, 38903, 39194, 39367, 40157, 39665, 39286, 39814, 40047, 39969, 39233, 39299, 40741, 40663, 39649, 40329, 40032, 39800, 40930, 39570, 39779, 40039, 39961, 39908, 39837, 40449, 40359, 39581, 40322, 40154, 40270, 40072, 40230, 39763, 40622, 40504, 40122, 40786, 39625, 39792, 40705, 40102, 39860, 40642, 39666, 40813, 40876, 39164, 40257, 40337, 40195, 40706, 40149, 40675, 40328, 40107, 39646, 39824, 39996, 39919, 41129, 40186, 40254, 41101, 41177, 39205, 39673, 40986, 39451, 40271, 41127, 40603, 39822, 40236, 39294, 39273, 39464, 39749, 39985, 41232, 40583, 40180, 38927, 39680, 39552, 40883, 40085, 39972, 41402, 41771, 40622, 39792, 39703, 39993, 40304, 40595, 40577, 40272, 39663, 40444, 40345, 40950, 39912, 38959, 39963, 40495, 41122, 41249, 41616, 41474, 40831, 41006, 39850, 40546, 41057, 40888, 40547, 40776, 41158, 42015, 40794, 40743, 40869, 40098, 40843, 40565, 41591, 41597, 40385, 41176, 40963, 41482, 41657, 40856, 40743, 40904, 41059, 40510, 40850, 41098, 40937, 41438, 41619, 41166, 42625, 41850, 39499, 40473, 41076, 41518, 41625, 41580, 40746, 41045, 40759, 41231, 41115, 41043, 41656, 42537, 42598, 42041, 42732, 41832, 42324, 42855],
      "WindowCenter": [10394.0, 10372.0, 10342.0, 10290.0, 10260.0, 10264.0, 10257.0, 10229.0, 10199.0, 10210.0, 10199.0, 10212.0, 10210.0, 10248.0, 10285.0, 10288.0, 10255.0, 10241.0, 10253.0, 10266.0, 10273.0, 10256.0, 10233.0, 10221.0, 10217.0, 10213.0, 10205.0, 10201.0, 10221.0, 10248.0, 10247.0, 10234.0, 10223.0, 10233.0, 10251.0, 10263.0, 10271.0, 10270.0, 10275.0, 10260.0, 10250.0, 10248.0, 10274.0, 10266.0, 10250.0, 10233.0, 10231.0, 10242.0, 10243.0, 10224.0, 10223.0, 10240.0, 10256.0, 10248.0, 10237.0, 10232.0, 10239.0, 10250.0, 10269.0, 10276.0, 10273.0, 10273.0, 10265.0, 10253.0, 10254.0, 10268.0, 10272.0, 10269.0, 10257.0, 10266.0, 10276.0, 10261.0, 10262.0, 10246.0, 10238.0, 10228.0, 10217.0, 10213.0, 10203.0, 10205.0, 10228.0, 10241.0, 10233.0, 10232.0, 10249.0, 10259.0, 10280.0, 10286.0, 10285.0, 10259.0, 10239.0, 10248.0, 10246.0, 10270.0, 10260.0, 10237.0, 10241.0, 10242.0, 10216.0, 10195.0, 10185.0, 10200.0, 10232.0, 10274.0, 10282.0, 10254.0, 10225.0, 10234.0, 10245.0, 10277.0, 10268.0, 10244.0, 10256.0, 10305.0, 10303.0, 10277.0, 10257.0, 10248.0, 10245.0, 10266.0, 10292.0, 10283.0, 10252.0, 10245.0, 10225.0, 10241.0, 10260.0, 10261.0, 10257.0, 10247.0, 10257.0, 10259.0, 10256.0, 10270.0, 10285.0, 10286.0, 10284.0, 10297.0, 10283.0, 10241.0, 10207.0, 10203.0, 10232.0, 10263.0, 10248.0, 10224.0, 10227.0, 10223.0, 10258.0, 10263.0, 10274.0, 10288.0, 10290.0, 10288.0, 10266.0, 10266.0, 10266.0, 10282.0, 10282.0, 10256.0, 10238.0, 10249.0, 10266.0, 10266.0, 10260.0, 10259.0, 10279.0, 10291.0, 10300.0, 10307.0, 10276.0, 10252.0, 10250.0, 10256.0, 10249.0, 10218.0, 10188.0, 10202.0, 10220.0, 10241.0, 10237.0, 10243.0, 10272.0, 10310.0, 10319.0, 10287.0, 10292.0, 10302.0, 10336.0, 10345.0],
      "WindowWidth": [22489.0, 22411.0, 22327.0, 22190.0, 22112.0, 22113.0, 22092.0, 22025.0, 21959.0, 21980.0, 21960.0, 21987.0, 21987.0, 22068.0, 22155.0, 22161.0, 22082.0, 22045.0, 22078.0, 22108.0, 22124.0, 22085.0, 22036.0, 22006.0, 21999.0, 21991.0, 21973.0, 21962.0, 22006.0, 22069.0, 22074.0, 22037.0, 22008.0, 22034.0, 22077.0, 22106.0, 22117.0, 22112.0, 22127.0, 22093.0, 22072.0, 22065.0, 22121.0, 22109.0, 22072.0, 22033.0, 22028.0, 22055.0, 22058.0, 22012.0, 22008.0, 22049.0, 22084.0, 22067.0, 22041.0, 22033.0, 22048.0, 22075.0, 22113.0, 22129.0, 22126.0, 22124.0, 22107.0, 22083.0, 22080.0, 22110.0, 22121.0, 22113.0, 22088.0, 22107.0, 22131.0, 22104.0, 22100.0, 22064.0, 22043.0, 22023.0, 22001.0, 21984.0, 21963.0, 21969.0, 22023.0, 22055.0, 22035.0, 22032.0, 22063.0, 22089.0, 22138.0, 22148.0, 22145.0, 22094.0, 22046.0, 22062.0, 22066.0, 22117.0, 22090.0, 22039.0, 22049.0, 22058.0, 22003.0, 21952.0, 21931.0, 21963.0, 22032.0, 22122.0, 22146.0, 22088.0, 22024.0, 22034.0, 22060.0, 22128.0, 22116.0, 22060.0, 22086.0, 22196.0, 22206.0, 22151.0, 22102.0, 22079.0, 22068.0, 22112.0, 22174.0, 22154.0, 22083.0, 22069.0, 22023.0, 22051.0, 22103.0, 22110.0, 22091.0, 22066.0, 22082.0, 22086.0, 22077.0, 22112.0, 22149.0, 22152.0, 22154.0, 22181.0, 22150.0, 22056.0, 21976.0, 21966.0, 22030.0, 22098.0, 22070.0, 22017.0, 22020.0, 22018.0, 22093.0, 22106.0, 22126.0, 22156.0, 22169.0, 22161.0, 22115.0, 22108.0, 22108.0, 22146.0, 22149.0, 22089.0, 22044.0, 22071.0, 22112.0, 22112.0, 22098.0, 22095.0, 22138.0, 22168.0, 22185.0, 22204.0, 22145.0, 22085.0, 22078.0, 22088.0, 22074.0, 22002.0, 21938.0, 21967.0, 22013.0, 22057.0, 22052.0, 22066.0, 22127.0, 22212.0, 22230.0, 22147.0, 22169.0, 22194.0, 22270.0, 22290.0]
    },
    "slices": {}
  }
}