{
  "AcquisitionMatrixPE": 104,
  "AcquisitionNumber": 1,
  "AcquisitionTime": "15:43:47.370000",
  "BandwidthPerPixelPhaseEncode": 17.17,
  "BaseResolution": 104,
  "BodyPartExamined": "BRAIN",
  "CoilString": "HC1-7;NC1_2",
  "ConsistencyInfo": "N4_VE11C_LATEST_20160120",
  "ConversionSoftware": "dcm2niix",
  "ConversionSoftwareVersion": "v1.0.20190902",
  "DerivedVendorReportedEchoSpacing": 0.000560011,
  "DeviceSerialNumber": "167006",
  "DwellTime": 2.1e-06,
  "EchoTime": 0.037,
  "EchoTrainLength": 104,
  "EffectiveEchoSpacing": 0.000560011,
  "FlipAngle": 52,
  "ImageComments": "Unaliased_MB4_PE3_LB",
  "ImageOrientationPatientDICOM": [0.999607, -0.019974, 0.0196608, 0.0249536, 0.953659, -0.299854],
  "ImageType": [
    "ORIGINAL",
    "PRIMARY",
    "P",
    "MB",
    "ND",
    "MOSAIC"
],
  "ImagingFrequency": 123.259,
  "InPlanePhaseEncodingDirectionDICOM": "COL",
  "InstitutionAddress": "Chemin_Queen-Mary_4565_Montreal_District_CA_H3W_1W5",
  "InstitutionName": "IUGM",
  "InstitutionalDepartmentName": "Department",
  "MRAcquisitionType": "2D",
  "MagneticFieldStrength": 3,
  "Manufacturer": "Siemens",
  "ManufacturersModelName": "Prisma_fit",
  "Modality": "MR",
  "MultibandAccelerationFactor": 4,
  "PartialFourier": 1,
  "PatientPosition": "HFS",
  "PercentPhaseFOV": 100,
  "PhaseEncodingDirection": "j",
  "PhaseEncodingSteps": 104,
  "PhaseResolution": 1,
  "PixelBandwidth": 2290,
  "ProcedureStepDescription": "memory_things",
  "ProtocolName": "func_task-things_run-3",
  "PulseSequenceDetails": "%CustomerSeq%_cmrr_mbep2d_bold",
  "ReceiveCoilActiveElements": "HC1-7;NC1,2",
  "ReceiveCoilName": "HeadNeck_64",
  "ReconMatrixPE": 104,
  "RepetitionTime": 1.49,
  "SAR": 0.0308791,
  "ScanOptions": "FS",
  "ScanningSequence": "EP",
  "SequenceName": "epfid2d1_104",
  "SequenceVariant": "SK_SS",
  "SeriesDescription": "func_task-things_run-3",
  "SeriesNumber": 17,
  "ShimSetting": [627, -7270, -8815, 615, -7, -230, 7, -7],
  "SliceThickness": 2,
  "SliceTiming": [0, 0.7825, 0.0975, 0.88, 0.195, 0.98, 0.2925, 1.0775, 0.3925, 1.175, 0.49, 1.2725, 0.5875, 1.37, 0.685, 0, 0.7825, 0.0975, 0.88, 0.195, 0.98, 0.2925, 1.0775, 0.3925, 1.175, 0.49, 1.2725, 0.5875, 1.37, 0.685, 0, 0.7825, 0.0975, 0.88, 0.195, 0.98, 0.2925, 1.0775, 0.3925, 1.175, 0.49, 1.2725, 0.5875, 1.37, 0.685, 0, 0.7825, 0.0975, 0.88, 0.195, 0.98, 0.2925, 1.0775, 0.3925, 1.175, 0.49, 1.2725, 0.5875, 1.37, 0.685],
  "SoftwareVersions": "syngo_MR_E11",
  "SpacingBetweenSlices": 2,
  "StationName": "MRC35049",
  "TaskName": "things",
  "TotalReadoutTime": 0.0576811,
  "TxRefAmp": 218.267,
  "WipMemBlock": "d416c7bd-c2f5-4326-b87e-79ec9c2a61a9||Sequence: R016 ve11c/master r/e634e98; Dec 19 2017 11:00:25 by eja",
  "dcmmeta_affine": [
    [-1.9992142915725708, 0.049907173961400986, 0.02552083507180214, 103.4371566772461],
    [0.03994808346033096, 1.9073176383972168, -0.600452721118927, -69.52543640136719],
    [0.039321620017290115, 0.5997071266174316, 1.9075652360916138, -59.45892333984375],
    [0.0, 0.0, 0.0, 1.0]
],
  "dcmmeta_reorient_transform": [
    [0.0, -1.0, 0.0, 103.0],
    [1.0, 0.0, 0.0, 0.0],
    [0.0, 0.0, 1.0, 0.0],
    [0.0, 0.0, 0.0, 1.0]
],
  "dcmmeta_shape": [104, 104, 60, 190],
  "dcmmeta_slice_dim": 2,
  "dcmmeta_version": 0.6,
  "global": {
    "const": {
      "AcquisitionMatrix": [104, 0, 0, 104],
      "AngioFlag": "N",
      "BitsAllocated": 16,
      "BitsStored": 16,
      "BodyPartExamined": "BRAIN",
      "Columns": 832,
      "EchoNumbers": 1,
      "EchoTime": 37.0,
      "EchoTrainLength": 104,
      "FlipAngle": 52.0,
      "HighBit": 15,
      "ImageOrientationPatient": [0.99960716794681, -0.0199740420961, 0.01966080953836, 0.02495358778657, 0.95365883074422, -0.2998535525888],
      "ImagePositionPatient": [-854.45782939074, -806.65081167539, 206.29122632322],
      "ImageType": [
        "ORIGINAL",
        "PRIMARY",
        "P",
        "MB",
        "ND",
        "MOSAIC"
],
      "ImagedNucleus": "1H",
      "ImagingFrequency": 123.258931,
      "InPlanePhaseEncodingDirection": "COL",
      "LargestImagePixelValue": 4095,
      "MRAcquisitionType": "2D",
      "MagneticFieldStrength": 3.0,
      "Manufacturer": "SIEMENS",
      "ManufacturerModelName": "Prisma_fit",
      "Modality": "MR",
      "NumberOfAverages": 1.0,
      "NumberOfPhaseEncodingSteps": 104,
      "PercentPhaseFieldOfView": 100.0,
      "PercentSampling": 100.0,
      "PerformedProcedureStepStartTime": "152536.184000",
      "PhotometricInterpretation": "MONOCHROME2",
      "PixelBandwidth": 2290.0,
      "PixelRepresentation": 0,
      "PixelSpacing": [2.0, 2.0],
      "ProtocolName": "func_task-things_run-3",
      "RepetitionTime": 1490.0,
      "RescaleIntercept": -4096.0,
      "RescaleSlope": 2.0,
      "RescaleType": "US",
      "Rows": 832,
      "SAR": 0.03087906587526,
      "SamplesPerPixel": 1,
      "ScanOptions": "FS",
      "ScanningSequence": "EP",
      "SequenceName": "epfid2d1_104",
      "SequenceVariant": [
        "SK",
        "SS"
],
      "SeriesDescription": "func_task-things_run-3",
      "SeriesNumber": 17,
      "SeriesTime": "154503.830000",
      "SliceLocation": -34.517617513189,
      "SliceThickness": 2.0,
      "SmallestImagePixelValue": 0,
      "SoftwareVersions": "syngo MR E11",
      "SpacingBetweenSlices": 2.0000000346974,
      "SpecificCharacterSet": "ISO_IR 100",
      "StudyID": "1",
      "StudyTime": "152536.115000",
      "TransmitCoilName": "Body",
      "VariableFlipAngleFlag": "N",
      "WindowCenterWidthExplanation": "Algo1",
      "dBdt": 0.0},
    "slices": {}
  },
  "time": {
    "samples": {
      "AcquisitionNumber": [1, 2, 3, 4, 5, 6, 7, 8, 9, 10, 11, 12, 13, 14, 15, 16, 17, 18, 19, 20, 21, 22, 23, 24, 25, 26, 27, 28, 29, 30, 31, 32, 33, 34, 35, 36, 37, 38, 39, 40, 41, 42, 43, 44, 45, 46, 47, 48, 49, 50, 51, 52, 53, 54, 55, 56, 57, 58, 59, 60, 61, 62, 63, 64, 65, 66, 67, 68, 69, 70, 71, 72, 73, 74, 75, 76, 77, 78, 79, 80, 81, 82, 83, 84, 85, 86, 87, 88, 89, 90, 91, 92, 93, 94, 95, 96, 97, 98, 99, 100, 101, 102, 103, 104, 105, 106, 107, 108, 109, 110, 111, 112, 113, 114, 115, 116, 117, 118, 119, 120, 121, 122, 123, 124, 125, 126, 127, 128, 129, 130, 131, 132, 133, 134, 135, 136, 137, 138, 139, 140, 141, 142, 143, 144, 145, 146, 147, 148, 149, 150, 151, 152, 153, 154, 155, 156, 157, 158, 159, 160, 161, 162, 163, 164, 165, 166, 167, 168, 169, 170, 171, 172, 173, 174, 175, 176, 177, 178, 179, 180, 181, 182, 183, 184, 185, 186, 187, 188, 189, 190],
      "AcquisitionTime": ["154347.370000", "154348.860000", "154350.350000", "154351.840000", "154353.330000", "154354.820000", "154356.310000", "154357.800000", "154359.290000", "154400.780000", "154402.270000", "154403.760000", "154405.250000", "154406.740000", "154408.230000", "154409.720000", "154411.210000", "154412.700000", "154414.190000", "154415.680000", "154417.170000", "154418.660000", "154420.150000", "154421.640000", "154423.130000", "154424.620000", "154426.110000", "154427.600000", "154429.090000", "154430.580000", "154432.070000", "154433.560000", "154435.050000", "154436.540000", "154438.030000", "154439.520000", "154441.010000", "154442.500000", "154443.990000", "154445.480000", "154446.970000", "154448.460000", "154449.950000", "154451.440000", "154452.930000", "154454.420000", "154455.910000", "154457.400000", "154458.890000", "154500.380000", "154501.870000", "154503.360000", "154504.850000", "154506.340000", "154507.830000", "154509.320000", "154510.810000", "154512.300000", "154513.790000", "154515.280000", "154516.770000", "154518.260000", "154519.750000", "154521.240000", "154522.730000", "154524.220000", "154525.710000", "154527.200000", "154528.690000", "154530.180000", "154531.670000", "154533.160000", "154534.650000", "154536.140000", "154537.630000", "154539.120000", "154540.610000", "154542.100000", "154543.590000", "154545.080000", "154546.570000", "154548.060000", "154549.550000", "154551.040000", "154552.530000", "154554.020000", "154555.510000", "154557.000000", "154558.490000", "154559.980000", "154601.470000", "154602.960000", "154604.450000", "154605.940000", "154607.430000", "154608.920000", "154610.410000", "154611.900000", "154613.390000", "154614.880000", "154616.370000", "154617.860000", "154619.350000", "154620.840000", "154622.330000", "154623.820000", "154625.310000", "154626.800000", "154628.290000", "154629.780000", "154631.270000", "154632.760000", "154634.250000", "154635.740000", "154637.230000", "154638.720000", "154640.210000", "154641.700000", "154643.190000", "154644.680000", "154646.170000", "154647.660000", "154649.150000", "154650.640000", "154652.130000", "154653.620000", "154655.110000", "154656.600000", "154658.090000", "154659.580000", "154701.070000", "154702.560000", "154704.050000", "154705.540000", "154707.030000", "154708.520000", "154710.010000", "154711.500000", "154712.990000", "154714.480000", "154715.970000", "154717.460000", "154718.950000", "154720.440000", "154721.930000", "154723.420000", "154724.910000", "154726.400000", "154727.890000", "154729.380000", "154730.870000", "154732.360000", "154733.850000", "154735.340000", "154736.830000", "154738.320000", "154739.810000", "154741.300000", "154742.790000", "154744.280000", "154745.770000", "154747.260000", "154748.750000", "154750.240000", "154751.730000", "154753.220000", "154754.710000", "154756.200000", "154757.690000", "154759.180000", "154800.670000", "154802.160000", "154803.650000", "154805.140000", "154806.630000", "154808.120000", "154809.610000", "154811.100000", "154812.590000", "154814.080000", "154815.570000", "154817.060000", "154818.550000", "154820.040000", "154821.530000", "154823.020000", "154824.510000", "154826.000000", "154827.490000", "154828.980000"],
      "ContentTime": ["154503.832000", "154503.835000", "154503.838000", "154503.840000", "154503.843000", "154503.846000", "154503.848000", "154503.851000", "154503.860000", "154503.863000", "154503.866000", "154503.868000", "154503.871000", "154503.873000", "154503.884000", "154503.887000", "154503.890000", "154503.892000", "154503.895000", "154503.897000", "154503.900000", "154523.778000", "154523.780000", "154523.783000", "154523.785000", "154523.788000", "154523.791000", "154523.793000", "154523.796000", "154523.798000", "154523.801000", "154523.804000", "154523.806000", "154523.809000", "154523.811000", "154523.814000", "154523.816000", "154523.819000", "154523.822000", "154523.824000", "154523.827000", "154543.783000", "154543.792000", "154543.794000", "154543.797000", "154543.799000", "154543.802000", "154543.805000", "154543.807000", "154543.810000", "154543.812000", "154543.815000", "154543.818000", "154543.820000", "154543.823000", "154543.825000", "154543.828000", "154543.831000", "154543.833000", "154543.836000", "154543.838000", "154603.771000", "154603.774000", "154603.776000", "154603.779000", "154603.782000", "154603.784000", "154603.787000", "154603.789000", "154603.792000", "154603.794000", "154603.797000", "154603.800000", "154603.802000", "154603.805000", "154603.808000", "154603.810000", "154603.813000", "154603.815000", "154603.818000", "154603.820000", "154623.781000", "154623.784000", "154623.787000", "154623.789000", "154623.792000", "154623.795000", "154623.797000", "154623.800000", "154623.802000", "154623.805000", "154623.808000", "154623.810000", "154623.813000", "154623.815000", "154623.818000", "154623.821000", "154623.823000", "154623.826000", "154623.828000", "154623.831000", "154703.824000", "154703.826000", "154703.829000", "154703.831000", "154703.834000", "154703.837000", "154703.839000", "154703.842000", "154703.844000", "154703.847000", "154703.849000", "154703.852000", "154703.855000", "154703.857000", "154703.860000", "154703.862000", "154703.865000", "154703.868000", "154703.870000", "154703.873000", "154703.876000", "154703.878000", "154703.881000", "154703.883000", "154703.886000", "154703.889000", "154703.891000", "154703.894000", "154703.897000", "154703.899000", "154743.808000", "154743.811000", "154743.814000", "154743.816000", "154743.819000", "154743.821000", "154743.824000", "154743.827000", "154743.829000", "154743.832000", "154743.834000", "154743.841000", "154743.844000", "154743.847000", "154743.849000", "154743.852000", "154743.855000", "154743.857000", "154743.860000", "154743.862000", "154743.865000", "154743.867000", "154743.870000", "154743.873000", "154743.875000", "154743.878000", "154743.880000", "154823.804000", "154823.807000", "154823.809000", "154823.812000", "154823.815000", "154823.817000", "154823.820000", "154823.822000", "154823.825000", "154823.828000", "154823.830000", "154823.833000", "154823.835000", "154823.838000", "154823.841000", "154823.843000", "154823.846000", "154823.849000", "154823.851000", "154823.854000", "154823.856000", "154823.859000", "154823.862000", "154823.864000", "154823.867000", "154823.869000", "154823.872000", "154831.134000", "154831.137000", "154831.140000", "154831.143000", "154831.145000"],
      "InstanceCreationTime": ["154503.832000", "154503.835000", "154503.838000", "154503.840000", "154503.843000", "154503.846000", "154503.848000", "154503.851000", "154503.860000", "154503.863000", "154503.866000", "154503.868000", "154503.871000", "154503.873000", "154503.884000", "154503.887000", "154503.890000", "154503.892000", "154503.895000", "154503.897000", "154503.900000", "154523.778000", "154523.780000", "154523.783000", "154523.785000", "154523.788000", "154523.791000", "154523.793000", "154523.796000", "154523.798000", "154523.801000", "154523.804000", "154523.806000", "154523.809000", "154523.811000", "154523.814000", "154523.816000", "154523.819000", "154523.822000", "154523.824000", "154523.827000", "154543.783000", "154543.792000", "154543.794000", "154543.797000", "154543.799000", "154543.802000", "154543.805000", "154543.807000", "154543.810000", "154543.812000", "154543.815000", "154543.818000", "154543.820000", "154543.823000", "154543.825000", "154543.828000", "154543.831000", "154543.833000", "154543.836000", "154543.838000", "154603.771000", "154603.774000", "154603.776000", "154603.779000", "154603.782000", "154603.784000", "154603.787000", "154603.789000", "154603.792000", "154603.794000", "154603.797000", "154603.800000", "154603.802000", "154603.805000", "154603.808000", "154603.810000", "154603.813000", "154603.815000", "154603.818000", "154603.820000", "154623.781000", "154623.784000", "154623.787000", "154623.789000", "154623.792000", "154623.795000", "154623.797000", "154623.800000", "154623.802000", "154623.805000", "154623.808000", "154623.810000", "154623.813000", "154623.815000", "154623.818000", "154623.821000", "154623.823000", "154623.826000", "154623.828000", "154623.831000", "154703.824000", "154703.826000", "154703.829000", "154703.831000", "154703.834000", "154703.837000", "154703.839000", "154703.842000", "154703.844000", "154703.847000", "154703.849000", "154703.852000", "154703.855000", "154703.857000", "154703.860000", "154703.862000", "154703.865000", "154703.868000", "154703.870000", "154703.873000", "154703.876000", "154703.878000", "154703.881000", "154703.883000", "154703.886000", "154703.889000", "154703.891000", "154703.894000", "154703.897000", "154703.899000", "154743.808000", "154743.811000", "154743.814000", "154743.816000", "154743.819000", "154743.821000", "154743.824000", "154743.827000", "154743.829000", "154743.832000", "154743.834000", "154743.841000", "154743.844000", "154743.847000", "154743.849000", "154743.852000", "154743.855000", "154743.857000", "154743.860000", "154743.862000", "154743.865000", "154743.867000", "154743.870000", "154743.873000", "154743.875000", "154743.878000", "154743.880000", "154823.804000", "154823.807000", "154823.809000", "154823.812000", "154823.815000", "154823.817000", "154823.820000", "154823.822000", "154823.825000", "154823.828000", "154823.830000", "154823.833000", "154823.835000", "154823.838000", "154823.841000", "154823.843000", "154823.846000", "154823.849000", "154823.851000", "154823.854000", "154823.856000", "154823.859000", "154823.862000", "154823.864000", "154823.867000", "154823.869000", "154823.872000", "154831.134000", "154831.137000", "154831.140000", "154831.143000", "154831.145000"],
      "InstanceNumber": [1, 2, 3, 4, 5, 6, 7, 8, 9, 10, 11, 12, 13, 14, 15, 16, 17, 18, 19, 20, 21, 22, 23, 24, 25, 26, 27, 28, 29, 30, 31, 32, 33, 34, 35, 36, 37, 38, 39, 40, 41, 42, 43, 44, 45, 46, 47, 48, 49, 50, 51, 52, 53, 54, 55, 56, 57, 58, 59, 60, 61, 62, 63, 64, 65, 66, 67, 68, 69, 70, 71, 72, 73, 74, 75, 76, 77, 78, 79, 80, 81, 82, 83, 84, 85, 86, 87, 88, 89, 90, 91, 92, 93, 94, 95, 96, 97, 98, 99, 100, 101, 102, 103, 104, 105, 106, 107, 108, 109, 110, 111, 112, 113, 114, 115, 116, 117, 118, 119, 120, 121, 122, 123, 124, 125, 126, 127, 128, 129, 130, 131, 132, 133, 134, 135, 136, 137, 138, 139, 140, 141, 142, 143, 144, 145, 146, 147, 148, 149, 150, 151, 152, 153, 154, 155, 156, 157, 158, 159, 160, 161, 162, 163, 164, 165, 166, 167, 168, 169, 170, 171, 172, 173, 174, 175, 176, 177, 178, 179, 180, 181, 182, 183, 184, 185, 186, 187, 188, 189, 190],
      "WindowCenter": [4808.0, 4804.0, 4834.0, 4872.0, 4878.0, 4848.0, 4828.0, 4806.0, 4808.0, 4810.0, 4806.0, 4808.0, 4808.0, 4846.0, 4872.0, 4844.0, 4844.0, 4830.0, 4836.0, 4834.0, 4806.0, 4834.0, 4832.0, 4808.0, 4838.0, 4834.0, 4834.0, 4866.0, 4832.0, 4806.0, 4834.0, 4830.0, 4838.0, 4802.0, 4804.0, 4838.0, 4838.0, 4844.0, 4842.0, 4804.0, 4832.0, 4836.0, 4842.0, 4832.0, 4804.0, 4842.0, 4866.0, 4868.0, 4834.0, 4802.0, 4832.0, 4864.0, 4806.0, 4838.0, 4842.0, 4832.0, 4840.0, 4830.0, 4832.0, 4840.0, 4834.0, 4834.0, 4840.0, 4808.0, 4804.0, 4836.0, 4872.0, 4844.0, 4872.0, 4872.0, 4840.0, 4806.0, 4830.0, 4832.0, 4836.0, 4832.0, 4838.0, 4830.0, 4866.0, 4836.0, 4832.0, 4864.0, 4804.0, 4830.0, 4838.0, 4808.0, 4862.0, 4830.0, 4828.0, 4842.0, 4834.0, 4838.0, 4842.0, 4810.0, 4838.0, 4834.0, 4808.0, 4836.0, 4834.0, 4834.0, 4804.0, 4836.0, 4864.0, 4830.0, 4836.0, 4806.0, 4784.0, 4802.0, 4800.0, 4870.0, 4880.0, 4878.0, 4878.0, 4868.0, 4834.0, 4828.0, 4804.0, 4804.0, 4808.0, 4832.0, 4804.0, 4840.0, 4878.0, 4864.0, 4832.0, 4842.0, 4804.0, 4808.0, 4836.0, 4830.0, 4826.0, 4832.0, 4798.0, 4830.0, 4842.0, 4868.0, 4832.0, 4804.0, 4838.0, 4838.0, 4838.0, 4830.0, 4806.0, 4808.0, 4844.0, 4844.0, 4844.0, 4828.0, 4806.0, 4834.0, 4844.0, 4868.0, 4842.0, 4832.0, 4830.0, 4836.0, 4834.0, 4830.0, 4840.0, 4834.0, 4834.0, 4844.0, 4838.0, 4804.0, 4834.0, 4864.0, 4840.0, 4862.0, 4830.0, 4830.0, 4836.0, 4828.0, 4806.0, 4836.0, 4806.0, 4830.0, 4838.0, 4832.0, 4834.0, 4842.0, 4830.0, 4834.0, 4826.0, 4830.0, 4838.0, 4834.0, 4808.0, 4836.0, 4866.0, 4830.0],
      "WindowWidth": [18600.0, 18604.0, 18636.0, 18676.0, 18682.0, 18646.0, 18628.0, 18602.0, 18598.0, 18604.0, 18598.0, 18598.0, 18602.0, 18646.0, 18682.0, 18640.0, 18640.0, 18632.0, 18634.0, 18634.0, 18598.0, 18630.0, 18630.0, 18600.0, 18638.0, 18628.0, 18632.0, 18676.0, 18636.0, 18602.0, 18632.0, 18626.0, 18636.0, 18596.0, 18602.0, 18638.0, 18638.0, 18636.0, 18644.0, 18604.0, 18634.0, 18638.0, 18644.0, 18630.0, 18604.0, 18636.0, 18670.0, 18680.0, 18638.0, 18604.0, 18632.0, 18674.0, 18596.0, 18636.0, 18642.0, 18634.0, 18646.0, 18634.0, 18632.0, 18638.0, 18632.0, 18632.0, 18644.0, 18602.0, 18606.0, 18638.0, 18682.0, 18646.0, 18682.0, 18682.0, 18640.0, 18600.0, 18632.0, 18634.0, 18636.0, 18636.0, 18640.0, 18632.0, 18678.0, 18640.0, 18634.0, 18674.0, 18602.0, 18632.0, 18640.0, 18602.0, 18672.0, 18632.0, 18628.0, 18640.0, 18632.0, 18638.0, 18642.0, 18602.0, 18636.0, 18634.0, 18602.0, 18636.0, 18636.0, 18636.0, 18602.0, 18640.0, 18678.0, 18636.0, 18636.0, 18602.0, 18584.0, 18618.0, 18600.0, 18680.0, 18684.0, 18676.0, 18680.0, 18672.0, 18632.0, 18632.0, 18606.0, 18606.0, 18606.0, 18632.0, 18598.0, 18646.0, 18690.0, 18674.0, 18632.0, 18638.0, 18594.0, 18600.0, 18638.0, 18634.0, 18634.0, 18634.0, 18598.0, 18638.0, 18646.0, 18678.0, 18634.0, 18602.0, 18640.0, 18636.0, 18636.0, 18628.0, 18606.0, 18600.0, 18640.0, 18642.0, 18642.0, 18632.0, 18602.0, 18636.0, 18646.0, 18674.0, 18642.0, 18632.0, 18632.0, 18636.0, 18634.0, 18630.0, 18638.0, 18634.0, 18632.0, 18642.0, 18638.0, 18604.0, 18634.0, 18680.0, 18642.0, 18668.0, 18628.0, 18634.0, 18636.0, 18630.0, 18602.0, 18638.0, 18602.0, 18630.0, 18642.0, 18636.0, 18634.0, 18648.0, 18632.0, 18638.0, 18630.0, 18632.0, 18636.0, 18632.0, 18602.0, 18642.0, 18670.0, 18628.0]
    },
    "slices": {}
  }
}