{
  "AcquisitionMatrixPE": 104,
  "AcquisitionNumber": 1,
  "AcquisitionTime": "15:54:8.692500",
  "BandwidthPerPixelPhaseEncode": 17.17,
  "BaseResolution": 104,
  "BodyPartExamined": "BRAIN",
  "CoilString": "HC1-7;NC1_2",
  "ConsistencyInfo": "N4_VE11C_LATEST_20160120",
  "ConversionSoftware": "dcm2niix",
  "ConversionSoftwareVersion": "v1.0.20190902",
  "DerivedVendorReportedEchoSpacing": 0.000560011,
  "DeviceSerialNumber": "167006",
  "DwellTime": 2.1e-06,
  "EchoTime": 0.037,
  "EchoTrainLength": 104,
  "EffectiveEchoSpacing": 0.000560011,
  "FlipAngle": 52,
  "ImageComments": "Unaliased_MB4_PE3_LB",
  "ImageOrientationPatientDICOM": [0.999607, -0.019974, 0.0196608, 0.0249536, 0.953659, -0.299854],
  "ImageType": [
    "ORIGINAL",
    "PRIMARY",
    "P",
    "MB",
    "ND",
    "MOSAIC"
],
  "ImagingFrequency": 123.259,
  "InPlanePhaseEncodingDirectionDICOM": "COL",
  "InstitutionAddress": "Chemin_Queen-Mary_4565_Montreal_District_CA_H3W_1W5",
  "InstitutionName": "IUGM",
  "InstitutionalDepartmentName": "Department",
  "MRAcquisitionType": "2D",
  "MagneticFieldStrength": 3,
  "Manufacturer": "Siemens",
  "ManufacturersModelName": "Prisma_fit",
  "Modality": "MR",
  "MultibandAccelerationFactor": 4,
  "PartialFourier": 1,
  "PatientPosition": "HFS",
  "PercentPhaseFOV": 100,
  "PhaseEncodingDirection": "j",
  "PhaseEncodingSteps": 104,
  "PhaseResolution": 1,
  "PixelBandwidth": 2290,
  "ProcedureStepDescription": "memory_things",
  "ProtocolName": "func_task-things_run-5",
  "PulseSequenceDetails": "%CustomerSeq%_cmrr_mbep2d_bold",
  "ReceiveCoilActiveElements": "HC1-7;NC1,2",
  "ReceiveCoilName": "HeadNeck_64",
  "ReconMatrixPE": 104,
  "RepetitionTime": 1.49,
  "SAR": 0.0308791,
  "ScanOptions": "FS",
  "ScanningSequence": "EP",
  "SequenceName": "epfid2d1_104",
  "SequenceVariant": "SK_SS",
  "SeriesDescription": "func_task-things_run-5",
  "SeriesNumber": 23,
  "ShimSetting": [627, -7270, -8815, 615, -7, -230, 7, -7],
  "SliceThickness": 2,
  "SliceTiming": [0, 0.785, 0.0975, 0.8825, 0.195, 0.98, 0.295, 1.0775, 0.3925, 1.175, 0.49, 1.275, 0.5875, 1.3725, 0.685, 0, 0.785, 0.0975, 0.8825, 0.195, 0.98, 0.295, 1.0775, 0.3925, 1.175, 0.49, 1.275, 0.5875, 1.3725, 0.685, 0, 0.785, 0.0975, 0.8825, 0.195, 0.98, 0.295, 1.0775, 0.3925, 1.175, 0.49, 1.275, 0.5875, 1.3725, 0.685, 0, 0.785, 0.0975, 0.8825, 0.195, 0.98, 0.295, 1.0775, 0.3925, 1.175, 0.49, 1.275, 0.5875, 1.3725, 0.685],
  "SoftwareVersions": "syngo_MR_E11",
  "SpacingBetweenSlices": 2,
  "StationName": "MRC35049",
  "TaskName": "things",
  "TotalReadoutTime": 0.0576811,
  "TxRefAmp": 218.267,
  "WipMemBlock": "ceefba3b-c498-4b70-a24b-7d91440961bc||Sequence: R016 ve11c/master r/e634e98; Dec 19 2017 11:00:25 by eja",
  "dcmmeta_affine": [
    [-1.9992142915725708, 0.049907173961400986, 0.02552083507180214, 103.4371566772461],
    [0.03994808346033096, 1.9073176383972168, -0.600452721118927, -69.52543640136719],
    [0.039321620017290115, 0.5997071266174316, 1.9075652360916138, -59.45892333984375],
    [0.0, 0.0, 0.0, 1.0]
],
  "dcmmeta_reorient_transform": [
    [0.0, -1.0, 0.0, 103.0],
    [1.0, 0.0, 0.0, 0.0],
    [0.0, 0.0, 1.0, 0.0],
    [0.0, 0.0, 0.0, 1.0]
],
  "dcmmeta_shape": [104, 104, 60, 190],
  "dcmmeta_slice_dim": 2,
  "dcmmeta_version": 0.6,
  "global": {
    "const": {
      "AcquisitionMatrix": [104, 0, 0, 104],
      "AngioFlag": "N",
      "BitsAllocated": 16,
      "BitsStored": 16,
      "BodyPartExamined": "BRAIN",
      "Columns": 832,
      "EchoNumbers": 1,
      "EchoTime": 37.0,
      "EchoTrainLength": 104,
      "FlipAngle": 52.0,
      "HighBit": 15,
      "ImageOrientationPatient": [0.99960716794681, -0.0199740420961, 0.01966080953836, 0.02495358778657, 0.95365883074422, -0.2998535525888],
      "ImagePositionPatient": [-854.45782939074, -806.65081167539, 206.29122632322],
      "ImageType": [
        "ORIGINAL",
        "PRIMARY",
        "P",
        "MB",
        "ND",
        "MOSAIC"
],
      "ImagedNucleus": "1H",
      "ImagingFrequency": 123.258935,
      "InPlanePhaseEncodingDirection": "COL",
      "LargestImagePixelValue": 4095,
      "MRAcquisitionType": "2D",
      "MagneticFieldStrength": 3.0,
      "Manufacturer": "SIEMENS",
      "ManufacturerModelName": "Prisma_fit",
      "Modality": "MR",
      "NumberOfAverages": 1.0,
      "NumberOfPhaseEncodingSteps": 104,
      "PercentPhaseFieldOfView": 100.0,
      "PercentSampling": 100.0,
      "PerformedProcedureStepStartTime": "152536.184000",
      "PhotometricInterpretation": "MONOCHROME2",
      "PixelBandwidth": 2290.0,
      "PixelRepresentation": 0,
      "PixelSpacing": [2.0, 2.0],
      "ProtocolName": "func_task-things_run-5",
      "RepetitionTime": 1490.0,
      "RescaleIntercept": -4096.0,
      "RescaleSlope": 2.0,
      "RescaleType": "US",
      "Rows": 832,
      "SAR": 0.03087906587526,
      "SamplesPerPixel": 1,
      "ScanOptions": "FS",
      "ScanningSequence": "EP",
      "SequenceName": "epfid2d1_104",
      "SequenceVariant": [
        "SK",
        "SS"
],
      "SeriesDescription": "func_task-things_run-5",
      "SeriesNumber": 23,
      "SeriesTime": "155532.733000",
      "SliceLocation": -34.517617513189,
      "SliceThickness": 2.0,
      "SmallestImagePixelValue": 0,
      "SoftwareVersions": "syngo MR E11",
      "SpacingBetweenSlices": 2.0000000346974,
      "SpecificCharacterSet": "ISO_IR 100",
      "StudyID": "1",
      "StudyTime": "152536.115000",
      "TransmitCoilName": "Body",
      "VariableFlipAngleFlag": "N",
      "WindowCenterWidthExplanation": "Algo1",
      "dBdt": 0.0},
    "slices": {}
  },
  "time": {
    "samples": {
      "AcquisitionNumber": [1, 2, 3, 4, 5, 6, 7, 8, 9, 10, 11, 12, 13, 14, 15, 16, 17, 18, 19, 20, 21, 22, 23, 24, 25, 26, 27, 28, 29, 30, 31, 32, 33, 34, 35, 36, 37, 38, 39, 40, 41, 42, 43, 44, 45, 46, 47, 48, 49, 50, 51, 52, 53, 54, 55, 56, 57, 58, 59, 60, 61, 62, 63, 64, 65, 66, 67, 68, 69, 70, 71, 72, 73, 74, 75, 76, 77, 78, 79, 80, 81, 82, 83, 84, 85, 86, 87, 88, 89, 90, 91, 92, 93, 94, 95, 96, 97, 98, 99, 100, 101, 102, 103, 104, 105, 106, 107, 108, 109, 110, 111, 112, 113, 114, 115, 116, 117, 118, 119, 120, 121, 122, 123, 124, 125, 126, 127, 128, 129, 130, 131, 132, 133, 134, 135, 136, 137, 138, 139, 140, 141, 142, 143, 144, 145, 146, 147, 148, 149, 150, 151, 152, 153, 154, 155, 156, 157, 158, 159, 160, 161, 162, 163, 164, 165, 166, 167, 168, 169, 170, 171, 172, 173, 174, 175, 176, 177, 178, 179, 180, 181, 182, 183, 184, 185, 186, 187, 188, 189, 190],
      "AcquisitionTime": ["155408.692500", "155410.182500", "155411.672500", "155413.162500", "155414.652500", "155416.142500", "155417.632500", "155419.122500", "155420.612500", "155422.102500", "155423.592500", "155425.082500", "155426.572500", "155428.062500", "155429.552500", "155431.042500", "155432.532500", "155434.022500", "155435.512500", "155437.002500", "155438.492500", "155439.982500", "155441.472500", "155442.962500", "155444.452500", "155445.942500", "155447.432500", "155448.922500", "155450.412500", "155451.902500", "155453.392500", "155454.882500", "155456.372500", "155457.862500", "155459.352500", "155500.842500", "155502.332500", "155503.822500", "155505.312500", "155506.802500", "155508.292500", "155509.782500", "155511.272500", "155512.762500", "155514.252500", "155515.742500", "155517.232500", "155518.722500", "155520.212500", "155521.702500", "155523.192500", "155524.682500", "155526.172500", "155527.662500", "155529.152500", "155530.642500", "155532.132500", "155533.622500", "155535.112500", "155536.602500", "155538.092500", "155539.582500", "155541.072500", "155542.562500", "155544.052500", "155545.542500", "155547.032500", "155548.522500", "155550.012500", "155551.502500", "155552.992500", "155554.482500", "155555.972500", "155557.462500", "155558.952500", "155600.442500", "155601.932500", "155603.422500", "155604.912500", "155606.402500", "155607.892500", "155609.382500", "155610.872500", "155612.362500", "155613.852500", "155615.342500", "155616.832500", "155618.322500", "155619.812500", "155621.302500", "155622.792500", "155624.282500", "155625.772500", "155627.262500", "155628.752500", "155630.242500", "155631.732500", "155633.222500", "155634.712500", "155636.202500", "155637.692500", "155639.182500", "155640.672500", "155642.162500", "155643.652500", "155645.142500", "155646.632500", "155648.122500", "155649.612500", "155651.102500", "155652.592500", "155654.082500", "155655.572500", "155657.062500", "155658.552500", "155700.042500", "155701.532500", "155703.022500", "155704.512500", "155706.002500", "155707.492500", "155708.982500", "155710.472500", "155711.962500", "155713.452500", "155714.942500", "155716.432500", "155717.922500", "155719.412500", "155720.902500", "155722.392500", "155723.882500", "155725.372500", "155726.862500", "155728.352500", "155729.842500", "155731.332500", "155732.822500", "155734.312500", "155735.802500", "155737.292500", "155738.782500", "155740.272500", "155741.762500", "155743.252500", "155744.742500", "155746.232500", "155747.722500", "155749.212500", "155750.702500", "155752.192500", "155753.682500", "155755.172500", "155756.662500", "155758.152500", "155759.642500", "155801.132500", "155802.622500", "155804.112500", "155805.602500", "155807.092500", "155808.582500", "155810.072500", "155811.562500", "155813.052500", "155814.542500", "155816.032500", "155817.522500", "155819.012500", "155820.502500", "155821.992500", "155823.482500", "155824.972500", "155826.462500", "155827.952500", "155829.442500", "155830.932500", "155832.422500", "155833.912500", "155835.402500", "155836.892500", "155838.382500", "155839.872500", "155841.362500", "155842.852500", "155844.342500", "155845.832500", "155847.322500", "155848.812500", "155850.302500"],
      "ContentTime": ["155532.735000", "155532.738000", "155532.740000", "155532.746000", "155532.749000", "155532.751000", "155532.754000", "155532.757000", "155532.759000", "155532.762000", "155532.764000", "155532.767000", "155532.770000", "155532.772000", "155532.775000", "155532.777000", "155532.780000", "155532.782000", "155532.785000", "155532.788000", "155532.790000", "155532.793000", "155532.795000", "155532.805000", "155532.808000", "155532.810000", "155532.813000", "155532.815000", "155532.818000", "155532.820000", "155552.647000", "155552.650000", "155552.652000", "155552.655000", "155552.657000", "155552.660000", "155552.662000", "155552.665000", "155552.668000", "155552.670000", "155552.673000", "155552.675000", "155552.678000", "155552.681000", "155552.683000", "155552.686000", "155552.688000", "155552.691000", "155552.693000", "155552.696000", "155612.640000", "155612.643000", "155612.646000", "155612.648000", "155612.651000", "155612.655000", "155612.658000", "155612.661000", "155612.663000", "155612.666000", "155612.668000", "155612.671000", "155612.674000", "155612.676000", "155612.679000", "155612.681000", "155612.684000", "155612.687000", "155612.689000", "155612.692000", "155612.694000", "155632.634000", "155632.637000", "155632.639000", "155632.642000", "155632.644000", "155632.647000", "155632.650000", "155632.652000", "155632.655000", "155632.657000", "155632.660000", "155632.663000", "155632.665000", "155632.668000", "155632.671000", "155632.673000", "155632.676000", "155632.678000", "155632.681000", "155632.683000", "155712.705000", "155712.708000", "155712.711000", "155712.713000", "155712.716000", "155712.718000", "155712.721000", "155712.724000", "155712.726000", "155712.729000", "155712.734000", "155712.737000", "155712.739000", "155712.742000", "155712.745000", "155712.747000", "155712.750000", "155712.752000", "155712.755000", "155712.758000", "155712.760000", "155712.763000", "155712.766000", "155712.768000", "155712.771000", "155712.773000", "155712.776000", "155712.779000", "155712.781000", "155712.784000", "155712.787000", "155712.789000", "155752.683000", "155752.686000", "155752.689000", "155752.692000", "155752.699000", "155752.702000", "155752.704000", "155752.707000", "155752.709000", "155752.712000", "155752.715000", "155752.717000", "155752.720000", "155752.722000", "155752.725000", "155752.728000", "155752.730000", "155752.733000", "155752.735000", "155752.738000", "155752.741000", "155752.743000", "155752.746000", "155752.748000", "155752.751000", "155752.754000", "155832.686000", "155832.689000", "155832.692000", "155832.695000", "155832.697000", "155832.700000", "155832.702000", "155832.705000", "155832.707000", "155832.711000", "155832.714000", "155832.717000", "155832.719000", "155832.722000", "155832.724000", "155832.727000", "155832.730000", "155832.732000", "155832.735000", "155832.738000", "155832.740000", "155832.743000", "155832.745000", "155832.748000", "155832.751000", "155832.753000", "155832.756000", "155852.382000", "155852.385000", "155852.396000", "155852.399000", "155852.401000", "155852.404000", "155852.407000", "155852.409000", "155852.412000", "155852.415000", "155852.417000", "155852.420000", "155852.423000", "155852.425000"],
      "InstanceCreationTime": ["155532.735000", "155532.738000", "155532.740000", "155532.746000", "155532.749000", "155532.751000", "155532.754000", "155532.757000", "155532.759000", "155532.762000", "155532.764000", "155532.767000", "155532.770000", "155532.772000", "155532.775000", "155532.777000", "155532.780000", "155532.782000", "155532.785000", "155532.788000", "155532.790000", "155532.793000", "155532.795000", "155532.805000", "155532.808000", "155532.810000", "155532.813000", "155532.815000", "155532.818000", "155532.820000", "155552.647000", "155552.650000", "155552.652000", "155552.655000", "155552.657000", "155552.660000", "155552.662000", "155552.665000", "155552.668000", "155552.670000", "155552.673000", "155552.675000", "155552.678000", "155552.681000", "155552.683000", "155552.686000", "155552.688000", "155552.691000", "155552.693000", "155552.696000", "155612.640000", "155612.643000", "155612.646000", "155612.648000", "155612.651000", "155612.655000", "155612.658000", "155612.661000", "155612.663000", "155612.666000", "155612.668000", "155612.671000", "155612.674000", "155612.676000", "155612.679000", "155612.681000", "155612.684000", "155612.687000", "155612.689000", "155612.692000", "155612.694000", "155632.634000", "155632.637000", "155632.639000", "155632.642000", "155632.644000", "155632.647000", "155632.650000", "155632.652000", "155632.655000", "155632.657000", "155632.660000", "155632.663000", "155632.665000", "155632.668000", "155632.671000", "155632.673000", "155632.676000", "155632.678000", "155632.681000", "155632.683000", "155712.705000", "155712.708000", "155712.711000", "155712.713000", "155712.716000", "155712.718000", "155712.721000", "155712.724000", "155712.726000", "155712.729000", "155712.734000", "155712.737000", "155712.739000", "155712.742000", "155712.745000", "155712.747000", "155712.750000", "155712.752000", "155712.755000", "155712.758000", "155712.760000", "155712.763000", "155712.766000", "155712.768000", "155712.771000", "155712.773000", "155712.776000", "155712.779000", "155712.781000", "155712.784000", "155712.787000", "155712.789000", "155752.683000", "155752.686000", "155752.689000", "155752.692000", "155752.699000", "155752.702000", "155752.704000", "155752.707000", "155752.709000", "155752.712000", "155752.715000", "155752.717000", "155752.720000", "155752.722000", "155752.725000", "155752.728000", "155752.730000", "155752.733000", "155752.735000", "155752.738000", "155752.741000", "155752.743000", "155752.746000", "155752.748000", "155752.751000", "155752.754000", "155832.686000", "155832.689000", "155832.692000", "155832.695000", "155832.697000", "155832.700000", "155832.702000", "155832.705000", "155832.707000", "155832.711000", "155832.714000", "155832.717000", "155832.719000", "155832.722000", "155832.724000", "155832.727000", "155832.730000", "155832.732000", "155832.735000", "155832.738000", "155832.740000", "155832.743000", "155832.745000", "155832.748000", "155832.751000", "155832.753000", "155832.756000", "155852.382000", "155852.385000", "155852.396000", "155852.399000", "155852.401000", "155852.404000", "155852.407000", "155852.409000", "155852.412000", "155852.415000", "155852.417000", "155852.420000", "155852.423000", "155852.425000"],
      "InstanceNumber": [1, 2, 3, 4, 5, 6, 7, 8, 9, 10, 11, 12, 13, 14, 15, 16, 17, 18, 19, 20, 21, 22, 23, 24, 25, 26, 27, 28, 29, 30, 31, 32, 33, 34, 35, 36, 37, 38, 39, 40, 41, 42, 43, 44, 45, 46, 47, 48, 49, 50, 51, 52, 53, 54, 55, 56, 57, 58, 59, 60, 61, 62, 63, 64, 65, 66, 67, 68, 69, 70, 71, 72, 73, 74, 75, 76, 77, 78, 79, 80, 81, 82, 83, 84, 85, 86, 87, 88, 89, 90, 91, 92, 93, 94, 95, 96, 97, 98, 99, 100, 101, 102, 103, 104, 105, 106, 107, 108, 109, 110, 111, 112, 113, 114, 115, 116, 117, 118, 119, 120, 121, 122, 123, 124, 125, 126, 127, 128, 129, 130, 131, 132, 133, 134, 135, 136, 137, 138, 139, 140, 141, 142, 143, 144, 145, 146, 147, 148, 149, 150, 151, 152, 153, 154, 155, 156, 157, 158, 159, 160, 161, 162, 163, 164, 165, 166, 167, 168, 169, 170, 171, 172, 173, 174, 175, 176, 177, 178, 179, 180, 181, 182, 183, 184, 185, 186, 187, 188, 189, 190],
      "WindowCenter": [4878.0, 4876.0, 4878.0, 4880.0, 4878.0, 4884.0, 4878.0, 4880.0, 4882.0, 4876.0, 4878.0, 4842.0, 4878.0, 4868.0, 4906.0, 4876.0, 4882.0, 4882.0, 4838.0, 4878.0, 4882.0, 4874.0, 4882.0, 4904.0, 4876.0, 4878.0, 4876.0, 4876.0, 4878.0, 4878.0, 4882.0, 4874.0, 4902.0, 4880.0, 4870.0, 4878.0, 4870.0, 4884.0, 4870.0, 4872.0, 4878.0, 4868.0, 4880.0, 4874.0, 4880.0, 4874.0, 4874.0, 4882.0, 4868.0, 4878.0, 4878.0, 4874.0, 4882.0, 4904.0, 4884.0, 4878.0, 4882.0, 4876.0, 4878.0, 4878.0, 4866.0, 4882.0, 4872.0, 4880.0, 4876.0, 4834.0, 4902.0, 4882.0, 4882.0, 4882.0, 4870.0, 4880.0, 4834.0, 4800.0, 4878.0, 4882.0, 4878.0, 4840.0, 4876.0, 4878.0, 4876.0, 4808.0, 4800.0, 4868.0, 4882.0, 4904.0, 4882.0, 4882.0, 4882.0, 4870.0, 4828.0, 4800.0, 4836.0, 4878.0, 4882.0, 4884.0, 4906.0, 4882.0, 4880.0, 4872.0, 4840.0, 4866.0, 4840.0, 4834.0, 4870.0, 4840.0, 4880.0, 4878.0, 4884.0, 4878.0, 4876.0, 4874.0, 4866.0, 4874.0, 4862.0, 4840.0, 4830.0, 4802.0, 4878.0, 4906.0, 4882.0, 4878.0, 4878.0, 4876.0, 4870.0, 4864.0, 4830.0, 4830.0, 4834.0, 4802.0, 4864.0, 4906.0, 4880.0, 4880.0, 4904.0, 4904.0, 4838.0, 4834.0, 4838.0, 4860.0, 4870.0, 4864.0, 4882.0, 4904.0, 4872.0, 4884.0, 4884.0, 4870.0, 4902.0, 4868.0, 4868.0, 4866.0, 4830.0, 4872.0, 4836.0, 4868.0, 4880.0, 4838.0, 4832.0, 4880.0, 4906.0, 4902.0, 4870.0, 4866.0, 4828.0, 4834.0, 4868.0, 4872.0, 4836.0, 4830.0, 4874.0, 4882.0, 4836.0, 4840.0, 4880.0, 4882.0, 4872.0, 4876.0, 4836.0, 4832.0, 4864.0, 4866.0, 4876.0, 4878.0, 4832.0, 4836.0, 4838.0, 4866.0, 4876.0, 4842.0],
      "WindowWidth": [18678.0, 18680.0, 18682.0, 18684.0, 18680.0, 18682.0, 18682.0, 18678.0, 18678.0, 18684.0, 18686.0, 18644.0, 18684.0, 18680.0, 18712.0, 18678.0, 18686.0, 18686.0, 18640.0, 18680.0, 18684.0, 18678.0, 18682.0, 18716.0, 18682.0, 18680.0, 18678.0, 18682.0, 18682.0, 18688.0, 18686.0, 18682.0, 18712.0, 18682.0, 18682.0, 18688.0, 18678.0, 18682.0, 18676.0, 18676.0, 18684.0, 18678.0, 18688.0, 18678.0, 18680.0, 18684.0, 18682.0, 18686.0, 18678.0, 18684.0, 18682.0, 18680.0, 18684.0, 18716.0, 18686.0, 18680.0, 18688.0, 18680.0, 18684.0, 18684.0, 18674.0, 18678.0, 18678.0, 18684.0, 18684.0, 18636.0, 18718.0, 18684.0, 18686.0, 18686.0, 18674.0, 18680.0, 18638.0, 18604.0, 18682.0, 18678.0, 18686.0, 18646.0, 18682.0, 18684.0, 18680.0, 18616.0, 18612.0, 18684.0, 18682.0, 18704.0, 18674.0, 18678.0, 18690.0, 18680.0, 18636.0, 18610.0, 18642.0, 18688.0, 18682.0, 18680.0, 18708.0, 18678.0, 18682.0, 18680.0, 18646.0, 18676.0, 18642.0, 18640.0, 18682.0, 18642.0, 18684.0, 18680.0, 18684.0, 18678.0, 18684.0, 18682.0, 18672.0, 18680.0, 18672.0, 18644.0, 18632.0, 18610.0, 18692.0, 18710.0, 18670.0, 18682.0, 18686.0, 18688.0, 18682.0, 18674.0, 18630.0, 18644.0, 18644.0, 18604.0, 18680.0, 18708.0, 18662.0, 18676.0, 18712.0, 18716.0, 18640.0, 18636.0, 18636.0, 18670.0, 18680.0, 18670.0, 18686.0, 18712.0, 18678.0, 18682.0, 18684.0, 18676.0, 18716.0, 18676.0, 18676.0, 18676.0, 18634.0, 18682.0, 18638.0, 18674.0, 18684.0, 18644.0, 18632.0, 18684.0, 18710.0, 18716.0, 18682.0, 18680.0, 18630.0, 18636.0, 18680.0, 18682.0, 18640.0, 18632.0, 18690.0, 18686.0, 18638.0, 18644.0, 18686.0, 18686.0, 18682.0, 18680.0, 18640.0, 18636.0, 18672.0, 18676.0, 18680.0, 18680.0, 18628.0, 18640.0, 18642.0, 18672.0, 18682.0, 18644.0]
    },
    "slices": {}
  }
}