{
  "AcquisitionMatrixPE": 104,
  "AcquisitionNumber": 1,
  "AcquisitionTime": "15:59:23.580000",
  "BandwidthPerPixelPhaseEncode": 17.17,
  "BaseResolution": 104,
  "BodyPartExamined": "BRAIN",
  "CoilString": "HC1-7;NC1_2",
  "ConsistencyInfo": "N4_VE11C_LATEST_20160120",
  "ConversionSoftware": "dcm2niix",
  "ConversionSoftwareVersion": "v1.0.20190902",
  "DerivedVendorReportedEchoSpacing": 0.000560011,
  "DeviceSerialNumber": "167006",
  "DwellTime": 2.1e-06,
  "EchoTime": 0.037,
  "EchoTrainLength": 104,
  "EffectiveEchoSpacing": 0.000560011,
  "FlipAngle": 52,
  "ImageComments": "Unaliased_MB4_PE3_LB",
  "ImageOrientationPatientDICOM": [0.999607, -0.019974, 0.0196608, 0.0249536, 0.953659, -0.299854],
  "ImageType": [
    "ORIGINAL",
    "PRIMARY",
    "M",
    "MB",
    "ND",
    "MOSAIC"
],
  "ImagingFrequency": 123.259,
  "InPlanePhaseEncodingDirectionDICOM": "COL",
  "InstitutionAddress": "Chemin_Queen-Mary_4565_Montreal_District_CA_H3W_1W5",
  "InstitutionName": "IUGM",
  "InstitutionalDepartmentName": "Department",
  "MRAcquisitionType": "2D",
  "MagneticFieldStrength": 3,
  "Manufacturer": "Siemens",
  "ManufacturersModelName": "Prisma_fit",
  "Modality": "MR",
  "MultibandAccelerationFactor": 4,
  "PartialFourier": 1,
  "PatientPosition": "HFS",
  "PercentPhaseFOV": 100,
  "PhaseEncodingDirection": "j",
  "PhaseEncodingSteps": 104,
  "PhaseResolution": 1,
  "PixelBandwidth": 2290,
  "ProcedureStepDescription": "memory_things",
  "ProtocolName": "func_task-things_run-6",
  "PulseSequenceDetails": "%CustomerSeq%_cmrr_mbep2d_bold",
  "ReceiveCoilActiveElements": "HC1-7;NC1,2",
  "ReceiveCoilName": "HeadNeck_64",
  "ReconMatrixPE": 104,
  "RepetitionTime": 1.49,
  "SAR": 0.0308791,
  "ScanOptions": "FS",
  "ScanningSequence": "EP",
  "SequenceName": "epfid2d1_104",
  "SequenceVariant": "SK_SS",
  "SeriesDescription": "func_task-things_run-6",
  "SeriesNumber": 25,
  "ShimSetting": [627, -7270, -8815, 615, -7, -230, 7, -7],
  "SliceThickness": 2,
  "SliceTiming": [0, 0.785, 0.0975, 0.8825, 0.195, 0.98, 0.295, 1.0775, 0.3925, 1.175, 0.49, 1.275, 0.5875, 1.3725, 0.685, 0, 0.785, 0.0975, 0.8825, 0.195, 0.98, 0.295, 1.0775, 0.3925, 1.175, 0.49, 1.275, 0.5875, 1.3725, 0.685, 0, 0.785, 0.0975, 0.8825, 0.195, 0.98, 0.295, 1.0775, 0.3925, 1.175, 0.49, 1.275, 0.5875, 1.3725, 0.685, 0, 0.785, 0.0975, 0.8825, 0.195, 0.98, 0.295, 1.0775, 0.3925, 1.175, 0.49, 1.275, 0.5875, 1.3725, 0.685],
  "SoftwareVersions": "syngo_MR_E11",
  "SpacingBetweenSlices": 2,
  "StationName": "MRC35049",
  "TaskName": "things",
  "TotalReadoutTime": 0.0576811,
  "TxRefAmp": 218.267,
  "WipMemBlock": "832709bb-77f2-426e-9884-610ebf55dd24||Sequence: R016 ve11c/master r/e634e98; Dec 19 2017 11:00:25 by eja",
  "dcmmeta_affine": [
    [-1.9992142915725708, 0.049907173961400986, 0.02552083507180214, 103.4371566772461],
    [0.03994808346033096, 1.9073176383972168, -0.600452721118927, -69.52543640136719],
    [0.039321620017290115, 0.5997071266174316, 1.9075652360916138, -59.45892333984375],
    [0.0, 0.0, 0.0, 1.0]
],
  "dcmmeta_reorient_transform": [
    [0.0, -1.0, 0.0, 103.0],
    [1.0, 0.0, 0.0, 0.0],
    [0.0, 0.0, 1.0, 0.0],
    [0.0, 0.0, 0.0, 1.0]
],
  "dcmmeta_shape": [104, 104, 60, 190],
  "dcmmeta_slice_dim": 2,
  "dcmmeta_version": 0.6,
  "global": {
    "const": {
      "AcquisitionMatrix": [104, 0, 0, 104],
      "AngioFlag": "N",
      "BitsAllocated": 16,
      "BitsStored": 16,
      "BodyPartExamined": "BRAIN",
      "Columns": 832,
      "EchoNumbers": 1,
      "EchoTime": 37.0,
      "EchoTrainLength": 104,
      "FlipAngle": 52.0,
      "HighBit": 15,
      "ImageOrientationPatient": [0.99960716794681, -0.0199740420961, 0.01966080953836, 0.02495358778657, 0.95365883074422, -0.2998535525888],
      "ImagePositionPatient": [-854.45782939074, -806.65081167539, 206.29122632322],
      "ImageType": [
        "ORIGINAL",
        "PRIMARY",
        "M",
        "MB",
        "ND",
        "MOSAIC"
],
      "ImagedNucleus": "1H",
      "ImagingFrequency": 123.258937,
      "InPlanePhaseEncodingDirection": "COL",
      "MRAcquisitionType": "2D",
      "MagneticFieldStrength": 3.0,
      "Manufacturer": "SIEMENS",
      "ManufacturerModelName": "Prisma_fit",
      "Modality": "MR",
      "NumberOfAverages": 1.0,
      "NumberOfPhaseEncodingSteps": 104,
      "PercentPhaseFieldOfView": 100.0,
      "PercentSampling": 100.0,
      "PerformedProcedureStepStartTime": "152536.184000",
      "PhotometricInterpretation": "MONOCHROME2",
      "PixelBandwidth": 2290.0,
      "PixelRepresentation": 0,
      "PixelSpacing": [2.0, 2.0],
      "ProtocolName": "func_task-things_run-6",
      "RepetitionTime": 1490.0,
      "Rows": 832,
      "SAR": 0.03087906587526,
      "SamplesPerPixel": 1,
      "ScanOptions": "FS",
      "ScanningSequence": "EP",
      "SequenceName": "epfid2d1_104",
      "SequenceVariant": [
        "SK",
        "SS"
],
      "SeriesDescription": "func_task-things_run-6",
      "SeriesNumber": 25,
      "SeriesTime": "160023.705000",
      "SliceLocation": -34.517617513189,
      "SliceThickness": 2.0,
      "SmallestImagePixelValue": 0,
      "SoftwareVersions": "syngo MR E11",
      "SpacingBetweenSlices": 2.0000000346974,
      "SpecificCharacterSet": "ISO_IR 100",
      "StudyID": "1",
      "StudyTime": "152536.115000",
      "TransmitCoilName": "Body",
      "VariableFlipAngleFlag": "N",
      "WindowCenterWidthExplanation": "Algo1",
      "dBdt": 0.0},
    "slices": {}
  },
  "time": {
    "samples": {
      "AcquisitionNumber": [1, 2, 3, 4, 5, 6, 7, 8, 9, 10, 11, 12, 13, 14, 15, 16, 17, 18, 19, 20, 21, 22, 23, 24, 25, 26, 27, 28, 29, 30, 31, 32, 33, 34, 35, 36, 37, 38, 39, 40, 41, 42, 43, 44, 45, 46, 47, 48, 49, 50, 51, 52, 53, 54, 55, 56, 57, 58, 59, 60, 61, 62, 63, 64, 65, 66, 67, 68, 69, 70, 71, 72, 73, 74, 75, 76, 77, 78, 79, 80, 81, 82, 83, 84, 85, 86, 87, 88, 89, 90, 91, 92, 93, 94, 95, 96, 97, 98, 99, 100, 101, 102, 103, 104, 105, 106, 107, 108, 109, 110, 111, 112, 113, 114, 115, 116, 117, 118, 119, 120, 121, 122, 123, 124, 125, 126, 127, 128, 129, 130, 131, 132, 133, 134, 135, 136, 137, 138, 139, 140, 141, 142, 143, 144, 145, 146, 147, 148, 149, 150, 151, 152, 153, 154, 155, 156, 157, 158, 159, 160, 161, 162, 163, 164, 165, 166, 167, 168, 169, 170, 171, 172, 173, 174, 175, 176, 177, 178, 179, 180, 181, 182, 183, 184, 185, 186, 187, 188, 189, 190],
      "AcquisitionTime": ["155923.580000", "155925.070000", "155926.560000", "155928.050000", "155929.540000", "155931.030000", "155932.520000", "155934.010000", "155935.500000", "155936.990000", "155938.480000", "155939.970000", "155941.460000", "155942.950000", "155944.440000", "155945.930000", "155947.420000", "155948.910000", "155950.400000", "155951.890000", "155953.380000", "155954.870000", "155956.360000", "155957.850000", "155959.340000", "160000.830000", "160002.320000", "160003.810000", "160005.300000", "160006.790000", "160008.280000", "160009.770000", "160011.260000", "160012.750000", "160014.240000", "160015.730000", "160017.220000", "160018.710000", "160020.200000", "160021.690000", "160023.180000", "160024.670000", "160026.160000", "160027.650000", "160029.140000", "160030.630000", "160032.120000", "160033.610000", "160035.100000", "160036.590000", "160038.080000", "160039.570000", "160041.060000", "160042.550000", "160044.040000", "160045.530000", "160047.020000", "160048.510000", "160050.000000", "160051.490000", "160052.980000", "160054.470000", "160055.960000", "160057.450000", "160058.940000", "160100.430000", "160101.920000", "160103.410000", "160104.900000", "160106.390000", "160107.880000", "160109.370000", "160110.860000", "160112.350000", "160113.840000", "160115.330000", "160116.820000", "160118.310000", "160119.800000", "160121.290000", "160122.780000", "160124.270000", "160125.760000", "160127.250000", "160128.740000", "160130.230000", "160131.720000", "160133.210000", "160134.700000", "160136.190000", "160137.680000", "160139.170000", "160140.660000", "160142.150000", "160143.640000", "160145.130000", "160146.620000", "160148.110000", "160149.600000", "160151.090000", "160152.580000", "160154.070000", "160155.560000", "160157.050000", "160158.540000", "160200.030000", "160201.520000", "160203.010000", "160204.500000", "160205.990000", "160207.480000", "160208.970000", "160210.460000", "160211.950000", "160213.440000", "160214.930000", "160216.420000", "160217.910000", "160219.400000", "160220.890000", "160222.380000", "160223.870000", "160225.360000", "160226.850000", "160228.340000", "160229.830000", "160231.320000", "160232.810000", "160234.300000", "160235.790000", "160237.280000", "160238.770000", "160240.260000", "160241.750000", "160243.240000", "160244.730000", "160246.220000", "160247.710000", "160249.200000", "160250.690000", "160252.180000", "160253.670000", "160255.160000", "160256.650000", "160258.140000", "160259.630000", "160301.120000", "160302.610000", "160304.100000", "160305.590000", "160307.080000", "160308.570000", "160310.060000", "160311.550000", "160313.040000", "160314.530000", "160316.020000", "160317.510000", "160319.000000", "160320.490000", "160321.980000", "160323.470000", "160324.960000", "160326.450000", "160327.940000", "160329.430000", "160330.920000", "160332.410000", "160333.900000", "160335.390000", "160336.880000", "160338.370000", "160339.860000", "160341.350000", "160342.840000", "160344.330000", "160345.820000", "160347.310000", "160348.800000", "160350.290000", "160351.780000", "160353.270000", "160354.760000", "160356.250000", "160357.740000", "160359.230000", "160400.720000", "160402.210000", "160403.700000", "160405.190000"],
      "ContentTime": ["160023.708000", "160023.712000", "160023.716000", "160043.662000", "160043.666000", "160043.669000", "160043.679000", "160043.683000", "160043.686000", "160043.689000", "160043.693000", "160043.696000", "160043.700000", "160043.703000", "160043.707000", "160043.710000", "160043.713000", "160043.720000", "160043.724000", "160043.727000", "160043.731000", "160043.734000", "160043.738000", "160043.741000", "160103.661000", "160103.665000", "160103.668000", "160103.672000", "160103.675000", "160103.679000", "160103.682000", "160103.686000", "160103.689000", "160103.692000", "160103.696000", "160103.699000", "160103.703000", "160103.706000", "160103.709000", "160103.713000", "160103.716000", "160103.720000", "160103.723000", "160103.727000", "160123.661000", "160123.665000", "160123.669000", "160123.673000", "160123.676000", "160123.679000", "160123.683000", "160123.686000", "160123.690000", "160123.693000", "160123.697000", "160123.700000", "160123.703000", "160123.707000", "160123.712000", "160123.715000", "160123.719000", "160123.722000", "160123.726000", "160123.729000", "160143.661000", "160143.665000", "160143.669000", "160143.672000", "160143.675000", "160143.679000", "160143.682000", "160143.686000", "160143.689000", "160143.692000", "160143.696000", "160143.699000", "160143.703000", "160143.706000", "160143.710000", "160143.713000", "160143.716000", "160143.720000", "160143.723000", "160143.727000", "160203.662000", "160203.666000", "160203.670000", "160203.673000", "160203.676000", "160203.680000", "160203.683000", "160203.687000", "160203.690000", "160203.694000", "160203.697000", "160203.701000", "160203.704000", "160203.707000", "160203.711000", "160203.714000", "160203.718000", "160203.721000", "160203.725000", "160203.738000", "160243.662000", "160243.666000", "160243.670000", "160243.673000", "160243.676000", "160243.680000", "160243.684000", "160243.687000", "160243.690000", "160243.694000", "160243.697000", "160243.701000", "160243.704000", "160243.708000", "160243.711000", "160243.714000", "160243.718000", "160243.721000", "160243.725000", "160243.728000", "160243.732000", "160243.735000", "160243.739000", "160243.742000", "160243.745000", "160243.749000", "160243.752000", "160243.756000", "160243.759000", "160243.763000", "160323.661000", "160323.665000", "160323.671000", "160323.674000", "160323.678000", "160323.681000", "160323.685000", "160323.688000", "160323.692000", "160323.696000", "160323.700000", "160323.703000", "160323.707000", "160323.710000", "160323.715000", "160323.720000", "160323.724000", "160323.728000", "160323.734000", "160323.738000", "160323.742000", "160323.746000", "160323.750000", "160323.753000", "160323.757000", "160323.760000", "160403.661000", "160403.665000", "160403.669000", "160403.672000", "160403.676000", "160403.679000", "160403.683000", "160403.686000", "160403.689000", "160403.693000", "160403.696000", "160403.700000", "160403.703000", "160403.707000", "160403.710000", "160403.714000", "160403.717000", "160403.720000", "160403.724000", "160403.727000", "160403.731000", "160403.734000", "160403.738000", "160403.741000", "160403.745000", "160403.748000", "160403.752000", "160407.009000", "160407.013000", "160407.016000"],
      "InstanceCreationTime": ["160023.708000", "160023.712000", "160023.716000", "160043.662000", "160043.666000", "160043.669000", "160043.679000", "160043.683000", "160043.686000", "160043.689000", "160043.693000", "160043.696000", "160043.700000", "160043.703000", "160043.707000", "160043.710000", "160043.713000", "160043.720000", "160043.724000", "160043.727000", "160043.731000", "160043.734000", "160043.738000", "160043.741000", "160103.661000", "160103.665000", "160103.668000", "160103.672000", "160103.675000", "160103.679000", "160103.682000", "160103.686000", "160103.689000", "160103.692000", "160103.696000", "160103.699000", "160103.703000", "160103.706000", "160103.709000", "160103.713000", "160103.716000", "160103.720000", "160103.723000", "160103.727000", "160123.661000", "160123.665000", "160123.669000", "160123.673000", "160123.676000", "160123.679000", "160123.683000", "160123.686000", "160123.690000", "160123.693000", "160123.697000", "160123.700000", "160123.703000", "160123.707000", "160123.712000", "160123.715000", "160123.719000", "160123.722000", "160123.726000", "160123.729000", "160143.661000", "160143.665000", "160143.669000", "160143.672000", "160143.675000", "160143.679000", "160143.682000", "160143.686000", "160143.689000", "160143.692000", "160143.696000", "160143.699000", "160143.703000", "160143.706000", "160143.710000", "160143.713000", "160143.716000", "160143.720000", "160143.723000", "160143.727000", "160203.662000", "160203.666000", "160203.670000", "160203.673000", "160203.676000", "160203.680000", "160203.683000", "160203.687000", "160203.690000", "160203.694000", "160203.697000", "160203.701000", "160203.704000", "160203.707000", "160203.711000", "160203.714000", "160203.718000", "160203.721000", "160203.725000", "160203.738000", "160243.662000", "160243.666000", "160243.670000", "160243.673000", "160243.676000", "160243.680000", "160243.684000", "160243.687000", "160243.690000", "160243.694000", "160243.697000", "160243.701000", "160243.704000", "160243.708000", "160243.711000", "160243.714000", "160243.718000", "160243.721000", "160243.725000", "160243.728000", "160243.732000", "160243.735000", "160243.739000", "160243.742000", "160243.745000", "160243.749000", "160243.752000", "160243.756000", "160243.759000", "160243.763000", "160323.661000", "160323.665000", "160323.671000", "160323.674000", "160323.678000", "160323.681000", "160323.685000", "160323.688000", "160323.692000", "160323.696000", "160323.700000", "160323.703000", "160323.707000", "160323.710000", "160323.715000", "160323.720000", "160323.724000", "160323.728000", "160323.734000", "160323.738000", "160323.742000", "160323.746000", "160323.750000", "160323.753000", "160323.757000", "160323.760000", "160403.661000", "160403.665000", "160403.669000", "160403.672000", "160403.676000", "160403.679000", "160403.683000", "160403.686000", "160403.689000", "160403.693000", "160403.696000", "160403.700000", "160403.703000", "160403.707000", "160403.710000", "160403.714000", "160403.717000", "160403.720000", "160403.724000", "160403.727000", "160403.731000", "160403.734000", "160403.738000", "160403.741000", "160403.745000", "160403.748000", "160403.752000", "160407.009000", "160407.013000", "160407.016000"],
      "InstanceNumber": [1, 2, 3, 4, 5, 6, 7, 8, 9, 10, 11, 12, 13, 14, 15, 16, 17, 18, 19, 20, 21, 22, 23, 24, 25, 26, 27, 28, 29, 30, 31, 32, 33, 34, 35, 36, 37, 38, 39, 40, 41, 42, 43, 44, 45, 46, 47, 48, 49, 50, 51, 52, 53, 54, 55, 56, 57, 58, 59, 60, 61, 62, 63, 64, 65, 66, 67, 68, 69, 70, 71, 72, 73, 74, 75, 76, 77, 78, 79, 80, 81, 82, 83, 84, 85, 86, 87, 88, 89, 90, 91, 92, 93, 94, 95, 96, 97, 98, 99, 100, 101, 102, 103, 104, 105, 106, 107, 108, 109, 110, 111, 112, 113, 114, 115, 116, 117, 118, 119, 120, 121, 122, 123, 124, 125, 126, 127, 128, 129, 130, 131, 132, 133, 134, 135, 136, 137, 138, 139, 140, 141, 142, 143, 144, 145, 146, 147, 148, 149, 150, 151, 152, 153, 154, 155, 156, 157, 158, 159, 160, 161, 162, 163, 164, 165, 166, 167, 168, 169, 170, 171, 172, 173, 174, 175, 176, 177, 178, 179, 180, 181, 182, 183, 184, 185, 186, 187, 188, 189, 190],
      "LargestImagePixelValue": [44649, 45013, 41856, 42066, 42753, 41671, 42183, 41911, 41936, 41581, 42735, 41165, 40911, 41331, 41922, 42289, 42120, 42212, 41362, 41675, 41930, 41696, 41527, 41802, 41733, 41995, 41963, 41516, 41998, 42128, 41915, 41567, 41463, 41680, 41468, 41879, 41886, 42005, 42153, 41978, 42177, 41824, 41550, 41715, 42235, 41816, 41899, 41644, 41949, 41677, 41378, 41526, 41817, 41585, 42172, 41987, 42199, 41664, 41848, 41790, 42138, 42080, 41234, 42163, 42408, 41654, 41315, 41280, 41662, 41621, 41916, 43255, 41796, 40812, 40650, 41247, 41531, 42006, 42446, 42392, 42515, 43123, 41662, 41824, 41667, 41789, 41776, 41701, 42057, 42440, 41733, 42028, 42197, 41706, 42500, 41271, 41750, 42759, 41228, 40364, 40413, 40906, 41106, 42482, 41629, 41570, 40417, 41054, 41617, 42475, 41787, 41444, 41991, 41559, 42472, 43181, 42858, 42752, 41516, 41032, 41041, 42940, 42805, 43014, 43619, 42822, 42364, 41837, 42433, 43541, 43153, 42797, 43611, 42812, 42759, 43118, 42969, 43114, 42097, 42539, 43029, 42205, 41467, 42394, 42648, 42394, 42902, 42982, 42967, 42107, 42277, 42703, 43511, 42604, 42568, 43092, 42409, 42789, 43149, 43471, 42987, 42452, 42582, 42444, 42226, 42361, 43535, 43211, 43374, 43085, 42756, 42690, 43443, 43015, 42653, 43103, 42630, 43337, 43825, 42791, 42727, 42685, 42670, 42448, 43397, 43183, 42738, 42816, 43186, 43307],
      "WindowCenter": [10443.0, 10359.0, 10279.0, 10231.0, 10220.0, 10227.0, 10242.0, 10244.0, 10239.0, 10239.0, 10287.0, 10318.0, 10318.0, 10299.0, 10295.0, 10283.0, 10260.0, 10252.0, 10246.0, 10246.0, 10253.0, 10260.0, 10291.0, 10304.0, 10273.0, 10254.0, 10280.0, 10307.0, 10295.0, 10266.0, 10243.0, 10244.0, 10259.0, 10260.0, 10258.0, 10266.0, 10284.0, 10286.0, 10270.0, 10254.0, 10282.0, 10300.0, 10287.0, 10271.0, 10266.0, 10265.0, 10274.0, 10276.0, 10254.0, 10229.0, 10229.0, 10263.0, 10297.0, 10286.0, 10263.0, 10259.0, 10272.0, 10267.0, 10267.0, 10268.0, 10266.0, 10288.0, 10295.0, 10291.0, 10297.0, 10283.0, 10263.0, 10236.0, 10218.0, 10224.0, 10248.0, 10288.0, 10269.0, 10223.0, 10206.0, 10224.0, 10240.0, 10249.0, 10247.0, 10228.0, 10225.0, 10260.0, 10289.0, 10311.0, 10288.0, 10264.0, 10261.0, 10261.0, 10270.0, 10273.0, 10247.0, 10251.0, 10273.0, 10287.0, 10286.0, 10257.0, 10245.0, 10276.0, 10283.0, 10251.0, 10226.0, 10220.0, 10219.0, 10250.0, 10277.0, 10273.0, 10223.0, 10211.0, 10204.0, 10207.0, 10221.0, 10234.0, 10229.0, 10223.0, 10249.0, 10286.0, 10307.0, 10300.0, 10252.0, 10227.0, 10212.0, 10246.0, 10279.0, 10284.0, 10258.0, 10233.0, 10237.0, 10247.0, 10275.0, 10294.0, 10289.0, 10268.0, 10254.0, 10261.0, 10280.0, 10273.0, 10251.0, 10253.0, 10260.0, 10262.0, 10250.0, 10235.0, 10238.0, 10250.0, 10263.0, 10274.0, 10276.0, 10253.0, 10248.0, 10259.0, 10275.0, 10267.0, 10275.0, 10296.0, 10299.0, 10280.0, 10244.0, 10253.0, 10270.0, 10293.0, 10297.0, 10275.0, 10251.0, 10249.0, 10263.0, 10282.0, 10299.0, 10301.0, 10304.0, 10288.0, 10280.0, 10280.0, 10291.0, 10279.0, 10258.0, 10253.0, 10260.0, 10285.0, 10297.0, 10295.0, 10290.0, 10268.0, 10259.0, 10265.0, 10291.0, 10294.0, 10289.0, 10267.0, 10248.0, 10252.0],
      "WindowWidth": [22630.0, 22381.0, 22180.0, 22056.0, 22013.0, 22020.0, 22050.0, 22057.0, 22049.0, 22048.0, 22153.0, 22232.0, 22239.0, 22192.0, 22176.0, 22144.0, 22091.0, 22073.0, 22058.0, 22061.0, 22077.0, 22095.0, 22170.0, 22201.0, 22130.0, 22082.0, 22139.0, 22202.0, 22173.0, 22104.0, 22051.0, 22057.0, 22090.0, 22095.0, 22090.0, 22107.0, 22147.0, 22154.0, 22118.0, 22083.0, 22144.0, 22186.0, 22161.0, 22121.0, 22106.0, 22102.0, 22124.0, 22133.0, 22082.0, 22025.0, 22028.0, 22099.0, 22179.0, 22157.0, 22104.0, 22094.0, 22121.0, 22110.0, 22110.0, 22111.0, 22108.0, 22153.0, 22176.0, 22166.0, 22178.0, 22151.0, 22108.0, 22045.0, 21999.0, 22010.0, 22065.0, 22157.0, 22122.0, 22022.0, 21985.0, 22017.0, 22050.0, 22069.0, 22060.0, 22018.0, 22011.0, 22089.0, 22161.0, 22216.0, 22164.0, 22108.0, 22100.0, 22099.0, 22117.0, 22120.0, 22064.0, 22073.0, 22120.0, 22155.0, 22154.0, 22092.0, 22070.0, 22133.0, 22154.0, 22091.0, 22031.0, 22011.0, 22009.0, 22073.0, 22148.0, 22138.0, 22023.0, 21989.0, 21969.0, 21971.0, 22002.0, 22035.0, 22025.0, 22013.0, 22067.0, 22146.0, 22199.0, 22184.0, 22081.0, 22026.0, 21994.0, 22061.0, 22134.0, 22144.0, 22083.0, 22027.0, 22042.0, 22069.0, 22130.0, 22168.0, 22159.0, 22111.0, 22077.0, 22095.0, 22139.0, 22123.0, 22073.0, 22074.0, 22094.0, 22103.0, 22074.0, 22040.0, 22048.0, 22073.0, 22099.0, 22125.0, 22130.0, 22079.0, 22063.0, 22093.0, 22132.0, 22114.0, 22126.0, 22176.0, 22185.0, 22138.0, 22060.0, 22075.0, 22115.0, 22166.0, 22178.0, 22132.0, 22076.0, 22070.0, 22103.0, 22143.0, 22182.0, 22187.0, 22193.0, 22159.0, 22139.0, 22142.0, 22163.0, 22137.0, 22093.0, 22077.0, 22091.0, 22149.0, 22171.0, 22173.0, 22164.0, 22116.0, 22094.0, 22106.0, 22160.0, 22172.0, 22163.0, 22114.0, 22065.0, 22072.0]
    },
    "slices": {}
  }
}