{
  "AcquisitionMatrixPE": 104,
  "AcquisitionNumber": 1,
  "AcquisitionTime": "15:54:8.692500",
  "BandwidthPerPixelPhaseEncode": 17.17,
  "BaseResolution": 104,
  "BodyPartExamined": "BRAIN",
  "CoilString": "HC1-7;NC1_2",
  "ConsistencyInfo": "N4_VE11C_LATEST_20160120",
  "ConversionSoftware": "dcm2niix",
  "ConversionSoftwareVersion": "v1.0.20190902",
  "DerivedVendorReportedEchoSpacing": 0.000560011,
  "DeviceSerialNumber": "167006",
  "DwellTime": 2.1e-06,
  "EchoTime": 0.037,
  "EchoTrainLength": 104,
  "EffectiveEchoSpacing": 0.000560011,
  "FlipAngle": 52,
  "ImageComments": "Unaliased_MB4_PE3_LB",
  "ImageOrientationPatientDICOM": [0.999607, -0.019974, 0.0196608, 0.0249536, 0.953659, -0.299854],
  "ImageType": [
    "ORIGINAL",
    "PRIMARY",
    "M",
    "MB",
    "ND",
    "MOSAIC"
],
  "ImagingFrequency": 123.259,
  "InPlanePhaseEncodingDirectionDICOM": "COL",
  "InstitutionAddress": "Chemin_Queen-Mary_4565_Montreal_District_CA_H3W_1W5",
  "InstitutionName": "IUGM",
  "InstitutionalDepartmentName": "Department",
  "MRAcquisitionType": "2D",
  "MagneticFieldStrength": 3,
  "Manufacturer": "Siemens",
  "ManufacturersModelName": "Prisma_fit",
  "Modality": "MR",
  "MultibandAccelerationFactor": 4,
  "PartialFourier": 1,
  "PatientPosition": "HFS",
  "PercentPhaseFOV": 100,
  "PhaseEncodingDirection": "j",
  "PhaseEncodingSteps": 104,
  "PhaseResolution": 1,
  "PixelBandwidth": 2290,
  "ProcedureStepDescription": "memory_things",
  "ProtocolName": "func_task-things_run-5",
  "PulseSequenceDetails": "%CustomerSeq%_cmrr_mbep2d_bold",
  "ReceiveCoilActiveElements": "HC1-7;NC1,2",
  "ReceiveCoilName": "HeadNeck_64",
  "ReconMatrixPE": 104,
  "RepetitionTime": 1.49,
  "SAR": 0.0308791,
  "ScanOptions": "FS",
  "ScanningSequence": "EP",
  "SequenceName": "epfid2d1_104",
  "SequenceVariant": "SK_SS",
  "SeriesDescription": "func_task-things_run-5",
  "SeriesNumber": 22,
  "ShimSetting": [627, -7270, -8815, 615, -7, -230, 7, -7],
  "SliceThickness": 2,
  "SliceTiming": [0, 0.785, 0.0975, 0.8825, 0.195, 0.98, 0.295, 1.0775, 0.3925, 1.175, 0.49, 1.275, 0.5875, 1.3725, 0.685, 0, 0.785, 0.0975, 0.8825, 0.195, 0.98, 0.295, 1.0775, 0.3925, 1.175, 0.49, 1.275, 0.5875, 1.3725, 0.685, 0, 0.785, 0.0975, 0.8825, 0.195, 0.98, 0.295, 1.0775, 0.3925, 1.175, 0.49, 1.275, 0.5875, 1.3725, 0.685, 0, 0.785, 0.0975, 0.8825, 0.195, 0.98, 0.295, 1.0775, 0.3925, 1.175, 0.49, 1.275, 0.5875, 1.3725, 0.685],
  "SoftwareVersions": "syngo_MR_E11",
  "SpacingBetweenSlices": 2,
  "StationName": "MRC35049",
  "TaskName": "things",
  "TotalReadoutTime": 0.0576811,
  "TxRefAmp": 218.267,
  "WipMemBlock": "ceefba3b-c498-4b70-a24b-7d91440961bc||Sequence: R016 ve11c/master r/e634e98; Dec 19 2017 11:00:25 by eja",
  "dcmmeta_affine": [
    [-1.9992142915725708, 0.049907173961400986, 0.02552083507180214, 103.4371566772461],
    [0.03994808346033096, 1.9073176383972168, -0.600452721118927, -69.52543640136719],
    [0.039321620017290115, 0.5997071266174316, 1.9075652360916138, -59.45892333984375],
    [0.0, 0.0, 0.0, 1.0]
],
  "dcmmeta_reorient_transform": [
    [0.0, -1.0, 0.0, 103.0],
    [1.0, 0.0, 0.0, 0.0],
    [0.0, 0.0, 1.0, 0.0],
    [0.0, 0.0, 0.0, 1.0]
],
  "dcmmeta_shape": [104, 104, 60, 190],
  "dcmmeta_slice_dim": 2,
  "dcmmeta_version": 0.6,
  "global": {
    "const": {
      "AcquisitionMatrix": [104, 0, 0, 104],
      "AngioFlag": "N",
      "BitsAllocated": 16,
      "BitsStored": 16,
      "BodyPartExamined": "BRAIN",
      "Columns": 832,
      "EchoNumbers": 1,
      "EchoTime": 37.0,
      "EchoTrainLength": 104,
      "FlipAngle": 52.0,
      "HighBit": 15,
      "ImageOrientationPatient": [0.99960716794681, -0.0199740420961, 0.01966080953836, 0.02495358778657, 0.95365883074422, -0.2998535525888],
      "ImagePositionPatient": [-854.45782939074, -806.65081167539, 206.29122632322],
      "ImageType": [
        "ORIGINAL",
        "PRIMARY",
        "M",
        "MB",
        "ND",
        "MOSAIC"
],
      "ImagedNucleus": "1H",
      "ImagingFrequency": 123.258935,
      "InPlanePhaseEncodingDirection": "COL",
      "MRAcquisitionType": "2D",
      "MagneticFieldStrength": 3.0,
      "Manufacturer": "SIEMENS",
      "ManufacturerModelName": "Prisma_fit",
      "Modality": "MR",
      "NumberOfAverages": 1.0,
      "NumberOfPhaseEncodingSteps": 104,
      "PercentPhaseFieldOfView": 100.0,
      "PercentSampling": 100.0,
      "PerformedProcedureStepStartTime": "152536.184000",
      "PhotometricInterpretation": "MONOCHROME2",
      "PixelBandwidth": 2290.0,
      "PixelRepresentation": 0,
      "PixelSpacing": [2.0, 2.0],
      "ProtocolName": "func_task-things_run-5",
      "RepetitionTime": 1490.0,
      "Rows": 832,
      "SAR": 0.03087906587526,
      "SamplesPerPixel": 1,
      "ScanOptions": "FS",
      "ScanningSequence": "EP",
      "SequenceName": "epfid2d1_104",
      "SequenceVariant": [
        "SK",
        "SS"
],
      "SeriesDescription": "func_task-things_run-5",
      "SeriesNumber": 22,
      "SeriesTime": "155532.574000",
      "SliceLocation": -34.517617513189,
      "SliceThickness": 2.0,
      "SmallestImagePixelValue": 0,
      "SoftwareVersions": "syngo MR E11",
      "SpacingBetweenSlices": 2.0000000346974,
      "SpecificCharacterSet": "ISO_IR 100",
      "StudyID": "1",
      "StudyTime": "152536.115000",
      "TransmitCoilName": "Body",
      "VariableFlipAngleFlag": "N",
      "WindowCenterWidthExplanation": "Algo1",
      "dBdt": 0.0},
    "slices": {}
  },
  "time": {
    "samples": {
      "AcquisitionNumber": [1, 2, 3, 4, 5, 6, 7, 8, 9, 10, 11, 12, 13, 14, 15, 16, 17, 18, 19, 20, 21, 22, 23, 24, 25, 26, 27, 28, 29, 30, 31, 32, 33, 34, 35, 36, 37, 38, 39, 40, 41, 42, 43, 44, 45, 46, 47, 48, 49, 50, 51, 52, 53, 54, 55, 56, 57, 58, 59, 60, 61, 62, 63, 64, 65, 66, 67, 68, 69, 70, 71, 72, 73, 74, 75, 76, 77, 78, 79, 80, 81, 82, 83, 84, 85, 86, 87, 88, 89, 90, 91, 92, 93, 94, 95, 96, 97, 98, 99, 100, 101, 102, 103, 104, 105, 106, 107, 108, 109, 110, 111, 112, 113, 114, 115, 116, 117, 118, 119, 120, 121, 122, 123, 124, 125, 126, 127, 128, 129, 130, 131, 132, 133, 134, 135, 136, 137, 138, 139, 140, 141, 142, 143, 144, 145, 146, 147, 148, 149, 150, 151, 152, 153, 154, 155, 156, 157, 158, 159, 160, 161, 162, 163, 164, 165, 166, 167, 168, 169, 170, 171, 172, 173, 174, 175, 176, 177, 178, 179, 180, 181, 182, 183, 184, 185, 186, 187, 188, 189, 190],
      "AcquisitionTime": ["155408.692500", "155410.182500", "155411.672500", "155413.162500", "155414.652500", "155416.142500", "155417.632500", "155419.122500", "155420.612500", "155422.102500", "155423.592500", "155425.082500", "155426.572500", "155428.062500", "155429.552500", "155431.042500", "155432.532500", "155434.022500", "155435.512500", "155437.002500", "155438.492500", "155439.982500", "155441.472500", "155442.962500", "155444.452500", "155445.942500", "155447.432500", "155448.922500", "155450.412500", "155451.902500", "155453.392500", "155454.882500", "155456.372500", "155457.862500", "155459.352500", "155500.842500", "155502.332500", "155503.822500", "155505.312500", "155506.802500", "155508.292500", "155509.782500", "155511.272500", "155512.762500", "155514.252500", "155515.742500", "155517.232500", "155518.722500", "155520.212500", "155521.702500", "155523.192500", "155524.682500", "155526.172500", "155527.662500", "155529.152500", "155530.642500", "155532.132500", "155533.622500", "155535.112500", "155536.602500", "155538.092500", "155539.582500", "155541.072500", "155542.562500", "155544.052500", "155545.542500", "155547.032500", "155548.522500", "155550.012500", "155551.502500", "155552.992500", "155554.482500", "155555.972500", "155557.462500", "155558.952500", "155600.442500", "155601.932500", "155603.422500", "155604.912500", "155606.402500", "155607.892500", "155609.382500", "155610.872500", "155612.362500", "155613.852500", "155615.342500", "155616.832500", "155618.322500", "155619.812500", "155621.302500", "155622.792500", "155624.282500", "155625.772500", "155627.262500", "155628.752500", "155630.242500", "155631.732500", "155633.222500", "155634.712500", "155636.202500", "155637.692500", "155639.182500", "155640.672500", "155642.162500", "155643.652500", "155645.142500", "155646.632500", "155648.122500", "155649.612500", "155651.102500", "155652.592500", "155654.082500", "155655.572500", "155657.062500", "155658.552500", "155700.042500", "155701.532500", "155703.022500", "155704.512500", "155706.002500", "155707.492500", "155708.982500", "155710.472500", "155711.962500", "155713.452500", "155714.942500", "155716.432500", "155717.922500", "155719.412500", "155720.902500", "155722.392500", "155723.882500", "155725.372500", "155726.862500", "155728.352500", "155729.842500", "155731.332500", "155732.822500", "155734.312500", "155735.802500", "155737.292500", "155738.782500", "155740.272500", "155741.762500", "155743.252500", "155744.742500", "155746.232500", "155747.722500", "155749.212500", "155750.702500", "155752.192500", "155753.682500", "155755.172500", "155756.662500", "155758.152500", "155759.642500", "155801.132500", "155802.622500", "155804.112500", "155805.602500", "155807.092500", "155808.582500", "155810.072500", "155811.562500", "155813.052500", "155814.542500", "155816.032500", "155817.522500", "155819.012500", "155820.502500", "155821.992500", "155823.482500", "155824.972500", "155826.462500", "155827.952500", "155829.442500", "155830.932500", "155832.422500", "155833.912500", "155835.402500", "155836.892500", "155838.382500", "155839.872500", "155841.362500", "155842.852500", "155844.342500", "155845.832500", "155847.322500", "155848.812500", "155850.302500"],
      "ContentTime": ["155532.577000", "155532.581000", "155532.585000", "155532.589000", "155532.592000", "155532.596000", "155532.600000", "155532.604000", "155532.618000", "155532.621000", "155532.625000", "155532.629000", "155532.632000", "155532.636000", "155532.639000", "155532.643000", "155532.646000", "155532.649000", "155532.653000", "155532.656000", "155532.660000", "155532.663000", "155532.667000", "155532.670000", "155532.673000", "155532.677000", "155532.680000", "155532.684000", "155532.687000", "155532.690000", "155552.528000", "155552.532000", "155552.535000", "155552.539000", "155552.542000", "155552.546000", "155552.549000", "155552.553000", "155552.556000", "155552.560000", "155552.563000", "155552.567000", "155552.570000", "155552.573000", "155552.577000", "155552.580000", "155552.584000", "155552.587000", "155552.590000", "155552.594000", "155612.529000", "155612.533000", "155612.537000", "155612.540000", "155612.544000", "155612.547000", "155612.550000", "155612.554000", "155612.557000", "155612.561000", "155612.564000", "155612.568000", "155612.571000", "155612.575000", "155612.578000", "155612.581000", "155612.585000", "155612.588000", "155612.592000", "155612.595000", "155612.599000", "155632.529000", "155632.533000", "155632.537000", "155632.540000", "155632.543000", "155632.547000", "155632.550000", "155632.554000", "155632.557000", "155632.561000", "155632.564000", "155632.568000", "155632.571000", "155632.575000", "155632.578000", "155632.582000", "155632.585000", "155632.589000", "155632.592000", "155632.595000", "155712.529000", "155712.533000", "155712.537000", "155712.540000", "155712.544000", "155712.547000", "155712.566000", "155712.570000", "155712.573000", "155712.577000", "155712.580000", "155712.584000", "155712.587000", "155712.590000", "155712.594000", "155712.597000", "155712.601000", "155712.604000", "155712.608000", "155712.611000", "155712.615000", "155712.618000", "155712.622000", "155712.625000", "155712.629000", "155712.632000", "155712.636000", "155712.639000", "155712.642000", "155712.646000", "155712.649000", "155712.653000", "155752.528000", "155752.532000", "155752.536000", "155752.539000", "155752.543000", "155752.546000", "155752.550000", "155752.553000", "155752.557000", "155752.560000", "155752.564000", "155752.567000", "155752.571000", "155752.574000", "155752.578000", "155752.581000", "155752.585000", "155752.588000", "155752.592000", "155752.595000", "155752.598000", "155752.602000", "155752.606000", "155752.610000", "155752.614000", "155752.618000", "155832.529000", "155832.533000", "155832.537000", "155832.540000", "155832.544000", "155832.547000", "155832.551000", "155832.554000", "155832.558000", "155832.561000", "155832.565000", "155832.568000", "155832.572000", "155832.575000", "155832.579000", "155832.582000", "155832.586000", "155832.589000", "155832.593000", "155832.596000", "155832.599000", "155832.603000", "155832.606000", "155832.610000", "155832.613000", "155832.617000", "155832.631000", "155852.289000", "155852.293000", "155852.296000", "155852.300000", "155852.311000", "155852.315000", "155852.318000", "155852.322000", "155852.326000", "155852.329000", "155852.333000", "155852.336000", "155852.340000", "155852.343000"],
      "InstanceCreationTime": ["155532.577000", "155532.581000", "155532.585000", "155532.589000", "155532.592000", "155532.596000", "155532.600000", "155532.604000", "155532.618000", "155532.621000", "155532.625000", "155532.629000", "155532.632000", "155532.636000", "155532.639000", "155532.643000", "155532.646000", "155532.649000", "155532.653000", "155532.656000", "155532.660000", "155532.663000", "155532.667000", "155532.670000", "155532.673000", "155532.677000", "155532.680000", "155532.684000", "155532.687000", "155532.690000", "155552.528000", "155552.532000", "155552.535000", "155552.539000", "155552.542000", "155552.546000", "155552.549000", "155552.553000", "155552.556000", "155552.560000", "155552.563000", "155552.567000", "155552.570000", "155552.573000", "155552.577000", "155552.580000", "155552.584000", "155552.587000", "155552.590000", "155552.594000", "155612.529000", "155612.533000", "155612.537000", "155612.540000", "155612.544000", "155612.547000", "155612.550000", "155612.554000", "155612.557000", "155612.561000", "155612.564000", "155612.568000", "155612.571000", "155612.575000", "155612.578000", "155612.581000", "155612.585000", "155612.588000", "155612.592000", "155612.595000", "155612.599000", "155632.529000", "155632.533000", "155632.537000", "155632.540000", "155632.543000", "155632.547000", "155632.550000", "155632.554000", "155632.557000", "155632.561000", "155632.564000", "155632.568000", "155632.571000", "155632.575000", "155632.578000", "155632.582000", "155632.585000", "155632.589000", "155632.592000", "155632.595000", "155712.529000", "155712.533000", "155712.537000", "155712.540000", "155712.544000", "155712.547000", "155712.566000", "155712.570000", "155712.573000", "155712.577000", "155712.580000", "155712.584000", "155712.587000", "155712.590000", "155712.594000", "155712.597000", "155712.601000", "155712.604000", "155712.608000", "155712.611000", "155712.615000", "155712.618000", "155712.622000", "155712.625000", "155712.629000", "155712.632000", "155712.636000", "155712.639000", "155712.642000", "155712.646000", "155712.649000", "155712.653000", "155752.528000", "155752.532000", "155752.536000", "155752.539000", "155752.543000", "155752.546000", "155752.550000", "155752.553000", "155752.557000", "155752.560000", "155752.564000", "155752.567000", "155752.571000", "155752.574000", "155752.578000", "155752.581000", "155752.585000", "155752.588000", "155752.592000", "155752.595000", "155752.598000", "155752.602000", "155752.606000", "155752.610000", "155752.614000", "155752.618000", "155832.529000", "155832.533000", "155832.537000", "155832.540000", "155832.544000", "155832.547000", "155832.551000", "155832.554000", "155832.558000", "155832.561000", "155832.565000", "155832.568000", "155832.572000", "155832.575000", "155832.579000", "155832.582000", "155832.586000", "155832.589000", "155832.593000", "155832.596000", "155832.599000", "155832.603000", "155832.606000", "155832.610000", "155832.613000", "155832.617000", "155832.631000", "155852.289000", "155852.293000", "155852.296000", "155852.300000", "155852.311000", "155852.315000", "155852.318000", "155852.322000", "155852.326000", "155852.329000", "155852.333000", "155852.336000", "155852.340000", "155852.343000"],
      "InstanceNumber": [1, 2, 3, 4, 5, 6, 7, 8, 9, 10, 11, 12, 13, 14, 15, 16, 17, 18, 19, 20, 21, 22, 23, 24, 25, 26, 27, 28, 29, 30, 31, 32, 33, 34, 35, 36, 37, 38, 39, 40, 41, 42, 43, 44, 45, 46, 47, 48, 49, 50, 51, 52, 53, 54, 55, 56, 57, 58, 59, 60, 61, 62, 63, 64, 65, 66, 67, 68, 69, 70, 71, 72, 73, 74, 75, 76, 77, 78, 79, 80, 81, 82, 83, 84, 85, 86, 87, 88, 89, 90, 91, 92, 93, 94, 95, 96, 97, 98, 99, 100, 101, 102, 103, 104, 105, 106, 107, 108, 109, 110, 111, 112, 113, 114, 115, 116, 117, 118, 119, 120, 121, 122, 123, 124, 125, 126, 127, 128, 129, 130, 131, 132, 133, 134, 135, 136, 137, 138, 139, 140, 141, 142, 143, 144, 145, 146, 147, 148, 149, 150, 151, 152, 153, 154, 155, 156, 157, 158, 159, 160, 161, 162, 163, 164, 165, 166, 167, 168, 169, 170, 171, 172, 173, 174, 175, 176, 177, 178, 179, 180, 181, 182, 183, 184, 185, 186, 187, 188, 189, 190],
      "LargestImagePixelValue": [46210, 44759, 43993, 43934, 43614, 43567, 43442, 43228, 43526, 42806, 43647, 43166, 43137, 43175, 42784, 43231, 42100, 42925, 43685, 42138, 42824, 42555, 42581, 42913, 43317, 42900, 42965, 42221, 42672, 42933, 42512, 43200, 42930, 43184, 42562, 42583, 43274, 42744, 43222, 42985, 43274, 43320, 42551, 42719, 42463, 42858, 43064, 42933, 43309, 42813, 42940, 43366, 42859, 42944, 42612, 42918, 42740, 42698, 42190, 42955, 42777, 42322, 43267, 42588, 43204, 42872, 42681, 42790, 43174, 42493, 42526, 42205, 43128, 42363, 40231, 40355, 40862, 42236, 40647, 41377, 41615, 41757, 41255, 41074, 40459, 40191, 41231, 41438, 42019, 41885, 42646, 42308, 41056, 41158, 40978, 41740, 41442, 42101, 42366, 42293, 42377, 41679, 42409, 42108, 41132, 42062, 41127, 42161, 41883, 42206, 42595, 42163, 42241, 41990, 42349, 41754, 42871, 41518, 40828, 40419, 41045, 42375, 41820, 41438, 41616, 41335, 41573, 41247, 41747, 43033, 40884, 40575, 41553, 41900, 42477, 42169, 42100, 41998, 42055, 41812, 42224, 42227, 42292, 42234, 42377, 42308, 42291, 42080, 42403, 42108, 42114, 41423, 41593, 41142, 41194, 41322, 41332, 41604, 41721, 40842, 41670, 40502, 40709, 41209, 41808, 40713, 40430, 40629, 41513, 40790, 40325, 40492, 41173, 40497, 40309, 40216, 40301, 40390, 40545, 40373, 40673, 40438, 40534, 40910, 40673, 40215, 40222, 40652, 40851, 40872],
      "WindowCenter": [10391.0, 10341.0, 10313.0, 10300.0, 10306.0, 10320.0, 10321.0, 10315.0, 10313.0, 10307.0, 10319.0, 10329.0, 10322.0, 10308.0, 10299.0, 10288.0, 10273.0, 10292.0, 10323.0, 10300.0, 10281.0, 10253.0, 10261.0, 10285.0, 10296.0, 10283.0, 10266.0, 10257.0, 10263.0, 10272.0, 10280.0, 10286.0, 10289.0, 10298.0, 10297.0, 10282.0, 10302.0, 10308.0, 10311.0, 10312.0, 10312.0, 10297.0, 10274.0, 10264.0, 10270.0, 10286.0, 10287.0, 10286.0, 10279.0, 10278.0, 10294.0, 10294.0, 10287.0, 10281.0, 10273.0, 10272.0, 10277.0, 10296.0, 10295.0, 10297.0, 10297.0, 10297.0, 10304.0, 10298.0, 10303.0, 10314.0, 10331.0, 10316.0, 10296.0, 10273.0, 10273.0, 10289.0, 10309.0, 10298.0, 10267.0, 10271.0, 10272.0, 10281.0, 10265.0, 10239.0, 10220.0, 10241.0, 10293.0, 10296.0, 10260.0, 10233.0, 10230.0, 10235.0, 10249.0, 10260.0, 10260.0, 10273.0, 10280.0, 10282.0, 10266.0, 10261.0, 10277.0, 10301.0, 10296.0, 10272.0, 10275.0, 10289.0, 10309.0, 10309.0, 10303.0, 10311.0, 10299.0, 10304.0, 10294.0, 10278.0, 10281.0, 10282.0, 10283.0, 10276.0, 10276.0, 10277.0, 10309.0, 10324.0, 10305.0, 10270.0, 10266.0, 10265.0, 10262.0, 10245.0, 10234.0, 10214.0, 10240.0, 10278.0, 10285.0, 10303.0, 10281.0, 10256.0, 10243.0, 10247.0, 10273.0, 10279.0, 10257.0, 10242.0, 10241.0, 10244.0, 10255.0, 10256.0, 10280.0, 10298.0, 10283.0, 10272.0, 10280.0, 10281.0, 10294.0, 10313.0, 10309.0, 10294.0, 10299.0, 10280.0, 10277.0, 10268.0, 10245.0, 10245.0, 10257.0, 10275.0, 10258.0, 10235.0, 10244.0, 10264.0, 10254.0, 10228.0, 10213.0, 10218.0, 10228.0, 10246.0, 10269.0, 10249.0, 10234.0, 10239.0, 10249.0, 10235.0, 10211.0, 10208.0, 10231.0, 10256.0, 10258.0, 10231.0, 10217.0, 10215.0, 10245.0, 10282.0, 10296.0, 10288.0, 10275.0, 10265.0],
      "WindowWidth": [22491.0, 22340.0, 22253.0, 22212.0, 22215.0, 22243.0, 22242.0, 22225.0, 22219.0, 22211.0, 22235.0, 22257.0, 22241.0, 22210.0, 22189.0, 22165.0, 22131.0, 22169.0, 22238.0, 22195.0, 22148.0, 22087.0, 22102.0, 22155.0, 22184.0, 22153.0, 22113.0, 22094.0, 22106.0, 22128.0, 22145.0, 22157.0, 22165.0, 22186.0, 22188.0, 22156.0, 22195.0, 22209.0, 22217.0, 22220.0, 22218.0, 22186.0, 22132.0, 22108.0, 22124.0, 22160.0, 22163.0, 22159.0, 22145.0, 22140.0, 22176.0, 22178.0, 22162.0, 22149.0, 22130.0, 22125.0, 22136.0, 22184.0, 22185.0, 22187.0, 22186.0, 22187.0, 22200.0, 22189.0, 22199.0, 22225.0, 22266.0, 22230.0, 22181.0, 22131.0, 22132.0, 22171.0, 22216.0, 22194.0, 22125.0, 22138.0, 22136.0, 22154.0, 22121.0, 22060.0, 22014.0, 22063.0, 22189.0, 22195.0, 22115.0, 22049.0, 22037.0, 22048.0, 22080.0, 22102.0, 22102.0, 22131.0, 22153.0, 22160.0, 22123.0, 22110.0, 22145.0, 22198.0, 22184.0, 22130.0, 22135.0, 22171.0, 22215.0, 22215.0, 22206.0, 22220.0, 22198.0, 22208.0, 22182.0, 22145.0, 22145.0, 22148.0, 22152.0, 22140.0, 22141.0, 22144.0, 22209.0, 22253.0, 22215.0, 22138.0, 22119.0, 22109.0, 22103.0, 22070.0, 22043.0, 21999.0, 22057.0, 22150.0, 22161.0, 22194.0, 22150.0, 22094.0, 22058.0, 22064.0, 22113.0, 22132.0, 22081.0, 22044.0, 22045.0, 22059.0, 22082.0, 22086.0, 22138.0, 22180.0, 22145.0, 22119.0, 22138.0, 22139.0, 22169.0, 22212.0, 22204.0, 22175.0, 22184.0, 22140.0, 22132.0, 22115.0, 22066.0, 22058.0, 22086.0, 22131.0, 22092.0, 22047.0, 22069.0, 22113.0, 22080.0, 22024.0, 21994.0, 22001.0, 22018.0, 22064.0, 22118.0, 22073.0, 22036.0, 22046.0, 22070.0, 22039.0, 21985.0, 21976.0, 22026.0, 22083.0, 22090.0, 22032.0, 21995.0, 21992.0, 22059.0, 22148.0, 22186.0, 22168.0, 22131.0, 22108.0]
    },
    "slices": {}
  }
}