{
  "AcquisitionMatrixPE": 104,
  "AcquisitionNumber": 1,
  "AcquisitionTime": "15:33:26.420000",
  "BandwidthPerPixelPhaseEncode": 17.17,
  "BaseResolution": 104,
  "BodyPartExamined": "BRAIN",
  "CoilString": "HC1-7;NC1_2",
  "ConsistencyInfo": "N4_VE11C_LATEST_20160120",
  "ConversionSoftware": "dcm2niix",
  "ConversionSoftwareVersion": "v1.0.20190902",
  "DerivedVendorReportedEchoSpacing": 0.000560011,
  "DeviceSerialNumber": "167006",
  "DwellTime": 2.1e-06,
  "EchoTime": 0.037,
  "EchoTrainLength": 104,
  "EffectiveEchoSpacing": 0.000560011,
  "FlipAngle": 52,
  "ImageComments": "Unaliased_MB4_PE3_LB",
  "ImageOrientationPatientDICOM": [0.999607, -0.019974, 0.0196608, 0.0249536, 0.953659, -0.299854],
  "ImageType": [
    "ORIGINAL",
    "PRIMARY",
    "M",
    "MB",
    "ND",
    "MOSAIC"
],
  "ImagingFrequency": 123.259,
  "InPlanePhaseEncodingDirectionDICOM": "COL",
  "InstitutionAddress": "Chemin_Queen-Mary_4565_Montreal_District_CA_H3W_1W5",
  "InstitutionName": "IUGM",
  "InstitutionalDepartmentName": "Department",
  "MRAcquisitionType": "2D",
  "MagneticFieldStrength": 3,
  "Manufacturer": "Siemens",
  "ManufacturersModelName": "Prisma_fit",
  "Modality": "MR",
  "MultibandAccelerationFactor": 4,
  "PartialFourier": 1,
  "PatientPosition": "HFS",
  "PercentPhaseFOV": 100,
  "PhaseEncodingDirection": "j",
  "PhaseEncodingSteps": 104,
  "PhaseResolution": 1,
  "PixelBandwidth": 2290,
  "ProcedureStepDescription": "memory_things",
  "ProtocolName": "func_task-things_run-1",
  "PulseSequenceDetails": "%CustomerSeq%_cmrr_mbep2d_bold",
  "ReceiveCoilActiveElements": "HC1-7;NC1,2",
  "ReceiveCoilName": "HeadNeck_64",
  "ReconMatrixPE": 104,
  "RepetitionTime": 1.49,
  "SAR": 0.0308791,
  "ScanOptions": "FS",
  "ScanningSequence": "EP",
  "SequenceName": "epfid2d1_104",
  "SequenceVariant": "SK_SS",
  "SeriesDescription": "func_task-things_run-1",
  "SeriesNumber": 10,
  "ShimSetting": [627, -7270, -8815, 615, -7, -230, 7, -7],
  "SliceThickness": 2,
  "SliceTiming": [0, 0.785, 0.0975, 0.8825, 0.195, 0.98, 0.295, 1.0775, 0.3925, 1.175, 0.49, 1.275, 0.5875, 1.3725, 0.685, 0, 0.785, 0.0975, 0.8825, 0.195, 0.98, 0.295, 1.0775, 0.3925, 1.175, 0.49, 1.275, 0.5875, 1.3725, 0.685, 0, 0.785, 0.0975, 0.8825, 0.195, 0.98, 0.295, 1.0775, 0.3925, 1.175, 0.49, 1.275, 0.5875, 1.3725, 0.685, 0, 0.785, 0.0975, 0.8825, 0.195, 0.98, 0.295, 1.0775, 0.3925, 1.175, 0.49, 1.275, 0.5875, 1.3725, 0.685],
  "SoftwareVersions": "syngo_MR_E11",
  "SpacingBetweenSlices": 2,
  "StationName": "MRC35049",
  "TaskName": "things",
  "TotalReadoutTime": 0.0576811,
  "TxRefAmp": 218.267,
  "WipMemBlock": "41b52585-058d-42fa-b21e-145366cf78c5||Sequence: R016 ve11c/master r/e634e98; Dec 19 2017 11:00:25 by eja",
  "dcmmeta_affine": [
    [-1.9992142915725708, 0.049907173961400986, 0.02552083507180214, 103.4371566772461],
    [0.03994808346033096, 1.9073176383972168, -0.600452721118927, -69.52543640136719],
    [0.039321620017290115, 0.5997071266174316, 1.9075652360916138, -59.45892333984375],
    [0.0, 0.0, 0.0, 1.0]
],
  "dcmmeta_reorient_transform": [
    [0.0, -1.0, 0.0, 103.0],
    [1.0, 0.0, 0.0, 0.0],
    [0.0, 0.0, 1.0, 0.0],
    [0.0, 0.0, 0.0, 1.0]
],
  "dcmmeta_shape": [104, 104, 60, 190],
  "dcmmeta_slice_dim": 2,
  "dcmmeta_version": 0.6,
  "global": {
    "const": {
      "AcquisitionMatrix": [104, 0, 0, 104],
      "AngioFlag": "N",
      "BitsAllocated": 16,
      "BitsStored": 16,
      "BodyPartExamined": "BRAIN",
      "Columns": 832,
      "EchoNumbers": 1,
      "EchoTime": 37.0,
      "EchoTrainLength": 104,
      "FlipAngle": 52.0,
      "HighBit": 15,
      "ImageOrientationPatient": [0.99960716794681, -0.0199740420961, 0.01966080953836, 0.02495358778657, 0.95365883074422, -0.2998535525888],
      "ImagePositionPatient": [-854.45782939074, -806.65081167539, 206.29122632322],
      "ImageType": [
        "ORIGINAL",
        "PRIMARY",
        "M",
        "MB",
        "ND",
        "MOSAIC"
],
      "ImagedNucleus": "1H",
      "ImagingFrequency": 123.258923,
      "InPlanePhaseEncodingDirection": "COL",
      "MRAcquisitionType": "2D",
      "MagneticFieldStrength": 3.0,
      "Manufacturer": "SIEMENS",
      "ManufacturerModelName": "Prisma_fit",
      "Modality": "MR",
      "NumberOfAverages": 1.0,
      "NumberOfPhaseEncodingSteps": 104,
      "PercentPhaseFieldOfView": 100.0,
      "PercentSampling": 100.0,
      "PerformedProcedureStepStartTime": "152536.184000",
      "PhotometricInterpretation": "MONOCHROME2",
      "PixelBandwidth": 2290.0,
      "PixelRepresentation": 0,
      "PixelSpacing": [2.0, 2.0],
      "ProtocolName": "func_task-things_run-1",
      "RepetitionTime": 1490.0,
      "Rows": 832,
      "SAR": 0.03087906587526,
      "SamplesPerPixel": 1,
      "ScanOptions": "FS",
      "ScanningSequence": "EP",
      "SequenceName": "epfid2d1_104",
      "SequenceVariant": [
        "SK",
        "SS"
],
      "SeriesDescription": "func_task-things_run-1",
      "SeriesNumber": 10,
      "SeriesTime": "153458.516000",
      "SliceLocation": -34.517617513189,
      "SliceThickness": 2.0,
      "SmallestImagePixelValue": 0,
      "SoftwareVersions": "syngo MR E11",
      "SpacingBetweenSlices": 2.0000000346974,
      "SpecificCharacterSet": "ISO_IR 100",
      "StudyID": "1",
      "StudyTime": "152536.115000",
      "TransmitCoilName": "Body",
      "VariableFlipAngleFlag": "N",
      "WindowCenterWidthExplanation": "Algo1",
      "dBdt": 0.0},
    "slices": {}
  },
  "time": {
    "samples": {
      "AcquisitionNumber": [1, 2, 3, 4, 5, 6, 7, 8, 9, 10, 11, 12, 13, 14, 15, 16, 17, 18, 19, 20, 21, 22, 23, 24, 25, 26, 27, 28, 29, 30, 31, 32, 33, 34, 35, 36, 37, 38, 39, 40, 41, 42, 43, 44, 45, 46, 47, 48, 49, 50, 51, 52, 53, 54, 55, 56, 57, 58, 59, 60, 61, 62, 63, 64, 65, 66, 67, 68, 69, 70, 71, 72, 73, 74, 75, 76, 77, 78, 79, 80, 81, 82, 83, 84, 85, 86, 87, 88, 89, 90, 91, 92, 93, 94, 95, 96, 97, 98, 99, 100, 101, 102, 103, 104, 105, 106, 107, 108, 109, 110, 111, 112, 113, 114, 115, 116, 117, 118, 119, 120, 121, 122, 123, 124, 125, 126, 127, 128, 129, 130, 131, 132, 133, 134, 135, 136, 137, 138, 139, 140, 141, 142, 143, 144, 145, 146, 147, 148, 149, 150, 151, 152, 153, 154, 155, 156, 157, 158, 159, 160, 161, 162, 163, 164, 165, 166, 167, 168, 169, 170, 171, 172, 173, 174, 175, 176, 177, 178, 179, 180, 181, 182, 183, 184, 185, 186, 187, 188, 189, 190],
      "AcquisitionTime": ["153326.420000", "153327.910000", "153329.400000", "153330.890000", "153332.380000", "153333.870000", "153335.360000", "153336.850000", "153338.340000", "153339.830000", "153341.320000", "153342.810000", "153344.300000", "153345.790000", "153347.280000", "153348.770000", "153350.260000", "153351.750000", "153353.240000", "153354.730000", "153356.220000", "153357.710000", "153359.200000", "153400.690000", "153402.180000", "153403.670000", "153405.160000", "153406.650000", "153408.140000", "153409.630000", "153411.120000", "153412.610000", "153414.100000", "153415.590000", "153417.080000", "153418.570000", "153420.060000", "153421.550000", "153423.040000", "153424.530000", "153426.020000", "153427.510000", "153429.000000", "153430.490000", "153431.980000", "153433.470000", "153434.960000", "153436.450000", "153437.940000", "153439.430000", "153440.920000", "153442.410000", "153443.900000", "153445.390000", "153446.880000", "153448.370000", "153449.860000", "153451.350000", "153452.840000", "153454.330000", "153455.820000", "153457.310000", "153458.800000", "153500.290000", "153501.780000", "153503.270000", "153504.760000", "153506.250000", "153507.740000", "153509.230000", "153510.720000", "153512.210000", "153513.700000", "153515.190000", "153516.680000", "153518.170000", "153519.660000", "153521.150000", "153522.640000", "153524.130000", "153525.620000", "153527.110000", "153528.600000", "153530.090000", "153531.580000", "153533.070000", "153534.560000", "153536.050000", "153537.540000", "153539.030000", "153540.520000", "153542.010000", "153543.500000", "153544.990000", "153546.480000", "153547.970000", "153549.460000", "153550.950000", "153552.440000", "153553.930000", "153555.420000", "153556.910000", "153558.400000", "153559.890000", "153601.380000", "153602.870000", "153604.360000", "153605.850000", "153607.340000", "153608.830000", "153610.320000", "153611.810000", "153613.300000", "153614.790000", "153616.280000", "153617.770000", "153619.260000", "153620.750000", "153622.240000", "153623.730000", "153625.220000", "153626.710000", "153628.200000", "153629.690000", "153631.180000", "153632.670000", "153634.160000", "153635.650000", "153637.140000", "153638.630000", "153640.120000", "153641.610000", "153643.100000", "153644.590000", "153646.080000", "153647.570000", "153649.060000", "153650.550000", "153652.040000", "153653.530000", "153655.020000", "153656.510000", "153658.000000", "153659.490000", "153700.980000", "153702.470000", "153703.960000", "153705.450000", "153706.940000", "153708.430000", "153709.920000", "153711.410000", "153712.900000", "153714.390000", "153715.880000", "153717.370000", "153718.860000", "153720.350000", "153721.840000", "153723.330000", "153724.820000", "153726.310000", "153727.800000", "153729.290000", "153730.780000", "153732.270000", "153733.760000", "153735.250000", "153736.740000", "153738.230000", "153739.720000", "153741.210000", "153742.700000", "153744.190000", "153745.680000", "153747.170000", "153748.660000", "153750.150000", "153751.640000", "153753.130000", "153754.620000", "153756.110000", "153757.600000", "153759.090000", "153800.580000", "153802.070000", "153803.560000", "153805.050000", "153806.540000", "153808.030000"],
      "ContentTime": ["153458.519000", "153458.523000", "153458.526000", "153458.530000", "153458.533000", "153458.537000", "153458.544000", "153458.547000", "153458.550000", "153458.554000", "153458.557000", "153458.561000", "153458.564000", "153458.568000", "153458.571000", "153458.575000", "153458.578000", "153458.581000", "153458.585000", "153458.588000", "153458.592000", "153458.595000", "153458.599000", "153458.602000", "153458.606000", "153458.609000", "153458.612000", "153458.616000", "153458.619000", "153458.623000", "153458.626000", "153458.630000", "153458.633000", "153458.636000", "153458.640000", "153458.643000", "153458.647000", "153518.480000", "153518.484000", "153518.493000", "153518.496000", "153518.500000", "153518.503000", "153518.507000", "153518.510000", "153518.514000", "153518.517000", "153518.520000", "153518.524000", "153518.527000", "153518.531000", "153518.534000", "153518.538000", "153518.541000", "153518.544000", "153518.548000", "153518.551000", "153538.480000", "153538.484000", "153538.488000", "153538.491000", "153538.494000", "153538.498000", "153538.501000", "153538.505000", "153538.508000", "153538.511000", "153538.515000", "153538.518000", "153538.522000", "153538.525000", "153538.528000", "153538.532000", "153538.535000", "153538.539000", "153538.542000", "153538.546000", "153558.480000", "153558.484000", "153558.488000", "153558.491000", "153558.494000", "153558.498000", "153558.502000", "153558.505000", "153558.509000", "153558.512000", "153558.516000", "153558.519000", "153558.522000", "153558.526000", "153558.529000", "153558.533000", "153558.536000", "153558.540000", "153558.543000", "153558.547000", "153638.479000", "153638.483000", "153638.487000", "153638.490000", "153638.494000", "153638.497000", "153638.501000", "153638.504000", "153638.508000", "153638.511000", "153638.514000", "153638.518000", "153638.521000", "153638.525000", "153638.528000", "153638.532000", "153638.535000", "153638.539000", "153638.542000", "153638.546000", "153638.549000", "153638.552000", "153638.556000", "153638.559000", "153638.563000", "153638.566000", "153638.570000", "153638.573000", "153638.577000", "153638.580000", "153638.584000", "153718.480000", "153718.484000", "153718.487000", "153718.491000", "153718.495000", "153718.498000", "153718.501000", "153718.505000", "153718.508000", "153718.512000", "153718.515000", "153718.519000", "153718.522000", "153718.526000", "153718.529000", "153718.532000", "153718.536000", "153718.539000", "153718.543000", "153718.546000", "153718.550000", "153718.553000", "153718.557000", "153718.560000", "153718.564000", "153718.567000", "153718.571000", "153758.480000", "153758.484000", "153758.494000", "153758.497000", "153758.500000", "153758.504000", "153758.507000", "153758.511000", "153758.514000", "153758.518000", "153758.521000", "153758.525000", "153758.528000", "153758.532000", "153758.535000", "153758.539000", "153758.542000", "153758.545000", "153758.549000", "153758.552000", "153758.556000", "153758.559000", "153758.563000", "153758.566000", "153758.570000", "153758.573000", "153758.577000", "153810.393000", "153810.397000", "153810.400000", "153810.403000", "153810.414000", "153810.418000", "153810.421000", "153810.425000"],
      "InstanceCreationTime": ["153458.519000", "153458.523000", "153458.526000", "153458.530000", "153458.533000", "153458.537000", "153458.544000", "153458.547000", "153458.550000", "153458.554000", "153458.557000", "153458.561000", "153458.564000", "153458.568000", "153458.571000", "153458.575000", "153458.578000", "153458.581000", "153458.585000", "153458.588000", "153458.592000", "153458.595000", "153458.599000", "153458.602000", "153458.606000", "153458.609000", "153458.612000", "153458.616000", "153458.619000", "153458.623000", "153458.626000", "153458.630000", "153458.633000", "153458.636000", "153458.640000", "153458.643000", "153458.647000", "153518.480000", "153518.484000", "153518.493000", "153518.496000", "153518.500000", "153518.503000", "153518.507000", "153518.510000", "153518.514000", "153518.517000", "153518.520000", "153518.524000", "153518.527000", "153518.531000", "153518.534000", "153518.538000", "153518.541000", "153518.544000", "153518.548000", "153518.551000", "153538.480000", "153538.484000", "153538.488000", "153538.491000", "153538.494000", "153538.498000", "153538.501000", "153538.505000", "153538.508000", "153538.511000", "153538.515000", "153538.518000", "153538.522000", "153538.525000", "153538.528000", "153538.532000", "153538.535000", "153538.539000", "153538.542000", "153538.546000", "153558.480000", "153558.484000", "153558.488000", "153558.491000", "153558.494000", "153558.498000", "153558.502000", "153558.505000", "153558.509000", "153558.512000", "153558.516000", "153558.519000", "153558.522000", "153558.526000", "153558.529000", "153558.533000", "153558.536000", "153558.540000", "153558.543000", "153558.547000", "153638.479000", "153638.483000", "153638.487000", "153638.490000", "153638.494000", "153638.497000", "153638.501000", "153638.504000", "153638.508000", "153638.511000", "153638.514000", "153638.518000", "153638.521000", "153638.525000", "153638.528000", "153638.532000", "153638.535000", "153638.539000", "153638.542000", "153638.546000", "153638.549000", "153638.552000", "153638.556000", "153638.559000", "153638.563000", "153638.566000", "153638.570000", "153638.573000", "153638.577000", "153638.580000", "153638.584000", "153718.480000", "153718.484000", "153718.487000", "153718.491000", "153718.495000", "153718.498000", "153718.501000", "153718.505000", "153718.508000", "153718.512000", "153718.515000", "153718.519000", "153718.522000", "153718.526000", "153718.529000", "153718.532000", "153718.536000", "153718.539000", "153718.543000", "153718.546000", "153718.550000", "153718.553000", "153718.557000", "153718.560000", "153718.564000", "153718.567000", "153718.571000", "153758.480000", "153758.484000", "153758.494000", "153758.497000", "153758.500000", "153758.504000", "153758.507000", "153758.511000", "153758.514000", "153758.518000", "153758.521000", "153758.525000", "153758.528000", "153758.532000", "153758.535000", "153758.539000", "153758.542000", "153758.545000", "153758.549000", "153758.552000", "153758.556000", "153758.559000", "153758.563000", "153758.566000", "153758.570000", "153758.573000", "153758.577000", "153810.393000", "153810.397000", "153810.400000", "153810.403000", "153810.414000", "153810.418000", "153810.421000", "153810.425000"],
      "InstanceNumber": [1, 2, 3, 4, 5, 6, 7, 8, 9, 10, 11, 12, 13, 14, 15, 16, 17, 18, 19, 20, 21, 22, 23, 24, 25, 26, 27, 28, 29, 30, 31, 32, 33, 34, 35, 36, 37, 38, 39, 40, 41, 42, 43, 44, 45, 46, 47, 48, 49, 50, 51, 52, 53, 54, 55, 56, 57, 58, 59, 60, 61, 62, 63, 64, 65, 66, 67, 68, 69, 70, 71, 72, 73, 74, 75, 76, 77, 78, 79, 80, 81, 82, 83, 84, 85, 86, 87, 88, 89, 90, 91, 92, 93, 94, 95, 96, 97, 98, 99, 100, 101, 102, 103, 104, 105, 106, 107, 108, 109, 110, 111, 112, 113, 114, 115, 116, 117, 118, 119, 120, 121, 122, 123, 124, 125, 126, 127, 128, 129, 130, 131, 132, 133, 134, 135, 136, 137, 138, 139, 140, 141, 142, 143, 144, 145, 146, 147, 148, 149, 150, 151, 152, 153, 154, 155, 156, 157, 158, 159, 160, 161, 162, 163, 164, 165, 166, 167, 168, 169, 170, 171, 172, 173, 174, 175, 176, 177, 178, 179, 180, 181, 182, 183, 184, 185, 186, 187, 188, 189, 190],
      "LargestImagePixelValue": [46816, 45758, 45042, 42723, 42051, 43417, 42057, 41938, 42015, 42374, 42809, 43115, 43437, 42327, 42406, 43012, 42078, 42360, 42988, 42084, 42324, 43290, 42463, 42412, 43478, 42475, 42937, 42592, 42740, 42423, 42461, 42330, 42208, 42897, 41957, 41857, 42931, 43249, 42291, 42768, 43325, 41887, 42141, 42956, 41395, 42949, 42904, 42019, 42720, 43331, 42432, 42945, 42401, 42484, 42789, 42149, 42676, 42635, 43046, 42609, 43436, 42100, 42128, 42267, 43515, 42480, 43173, 42273, 41886, 42875, 42810, 42022, 42552, 42408, 42467, 42393, 42142, 42288, 43366, 41841, 42774, 42851, 41219, 42464, 41260, 42730, 41613, 42082, 42439, 41653, 42084, 41982, 40894, 42468, 41709, 41597, 42363, 42520, 41440, 42251, 41996, 42209, 42249, 41437, 42657, 41238, 41894, 41556, 41717, 42531, 41849, 42354, 41622, 40955, 41570, 42416, 40588, 41679, 42358, 41658, 41810, 42454, 41580, 41304, 41985, 41492, 42348, 42175, 41447, 41007, 41874, 40487, 41600, 42041, 40495, 42437, 41160, 41929, 41952, 40599, 42534, 41162, 41889, 41506, 42293, 40692, 42131, 41494, 40600, 41971, 41295, 41344, 42340, 41638, 41576, 41920, 40803, 41987, 40621, 41792, 42468, 41096, 42232, 42722, 41247, 40930, 42020, 41176, 42280, 41325, 41390, 41445, 42015, 41279, 41949, 42057, 41094, 40671, 41629, 41274, 41244, 41912, 41677, 41683, 41493, 41490, 41559, 42289, 41369, 42630],
      "WindowCenter": [10465.0, 10408.0, 10378.0, 10363.0, 10361.0, 10396.0, 10384.0, 10352.0, 10327.0, 10316.0, 10328.0, 10329.0, 10320.0, 10294.0, 10294.0, 10308.0, 10318.0, 10338.0, 10340.0, 10327.0, 10335.0, 10346.0, 10345.0, 10362.0, 10374.0, 10356.0, 10358.0, 10336.0, 10325.0, 10334.0, 10328.0, 10319.0, 10326.0, 10337.0, 10327.0, 10336.0, 10347.0, 10345.0, 10352.0, 10358.0, 10354.0, 10330.0, 10328.0, 10336.0, 10338.0, 10348.0, 10332.0, 10321.0, 10325.0, 10335.0, 10337.0, 10346.0, 10335.0, 10339.0, 10339.0, 10340.0, 10348.0, 10333.0, 10331.0, 10340.0, 10340.0, 10314.0, 10310.0, 10320.0, 10345.0, 10350.0, 10342.0, 10320.0, 10320.0, 10339.0, 10352.0, 10360.0, 10344.0, 10327.0, 10318.0, 10310.0, 10309.0, 10318.0, 10337.0, 10314.0, 10318.0, 10318.0, 10301.0, 10317.0, 10321.0, 10338.0, 10320.0, 10326.0, 10335.0, 10343.0, 10341.0, 10324.0, 10302.0, 10311.0, 10307.0, 10323.0, 10317.0, 10324.0, 10330.0, 10332.0, 10316.0, 10313.0, 10320.0, 10312.0, 10321.0, 10303.0, 10313.0, 10316.0, 10310.0, 10319.0, 10329.0, 10331.0, 10309.0, 10296.0, 10292.0, 10309.0, 10313.0, 10312.0, 10305.0, 10300.0, 10313.0, 10325.0, 10325.0, 10315.0, 10309.0, 10301.0, 10320.0, 10335.0, 10341.0, 10321.0, 10314.0, 10297.0, 10299.0, 10290.0, 10279.0, 10295.0, 10292.0, 10305.0, 10306.0, 10303.0, 10312.0, 10302.0, 10314.0, 10314.0, 10320.0, 10306.0, 10322.0, 10316.0, 10306.0, 10315.0, 10311.0, 10318.0, 10308.0, 10292.0, 10299.0, 10307.0, 10296.0, 10297.0, 10281.0, 10299.0, 10320.0, 10321.0, 10316.0, 10324.0, 10324.0, 10321.0, 10316.0, 10295.0, 10305.0, 10294.0, 10293.0, 10273.0, 10289.0, 10308.0, 10314.0, 10298.0, 10288.0, 10282.0, 10297.0, 10300.0, 10295.0, 10290.0, 10290.0, 10292.0, 10284.0, 10293.0, 10295.0, 10313.0, 10311.0, 10323.0],
      "WindowWidth": [22645.0, 22480.0, 22387.0, 22345.0, 22339.0, 22403.0, 22382.0, 22308.0, 22247.0, 22218.0, 22238.0, 22242.0, 22221.0, 22163.0, 22165.0, 22200.0, 22226.0, 22270.0, 22272.0, 22244.0, 22262.0, 22285.0, 22281.0, 22318.0, 22343.0, 22306.0, 22311.0, 22264.0, 22234.0, 22254.0, 22246.0, 22223.0, 22237.0, 22261.0, 22241.0, 22263.0, 22285.0, 22281.0, 22300.0, 22312.0, 22300.0, 22249.0, 22246.0, 22260.0, 22270.0, 22290.0, 22252.0, 22228.0, 22237.0, 22256.0, 22261.0, 22284.0, 22260.0, 22268.0, 22271.0, 22271.0, 22290.0, 22255.0, 22247.0, 22271.0, 22271.0, 22213.0, 22202.0, 22227.0, 22280.0, 22296.0, 22276.0, 22225.0, 22225.0, 22268.0, 22296.0, 22320.0, 22281.0, 22238.0, 22219.0, 22204.0, 22202.0, 22221.0, 22261.0, 22214.0, 22223.0, 22220.0, 22188.0, 22216.0, 22230.0, 22265.0, 22227.0, 22239.0, 22260.0, 22283.0, 22278.0, 22235.0, 22189.0, 22203.0, 22197.0, 22235.0, 22222.0, 22230.0, 22249.0, 22253.0, 22217.0, 22208.0, 22224.0, 22212.0, 22227.0, 22188.0, 22208.0, 22217.0, 22210.0, 22222.0, 22248.0, 22252.0, 22203.0, 22173.0, 22162.0, 22194.0, 22216.0, 22214.0, 22192.0, 22183.0, 22211.0, 22235.0, 22240.0, 22219.0, 22200.0, 22183.0, 22227.0, 22261.0, 22277.0, 22234.0, 22212.0, 22178.0, 22180.0, 22157.0, 22135.0, 22168.0, 22167.0, 22192.0, 22196.0, 22193.0, 22206.0, 22187.0, 22210.0, 22212.0, 22226.0, 22200.0, 22233.0, 22217.0, 22200.0, 22214.0, 22209.0, 22225.0, 22200.0, 22162.0, 22178.0, 22195.0, 22172.0, 22173.0, 22142.0, 22179.0, 22222.0, 22235.0, 22220.0, 22233.0, 22238.0, 22234.0, 22220.0, 22174.0, 22191.0, 22171.0, 22169.0, 22125.0, 22154.0, 22201.0, 22214.0, 22174.0, 22157.0, 22147.0, 22174.0, 22183.0, 22174.0, 22157.0, 22154.0, 22162.0, 22147.0, 22166.0, 22173.0, 22209.0, 22211.0, 22229.0]
    },
    "slices": {}
  }
}