{
  "AcquisitionMatrixPE": 104,
  "AcquisitionNumber": 1,
  "AcquisitionTime": "11:05:17.035000",
  "BandwidthPerPixelPhaseEncode": 17.17,
  "BaseResolution": 104,
  "BodyPartExamined": "BRAIN",
  "CoilString": "HC1-7;NC1_2",
  "ConsistencyInfo": "N4_VE11C_LATEST_20160120",
  "ConversionSoftware": "dcm2niix",
  "ConversionSoftwareVersion": "v1.0.20190902",
  "DerivedVendorReportedEchoSpacing": 0.000560011,
  "DeviceSerialNumber": "167006",
  "DwellTime": 2.1e-06,
  "EchoTime": 0.037,
  "EchoTrainLength": 104,
  "EffectiveEchoSpacing": 0.000560011,
  "FlipAngle": 52,
  "ImageComments": "Unaliased_MB4_PE3_LB",
  "ImageOrientationPatientDICOM": [0.999809, 0.0056798, 0.0186898, 0.00436253, 0.867701, -0.497067],
  "ImageType": [
    "ORIGINAL",
    "PRIMARY",
    "M",
    "MB",
    "ND",
    "MOSAIC"
],
  "ImagingFrequency": 123.259,
  "InPlanePhaseEncodingDirectionDICOM": "COL",
  "InstitutionAddress": "Chemin_Queen-Mary_4565_Montreal_District_CA_H3W_1W5",
  "InstitutionName": "IUGM",
  "InstitutionalDepartmentName": "Department",
  "MRAcquisitionType": "2D",
  "MagneticFieldStrength": 3,
  "Manufacturer": "Siemens",
  "ManufacturersModelName": "Prisma_fit",
  "Modality": "MR",
  "MultibandAccelerationFactor": 4,
  "PartialFourier": 1,
  "PatientPosition": "HFS",
  "PercentPhaseFOV": 100,
  "PhaseEncodingDirection": "j",
  "PhaseEncodingSteps": 104,
  "PhaseResolution": 1,
  "PixelBandwidth": 2290,
  "ProcedureStepDescription": "memory_things",
  "ProtocolName": "func_task-things_run-3",
  "PulseSequenceDetails": "%CustomerSeq%_cmrr_mbep2d_bold",
  "ReceiveCoilActiveElements": "HC1-7;NC1,2",
  "ReceiveCoilName": "HeadNeck_64",
  "ReconMatrixPE": 104,
  "RepetitionTime": 1.49,
  "SAR": 0.0601905,
  "ScanOptions": "FS",
  "ScanningSequence": "EP",
  "SequenceName": "epfid2d1_104",
  "SequenceVariant": "SK_SS",
  "SeriesDescription": "func_task-things_run-3",
  "SeriesNumber": 16,
  "ShimSetting": [615, -7196, -8844, 274, -1, -145, -18, -23],
  "SliceThickness": 2,
  "SliceTiming": [0, 0.785, 0.0975, 0.8825, 0.1975, 0.98, 0.295, 1.0775, 0.3925, 1.1775, 0.49, 1.275, 0.5875, 1.3725, 0.6875, 0, 0.785, 0.0975, 0.8825, 0.1975, 0.98, 0.295, 1.0775, 0.3925, 1.1775, 0.49, 1.275, 0.5875, 1.3725, 0.6875, 0, 0.785, 0.0975, 0.8825, 0.1975, 0.98, 0.295, 1.0775, 0.3925, 1.1775, 0.49, 1.275, 0.5875, 1.3725, 0.6875, 0, 0.785, 0.0975, 0.8825, 0.1975, 0.98, 0.295, 1.0775, 0.3925, 1.1775, 0.49, 1.275, 0.5875, 1.3725, 0.6875],
  "SoftwareVersions": "syngo_MR_E11",
  "SpacingBetweenSlices": 2,
  "StationName": "MRC35049",
  "TaskName": "things",
  "TotalReadoutTime": 0.0576811,
  "TxRefAmp": 295.801,
  "WipMemBlock": "8aa8340d-ec51-4ad0-8ece-1e3dac769686||Sequence: R016 ve11c/master r/e634e98; Dec 19 2017 11:00:25 by eja",
  "dcmmeta_affine": [
    [-1.999618411064148, 0.008725050836801529, 0.03808072581887245, 105.59679412841797],
    [-0.011359594762325287, 1.7354024648666382, -0.9941073656082153, -52.12059020996094],
    [0.03737951070070267, 0.9941339492797852, 1.7350218296051025, -77.6785888671875],
    [0.0, 0.0, 0.0, 1.0]
],
  "dcmmeta_reorient_transform": [
    [0.0, -1.0, 0.0, 103.0],
    [1.0, 0.0, 0.0, 0.0],
    [0.0, 0.0, 1.0, 0.0],
    [0.0, 0.0, 0.0, 1.0]
],
  "dcmmeta_shape": [104, 104, 60, 190],
  "dcmmeta_slice_dim": 2,
  "dcmmeta_version": 0.6,
  "global": {
    "const": {
      "AcquisitionMatrix": [104, 0, 0, 104],
      "AngioFlag": "N",
      "BitsAllocated": 16,
      "BitsStored": 16,
      "BodyPartExamined": "BRAIN",
      "Columns": 832,
      "EchoNumbers": 1,
      "EchoTime": 37.0,
      "EchoTrainLength": 104,
      "FlipAngle": 52.0,
      "HighBit": 15,
      "ImageOrientationPatient": [0.99980919826993, 0.00567979735234, 0.0186897553989, 0.0043625255932, 0.86770120857948, -0.4970669783844],
      "ImagePositionPatient": [-837.53249019803, -762.44723216476, 372.97582433165],
      "ImageType": [
        "ORIGINAL",
        "PRIMARY",
        "M",
        "MB",
        "ND",
        "MOSAIC"
],
      "ImagedNucleus": "1H",
      "ImagingFrequency": 123.258875,
      "InPlanePhaseEncodingDirection": "COL",
      "MRAcquisitionType": "2D",
      "MagneticFieldStrength": 3.0,
      "Manufacturer": "SIEMENS",
      "ManufacturerModelName": "Prisma_fit",
      "Modality": "MR",
      "NumberOfAverages": 1.0,
      "NumberOfPhaseEncodingSteps": 104,
      "PercentPhaseFieldOfView": 100.0,
      "PercentSampling": 100.0,
      "PerformedProcedureStepStartTime": "100700.475000",
      "PhotometricInterpretation": "MONOCHROME2",
      "PixelBandwidth": 2290.0,
      "PixelRepresentation": 0,
      "PixelSpacing": [2.0, 2.0],
      "ProtocolName": "func_task-things_run-3",
      "RepetitionTime": 1490.0,
      "Rows": 832,
      "SAR": 0.06019047545657,
      "SamplesPerPixel": 1,
      "ScanOptions": "FS",
      "ScanningSequence": "EP",
      "SequenceName": "epfid2d1_104",
      "SequenceVariant": [
        "SK",
        "SS"
],
      "SeriesDescription": "func_task-things_run-3",
      "SeriesNumber": 16,
      "SeriesTime": "110650.111000",
      "SliceLocation": -39.469691139635,
      "SliceThickness": 2.0,
      "SmallestImagePixelValue": 0,
      "SoftwareVersions": "syngo MR E11",
      "SpacingBetweenSlices": 2.0000000454824,
      "SpecificCharacterSet": "ISO_IR 100",
      "StudyID": "1",
      "StudyTime": "100700.408000",
      "TransmitCoilName": "Body",
      "VariableFlipAngleFlag": "N",
      "WindowCenterWidthExplanation": "Algo1",
      "dBdt": 0.0},
    "slices": {}
  },
  "time": {
    "samples": {
      "AcquisitionNumber": [1, 2, 3, 4, 5, 6, 7, 8, 9, 10, 11, 12, 13, 14, 15, 16, 17, 18, 19, 20, 21, 22, 23, 24, 25, 26, 27, 28, 29, 30, 31, 32, 33, 34, 35, 36, 37, 38, 39, 40, 41, 42, 43, 44, 45, 46, 47, 48, 49, 50, 51, 52, 53, 54, 55, 56, 57, 58, 59, 60, 61, 62, 63, 64, 65, 66, 67, 68, 69, 70, 71, 72, 73, 74, 75, 76, 77, 78, 79, 80, 81, 82, 83, 84, 85, 86, 87, 88, 89, 90, 91, 92, 93, 94, 95, 96, 97, 98, 99, 100, 101, 102, 103, 104, 105, 106, 107, 108, 109, 110, 111, 112, 113, 114, 115, 116, 117, 118, 119, 120, 121, 122, 123, 124, 125, 126, 127, 128, 129, 130, 131, 132, 133, 134, 135, 136, 137, 138, 139, 140, 141, 142, 143, 144, 145, 146, 147, 148, 149, 150, 151, 152, 153, 154, 155, 156, 157, 158, 159, 160, 161, 162, 163, 164, 165, 166, 167, 168, 169, 170, 171, 172, 173, 174, 175, 176, 177, 178, 179, 180, 181, 182, 183, 184, 185, 186, 187, 188, 189, 190],
      "AcquisitionTime": ["110517.035000", "110518.525000", "110520.015000", "110521.505000", "110522.995000", "110524.485000", "110525.975000", "110527.465000", "110528.955000", "110530.445000", "110531.935000", "110533.425000", "110534.915000", "110536.405000", "110537.895000", "110539.385000", "110540.875000", "110542.365000", "110543.855000", "110545.345000", "110546.835000", "110548.325000", "110549.815000", "110551.305000", "110552.795000", "110554.285000", "110555.775000", "110557.265000", "110558.755000", "110600.245000", "110601.735000", "110603.225000", "110604.715000", "110606.205000", "110607.695000", "110609.185000", "110610.675000", "110612.165000", "110613.655000", "110615.145000", "110616.635000", "110618.125000", "110619.615000", "110621.105000", "110622.595000", "110624.085000", "110625.575000", "110627.065000", "110628.555000", "110630.045000", "110631.535000", "110633.025000", "110634.515000", "110636.005000", "110637.495000", "110638.985000", "110640.475000", "110641.965000", "110643.455000", "110644.945000", "110646.435000", "110647.925000", "110649.415000", "110650.905000", "110652.395000", "110653.885000", "110655.375000", "110656.865000", "110658.355000", "110659.845000", "110701.335000", "110702.825000", "110704.315000", "110705.805000", "110707.295000", "110708.785000", "110710.275000", "110711.765000", "110713.255000", "110714.745000", "110716.235000", "110717.725000", "110719.215000", "110720.705000", "110722.195000", "110723.685000", "110725.175000", "110726.665000", "110728.155000", "110729.645000", "110731.135000", "110732.625000", "110734.115000", "110735.605000", "110737.095000", "110738.585000", "110740.075000", "110741.565000", "110743.055000", "110744.545000", "110746.035000", "110747.525000", "110749.015000", "110750.505000", "110751.995000", "110753.485000", "110754.975000", "110756.465000", "110757.955000", "110759.445000", "110800.935000", "110802.425000", "110803.915000", "110805.405000", "110806.895000", "110808.385000", "110809.875000", "110811.365000", "110812.855000", "110814.345000", "110815.835000", "110817.325000", "110818.815000", "110820.305000", "110821.795000", "110823.285000", "110824.775000", "110826.265000", "110827.755000", "110829.245000", "110830.735000", "110832.225000", "110833.715000", "110835.205000", "110836.695000", "110838.185000", "110839.675000", "110841.165000", "110842.655000", "110844.145000", "110845.635000", "110847.125000", "110848.615000", "110850.105000", "110851.595000", "110853.085000", "110854.575000", "110856.065000", "110857.555000", "110859.045000", "110900.535000", "110902.025000", "110903.515000", "110905.005000", "110906.495000", "110907.985000", "110909.475000", "110910.965000", "110912.455000", "110913.945000", "110915.435000", "110916.925000", "110918.415000", "110919.905000", "110921.395000", "110922.885000", "110924.375000", "110925.865000", "110927.355000", "110928.845000", "110930.335000", "110931.825000", "110933.315000", "110934.805000", "110936.295000", "110937.785000", "110939.275000", "110940.765000", "110942.255000", "110943.745000", "110945.235000", "110946.725000", "110948.215000", "110949.705000", "110951.195000", "110952.685000", "110954.175000", "110955.665000", "110957.155000", "110958.645000"],
      "ContentTime": ["110650.115000", "110650.118000", "110650.122000", "110650.125000", "110650.129000", "110650.132000", "110650.135000", "110650.139000", "110650.142000", "110650.145000", "110650.149000", "110650.152000", "110650.155000", "110650.166000", "110650.169000", "110650.172000", "110650.176000", "110650.179000", "110650.182000", "110650.186000", "110650.189000", "110650.206000", "110650.209000", "110650.213000", "110650.216000", "110650.219000", "110650.222000", "110650.227000", "110650.231000", "110650.234000", "110650.237000", "110650.241000", "110650.244000", "110650.247000", "110650.251000", "110650.254000", "110650.257000", "110650.261000", "110710.080000", "110710.084000", "110710.087000", "110710.091000", "110710.094000", "110710.098000", "110710.101000", "110710.104000", "110710.108000", "110710.111000", "110710.114000", "110710.117000", "110710.121000", "110710.129000", "110710.133000", "110710.136000", "110710.139000", "110710.143000", "110710.146000", "110710.149000", "110730.080000", "110730.084000", "110730.087000", "110730.091000", "110730.094000", "110730.098000", "110730.101000", "110730.104000", "110730.108000", "110730.111000", "110730.114000", "110730.118000", "110730.121000", "110730.125000", "110730.128000", "110730.131000", "110730.135000", "110730.138000", "110730.141000", "110730.145000", "110730.148000", "110750.079000", "110750.083000", "110750.086000", "110750.090000", "110750.093000", "110750.097000", "110750.100000", "110750.103000", "110750.107000", "110750.110000", "110750.114000", "110750.117000", "110750.120000", "110750.124000", "110750.127000", "110750.130000", "110750.134000", "110750.137000", "110750.141000", "110750.144000", "110830.079000", "110830.083000", "110830.087000", "110830.090000", "110830.093000", "110830.097000", "110830.100000", "110830.103000", "110830.107000", "110830.111000", "110830.114000", "110830.118000", "110830.121000", "110830.124000", "110830.128000", "110830.131000", "110830.135000", "110830.138000", "110830.142000", "110830.160000", "110830.164000", "110830.167000", "110830.171000", "110830.174000", "110830.178000", "110830.183000", "110830.186000", "110830.190000", "110830.193000", "110910.079000", "110910.083000", "110910.086000", "110910.090000", "110910.093000", "110910.097000", "110910.100000", "110910.103000", "110910.107000", "110910.110000", "110910.113000", "110910.117000", "110910.120000", "110910.123000", "110910.127000", "110910.130000", "110910.134000", "110910.137000", "110910.140000", "110910.144000", "110910.147000", "110910.151000", "110910.154000", "110910.157000", "110910.161000", "110910.164000", "110910.168000", "110950.081000", "110950.084000", "110950.088000", "110950.091000", "110950.095000", "110950.098000", "110950.102000", "110950.105000", "110950.108000", "110950.111000", "110950.115000", "110950.118000", "110950.122000", "110950.125000", "110950.128000", "110950.132000", "110950.135000", "110950.138000", "110950.142000", "110950.145000", "110950.149000", "110950.152000", "110950.155000", "110950.159000", "110950.162000", "110950.165000", "110950.169000", "111001.128000", "111001.132000", "111001.135000", "111001.139000", "111001.142000", "111001.145000", "111001.149000", "111001.152000"],
      "InstanceCreationTime": ["110650.115000", "110650.118000", "110650.122000", "110650.125000", "110650.129000", "110650.132000", "110650.135000", "110650.139000", "110650.142000", "110650.145000", "110650.149000", "110650.152000", "110650.155000", "110650.166000", "110650.169000", "110650.172000", "110650.176000", "110650.179000", "110650.182000", "110650.186000", "110650.189000", "110650.206000", "110650.209000", "110650.213000", "110650.216000", "110650.219000", "110650.222000", "110650.227000", "110650.231000", "110650.234000", "110650.237000", "110650.241000", "110650.244000", "110650.247000", "110650.251000", "110650.254000", "110650.257000", "110650.261000", "110710.080000", "110710.084000", "110710.087000", "110710.091000", "110710.094000", "110710.098000", "110710.101000", "110710.104000", "110710.108000", "110710.111000", "110710.114000", "110710.117000", "110710.121000", "110710.129000", "110710.133000", "110710.136000", "110710.139000", "110710.143000", "110710.146000", "110710.149000", "110730.080000", "110730.084000", "110730.087000", "110730.091000", "110730.094000", "110730.098000", "110730.101000", "110730.104000", "110730.108000", "110730.111000", "110730.114000", "110730.118000", "110730.121000", "110730.125000", "110730.128000", "110730.131000", "110730.135000", "110730.138000", "110730.141000", "110730.145000", "110730.148000", "110750.079000", "110750.083000", "110750.086000", "110750.090000", "110750.093000", "110750.097000", "110750.100000", "110750.103000", "110750.107000", "110750.110000", "110750.114000", "110750.117000", "110750.120000", "110750.124000", "110750.127000", "110750.130000", "110750.134000", "110750.137000", "110750.141000", "110750.144000", "110830.079000", "110830.083000", "110830.087000", "110830.090000", "110830.093000", "110830.097000", "110830.100000", "110830.103000", "110830.107000", "110830.111000", "110830.114000", "110830.118000", "110830.121000", "110830.124000", "110830.128000", "110830.131000", "110830.135000", "110830.138000", "110830.142000", "110830.160000", "110830.164000", "110830.167000", "110830.171000", "110830.174000", "110830.178000", "110830.183000", "110830.186000", "110830.190000", "110830.193000", "110910.079000", "110910.083000", "110910.086000", "110910.090000", "110910.093000", "110910.097000", "110910.100000", "110910.103000", "110910.107000", "110910.110000", "110910.113000", "110910.117000", "110910.120000", "110910.123000", "110910.127000", "110910.130000", "110910.134000", "110910.137000", "110910.140000", "110910.144000", "110910.147000", "110910.151000", "110910.154000", "110910.157000", "110910.161000", "110910.164000", "110910.168000", "110950.081000", "110950.084000", "110950.088000", "110950.091000", "110950.095000", "110950.098000", "110950.102000", "110950.105000", "110950.108000", "110950.111000", "110950.115000", "110950.118000", "110950.122000", "110950.125000", "110950.128000", "110950.132000", "110950.135000", "110950.138000", "110950.142000", "110950.145000", "110950.149000", "110950.152000", "110950.155000", "110950.159000", "110950.162000", "110950.165000", "110950.169000", "111001.128000", "111001.132000", "111001.135000", "111001.139000", "111001.142000", "111001.145000", "111001.149000", "111001.152000"],
      "InstanceNumber": [1, 2, 3, 4, 5, 6, 7, 8, 9, 10, 11, 12, 13, 14, 15, 16, 17, 18, 19, 20, 21, 22, 23, 24, 25, 26, 27, 28, 29, 30, 31, 32, 33, 34, 35, 36, 37, 38, 39, 40, 41, 42, 43, 44, 45, 46, 47, 48, 49, 50, 51, 52, 53, 54, 55, 56, 57, 58, 59, 60, 61, 62, 63, 64, 65, 66, 67, 68, 69, 70, 71, 72, 73, 74, 75, 76, 77, 78, 79, 80, 81, 82, 83, 84, 85, 86, 87, 88, 89, 90, 91, 92, 93, 94, 95, 96, 97, 98, 99, 100, 101, 102, 103, 104, 105, 106, 107, 108, 109, 110, 111, 112, 113, 114, 115, 116, 117, 118, 119, 120, 121, 122, 123, 124, 125, 126, 127, 128, 129, 130, 131, 132, 133, 134, 135, 136, 137, 138, 139, 140, 141, 142, 143, 144, 145, 146, 147, 148, 149, 150, 151, 152, 153, 154, 155, 156, 157, 158, 159, 160, 161, 162, 163, 164, 165, 166, 167, 168, 169, 170, 171, 172, 173, 174, 175, 176, 177, 178, 179, 180, 181, 182, 183, 184, 185, 186, 187, 188, 189, 190],
      "LargestImagePixelValue": [46874, 45828, 44635, 44102, 44835, 44901, 45401, 45364, 45751, 45236, 46324, 46449, 45883, 43348, 42721, 44595, 44898, 46037, 46017, 45969, 46037, 44940, 44810, 44686, 43930, 45539, 45471, 43939, 46312, 45649, 45509, 45770, 44416, 44166, 45563, 44632, 44940, 45949, 45683, 45263, 45185, 45840, 45775, 46381, 46265, 45794, 44986, 46273, 45476, 45444, 46312, 45733, 45926, 46403, 45398, 45980, 45767, 44967, 45678, 46718, 46151, 45583, 44995, 45529, 46157, 44772, 44629, 46210, 45529, 44875, 46503, 44777, 43357, 45860, 44734, 44332, 45532, 44872, 44530, 45260, 43384, 44153, 44936, 45182, 44722, 45144, 45885, 44439, 44176, 45203, 43788, 44666, 44443, 43736, 44856, 45335, 44551, 45400, 45082, 43399, 43389, 43333, 43399, 45189, 44296, 43182, 45168, 43365, 44001, 45017, 42621, 42637, 43821, 43185, 43348, 43538, 44584, 44547, 45085, 43758, 45589, 45739, 42845, 43612, 44201, 42393, 44444, 43055, 43754, 44368, 45259, 44315, 44092, 43485, 43460, 43857, 45000, 43329, 43680, 44706, 43147, 42808, 44283, 42495, 43735, 45700, 45871, 43614, 42146, 44161, 44243, 44221, 44907, 44891, 45194, 44901, 44691, 46046, 46215, 43354, 43431, 44944, 43945, 45640, 45594, 44970, 45162, 45803, 45770, 45924, 43123, 42695, 42730, 44118, 44395, 44506, 43950, 44799, 44773, 45466, 43152, 42089, 44565, 45505, 45183, 43540, 43062, 43959, 44549, 45127],
      "WindowCenter": [10930.0, 10904.0, 10918.0, 10918.0, 10905.0, 10870.0, 10857.0, 10851.0, 10838.0, 10817.0, 10825.0, 10842.0, 10867.0, 10870.0, 10839.0, 10832.0, 10822.0, 10873.0, 10916.0, 10934.0, 10920.0, 10883.0, 10870.0, 10866.0, 10848.0, 10870.0, 10878.0, 10865.0, 10883.0, 10870.0, 10879.0, 10908.0, 10908.0, 10909.0, 10903.0, 10879.0, 10867.0, 10873.0, 10868.0, 10863.0, 10854.0, 10841.0, 10847.0, 10852.0, 10860.0, 10858.0, 10845.0, 10846.0, 10832.0, 10854.0, 10879.0, 10885.0, 10887.0, 10878.0, 10865.0, 10875.0, 10861.0, 10842.0, 10813.0, 10820.0, 10841.0, 10872.0, 10879.0, 10898.0, 10904.0, 10860.0, 10822.0, 10818.0, 10811.0, 10822.0, 10855.0, 10852.0, 10835.0, 10853.0, 10834.0, 10827.0, 10837.0, 10833.0, 10834.0, 10833.0, 10813.0, 10817.0, 10812.0, 10846.0, 10852.0, 10833.0, 10819.0, 10797.0, 10800.0, 10830.0, 10829.0, 10826.0, 10825.0, 10810.0, 10819.0, 10834.0, 10834.0, 10839.0, 10837.0, 10815.0, 10810.0, 10802.0, 10842.0, 10868.0, 10850.0, 10820.0, 10816.0, 10785.0, 10800.0, 10820.0, 10810.0, 10823.0, 10834.0, 10829.0, 10828.0, 10825.0, 10834.0, 10833.0, 10841.0, 10822.0, 10820.0, 10825.0, 10811.0, 10836.0, 10843.0, 10818.0, 10836.0, 10825.0, 10831.0, 10830.0, 10836.0, 10829.0, 10822.0, 10797.0, 10787.0, 10795.0, 10812.0, 10800.0, 10810.0, 10816.0, 10799.0, 10811.0, 10842.0, 10829.0, 10842.0, 10897.0, 10883.0, 10855.0, 10822.0, 10831.0, 10822.0, 10827.0, 10833.0, 10842.0, 10847.0, 10832.0, 10830.0, 10839.0, 10851.0, 10812.0, 10805.0, 10842.0, 10870.0, 10904.0, 10873.0, 10839.0, 10827.0, 10821.0, 10840.0, 10881.0, 10871.0, 10848.0, 10797.0, 10766.0, 10770.0, 10793.0, 10827.0, 10872.0, 10883.0, 10867.0, 10817.0, 10792.0, 10816.0, 10846.0, 10886.0, 10895.0, 10857.0, 10826.0, 10823.0, 10851.0],
      "WindowWidth": [23505.0, 23419.0, 23430.0, 23418.0, 23379.0, 23295.0, 23257.0, 23242.0, 23212.0, 23166.0, 23180.0, 23216.0, 23281.0, 23300.0, 23232.0, 23207.0, 23177.0, 23282.0, 23382.0, 23430.0, 23394.0, 23311.0, 23282.0, 23273.0, 23243.0, 23287.0, 23303.0, 23286.0, 23313.0, 23282.0, 23303.0, 23373.0, 23372.0, 23378.0, 23360.0, 23303.0, 23277.0, 23281.0, 23269.0, 23262.0, 23241.0, 23211.0, 23220.0, 23228.0, 23247.0, 23250.0, 23225.0, 23222.0, 23194.0, 23241.0, 23296.0, 23311.0, 23319.0, 23295.0, 23269.0, 23287.0, 23260.0, 23218.0, 23152.0, 23159.0, 23212.0, 23286.0, 23304.0, 23353.0, 23354.0, 23261.0, 23174.0, 23161.0, 23144.0, 23174.0, 23243.0, 23243.0, 23211.0, 23243.0, 23201.0, 23191.0, 23208.0, 23199.0, 23206.0, 23200.0, 23159.0, 23172.0, 23152.0, 23226.0, 23240.0, 23203.0, 23166.0, 23118.0, 23131.0, 23193.0, 23192.0, 23185.0, 23179.0, 23147.0, 23162.0, 23196.0, 23209.0, 23215.0, 23207.0, 23165.0, 23151.0, 23134.0, 23236.0, 23281.0, 23241.0, 23182.0, 23164.0, 23097.0, 23140.0, 23171.0, 23158.0, 23193.0, 23210.0, 23199.0, 23197.0, 23189.0, 23202.0, 23197.0, 23214.0, 23175.0, 23165.0, 23175.0, 23156.0, 23217.0, 23231.0, 23180.0, 23212.0, 23189.0, 23196.0, 23193.0, 23203.0, 23183.0, 23173.0, 23118.0, 23097.0, 23121.0, 23149.0, 23130.0, 23161.0, 23164.0, 23128.0, 23156.0, 23229.0, 23202.0, 23221.0, 23347.0, 23307.0, 23252.0, 23185.0, 23196.0, 23178.0, 23187.0, 23200.0, 23216.0, 23235.0, 23194.0, 23193.0, 23204.0, 23235.0, 23161.0, 23141.0, 23217.0, 23286.0, 23356.0, 23288.0, 23210.0, 23189.0, 23163.0, 23211.0, 23301.0, 23293.0, 23244.0, 23126.0, 23050.0, 23063.0, 23109.0, 23188.0, 23289.0, 23313.0, 23277.0, 23175.0, 23119.0, 23164.0, 23230.0, 23319.0, 23356.0, 23262.0, 23198.0, 23177.0, 23240.0]
    },
    "slices": {}
  }
}