{
  "AcquisitionMatrixPE": 104,
  "AcquisitionNumber": 1,
  "AcquisitionTime": "10:58:15.832500",
  "BandwidthPerPixelPhaseEncode": 17.17,
  "BaseResolution": 104,
  "BodyPartExamined": "BRAIN",
  "CoilString": "HC1-7;NC1_2",
  "ConsistencyInfo": "N4_VE11C_LATEST_20160120",
  "ConversionSoftware": "dcm2niix",
  "ConversionSoftwareVersion": "v1.0.20190902",
  "DerivedVendorReportedEchoSpacing": 0.000560011,
  "DeviceSerialNumber": "167006",
  "DwellTime": 2.1e-06,
  "EchoTime": 0.037,
  "EchoTrainLength": 104,
  "EffectiveEchoSpacing": 0.000560011,
  "FlipAngle": 52,
  "ImageComments": "Unaliased_MB4_PE3_LB",
  "ImageOrientationPatientDICOM": [0.999809, 0.0056798, 0.0186898, 0.00436253, 0.867701, -0.497067],
  "ImageType": [
    "ORIGINAL",
    "PRIMARY",
    "P",
    "MB",
    "ND",
    "MOSAIC"
],
  "ImagingFrequency": 123.259,
  "InPlanePhaseEncodingDirectionDICOM": "COL",
  "InstitutionAddress": "Chemin_Queen-Mary_4565_Montreal_District_CA_H3W_1W5",
  "InstitutionName": "IUGM",
  "InstitutionalDepartmentName": "Department",
  "MRAcquisitionType": "2D",
  "MagneticFieldStrength": 3,
  "Manufacturer": "Siemens",
  "ManufacturersModelName": "Prisma_fit",
  "Modality": "MR",
  "MultibandAccelerationFactor": 4,
  "PartialFourier": 1,
  "PatientPosition": "HFS",
  "PercentPhaseFOV": 100,
  "PhaseEncodingDirection": "j",
  "PhaseEncodingSteps": 104,
  "PhaseResolution": 1,
  "PixelBandwidth": 2290,
  "ProcedureStepDescription": "memory_things",
  "ProtocolName": "func_task-things_run-2",
  "PulseSequenceDetails": "%CustomerSeq%_cmrr_mbep2d_bold",
  "ReceiveCoilActiveElements": "HC1-7;NC1,2",
  "ReceiveCoilName": "HeadNeck_64",
  "ReconMatrixPE": 104,
  "RepetitionTime": 1.49,
  "SAR": 0.0601905,
  "ScanOptions": "FS",
  "ScanningSequence": "EP",
  "SequenceName": "epfid2d1_104",
  "SequenceVariant": "SK_SS",
  "SeriesDescription": "func_task-things_run-2",
  "SeriesNumber": 14,
  "ShimSetting": [615, -7196, -8844, 274, -1, -145, -18, -23],
  "SliceThickness": 2,
  "SliceTiming": [0, 0.7825, 0.0975, 0.8825, 0.195, 0.98, 0.2925, 1.0775, 0.3925, 1.175, 0.49, 1.2725, 0.5875, 1.3725, 0.685, 0, 0.7825, 0.0975, 0.8825, 0.195, 0.98, 0.2925, 1.0775, 0.3925, 1.175, 0.49, 1.2725, 0.5875, 1.3725, 0.685, 0, 0.7825, 0.0975, 0.8825, 0.195, 0.98, 0.2925, 1.0775, 0.3925, 1.175, 0.49, 1.2725, 0.5875, 1.3725, 0.685, 0, 0.7825, 0.0975, 0.8825, 0.195, 0.98, 0.2925, 1.0775, 0.3925, 1.175, 0.49, 1.2725, 0.5875, 1.3725, 0.685],
  "SoftwareVersions": "syngo_MR_E11",
  "SpacingBetweenSlices": 2,
  "StationName": "MRC35049",
  "TaskName": "things",
  "TotalReadoutTime": 0.0576811,
  "TxRefAmp": 295.801,
  "WipMemBlock": "1676b999-9d3e-4549-bdf6-7976ba70a909||Sequence: R016 ve11c/master r/e634e98; Dec 19 2017 11:00:25 by eja",
  "dcmmeta_affine": [
    [-1.999618411064148, 0.008725050836801529, 0.03808072581887245, 105.59679412841797],
    [-0.011359594762325287, 1.7354024648666382, -0.9941073656082153, -52.12059020996094],
    [0.03737951070070267, 0.9941339492797852, 1.7350218296051025, -77.6785888671875],
    [0.0, 0.0, 0.0, 1.0]
],
  "dcmmeta_reorient_transform": [
    [0.0, -1.0, 0.0, 103.0],
    [1.0, 0.0, 0.0, 0.0],
    [0.0, 0.0, 1.0, 0.0],
    [0.0, 0.0, 0.0, 1.0]
],
  "dcmmeta_shape": [104, 104, 60, 190],
  "dcmmeta_slice_dim": 2,
  "dcmmeta_version": 0.6,
  "global": {
    "const": {
      "AcquisitionMatrix": [104, 0, 0, 104],
      "AngioFlag": "N",
      "BitsAllocated": 16,
      "BitsStored": 16,
      "BodyPartExamined": "BRAIN",
      "Columns": 832,
      "EchoNumbers": 1,
      "EchoTime": 37.0,
      "EchoTrainLength": 104,
      "FlipAngle": 52.0,
      "HighBit": 15,
      "ImageOrientationPatient": [0.99980919826993, 0.00567979735234, 0.0186897553989, 0.0043625255932, 0.86770120857948, -0.4970669783844],
      "ImagePositionPatient": [-837.53249019803, -762.44723216476, 372.97582433165],
      "ImageType": [
        "ORIGINAL",
        "PRIMARY",
        "P",
        "MB",
        "ND",
        "MOSAIC"
],
      "ImagedNucleus": "1H",
      "ImagingFrequency": 123.258871,
      "InPlanePhaseEncodingDirection": "COL",
      "LargestImagePixelValue": 4095,
      "MRAcquisitionType": "2D",
      "MagneticFieldStrength": 3.0,
      "Manufacturer": "SIEMENS",
      "ManufacturerModelName": "Prisma_fit",
      "Modality": "MR",
      "NumberOfAverages": 1.0,
      "NumberOfPhaseEncodingSteps": 104,
      "PercentPhaseFieldOfView": 100.0,
      "PercentSampling": 100.0,
      "PerformedProcedureStepStartTime": "100700.475000",
      "PhotometricInterpretation": "MONOCHROME2",
      "PixelBandwidth": 2290.0,
      "PixelRepresentation": 0,
      "PixelSpacing": [2.0, 2.0],
      "ProtocolName": "func_task-things_run-2",
      "RepetitionTime": 1490.0,
      "RescaleIntercept": -4096.0,
      "RescaleSlope": 2.0,
      "RescaleType": "US",
      "Rows": 832,
      "SAR": 0.06019047545657,
      "SamplesPerPixel": 1,
      "ScanOptions": "FS",
      "ScanningSequence": "EP",
      "SequenceName": "epfid2d1_104",
      "SequenceVariant": [
        "SK",
        "SS"
],
      "SeriesDescription": "func_task-things_run-2",
      "SeriesNumber": 14,
      "SeriesTime": "105932.196000",
      "SliceLocation": -39.469691139635,
      "SliceThickness": 2.0,
      "SmallestImagePixelValue": 0,
      "SoftwareVersions": "syngo MR E11",
      "SpacingBetweenSlices": 2.0000000454824,
      "SpecificCharacterSet": "ISO_IR 100",
      "StudyID": "1",
      "StudyTime": "100700.408000",
      "TransmitCoilName": "Body",
      "VariableFlipAngleFlag": "N",
      "WindowCenterWidthExplanation": "Algo1",
      "dBdt": 0.0},
    "slices": {}
  },
  "time": {
    "samples": {
      "AcquisitionNumber": [1, 2, 3, 4, 5, 6, 7, 8, 9, 10, 11, 12, 13, 14, 15, 16, 17, 18, 19, 20, 21, 22, 23, 24, 25, 26, 27, 28, 29, 30, 31, 32, 33, 34, 35, 36, 37, 38, 39, 40, 41, 42, 43, 44, 45, 46, 47, 48, 49, 50, 51, 52, 53, 54, 55, 56, 57, 58, 59, 60, 61, 62, 63, 64, 65, 66, 67, 68, 69, 70, 71, 72, 73, 74, 75, 76, 77, 78, 79, 80, 81, 82, 83, 84, 85, 86, 87, 88, 89, 90, 91, 92, 93, 94, 95, 96, 97, 98, 99, 100, 101, 102, 103, 104, 105, 106, 107, 108, 109, 110, 111, 112, 113, 114, 115, 116, 117, 118, 119, 120, 121, 122, 123, 124, 125, 126, 127, 128, 129, 130, 131, 132, 133, 134, 135, 136, 137, 138, 139, 140, 141, 142, 143, 144, 145, 146, 147, 148, 149, 150, 151, 152, 153, 154, 155, 156, 157, 158, 159, 160, 161, 162, 163, 164, 165, 166, 167, 168, 169, 170, 171, 172, 173, 174, 175, 176, 177, 178, 179, 180, 181, 182, 183, 184, 185, 186, 187, 188, 189, 190],
      "AcquisitionTime": ["105815.832500", "105817.322500", "105818.812500", "105820.302500", "105821.792500", "105823.282500", "105824.772500", "105826.262500", "105827.752500", "105829.242500", "105830.732500", "105832.222500", "105833.712500", "105835.202500", "105836.692500", "105838.182500", "105839.672500", "105841.162500", "105842.652500", "105844.142500", "105845.632500", "105847.122500", "105848.612500", "105850.102500", "105851.592500", "105853.082500", "105854.572500", "105856.062500", "105857.552500", "105859.042500", "105900.532500", "105902.022500", "105903.512500", "105905.002500", "105906.492500", "105907.982500", "105909.472500", "105910.962500", "105912.452500", "105913.942500", "105915.432500", "105916.922500", "105918.412500", "105919.902500", "105921.392500", "105922.882500", "105924.372500", "105925.862500", "105927.352500", "105928.842500", "105930.332500", "105931.822500", "105933.312500", "105934.802500", "105936.292500", "105937.782500", "105939.272500", "105940.762500", "105942.252500", "105943.742500", "105945.232500", "105946.722500", "105948.212500", "105949.702500", "105951.192500", "105952.682500", "105954.172500", "105955.662500", "105957.152500", "105958.642500", "110000.132500", "110001.622500", "110003.112500", "110004.602500", "110006.092500", "110007.582500", "110009.072500", "110010.562500", "110012.052500", "110013.542500", "110015.032500", "110016.522500", "110018.012500", "110019.502500", "110020.992500", "110022.482500", "110023.972500", "110025.462500", "110026.952500", "110028.442500", "110029.932500", "110031.422500", "110032.912500", "110034.402500", "110035.892500", "110037.382500", "110038.872500", "110040.362500", "110041.852500", "110043.342500", "110044.832500", "110046.322500", "110047.812500", "110049.302500", "110050.792500", "110052.282500", "110053.772500", "110055.262500", "110056.752500", "110058.242500", "110059.732500", "110101.222500", "110102.712500", "110104.202500", "110105.692500", "110107.182500", "110108.672500", "110110.162500", "110111.652500", "110113.142500", "110114.632500", "110116.122500", "110117.612500", "110119.102500", "110120.592500", "110122.082500", "110123.572500", "110125.062500", "110126.552500", "110128.042500", "110129.532500", "110131.022500", "110132.512500", "110134.002500", "110135.492500", "110136.982500", "110138.472500", "110139.962500", "110141.452500", "110142.942500", "110144.432500", "110145.922500", "110147.412500", "110148.902500", "110150.392500", "110151.882500", "110153.372500", "110154.862500", "110156.352500", "110157.842500", "110159.332500", "110200.822500", "110202.312500", "110203.802500", "110205.292500", "110206.782500", "110208.272500", "110209.762500", "110211.252500", "110212.742500", "110214.232500", "110215.722500", "110217.212500", "110218.702500", "110220.192500", "110221.682500", "110223.172500", "110224.662500", "110226.152500", "110227.642500", "110229.132500", "110230.622500", "110232.112500", "110233.602500", "110235.092500", "110236.582500", "110238.072500", "110239.562500", "110241.052500", "110242.542500", "110244.032500", "110245.522500", "110247.012500", "110248.502500", "110249.992500", "110251.482500", "110252.972500", "110254.462500", "110255.952500", "110257.442500"],
      "ContentTime": ["105932.198000", "105932.201000", "105932.204000", "105932.206000", "105932.209000", "105932.211000", "105932.214000", "105932.216000", "105932.224000", "105932.226000", "105932.229000", "105932.231000", "105932.234000", "105932.236000", "105932.239000", "105932.242000", "105932.244000", "105932.247000", "105932.249000", "105932.252000", "105952.164000", "105952.166000", "105952.173000", "105952.176000", "105952.178000", "105952.181000", "105952.183000", "105952.186000", "105952.188000", "105952.191000", "105952.193000", "105952.196000", "105952.198000", "105952.201000", "105952.204000", "105952.206000", "105952.209000", "105952.211000", "105952.214000", "105952.216000", "110012.127000", "110012.130000", "110012.133000", "110012.136000", "110012.138000", "110012.141000", "110012.143000", "110012.146000", "110012.148000", "110012.151000", "110012.153000", "110012.156000", "110012.158000", "110012.161000", "110012.164000", "110012.166000", "110012.169000", "110012.171000", "110012.174000", "110012.180000", "110012.182000", "110032.138000", "110032.141000", "110032.143000", "110032.146000", "110032.148000", "110032.151000", "110032.154000", "110032.157000", "110032.160000", "110032.163000", "110032.165000", "110032.168000", "110032.170000", "110032.173000", "110032.175000", "110032.178000", "110032.180000", "110032.183000", "110032.186000", "110032.188000", "110052.171000", "110052.174000", "110052.177000", "110052.179000", "110052.182000", "110052.189000", "110052.192000", "110052.194000", "110052.197000", "110052.200000", "110052.202000", "110052.205000", "110052.207000", "110052.210000", "110052.213000", "110052.215000", "110052.218000", "110052.220000", "110052.223000", "110052.225000", "110132.197000", "110132.199000", "110132.202000", "110132.205000", "110132.207000", "110132.210000", "110132.212000", "110132.215000", "110132.217000", "110132.220000", "110132.223000", "110132.225000", "110132.228000", "110132.230000", "110132.233000", "110132.235000", "110132.238000", "110132.240000", "110132.243000", "110132.246000", "110132.248000", "110132.251000", "110132.253000", "110132.256000", "110132.258000", "110132.261000", "110132.264000", "110132.266000", "110132.269000", "110132.271000", "110212.154000", "110212.156000", "110212.165000", "110212.168000", "110212.171000", "110212.173000", "110212.176000", "110212.178000", "110212.181000", "110212.183000", "110212.186000", "110212.189000", "110212.191000", "110212.194000", "110212.196000", "110212.199000", "110212.201000", "110212.204000", "110212.206000", "110212.209000", "110212.211000", "110212.214000", "110212.217000", "110212.219000", "110212.222000", "110212.224000", "110252.640000", "110252.643000", "110252.646000", "110252.648000", "110252.651000", "110252.653000", "110252.656000", "110252.658000", "110252.661000", "110252.664000", "110252.666000", "110252.669000", "110252.671000", "110252.674000", "110252.677000", "110252.679000", "110252.682000", "110252.684000", "110252.687000", "110252.690000", "110252.692000", "110252.695000", "110252.697000", "110252.700000", "110252.702000", "110252.705000", "110252.708000", "110259.936000", "110259.939000", "110259.941000", "110259.944000", "110259.947000", "110259.950000"],
      "InstanceCreationTime": ["105932.198000", "105932.201000", "105932.204000", "105932.206000", "105932.209000", "105932.211000", "105932.214000", "105932.216000", "105932.224000", "105932.226000", "105932.229000", "105932.231000", "105932.234000", "105932.236000", "105932.239000", "105932.242000", "105932.244000", "105932.247000", "105932.249000", "105932.252000", "105952.164000", "105952.166000", "105952.173000", "105952.176000", "105952.178000", "105952.181000", "105952.183000", "105952.186000", "105952.188000", "105952.191000", "105952.193000", "105952.196000", "105952.198000", "105952.201000", "105952.204000", "105952.206000", "105952.209000", "105952.211000", "105952.214000", "105952.216000", "110012.127000", "110012.130000", "110012.133000", "110012.136000", "110012.138000", "110012.141000", "110012.143000", "110012.146000", "110012.148000", "110012.151000", "110012.153000", "110012.156000", "110012.158000", "110012.161000", "110012.164000", "110012.166000", "110012.169000", "110012.171000", "110012.174000", "110012.180000", "110012.182000", "110032.138000", "110032.141000", "110032.143000", "110032.146000", "110032.148000", "110032.151000", "110032.154000", "110032.157000", "110032.160000", "110032.163000", "110032.165000", "110032.168000", "110032.170000", "110032.173000", "110032.175000", "110032.178000", "110032.180000", "110032.183000", "110032.186000", "110032.188000", "110052.171000", "110052.174000", "110052.177000", "110052.179000", "110052.182000", "110052.189000", "110052.192000", "110052.194000", "110052.197000", "110052.200000", "110052.202000", "110052.205000", "110052.207000", "110052.210000", "110052.213000", "110052.215000", "110052.218000", "110052.220000", "110052.223000", "110052.225000", "110132.197000", "110132.199000", "110132.202000", "110132.205000", "110132.207000", "110132.210000", "110132.212000", "110132.215000", "110132.217000", "110132.220000", "110132.223000", "110132.225000", "110132.228000", "110132.230000", "110132.233000", "110132.235000", "110132.238000", "110132.240000", "110132.243000", "110132.246000", "110132.248000", "110132.251000", "110132.253000", "110132.256000", "110132.258000", "110132.261000", "110132.264000", "110132.266000", "110132.269000", "110132.271000", "110212.154000", "110212.156000", "110212.165000", "110212.168000", "110212.171000", "110212.173000", "110212.176000", "110212.178000", "110212.181000", "110212.183000", "110212.186000", "110212.189000", "110212.191000", "110212.194000", "110212.196000", "110212.199000", "110212.201000", "110212.204000", "110212.206000", "110212.209000", "110212.211000", "110212.214000", "110212.217000", "110212.219000", "110212.222000", "110212.224000", "110252.640000", "110252.643000", "110252.646000", "110252.648000", "110252.651000", "110252.653000", "110252.656000", "110252.658000", "110252.661000", "110252.664000", "110252.666000", "110252.669000", "110252.671000", "110252.674000", "110252.677000", "110252.679000", "110252.682000", "110252.684000", "110252.687000", "110252.690000", "110252.692000", "110252.695000", "110252.697000", "110252.700000", "110252.702000", "110252.705000", "110252.708000", "110259.936000", "110259.939000", "110259.941000", "110259.944000", "110259.947000", "110259.950000"],
      "InstanceNumber": [1, 2, 3, 4, 5, 6, 7, 8, 9, 10, 11, 12, 13, 14, 15, 16, 17, 18, 19, 20, 21, 22, 23, 24, 25, 26, 27, 28, 29, 30, 31, 32, 33, 34, 35, 36, 37, 38, 39, 40, 41, 42, 43, 44, 45, 46, 47, 48, 49, 50, 51, 52, 53, 54, 55, 56, 57, 58, 59, 60, 61, 62, 63, 64, 65, 66, 67, 68, 69, 70, 71, 72, 73, 74, 75, 76, 77, 78, 79, 80, 81, 82, 83, 84, 85, 86, 87, 88, 89, 90, 91, 92, 93, 94, 95, 96, 97, 98, 99, 100, 101, 102, 103, 104, 105, 106, 107, 108, 109, 110, 111, 112, 113, 114, 115, 116, 117, 118, 119, 120, 121, 122, 123, 124, 125, 126, 127, 128, 129, 130, 131, 132, 133, 134, 135, 136, 137, 138, 139, 140, 141, 142, 143, 144, 145, 146, 147, 148, 149, 150, 151, 152, 153, 154, 155, 156, 157, 158, 159, 160, 161, 162, 163, 164, 165, 166, 167, 168, 169, 170, 171, 172, 173, 174, 175, 176, 177, 178, 179, 180, 181, 182, 183, 184, 185, 186, 187, 188, 189, 190],
      "WindowCenter": [4738.0, 4736.0, 4756.0, 4754.0, 4714.0, 4752.0, 4748.0, 4716.0, 4720.0, 4734.0, 4728.0, 4730.0, 4730.0, 4732.0, 4740.0, 4714.0, 4718.0, 4746.0, 4716.0, 4746.0, 4740.0, 4728.0, 4712.0, 4736.0, 4728.0, 4714.0, 4734.0, 4738.0, 4742.0, 4710.0, 4728.0, 4716.0, 4732.0, 4726.0, 4728.0, 4726.0, 4742.0, 4750.0, 4742.0, 4722.0, 4714.0, 4742.0, 4716.0, 4730.0, 4716.0, 4730.0, 4728.0, 4726.0, 4734.0, 4748.0, 4720.0, 4724.0, 4720.0, 4720.0, 4738.0, 4730.0, 4710.0, 4730.0, 4716.0, 4732.0, 4728.0, 4744.0, 4718.0, 4740.0, 4722.0, 4708.0, 4734.0, 4740.0, 4704.0, 4712.0, 4736.0, 4710.0, 4738.0, 4712.0, 4720.0, 4712.0, 4732.0, 4732.0, 4734.0, 4758.0, 4746.0, 4738.0, 4722.0, 4706.0, 4726.0, 4728.0, 4728.0, 4732.0, 4740.0, 4724.0, 4722.0, 4750.0, 4724.0, 4710.0, 4718.0, 4706.0, 4726.0, 4718.0, 4732.0, 4714.0, 4748.0, 4708.0, 4714.0, 4710.0, 4706.0, 4708.0, 4732.0, 4732.0, 4714.0, 4728.0, 4722.0, 4728.0, 4724.0, 4712.0, 4716.0, 4706.0, 4736.0, 4730.0, 4716.0, 4712.0, 4712.0, 4746.0, 4714.0, 4716.0, 4722.0, 4710.0, 4730.0, 4720.0, 4710.0, 4706.0, 4730.0, 4704.0, 4714.0, 4760.0, 4758.0, 4720.0, 4740.0, 4740.0, 4726.0, 4706.0, 4710.0, 4728.0, 4736.0, 4742.0, 4736.0, 4720.0, 4724.0, 4718.0, 4716.0, 4738.0, 4706.0, 4738.0, 4708.0, 4730.0, 4748.0, 4718.0, 4708.0, 4746.0, 4716.0, 4704.0, 4736.0, 4736.0, 4706.0, 4716.0, 4742.0, 4712.0, 4724.0, 4716.0, 4708.0, 4720.0, 4714.0, 4708.0, 4744.0, 4744.0, 4708.0, 4728.0, 4730.0, 4708.0, 4734.0, 4750.0, 4724.0, 4724.0, 4750.0, 4712.0, 4736.0, 4730.0, 4752.0, 4714.0, 4754.0, 4754.0],
      "WindowWidth": [18538.0, 18544.0, 18580.0, 18576.0, 18504.0, 18536.0, 18542.0, 18510.0, 18510.0, 18538.0, 18534.0, 18536.0, 18536.0, 18538.0, 18542.0, 18508.0, 18508.0, 18544.0, 18506.0, 18540.0, 18538.0, 18532.0, 18506.0, 18536.0, 18534.0, 18506.0, 18536.0, 18538.0, 18538.0, 18506.0, 18534.0, 18506.0, 18536.0, 18534.0, 18538.0, 18532.0, 18540.0, 18540.0, 18538.0, 18510.0, 18506.0, 18542.0, 18506.0, 18534.0, 18504.0, 18532.0, 18538.0, 18534.0, 18538.0, 18546.0, 18510.0, 18510.0, 18508.0, 18514.0, 18538.0, 18534.0, 18504.0, 18540.0, 18508.0, 18534.0, 18532.0, 18544.0, 18508.0, 18542.0, 18512.0, 18506.0, 18538.0, 18538.0, 18500.0, 18510.0, 18538.0, 18506.0, 18542.0, 18506.0, 18512.0, 18508.0, 18534.0, 18532.0, 18538.0, 18538.0, 18540.0, 18538.0, 18510.0, 18504.0, 18532.0, 18538.0, 18534.0, 18538.0, 18540.0, 18510.0, 18512.0, 18542.0, 18514.0, 18510.0, 18510.0, 18506.0, 18534.0, 18508.0, 18538.0, 18512.0, 18544.0, 18502.0, 18508.0, 18504.0, 18500.0, 18506.0, 18536.0, 18536.0, 18508.0, 18510.0, 18518.0, 18512.0, 18512.0, 18506.0, 18510.0, 18502.0, 18538.0, 18536.0, 18510.0, 18510.0, 18506.0, 18548.0, 18506.0, 18508.0, 18514.0, 18508.0, 18532.0, 18512.0, 18504.0, 18502.0, 18532.0, 18506.0, 18506.0, 18544.0, 18544.0, 18514.0, 18540.0, 18542.0, 18536.0, 18502.0, 18506.0, 18534.0, 18536.0, 18544.0, 18538.0, 18510.0, 18510.0, 18512.0, 18510.0, 18540.0, 18502.0, 18540.0, 18504.0, 18536.0, 18546.0, 18514.0, 18504.0, 18546.0, 18508.0, 18504.0, 18536.0, 18542.0, 18502.0, 18510.0, 18544.0, 18508.0, 18514.0, 18506.0, 18502.0, 18510.0, 18510.0, 18506.0, 18544.0, 18540.0, 18506.0, 18538.0, 18534.0, 18508.0, 18540.0, 18546.0, 18510.0, 18512.0, 18544.0, 18506.0, 18540.0, 18506.0, 18532.0, 18502.0, 18574.0, 18584.0]
    },
    "slices": {}
  }
}