{
  "AcquisitionMatrixPE": 104,
  "AcquisitionNumber": 1,
  "AcquisitionTime": "11:05:17.035000",
  "BandwidthPerPixelPhaseEncode": 17.17,
  "BaseResolution": 104,
  "BodyPartExamined": "BRAIN",
  "CoilString": "HC1-7;NC1_2",
  "ConsistencyInfo": "N4_VE11C_LATEST_20160120",
  "ConversionSoftware": "dcm2niix",
  "ConversionSoftwareVersion": "v1.0.20190902",
  "DerivedVendorReportedEchoSpacing": 0.000560011,
  "DeviceSerialNumber": "167006",
  "DwellTime": 2.1e-06,
  "EchoTime": 0.037,
  "EchoTrainLength": 104,
  "EffectiveEchoSpacing": 0.000560011,
  "FlipAngle": 52,
  "ImageComments": "Unaliased_MB4_PE3_LB",
  "ImageOrientationPatientDICOM": [0.999809, 0.0056798, 0.0186898, 0.00436253, 0.867701, -0.497067],
  "ImageType": [
    "ORIGINAL",
    "PRIMARY",
    "P",
    "MB",
    "ND",
    "MOSAIC"
],
  "ImagingFrequency": 123.259,
  "InPlanePhaseEncodingDirectionDICOM": "COL",
  "InstitutionAddress": "Chemin_Queen-Mary_4565_Montreal_District_CA_H3W_1W5",
  "InstitutionName": "IUGM",
  "InstitutionalDepartmentName": "Department",
  "MRAcquisitionType": "2D",
  "MagneticFieldStrength": 3,
  "Manufacturer": "Siemens",
  "ManufacturersModelName": "Prisma_fit",
  "Modality": "MR",
  "MultibandAccelerationFactor": 4,
  "PartialFourier": 1,
  "PatientPosition": "HFS",
  "PercentPhaseFOV": 100,
  "PhaseEncodingDirection": "j",
  "PhaseEncodingSteps": 104,
  "PhaseResolution": 1,
  "PixelBandwidth": 2290,
  "ProcedureStepDescription": "memory_things",
  "ProtocolName": "func_task-things_run-3",
  "PulseSequenceDetails": "%CustomerSeq%_cmrr_mbep2d_bold",
  "ReceiveCoilActiveElements": "HC1-7;NC1,2",
  "ReceiveCoilName": "HeadNeck_64",
  "ReconMatrixPE": 104,
  "RepetitionTime": 1.49,
  "SAR": 0.0601905,
  "ScanOptions": "FS",
  "ScanningSequence": "EP",
  "SequenceName": "epfid2d1_104",
  "SequenceVariant": "SK_SS",
  "SeriesDescription": "func_task-things_run-3",
  "SeriesNumber": 17,
  "ShimSetting": [615, -7196, -8844, 274, -1, -145, -18, -23],
  "SliceThickness": 2,
  "SliceTiming": [0, 0.785, 0.0975, 0.8825, 0.1975, 0.98, 0.295, 1.0775, 0.3925, 1.1775, 0.49, 1.275, 0.5875, 1.3725, 0.6875, 0, 0.785, 0.0975, 0.8825, 0.1975, 0.98, 0.295, 1.0775, 0.3925, 1.1775, 0.49, 1.275, 0.5875, 1.3725, 0.6875, 0, 0.785, 0.0975, 0.8825, 0.1975, 0.98, 0.295, 1.0775, 0.3925, 1.1775, 0.49, 1.275, 0.5875, 1.3725, 0.6875, 0, 0.785, 0.0975, 0.8825, 0.1975, 0.98, 0.295, 1.0775, 0.3925, 1.1775, 0.49, 1.275, 0.5875, 1.3725, 0.6875],
  "SoftwareVersions": "syngo_MR_E11",
  "SpacingBetweenSlices": 2,
  "StationName": "MRC35049",
  "TaskName": "things",
  "TotalReadoutTime": 0.0576811,
  "TxRefAmp": 295.801,
  "WipMemBlock": "8aa8340d-ec51-4ad0-8ece-1e3dac769686||Sequence: R016 ve11c/master r/e634e98; Dec 19 2017 11:00:25 by eja",
  "dcmmeta_affine": [
    [-1.999618411064148, 0.008725050836801529, 0.03808072581887245, 105.59679412841797],
    [-0.011359594762325287, 1.7354024648666382, -0.9941073656082153, -52.12059020996094],
    [0.03737951070070267, 0.9941339492797852, 1.7350218296051025, -77.6785888671875],
    [0.0, 0.0, 0.0, 1.0]
],
  "dcmmeta_reorient_transform": [
    [0.0, -1.0, 0.0, 103.0],
    [1.0, 0.0, 0.0, 0.0],
    [0.0, 0.0, 1.0, 0.0],
    [0.0, 0.0, 0.0, 1.0]
],
  "dcmmeta_shape": [104, 104, 60, 190],
  "dcmmeta_slice_dim": 2,
  "dcmmeta_version": 0.6,
  "global": {
    "const": {
      "AcquisitionMatrix": [104, 0, 0, 104],
      "AngioFlag": "N",
      "BitsAllocated": 16,
      "BitsStored": 16,
      "BodyPartExamined": "BRAIN",
      "Columns": 832,
      "EchoNumbers": 1,
      "EchoTime": 37.0,
      "EchoTrainLength": 104,
      "FlipAngle": 52.0,
      "HighBit": 15,
      "ImageOrientationPatient": [0.99980919826993, 0.00567979735234, 0.0186897553989, 0.0043625255932, 0.86770120857948, -0.4970669783844],
      "ImagePositionPatient": [-837.53249019803, -762.44723216476, 372.97582433165],
      "ImageType": [
        "ORIGINAL",
        "PRIMARY",
        "P",
        "MB",
        "ND",
        "MOSAIC"
],
      "ImagedNucleus": "1H",
      "ImagingFrequency": 123.258875,
      "InPlanePhaseEncodingDirection": "COL",
      "LargestImagePixelValue": 4095,
      "MRAcquisitionType": "2D",
      "MagneticFieldStrength": 3.0,
      "Manufacturer": "SIEMENS",
      "ManufacturerModelName": "Prisma_fit",
      "Modality": "MR",
      "NumberOfAverages": 1.0,
      "NumberOfPhaseEncodingSteps": 104,
      "PercentPhaseFieldOfView": 100.0,
      "PercentSampling": 100.0,
      "PerformedProcedureStepStartTime": "100700.475000",
      "PhotometricInterpretation": "MONOCHROME2",
      "PixelBandwidth": 2290.0,
      "PixelRepresentation": 0,
      "PixelSpacing": [2.0, 2.0],
      "ProtocolName": "func_task-things_run-3",
      "RepetitionTime": 1490.0,
      "RescaleIntercept": -4096.0,
      "RescaleSlope": 2.0,
      "RescaleType": "US",
      "Rows": 832,
      "SAR": 0.06019047545657,
      "SamplesPerPixel": 1,
      "ScanOptions": "FS",
      "ScanningSequence": "EP",
      "SequenceName": "epfid2d1_104",
      "SequenceVariant": [
        "SK",
        "SS"
],
      "SeriesDescription": "func_task-things_run-3",
      "SeriesNumber": 17,
      "SeriesTime": "110650.310000",
      "SliceLocation": -39.469691139635,
      "SliceThickness": 2.0,
      "SmallestImagePixelValue": 0,
      "SoftwareVersions": "syngo MR E11",
      "SpacingBetweenSlices": 2.0000000454824,
      "SpecificCharacterSet": "ISO_IR 100",
      "StudyID": "1",
      "StudyTime": "100700.408000",
      "TransmitCoilName": "Body",
      "VariableFlipAngleFlag": "N",
      "WindowCenterWidthExplanation": "Algo1",
      "dBdt": 0.0},
    "slices": {}
  },
  "time": {
    "samples": {
      "AcquisitionNumber": [1, 2, 3, 4, 5, 6, 7, 8, 9, 10, 11, 12, 13, 14, 15, 16, 17, 18, 19, 20, 21, 22, 23, 24, 25, 26, 27, 28, 29, 30, 31, 32, 33, 34, 35, 36, 37, 38, 39, 40, 41, 42, 43, 44, 45, 46, 47, 48, 49, 50, 51, 52, 53, 54, 55, 56, 57, 58, 59, 60, 61, 62, 63, 64, 65, 66, 67, 68, 69, 70, 71, 72, 73, 74, 75, 76, 77, 78, 79, 80, 81, 82, 83, 84, 85, 86, 87, 88, 89, 90, 91, 92, 93, 94, 95, 96, 97, 98, 99, 100, 101, 102, 103, 104, 105, 106, 107, 108, 109, 110, 111, 112, 113, 114, 115, 116, 117, 118, 119, 120, 121, 122, 123, 124, 125, 126, 127, 128, 129, 130, 131, 132, 133, 134, 135, 136, 137, 138, 139, 140, 141, 142, 143, 144, 145, 146, 147, 148, 149, 150, 151, 152, 153, 154, 155, 156, 157, 158, 159, 160, 161, 162, 163, 164, 165, 166, 167, 168, 169, 170, 171, 172, 173, 174, 175, 176, 177, 178, 179, 180, 181, 182, 183, 184, 185, 186, 187, 188, 189, 190],
      "AcquisitionTime": ["110517.035000", "110518.525000", "110520.015000", "110521.505000", "110522.995000", "110524.485000", "110525.975000", "110527.465000", "110528.955000", "110530.445000", "110531.935000", "110533.425000", "110534.915000", "110536.405000", "110537.895000", "110539.385000", "110540.875000", "110542.365000", "110543.855000", "110545.345000", "110546.835000", "110548.325000", "110549.815000", "110551.305000", "110552.795000", "110554.285000", "110555.775000", "110557.265000", "110558.755000", "110600.245000", "110601.735000", "110603.225000", "110604.715000", "110606.205000", "110607.695000", "110609.185000", "110610.675000", "110612.165000", "110613.655000", "110615.145000", "110616.635000", "110618.125000", "110619.615000", "110621.105000", "110622.595000", "110624.085000", "110625.575000", "110627.065000", "110628.555000", "110630.045000", "110631.535000", "110633.025000", "110634.515000", "110636.005000", "110637.495000", "110638.985000", "110640.475000", "110641.965000", "110643.455000", "110644.945000", "110646.435000", "110647.925000", "110649.415000", "110650.905000", "110652.395000", "110653.885000", "110655.375000", "110656.865000", "110658.355000", "110659.845000", "110701.335000", "110702.825000", "110704.315000", "110705.805000", "110707.295000", "110708.785000", "110710.275000", "110711.765000", "110713.255000", "110714.745000", "110716.235000", "110717.725000", "110719.215000", "110720.705000", "110722.195000", "110723.685000", "110725.175000", "110726.665000", "110728.155000", "110729.645000", "110731.135000", "110732.625000", "110734.115000", "110735.605000", "110737.095000", "110738.585000", "110740.075000", "110741.565000", "110743.055000", "110744.545000", "110746.035000", "110747.525000", "110749.015000", "110750.505000", "110751.995000", "110753.485000", "110754.975000", "110756.465000", "110757.955000", "110759.445000", "110800.935000", "110802.425000", "110803.915000", "110805.405000", "110806.895000", "110808.385000", "110809.875000", "110811.365000", "110812.855000", "110814.345000", "110815.835000", "110817.325000", "110818.815000", "110820.305000", "110821.795000", "110823.285000", "110824.775000", "110826.265000", "110827.755000", "110829.245000", "110830.735000", "110832.225000", "110833.715000", "110835.205000", "110836.695000", "110838.185000", "110839.675000", "110841.165000", "110842.655000", "110844.145000", "110845.635000", "110847.125000", "110848.615000", "110850.105000", "110851.595000", "110853.085000", "110854.575000", "110856.065000", "110857.555000", "110859.045000", "110900.535000", "110902.025000", "110903.515000", "110905.005000", "110906.495000", "110907.985000", "110909.475000", "110910.965000", "110912.455000", "110913.945000", "110915.435000", "110916.925000", "110918.415000", "110919.905000", "110921.395000", "110922.885000", "110924.375000", "110925.865000", "110927.355000", "110928.845000", "110930.335000", "110931.825000", "110933.315000", "110934.805000", "110936.295000", "110937.785000", "110939.275000", "110940.765000", "110942.255000", "110943.745000", "110945.235000", "110946.725000", "110948.215000", "110949.705000", "110951.195000", "110952.685000", "110954.175000", "110955.665000", "110957.155000", "110958.645000"],
      "ContentTime": ["110650.312000", "110650.315000", "110650.317000", "110650.320000", "110650.322000", "110650.325000", "110650.327000", "110650.330000", "110650.332000", "110650.335000", "110650.337000", "110650.340000", "110650.342000", "110650.345000", "110650.347000", "110650.350000", "110650.353000", "110650.355000", "110650.358000", "110650.360000", "110650.363000", "110650.365000", "110650.368000", "110650.370000", "110650.373000", "110650.375000", "110650.384000", "110650.386000", "110650.389000", "110650.391000", "110650.394000", "110650.396000", "110650.399000", "110650.401000", "110650.404000", "110650.407000", "110650.409000", "110650.412000", "110710.190000", "110710.193000", "110710.196000", "110710.198000", "110710.201000", "110710.203000", "110710.206000", "110710.208000", "110710.211000", "110710.213000", "110710.216000", "110710.218000", "110710.221000", "110710.223000", "110710.226000", "110710.228000", "110710.231000", "110710.233000", "110710.236000", "110710.238000", "110730.201000", "110730.203000", "110730.206000", "110730.209000", "110730.211000", "110730.214000", "110730.216000", "110730.219000", "110730.221000", "110730.224000", "110730.226000", "110730.229000", "110730.232000", "110730.234000", "110730.236000", "110730.239000", "110730.242000", "110730.244000", "110730.247000", "110730.249000", "110730.252000", "110750.188000", "110750.191000", "110750.194000", "110750.196000", "110750.199000", "110750.201000", "110750.207000", "110750.210000", "110750.212000", "110750.215000", "110750.217000", "110750.220000", "110750.222000", "110750.225000", "110750.228000", "110750.230000", "110750.233000", "110750.235000", "110750.238000", "110750.240000", "110830.248000", "110830.258000", "110830.260000", "110830.263000", "110830.265000", "110830.268000", "110830.271000", "110830.273000", "110830.276000", "110830.278000", "110830.281000", "110830.283000", "110830.286000", "110830.289000", "110830.291000", "110830.294000", "110830.296000", "110830.299000", "110830.302000", "110830.304000", "110830.307000", "110830.309000", "110830.312000", "110830.314000", "110830.317000", "110830.320000", "110830.322000", "110830.325000", "110830.327000", "110910.226000", "110910.229000", "110910.232000", "110910.234000", "110910.237000", "110910.239000", "110910.242000", "110910.244000", "110910.247000", "110910.250000", "110910.252000", "110910.255000", "110910.257000", "110910.260000", "110910.262000", "110910.265000", "110910.268000", "110910.270000", "110910.273000", "110910.275000", "110910.278000", "110910.280000", "110910.284000", "110910.287000", "110910.289000", "110910.292000", "110910.294000", "110950.224000", "110950.226000", "110950.229000", "110950.232000", "110950.234000", "110950.237000", "110950.239000", "110950.242000", "110950.244000", "110950.247000", "110950.249000", "110950.252000", "110950.255000", "110950.257000", "110950.260000", "110950.262000", "110950.265000", "110950.267000", "110950.270000", "110950.273000", "110950.275000", "110950.278000", "110950.280000", "110950.283000", "110950.285000", "110950.288000", "110950.290000", "111001.197000", "111001.200000", "111001.203000", "111001.206000", "111001.208000", "111001.211000", "111001.213000", "111001.216000"],
      "InstanceCreationTime": ["110650.312000", "110650.315000", "110650.317000", "110650.320000", "110650.322000", "110650.325000", "110650.327000", "110650.330000", "110650.332000", "110650.335000", "110650.337000", "110650.340000", "110650.342000", "110650.345000", "110650.347000", "110650.350000", "110650.353000", "110650.355000", "110650.358000", "110650.360000", "110650.363000", "110650.365000", "110650.368000", "110650.370000", "110650.373000", "110650.375000", "110650.384000", "110650.386000", "110650.389000", "110650.391000", "110650.394000", "110650.396000", "110650.399000", "110650.401000", "110650.404000", "110650.407000", "110650.409000", "110650.412000", "110710.190000", "110710.193000", "110710.196000", "110710.198000", "110710.201000", "110710.203000", "110710.206000", "110710.208000", "110710.211000", "110710.213000", "110710.216000", "110710.218000", "110710.221000", "110710.223000", "110710.226000", "110710.228000", "110710.231000", "110710.233000", "110710.236000", "110710.238000", "110730.201000", "110730.203000", "110730.206000", "110730.209000", "110730.211000", "110730.214000", "110730.216000", "110730.219000", "110730.221000", "110730.224000", "110730.226000", "110730.229000", "110730.232000", "110730.234000", "110730.236000", "110730.239000", "110730.242000", "110730.244000", "110730.247000", "110730.249000", "110730.252000", "110750.188000", "110750.191000", "110750.194000", "110750.196000", "110750.199000", "110750.201000", "110750.207000", "110750.210000", "110750.212000", "110750.215000", "110750.217000", "110750.220000", "110750.222000", "110750.225000", "110750.228000", "110750.230000", "110750.233000", "110750.235000", "110750.238000", "110750.240000", "110830.248000", "110830.258000", "110830.260000", "110830.263000", "110830.265000", "110830.268000", "110830.271000", "110830.273000", "110830.276000", "110830.278000", "110830.281000", "110830.283000", "110830.286000", "110830.289000", "110830.291000", "110830.294000", "110830.296000", "110830.299000", "110830.302000", "110830.304000", "110830.307000", "110830.309000", "110830.312000", "110830.314000", "110830.317000", "110830.320000", "110830.322000", "110830.325000", "110830.327000", "110910.226000", "110910.229000", "110910.232000", "110910.234000", "110910.237000", "110910.239000", "110910.242000", "110910.244000", "110910.247000", "110910.250000", "110910.252000", "110910.255000", "110910.257000", "110910.260000", "110910.262000", "110910.265000", "110910.268000", "110910.270000", "110910.273000", "110910.275000", "110910.278000", "110910.280000", "110910.284000", "110910.287000", "110910.289000", "110910.292000", "110910.294000", "110950.224000", "110950.226000", "110950.229000", "110950.232000", "110950.234000", "110950.237000", "110950.239000", "110950.242000", "110950.244000", "110950.247000", "110950.249000", "110950.252000", "110950.255000", "110950.257000", "110950.260000", "110950.262000", "110950.265000", "110950.267000", "110950.270000", "110950.273000", "110950.275000", "110950.278000", "110950.280000", "110950.283000", "110950.285000", "110950.288000", "110950.290000", "111001.197000", "111001.200000", "111001.203000", "111001.206000", "111001.208000", "111001.211000", "111001.213000", "111001.216000"],
      "InstanceNumber": [1, 2, 3, 4, 5, 6, 7, 8, 9, 10, 11, 12, 13, 14, 15, 16, 17, 18, 19, 20, 21, 22, 23, 24, 25, 26, 27, 28, 29, 30, 31, 32, 33, 34, 35, 36, 37, 38, 39, 40, 41, 42, 43, 44, 45, 46, 47, 48, 49, 50, 51, 52, 53, 54, 55, 56, 57, 58, 59, 60, 61, 62, 63, 64, 65, 66, 67, 68, 69, 70, 71, 72, 73, 74, 75, 76, 77, 78, 79, 80, 81, 82, 83, 84, 85, 86, 87, 88, 89, 90, 91, 92, 93, 94, 95, 96, 97, 98, 99, 100, 101, 102, 103, 104, 105, 106, 107, 108, 109, 110, 111, 112, 113, 114, 115, 116, 117, 118, 119, 120, 121, 122, 123, 124, 125, 126, 127, 128, 129, 130, 131, 132, 133, 134, 135, 136, 137, 138, 139, 140, 141, 142, 143, 144, 145, 146, 147, 148, 149, 150, 151, 152, 153, 154, 155, 156, 157, 158, 159, 160, 161, 162, 163, 164, 165, 166, 167, 168, 169, 170, 171, 172, 173, 174, 175, 176, 177, 178, 179, 180, 181, 182, 183, 184, 185, 186, 187, 188, 189, 190],
      "WindowCenter": [4820.0, 4846.0, 4846.0, 4846.0, 4846.0, 4846.0, 4820.0, 4818.0, 4818.0, 4818.0, 4758.0, 4744.0, 4744.0, 4764.0, 4918.0, 4932.0, 4938.0, 4930.0, 4882.0, 4810.0, 4728.0, 4706.0, 4730.0, 4752.0, 4818.0, 4818.0, 4820.0, 4886.0, 4844.0, 4822.0, 4846.0, 4788.0, 4790.0, 4844.0, 4816.0, 4846.0, 4880.0, 4816.0, 4818.0, 4818.0, 4816.0, 4820.0, 4816.0, 4810.0, 4754.0, 4760.0, 4818.0, 4816.0, 4818.0, 4880.0, 4818.0, 4822.0, 4846.0, 4788.0, 4814.0, 4790.0, 4784.0, 4812.0, 4822.0, 4792.0, 4816.0, 4846.0, 4852.0, 4850.0, 4790.0, 4812.0, 4816.0, 4788.0, 4760.0, 4812.0, 4784.0, 4812.0, 4878.0, 4822.0, 4846.0, 4850.0, 4792.0, 4792.0, 4818.0, 4786.0, 4814.0, 4844.0, 4850.0, 4846.0, 4816.0, 4812.0, 4732.0, 4756.0, 4812.0, 4790.0, 4846.0, 4848.0, 4820.0, 4846.0, 4848.0, 4816.0, 4812.0, 4786.0, 4756.0, 4790.0, 4812.0, 4820.0, 4846.0, 4814.0, 4814.0, 4822.0, 4816.0, 4816.0, 4820.0, 4766.0, 4816.0, 4850.0, 4818.0, 4824.0, 4850.0, 4854.0, 4846.0, 4818.0, 4758.0, 4784.0, 4784.0, 4738.0, 4760.0, 4846.0, 4822.0, 4886.0, 4884.0, 4880.0, 4872.0, 4812.0, 4756.0, 4754.0, 4782.0, 4812.0, 4848.0, 4854.0, 4794.0, 4820.0, 4848.0, 4788.0, 4788.0, 4844.0, 4794.0, 4822.0, 4850.0, 4792.0, 4760.0, 4794.0, 4848.0, 4850.0, 4852.0, 4850.0, 4848.0, 4820.0, 4786.0, 4760.0, 4780.0, 4756.0, 4738.0, 4760.0, 4880.0, 4852.0, 4890.0, 4880.0, 4844.0, 4816.0, 4786.0, 4756.0, 4754.0, 4738.0, 4732.0, 4816.0, 4908.0, 4920.0, 4914.0, 4884.0, 4852.0, 4788.0, 4756.0, 4736.0, 4730.0, 4756.0, 4788.0, 4770.0, 4772.0, 4848.0, 4888.0, 4898.0, 4928.0, 4924.0],
      "WindowWidth": [18658.0, 18694.0, 18694.0, 18692.0, 18698.0, 18694.0, 18664.0, 18662.0, 18662.0, 18662.0, 18578.0, 18532.0, 18530.0, 18590.0, 18764.0, 18744.0, 18736.0, 18756.0, 18738.0, 18652.0, 18540.0, 18506.0, 18544.0, 18576.0, 18660.0, 18662.0, 18664.0, 18732.0, 18696.0, 18668.0, 18694.0, 18620.0, 18626.0, 18694.0, 18660.0, 18694.0, 18736.0, 18660.0, 18662.0, 18664.0, 18662.0, 18662.0, 18658.0, 18652.0, 18576.0, 18584.0, 18664.0, 18660.0, 18666.0, 18734.0, 18658.0, 18666.0, 18698.0, 18624.0, 18658.0, 18630.0, 18620.0, 18658.0, 18666.0, 18632.0, 18662.0, 18694.0, 18702.0, 18700.0, 18624.0, 18660.0, 18662.0, 18626.0, 18588.0, 18660.0, 18618.0, 18658.0, 18734.0, 18666.0, 18696.0, 18696.0, 18634.0, 18630.0, 18662.0, 18622.0, 18660.0, 18696.0, 18694.0, 18696.0, 18658.0, 18654.0, 18544.0, 18578.0, 18658.0, 18626.0, 18696.0, 18698.0, 18666.0, 18698.0, 18698.0, 18660.0, 18660.0, 18624.0, 18584.0, 18628.0, 18658.0, 18662.0, 18688.0, 18658.0, 18660.0, 18666.0, 18662.0, 18660.0, 18660.0, 18590.0, 18660.0, 18696.0, 18664.0, 18664.0, 18702.0, 18696.0, 18698.0, 18662.0, 18584.0, 18624.0, 18616.0, 18542.0, 18590.0, 18694.0, 18666.0, 18732.0, 18732.0, 18730.0, 18732.0, 18656.0, 18578.0, 18576.0, 18614.0, 18662.0, 18702.0, 18704.0, 18632.0, 18666.0, 18698.0, 18624.0, 18624.0, 18694.0, 18628.0, 18666.0, 18698.0, 18624.0, 18580.0, 18634.0, 18698.0, 18698.0, 18700.0, 18694.0, 18702.0, 18668.0, 18622.0, 18580.0, 18620.0, 18578.0, 18538.0, 18590.0, 18732.0, 18692.0, 18738.0, 18728.0, 18698.0, 18660.0, 18626.0, 18578.0, 18576.0, 18544.0, 18546.0, 18664.0, 18768.0, 18768.0, 18762.0, 18730.0, 18702.0, 18630.0, 18578.0, 18536.0, 18534.0, 18584.0, 18618.0, 18580.0, 18596.0, 18698.0, 18724.0, 18716.0, 18748.0, 18764.0]
    },
    "slices": {}
  }
}