{
  "AcquisitionMatrixPE": 104,
  "AcquisitionNumber": 1,
  "AcquisitionTime": "10:58:15.832500",
  "BandwidthPerPixelPhaseEncode": 17.17,
  "BaseResolution": 104,
  "BodyPartExamined": "BRAIN",
  "CoilString": "HC1-7;NC1_2",
  "ConsistencyInfo": "N4_VE11C_LATEST_20160120",
  "ConversionSoftware": "dcm2niix",
  "ConversionSoftwareVersion": "v1.0.20190902",
  "DerivedVendorReportedEchoSpacing": 0.000560011,
  "DeviceSerialNumber": "167006",
  "DwellTime": 2.1e-06,
  "EchoTime": 0.037,
  "EchoTrainLength": 104,
  "EffectiveEchoSpacing": 0.000560011,
  "FlipAngle": 52,
  "ImageComments": "Unaliased_MB4_PE3_LB",
  "ImageOrientationPatientDICOM": [0.999809, 0.0056798, 0.0186898, 0.00436253, 0.867701, -0.497067],
  "ImageType": [
    "ORIGINAL",
    "PRIMARY",
    "M",
    "MB",
    "ND",
    "MOSAIC"
],
  "ImagingFrequency": 123.259,
  "InPlanePhaseEncodingDirectionDICOM": "COL",
  "InstitutionAddress": "Chemin_Queen-Mary_4565_Montreal_District_CA_H3W_1W5",
  "InstitutionName": "IUGM",
  "InstitutionalDepartmentName": "Department",
  "MRAcquisitionType": "2D",
  "MagneticFieldStrength": 3,
  "Manufacturer": "Siemens",
  "ManufacturersModelName": "Prisma_fit",
  "Modality": "MR",
  "MultibandAccelerationFactor": 4,
  "PartialFourier": 1,
  "PatientPosition": "HFS",
  "PercentPhaseFOV": 100,
  "PhaseEncodingDirection": "j",
  "PhaseEncodingSteps": 104,
  "PhaseResolution": 1,
  "PixelBandwidth": 2290,
  "ProcedureStepDescription": "memory_things",
  "ProtocolName": "func_task-things_run-2",
  "PulseSequenceDetails": "%CustomerSeq%_cmrr_mbep2d_bold",
  "ReceiveCoilActiveElements": "HC1-7;NC1,2",
  "ReceiveCoilName": "HeadNeck_64",
  "ReconMatrixPE": 104,
  "RepetitionTime": 1.49,
  "SAR": 0.0601905,
  "ScanOptions": "FS",
  "ScanningSequence": "EP",
  "SequenceName": "epfid2d1_104",
  "SequenceVariant": "SK_SS",
  "SeriesDescription": "func_task-things_run-2",
  "SeriesNumber": 13,
  "ShimSetting": [615, -7196, -8844, 274, -1, -145, -18, -23],
  "SliceThickness": 2,
  "SliceTiming": [0, 0.7825, 0.0975, 0.8825, 0.195, 0.98, 0.2925, 1.0775, 0.3925, 1.175, 0.49, 1.2725, 0.5875, 1.3725, 0.685, 0, 0.7825, 0.0975, 0.8825, 0.195, 0.98, 0.2925, 1.0775, 0.3925, 1.175, 0.49, 1.2725, 0.5875, 1.3725, 0.685, 0, 0.7825, 0.0975, 0.8825, 0.195, 0.98, 0.2925, 1.0775, 0.3925, 1.175, 0.49, 1.2725, 0.5875, 1.3725, 0.685, 0, 0.7825, 0.0975, 0.8825, 0.195, 0.98, 0.2925, 1.0775, 0.3925, 1.175, 0.49, 1.2725, 0.5875, 1.3725, 0.685],
  "SoftwareVersions": "syngo_MR_E11",
  "SpacingBetweenSlices": 2,
  "StationName": "MRC35049",
  "TaskName": "things",
  "TotalReadoutTime": 0.0576811,
  "TxRefAmp": 295.801,
  "WipMemBlock": "1676b999-9d3e-4549-bdf6-7976ba70a909||Sequence: R016 ve11c/master r/e634e98; Dec 19 2017 11:00:25 by eja",
  "dcmmeta_affine": [
    [-1.999618411064148, 0.008725050836801529, 0.03808072581887245, 105.59679412841797],
    [-0.011359594762325287, 1.7354024648666382, -0.9941073656082153, -52.12059020996094],
    [0.03737951070070267, 0.9941339492797852, 1.7350218296051025, -77.6785888671875],
    [0.0, 0.0, 0.0, 1.0]
],
  "dcmmeta_reorient_transform": [
    [0.0, -1.0, 0.0, 103.0],
    [1.0, 0.0, 0.0, 0.0],
    [0.0, 0.0, 1.0, 0.0],
    [0.0, 0.0, 0.0, 1.0]
],
  "dcmmeta_shape": [104, 104, 60, 190],
  "dcmmeta_slice_dim": 2,
  "dcmmeta_version": 0.6,
  "global": {
    "const": {
      "AcquisitionMatrix": [104, 0, 0, 104],
      "AngioFlag": "N",
      "BitsAllocated": 16,
      "BitsStored": 16,
      "BodyPartExamined": "BRAIN",
      "Columns": 832,
      "EchoNumbers": 1,
      "EchoTime": 37.0,
      "EchoTrainLength": 104,
      "FlipAngle": 52.0,
      "HighBit": 15,
      "ImageOrientationPatient": [0.99980919826993, 0.00567979735234, 0.0186897553989, 0.0043625255932, 0.86770120857948, -0.4970669783844],
      "ImagePositionPatient": [-837.53249019803, -762.44723216476, 372.97582433165],
      "ImageType": [
        "ORIGINAL",
        "PRIMARY",
        "M",
        "MB",
        "ND",
        "MOSAIC"
],
      "ImagedNucleus": "1H",
      "ImagingFrequency": 123.258871,
      "InPlanePhaseEncodingDirection": "COL",
      "MRAcquisitionType": "2D",
      "MagneticFieldStrength": 3.0,
      "Manufacturer": "SIEMENS",
      "ManufacturerModelName": "Prisma_fit",
      "Modality": "MR",
      "NumberOfAverages": 1.0,
      "NumberOfPhaseEncodingSteps": 104,
      "PercentPhaseFieldOfView": 100.0,
      "PercentSampling": 100.0,
      "PerformedProcedureStepStartTime": "100700.475000",
      "PhotometricInterpretation": "MONOCHROME2",
      "PixelBandwidth": 2290.0,
      "PixelRepresentation": 0,
      "PixelSpacing": [2.0, 2.0],
      "ProtocolName": "func_task-things_run-2",
      "RepetitionTime": 1490.0,
      "Rows": 832,
      "SAR": 0.06019047545657,
      "SamplesPerPixel": 1,
      "ScanOptions": "FS",
      "ScanningSequence": "EP",
      "SequenceName": "epfid2d1_104",
      "SequenceVariant": [
        "SK",
        "SS"
],
      "SeriesDescription": "func_task-things_run-2",
      "SeriesNumber": 13,
      "SeriesTime": "105932.057000",
      "SliceLocation": -39.469691139635,
      "SliceThickness": 2.0,
      "SmallestImagePixelValue": 0,
      "SoftwareVersions": "syngo MR E11",
      "SpacingBetweenSlices": 2.0000000454824,
      "SpecificCharacterSet": "ISO_IR 100",
      "StudyID": "1",
      "StudyTime": "100700.408000",
      "TransmitCoilName": "Body",
      "VariableFlipAngleFlag": "N",
      "WindowCenterWidthExplanation": "Algo1",
      "dBdt": 0.0},
    "slices": {}
  },
  "time": {
    "samples": {
      "AcquisitionNumber": [1, 2, 3, 4, 5, 6, 7, 8, 9, 10, 11, 12, 13, 14, 15, 16, 17, 18, 19, 20, 21, 22, 23, 24, 25, 26, 27, 28, 29, 30, 31, 32, 33, 34, 35, 36, 37, 38, 39, 40, 41, 42, 43, 44, 45, 46, 47, 48, 49, 50, 51, 52, 53, 54, 55, 56, 57, 58, 59, 60, 61, 62, 63, 64, 65, 66, 67, 68, 69, 70, 71, 72, 73, 74, 75, 76, 77, 78, 79, 80, 81, 82, 83, 84, 85, 86, 87, 88, 89, 90, 91, 92, 93, 94, 95, 96, 97, 98, 99, 100, 101, 102, 103, 104, 105, 106, 107, 108, 109, 110, 111, 112, 113, 114, 115, 116, 117, 118, 119, 120, 121, 122, 123, 124, 125, 126, 127, 128, 129, 130, 131, 132, 133, 134, 135, 136, 137, 138, 139, 140, 141, 142, 143, 144, 145, 146, 147, 148, 149, 150, 151, 152, 153, 154, 155, 156, 157, 158, 159, 160, 161, 162, 163, 164, 165, 166, 167, 168, 169, 170, 171, 172, 173, 174, 175, 176, 177, 178, 179, 180, 181, 182, 183, 184, 185, 186, 187, 188, 189, 190],
      "AcquisitionTime": ["105815.832500", "105817.322500", "105818.812500", "105820.302500", "105821.792500", "105823.282500", "105824.772500", "105826.262500", "105827.752500", "105829.242500", "105830.732500", "105832.222500", "105833.712500", "105835.202500", "105836.692500", "105838.182500", "105839.672500", "105841.162500", "105842.652500", "105844.142500", "105845.632500", "105847.122500", "105848.612500", "105850.102500", "105851.592500", "105853.082500", "105854.572500", "105856.062500", "105857.552500", "105859.042500", "105900.532500", "105902.022500", "105903.512500", "105905.002500", "105906.492500", "105907.982500", "105909.472500", "105910.962500", "105912.452500", "105913.942500", "105915.432500", "105916.922500", "105918.412500", "105919.902500", "105921.392500", "105922.882500", "105924.372500", "105925.862500", "105927.352500", "105928.842500", "105930.332500", "105931.822500", "105933.312500", "105934.802500", "105936.292500", "105937.782500", "105939.272500", "105940.762500", "105942.252500", "105943.742500", "105945.232500", "105946.722500", "105948.212500", "105949.702500", "105951.192500", "105952.682500", "105954.172500", "105955.662500", "105957.152500", "105958.642500", "110000.132500", "110001.622500", "110003.112500", "110004.602500", "110006.092500", "110007.582500", "110009.072500", "110010.562500", "110012.052500", "110013.542500", "110015.032500", "110016.522500", "110018.012500", "110019.502500", "110020.992500", "110022.482500", "110023.972500", "110025.462500", "110026.952500", "110028.442500", "110029.932500", "110031.422500", "110032.912500", "110034.402500", "110035.892500", "110037.382500", "110038.872500", "110040.362500", "110041.852500", "110043.342500", "110044.832500", "110046.322500", "110047.812500", "110049.302500", "110050.792500", "110052.282500", "110053.772500", "110055.262500", "110056.752500", "110058.242500", "110059.732500", "110101.222500", "110102.712500", "110104.202500", "110105.692500", "110107.182500", "110108.672500", "110110.162500", "110111.652500", "110113.142500", "110114.632500", "110116.122500", "110117.612500", "110119.102500", "110120.592500", "110122.082500", "110123.572500", "110125.062500", "110126.552500", "110128.042500", "110129.532500", "110131.022500", "110132.512500", "110134.002500", "110135.492500", "110136.982500", "110138.472500", "110139.962500", "110141.452500", "110142.942500", "110144.432500", "110145.922500", "110147.412500", "110148.902500", "110150.392500", "110151.882500", "110153.372500", "110154.862500", "110156.352500", "110157.842500", "110159.332500", "110200.822500", "110202.312500", "110203.802500", "110205.292500", "110206.782500", "110208.272500", "110209.762500", "110211.252500", "110212.742500", "110214.232500", "110215.722500", "110217.212500", "110218.702500", "110220.192500", "110221.682500", "110223.172500", "110224.662500", "110226.152500", "110227.642500", "110229.132500", "110230.622500", "110232.112500", "110233.602500", "110235.092500", "110236.582500", "110238.072500", "110239.562500", "110241.052500", "110242.542500", "110244.032500", "110245.522500", "110247.012500", "110248.502500", "110249.992500", "110251.482500", "110252.972500", "110254.462500", "110255.952500", "110257.442500"],
      "ContentTime": ["105932.061000", "105932.071000", "105932.074000", "105932.078000", "105932.087000", "105932.090000", "105932.093000", "105932.097000", "105932.100000", "105932.103000", "105932.107000", "105932.110000", "105932.113000", "105932.134000", "105932.137000", "105932.141000", "105932.144000", "105932.156000", "105932.159000", "105932.163000", "105952.020000", "105952.032000", "105952.035000", "105952.060000", "105952.063000", "105952.066000", "105952.070000", "105952.073000", "105952.077000", "105952.080000", "105952.084000", "105952.087000", "105952.090000", "105952.094000", "105952.097000", "105952.101000", "105952.104000", "105952.107000", "105952.111000", "105952.114000", "105952.117000", "110012.019000", "110012.023000", "110012.026000", "110012.029000", "110012.033000", "110012.036000", "110012.048000", "110012.051000", "110012.054000", "110012.058000", "110012.061000", "110012.065000", "110012.068000", "110012.072000", "110012.075000", "110012.078000", "110012.082000", "110012.085000", "110012.089000", "110012.092000", "110032.019000", "110032.023000", "110032.027000", "110032.030000", "110032.033000", "110032.037000", "110032.040000", "110032.044000", "110032.047000", "110032.051000", "110032.054000", "110032.057000", "110032.070000", "110032.074000", "110032.077000", "110032.080000", "110032.084000", "110032.087000", "110032.091000", "110032.094000", "110052.020000", "110052.024000", "110052.033000", "110052.042000", "110052.046000", "110052.049000", "110052.059000", "110052.063000", "110052.066000", "110052.087000", "110052.091000", "110052.094000", "110052.097000", "110052.101000", "110052.104000", "110052.107000", "110052.111000", "110052.114000", "110052.118000", "110052.121000", "110132.019000", "110132.023000", "110132.026000", "110132.030000", "110132.033000", "110132.037000", "110132.040000", "110132.043000", "110132.047000", "110132.050000", "110132.054000", "110132.057000", "110132.060000", "110132.064000", "110132.067000", "110132.070000", "110132.074000", "110132.092000", "110132.096000", "110132.099000", "110132.103000", "110132.106000", "110132.109000", "110132.113000", "110132.120000", "110132.123000", "110132.126000", "110132.130000", "110132.141000", "110132.144000", "110212.020000", "110212.024000", "110212.027000", "110212.031000", "110212.034000", "110212.038000", "110212.041000", "110212.045000", "110212.048000", "110212.052000", "110212.055000", "110212.058000", "110212.062000", "110212.065000", "110212.069000", "110212.072000", "110212.076000", "110212.079000", "110212.082000", "110212.086000", "110212.089000", "110212.093000", "110212.096000", "110212.099000", "110212.103000", "110212.106000", "110252.019000", "110252.023000", "110252.026000", "110252.030000", "110252.033000", "110252.036000", "110252.040000", "110252.043000", "110252.047000", "110252.050000", "110252.053000", "110252.057000", "110252.060000", "110252.064000", "110252.067000", "110252.070000", "110252.074000", "110252.077000", "110252.081000", "110252.084000", "110252.087000", "110252.091000", "110252.094000", "110252.097000", "110252.101000", "110252.104000", "110252.108000", "110259.866000", "110259.870000", "110259.874000", "110259.877000", "110259.881000", "110259.885000"],
      "InstanceCreationTime": ["105932.061000", "105932.071000", "105932.074000", "105932.078000", "105932.087000", "105932.090000", "105932.093000", "105932.097000", "105932.100000", "105932.103000", "105932.107000", "105932.110000", "105932.113000", "105932.134000", "105932.137000", "105932.141000", "105932.144000", "105932.156000", "105932.159000", "105932.163000", "105952.020000", "105952.032000", "105952.035000", "105952.060000", "105952.063000", "105952.066000", "105952.070000", "105952.073000", "105952.077000", "105952.080000", "105952.084000", "105952.087000", "105952.090000", "105952.094000", "105952.097000", "105952.101000", "105952.104000", "105952.107000", "105952.111000", "105952.114000", "105952.117000", "110012.019000", "110012.023000", "110012.026000", "110012.029000", "110012.033000", "110012.036000", "110012.048000", "110012.051000", "110012.054000", "110012.058000", "110012.061000", "110012.065000", "110012.068000", "110012.072000", "110012.075000", "110012.078000", "110012.082000", "110012.085000", "110012.089000", "110012.092000", "110032.019000", "110032.023000", "110032.027000", "110032.030000", "110032.033000", "110032.037000", "110032.040000", "110032.044000", "110032.047000", "110032.051000", "110032.054000", "110032.057000", "110032.070000", "110032.074000", "110032.077000", "110032.080000", "110032.084000", "110032.087000", "110032.091000", "110032.094000", "110052.020000", "110052.024000", "110052.033000", "110052.042000", "110052.046000", "110052.049000", "110052.059000", "110052.063000", "110052.066000", "110052.087000", "110052.091000", "110052.094000", "110052.097000", "110052.101000", "110052.104000", "110052.107000", "110052.111000", "110052.114000", "110052.118000", "110052.121000", "110132.019000", "110132.023000", "110132.026000", "110132.030000", "110132.033000", "110132.037000", "110132.040000", "110132.043000", "110132.047000", "110132.050000", "110132.054000", "110132.057000", "110132.060000", "110132.064000", "110132.067000", "110132.070000", "110132.074000", "110132.092000", "110132.096000", "110132.099000", "110132.103000", "110132.106000", "110132.109000", "110132.113000", "110132.120000", "110132.123000", "110132.126000", "110132.130000", "110132.141000", "110132.144000", "110212.020000", "110212.024000", "110212.027000", "110212.031000", "110212.034000", "110212.038000", "110212.041000", "110212.045000", "110212.048000", "110212.052000", "110212.055000", "110212.058000", "110212.062000", "110212.065000", "110212.069000", "110212.072000", "110212.076000", "110212.079000", "110212.082000", "110212.086000", "110212.089000", "110212.093000", "110212.096000", "110212.099000", "110212.103000", "110212.106000", "110252.019000", "110252.023000", "110252.026000", "110252.030000", "110252.033000", "110252.036000", "110252.040000", "110252.043000", "110252.047000", "110252.050000", "110252.053000", "110252.057000", "110252.060000", "110252.064000", "110252.067000", "110252.070000", "110252.074000", "110252.077000", "110252.081000", "110252.084000", "110252.087000", "110252.091000", "110252.094000", "110252.097000", "110252.101000", "110252.104000", "110252.108000", "110259.866000", "110259.870000", "110259.874000", "110259.877000", "110259.881000", "110259.885000"],
      "InstanceNumber": [1, 2, 3, 4, 5, 6, 7, 8, 9, 10, 11, 12, 13, 14, 15, 16, 17, 18, 19, 20, 21, 22, 23, 24, 25, 26, 27, 28, 29, 30, 31, 32, 33, 34, 35, 36, 37, 38, 39, 40, 41, 42, 43, 44, 45, 46, 47, 48, 49, 50, 51, 52, 53, 54, 55, 56, 57, 58, 59, 60, 61, 62, 63, 64, 65, 66, 67, 68, 69, 70, 71, 72, 73, 74, 75, 76, 77, 78, 79, 80, 81, 82, 83, 84, 85, 86, 87, 88, 89, 90, 91, 92, 93, 94, 95, 96, 97, 98, 99, 100, 101, 102, 103, 104, 105, 106, 107, 108, 109, 110, 111, 112, 113, 114, 115, 116, 117, 118, 119, 120, 121, 122, 123, 124, 125, 126, 127, 128, 129, 130, 131, 132, 133, 134, 135, 136, 137, 138, 139, 140, 141, 142, 143, 144, 145, 146, 147, 148, 149, 150, 151, 152, 153, 154, 155, 156, 157, 158, 159, 160, 161, 162, 163, 164, 165, 166, 167, 168, 169, 170, 171, 172, 173, 174, 175, 176, 177, 178, 179, 180, 181, 182, 183, 184, 185, 186, 187, 188, 189, 190],
      "LargestImagePixelValue": [48810, 47754, 47541, 46996, 43595, 45334, 46032, 46028, 45587, 46240, 46001, 46010, 45833, 43990, 44299, 45147, 44535, 45393, 45892, 44339, 45610, 45896, 43932, 45038, 44878, 44105, 45223, 45071, 45457, 46194, 44993, 44603, 45807, 45584, 44237, 43840, 43486, 44810, 45497, 44284, 44959, 44172, 44398, 44344, 43847, 45685, 45429, 45653, 43746, 43587, 45592, 44392, 44742, 44140, 44416, 44380, 44980, 45820, 43785, 46092, 44948, 43232, 45063, 44534, 44699, 46025, 43782, 45004, 45913, 43273, 44845, 45264, 45163, 45422, 44318, 44591, 44434, 43876, 43933, 42672, 45631, 44601, 44101, 45891, 44157, 44566, 43219, 44087, 43076, 43618, 44969, 43145, 44590, 44502, 43795, 45657, 44140, 42794, 45512, 43861, 44011, 45292, 44230, 44871, 44257, 45035, 45287, 45106, 43758, 43464, 45516, 43487, 45112, 45375, 43783, 44591, 44141, 45688, 43871, 45524, 44410, 43217, 45286, 43765, 44499, 45724, 43795, 43053, 44514, 45264, 44376, 44206, 44052, 43074, 44868, 45134, 43996, 44751, 45731, 43666, 44675, 45146, 43580, 44657, 44597, 43604, 44340, 45293, 44150, 45260, 45884, 43957, 45516, 44834, 43118, 45964, 45539, 44106, 45757, 46082, 44493, 45661, 45756, 43998, 45302, 45875, 44929, 46289, 46061, 44465, 45829, 46419, 43958, 45051, 46218, 45995, 45813, 46372, 45235, 45035, 46181, 44954, 45360, 46840, 45983, 44838, 46794, 47175, 46610, 46291],
      "WindowCenter": [10988.0, 10955.0, 10966.0, 10943.0, 10902.0, 10915.0, 10925.0, 10926.0, 10924.0, 10935.0, 10929.0, 10921.0, 10912.0, 10889.0, 10889.0, 10906.0, 10899.0, 10906.0, 10911.0, 10902.0, 10914.0, 10919.0, 10903.0, 10923.0, 10919.0, 10924.0, 10942.0, 10936.0, 10932.0, 10933.0, 10942.0, 10948.0, 10933.0, 10906.0, 10867.0, 10885.0, 10922.0, 10933.0, 10908.0, 10863.0, 10855.0, 10839.0, 10864.0, 10895.0, 10921.0, 10943.0, 10921.0, 10902.0, 10898.0, 10931.0, 10906.0, 10868.0, 10847.0, 10844.0, 10855.0, 10872.0, 10902.0, 10899.0, 10879.0, 10888.0, 10869.0, 10856.0, 10868.0, 10866.0, 10864.0, 10876.0, 10841.0, 10857.0, 10860.0, 10839.0, 10861.0, 10857.0, 10851.0, 10865.0, 10859.0, 10868.0, 10852.0, 10858.0, 10879.0, 10883.0, 10903.0, 10867.0, 10848.0, 10849.0, 10830.0, 10841.0, 10845.0, 10867.0, 10863.0, 10857.0, 10864.0, 10842.0, 10848.0, 10847.0, 10836.0, 10865.0, 10851.0, 10850.0, 10884.0, 10876.0, 10886.0, 10898.0, 10882.0, 10883.0, 10879.0, 10893.0, 10881.0, 10887.0, 10873.0, 10861.0, 10873.0, 10842.0, 10849.0, 10860.0, 10855.0, 10876.0, 10882.0, 10898.0, 10884.0, 10880.0, 10869.0, 10865.0, 10900.0, 10879.0, 10890.0, 10862.0, 10812.0, 10827.0, 10872.0, 10898.0, 10887.0, 10890.0, 10886.0, 10858.0, 10858.0, 10853.0, 10837.0, 10860.0, 10879.0, 10872.0, 10892.0, 10892.0, 10863.0, 10876.0, 10867.0, 10851.0, 10861.0, 10872.0, 10871.0, 10889.0, 10882.0, 10853.0, 10859.0, 10864.0, 10870.0, 10901.0, 10892.0, 10872.0, 10884.0, 10881.0, 10868.0, 10884.0, 10879.0, 10851.0, 10875.0, 10885.0, 10883.0, 10889.0, 10874.0, 10865.0, 10883.0, 10896.0, 10872.0, 10868.0, 10895.0, 10918.0, 10917.0, 10912.0, 10884.0, 10875.0, 10840.0, 10843.0, 10870.0, 10902.0, 10907.0, 10883.0, 10921.0, 10926.0, 10888.0, 10863.0],
      "WindowWidth": [23640.0, 23531.0, 23533.0, 23472.0, 23386.0, 23402.0, 23421.0, 23422.0, 23422.0, 23442.0, 23432.0, 23411.0, 23396.0, 23347.0, 23344.0, 23379.0, 23370.0, 23377.0, 23386.0, 23374.0, 23395.0, 23405.0, 23378.0, 23414.0, 23409.0, 23424.0, 23461.0, 23452.0, 23440.0, 23434.0, 23460.0, 23475.0, 23438.0, 23382.0, 23294.0, 23331.0, 23421.0, 23442.0, 23381.0, 23286.0, 23269.0, 23231.0, 23284.0, 23354.0, 23417.0, 23463.0, 23413.0, 23366.0, 23365.0, 23446.0, 23376.0, 23293.0, 23245.0, 23238.0, 23266.0, 23302.0, 23367.0, 23356.0, 23323.0, 23332.0, 23294.0, 23274.0, 23290.0, 23296.0, 23284.0, 23301.0, 23234.0, 23266.0, 23269.0, 23236.0, 23275.0, 23265.0, 23251.0, 23281.0, 23276.0, 23291.0, 23257.0, 23270.0, 23321.0, 23337.0, 23367.0, 23291.0, 23251.0, 23242.0, 23209.0, 23229.0, 23243.0, 23293.0, 23283.0, 23269.0, 23275.0, 23236.0, 23242.0, 23239.0, 23220.0, 23274.0, 23251.0, 23253.0, 23319.0, 23314.0, 23333.0, 23354.0, 23324.0, 23321.0, 23314.0, 23351.0, 23319.0, 23325.0, 23305.0, 23278.0, 23293.0, 23233.0, 23243.0, 23265.0, 23258.0, 23303.0, 23322.0, 23351.0, 23331.0, 23310.0, 23290.0, 23288.0, 23358.0, 23321.0, 23343.0, 23271.0, 23168.0, 23200.0, 23295.0, 23358.0, 23337.0, 23340.0, 23341.0, 23277.0, 23262.0, 23254.0, 23224.0, 23270.0, 23308.0, 23307.0, 23345.0, 23344.0, 23285.0, 23306.0, 23288.0, 23257.0, 23274.0, 23293.0, 23298.0, 23331.0, 23323.0, 23260.0, 23265.0, 23285.0, 23303.0, 23358.0, 23350.0, 23302.0, 23319.0, 23311.0, 23286.0, 23319.0, 23304.0, 23253.0, 23297.0, 23332.0, 23324.0, 23327.0, 23293.0, 23279.0, 23313.0, 23339.0, 23300.0, 23281.0, 23341.0, 23397.0, 23396.0, 23384.0, 23323.0, 23301.0, 23217.0, 23229.0, 23289.0, 23355.0, 23386.0, 23321.0, 23416.0, 23420.0, 23328.0, 23277.0]
    },
    "slices": {}
  }
}