{
  "AcquisitionMatrixPE": 104,
  "AcquisitionNumber": 1,
  "AcquisitionTime": "11:23:37.672500",
  "BandwidthPerPixelPhaseEncode": 17.17,
  "BaseResolution": 104,
  "BodyPartExamined": "BRAIN",
  "CoilString": "HC1-7;NC1_2",
  "ConsistencyInfo": "N4_VE11C_LATEST_20160120",
  "ConversionSoftware": "dcm2niix",
  "ConversionSoftwareVersion": "v1.0.20190902",
  "DerivedVendorReportedEchoSpacing": 0.000560011,
  "DeviceSerialNumber": "167006",
  "DwellTime": 2.1e-06,
  "EchoTime": 0.037,
  "EchoTrainLength": 104,
  "EffectiveEchoSpacing": 0.000560011,
  "FlipAngle": 52,
  "ImageComments": "Unaliased_MB4_PE3_LB",
  "ImageOrientationPatientDICOM": [0.999809, 0.0056798, 0.0186898, 0.00436253, 0.867701, -0.497067],
  "ImageType": [
    "ORIGINAL",
    "PRIMARY",
    "M",
    "MB",
    "ND",
    "MOSAIC"
],
  "ImagingFrequency": 123.259,
  "InPlanePhaseEncodingDirectionDICOM": "COL",
  "InstitutionAddress": "Chemin_Queen-Mary_4565_Montreal_District_CA_H3W_1W5",
  "InstitutionName": "IUGM",
  "InstitutionalDepartmentName": "Department",
  "MRAcquisitionType": "2D",
  "MagneticFieldStrength": 3,
  "Manufacturer": "Siemens",
  "ManufacturersModelName": "Prisma_fit",
  "Modality": "MR",
  "MultibandAccelerationFactor": 4,
  "PartialFourier": 1,
  "PatientPosition": "HFS",
  "PercentPhaseFOV": 100,
  "PhaseEncodingDirection": "j",
  "PhaseEncodingSteps": 104,
  "PhaseResolution": 1,
  "PixelBandwidth": 2290,
  "ProcedureStepDescription": "memory_things",
  "ProtocolName": "func_task-things_run-6",
  "PulseSequenceDetails": "%CustomerSeq%_cmrr_mbep2d_bold",
  "ReceiveCoilActiveElements": "HC1-7;NC1,2",
  "ReceiveCoilName": "HeadNeck_64",
  "ReconMatrixPE": 104,
  "RepetitionTime": 1.49,
  "SAR": 0.0601905,
  "ScanOptions": "FS",
  "ScanningSequence": "EP",
  "SequenceName": "epfid2d1_104",
  "SequenceVariant": "SK_SS",
  "SeriesDescription": "func_task-things_run-6",
  "SeriesNumber": 25,
  "ShimSetting": [615, -7196, -8844, 274, -1, -145, -18, -23],
  "SliceThickness": 2,
  "SliceTiming": [0, 0.785, 0.1, 0.8825, 0.1975, 0.98, 0.295, 1.0775, 0.3925, 1.1775, 0.49, 1.275, 0.5875, 1.3725, 0.6875, 0, 0.785, 0.1, 0.8825, 0.1975, 0.98, 0.295, 1.0775, 0.3925, 1.1775, 0.49, 1.275, 0.5875, 1.3725, 0.6875, 0, 0.785, 0.1, 0.8825, 0.1975, 0.98, 0.295, 1.0775, 0.3925, 1.1775, 0.49, 1.275, 0.5875, 1.3725, 0.6875, 0, 0.785, 0.1, 0.8825, 0.1975, 0.98, 0.295, 1.0775, 0.3925, 1.1775, 0.49, 1.275, 0.5875, 1.3725, 0.6875],
  "SoftwareVersions": "syngo_MR_E11",
  "SpacingBetweenSlices": 2,
  "StationName": "MRC35049",
  "TaskName": "things",
  "TotalReadoutTime": 0.0576811,
  "TxRefAmp": 295.801,
  "WipMemBlock": "e636ea70-7068-463c-bfa3-4309f3579d95||Sequence: R016 ve11c/master r/e634e98; Dec 19 2017 11:00:25 by eja",
  "dcmmeta_affine": [
    [-1.999618411064148, 0.008725050836801529, 0.03808072581887245, 105.59679412841797],
    [-0.011359594762325287, 1.7354024648666382, -0.9941073656082153, -52.12059020996094],
    [0.03737951070070267, 0.9941339492797852, 1.7350218296051025, -77.6785888671875],
    [0.0, 0.0, 0.0, 1.0]
],
  "dcmmeta_reorient_transform": [
    [0.0, -1.0, 0.0, 103.0],
    [1.0, 0.0, 0.0, 0.0],
    [0.0, 0.0, 1.0, 0.0],
    [0.0, 0.0, 0.0, 1.0]
],
  "dcmmeta_shape": [104, 104, 60, 190],
  "dcmmeta_slice_dim": 2,
  "dcmmeta_version": 0.6,
  "global": {
    "const": {
      "AcquisitionMatrix": [104, 0, 0, 104],
      "AngioFlag": "N",
      "BitsAllocated": 16,
      "BitsStored": 16,
      "BodyPartExamined": "BRAIN",
      "Columns": 832,
      "EchoNumbers": 1,
      "EchoTime": 37.0,
      "EchoTrainLength": 104,
      "FlipAngle": 52.0,
      "HighBit": 15,
      "ImageOrientationPatient": [0.99980919826993, 0.00567979735234, 0.0186897553989, 0.0043625255932, 0.86770120857948, -0.4970669783844],
      "ImagePositionPatient": [-837.53249019803, -762.44723216476, 372.97582433165],
      "ImageType": [
        "ORIGINAL",
        "PRIMARY",
        "M",
        "MB",
        "ND",
        "MOSAIC"
],
      "ImagedNucleus": "1H",
      "ImagingFrequency": 123.258885,
      "InPlanePhaseEncodingDirection": "COL",
      "MRAcquisitionType": "2D",
      "MagneticFieldStrength": 3.0,
      "Manufacturer": "SIEMENS",
      "ManufacturerModelName": "Prisma_fit",
      "Modality": "MR",
      "NumberOfAverages": 1.0,
      "NumberOfPhaseEncodingSteps": 104,
      "PercentPhaseFieldOfView": 100.0,
      "PercentSampling": 100.0,
      "PerformedProcedureStepStartTime": "100700.475000",
      "PhotometricInterpretation": "MONOCHROME2",
      "PixelBandwidth": 2290.0,
      "PixelRepresentation": 0,
      "PixelSpacing": [2.0, 2.0],
      "ProtocolName": "func_task-things_run-6",
      "RepetitionTime": 1490.0,
      "Rows": 832,
      "SAR": 0.06019047545657,
      "SamplesPerPixel": 1,
      "ScanOptions": "FS",
      "ScanningSequence": "EP",
      "SequenceName": "epfid2d1_104",
      "SequenceVariant": [
        "SK",
        "SS"
],
      "SeriesDescription": "func_task-things_run-6",
      "SeriesNumber": 25,
      "SeriesTime": "112510.117000",
      "SliceLocation": -39.469691139635,
      "SliceThickness": 2.0,
      "SmallestImagePixelValue": 0,
      "SoftwareVersions": "syngo MR E11",
      "SpacingBetweenSlices": 2.0000000454824,
      "SpecificCharacterSet": "ISO_IR 100",
      "StudyID": "1",
      "StudyTime": "100700.408000",
      "TransmitCoilName": "Body",
      "VariableFlipAngleFlag": "N",
      "WindowCenterWidthExplanation": "Algo1",
      "dBdt": 0.0},
    "slices": {}
  },
  "time": {
    "samples": {
      "AcquisitionNumber": [1, 2, 3, 4, 5, 6, 7, 8, 9, 10, 11, 12, 13, 14, 15, 16, 17, 18, 19, 20, 21, 22, 23, 24, 25, 26, 27, 28, 29, 30, 31, 32, 33, 34, 35, 36, 37, 38, 39, 40, 41, 42, 43, 44, 45, 46, 47, 48, 49, 50, 51, 52, 53, 54, 55, 56, 57, 58, 59, 60, 61, 62, 63, 64, 65, 66, 67, 68, 69, 70, 71, 72, 73, 74, 75, 76, 77, 78, 79, 80, 81, 82, 83, 84, 85, 86, 87, 88, 89, 90, 91, 92, 93, 94, 95, 96, 97, 98, 99, 100, 101, 102, 103, 104, 105, 106, 107, 108, 109, 110, 111, 112, 113, 114, 115, 116, 117, 118, 119, 120, 121, 122, 123, 124, 125, 126, 127, 128, 129, 130, 131, 132, 133, 134, 135, 136, 137, 138, 139, 140, 141, 142, 143, 144, 145, 146, 147, 148, 149, 150, 151, 152, 153, 154, 155, 156, 157, 158, 159, 160, 161, 162, 163, 164, 165, 166, 167, 168, 169, 170, 171, 172, 173, 174, 175, 176, 177, 178, 179, 180, 181, 182, 183, 184, 185, 186, 187, 188, 189, 190],
      "AcquisitionTime": ["112337.672500", "112339.162500", "112340.652500", "112342.142500", "112343.632500", "112345.122500", "112346.612500", "112348.102500", "112349.592500", "112351.082500", "112352.572500", "112354.062500", "112355.552500", "112357.042500", "112358.532500", "112400.022500", "112401.512500", "112403.002500", "112404.492500", "112405.982500", "112407.472500", "112408.962500", "112410.452500", "112411.942500", "112413.432500", "112414.922500", "112416.412500", "112417.902500", "112419.392500", "112420.882500", "112422.372500", "112423.862500", "112425.352500", "112426.842500", "112428.332500", "112429.822500", "112431.312500", "112432.802500", "112434.292500", "112435.782500", "112437.272500", "112438.762500", "112440.252500", "112441.742500", "112443.232500", "112444.722500", "112446.212500", "112447.702500", "112449.192500", "112450.682500", "112452.172500", "112453.662500", "112455.152500", "112456.642500", "112458.132500", "112459.622500", "112501.112500", "112502.602500", "112504.092500", "112505.582500", "112507.072500", "112508.562500", "112510.052500", "112511.542500", "112513.032500", "112514.522500", "112516.012500", "112517.502500", "112518.992500", "112520.482500", "112521.972500", "112523.462500", "112524.952500", "112526.442500", "112527.932500", "112529.422500", "112530.912500", "112532.402500", "112533.892500", "112535.382500", "112536.872500", "112538.362500", "112539.852500", "112541.342500", "112542.832500", "112544.322500", "112545.812500", "112547.302500", "112548.792500", "112550.282500", "112551.772500", "112553.262500", "112554.752500", "112556.242500", "112557.732500", "112559.222500", "112600.712500", "112602.202500", "112603.692500", "112605.182500", "112606.672500", "112608.162500", "112609.652500", "112611.142500", "112612.632500", "112614.122500", "112615.612500", "112617.102500", "112618.592500", "112620.082500", "112621.572500", "112623.062500", "112624.552500", "112626.042500", "112627.532500", "112629.022500", "112630.512500", "112632.002500", "112633.492500", "112634.982500", "112636.472500", "112637.962500", "112639.452500", "112640.942500", "112642.432500", "112643.922500", "112645.412500", "112646.902500", "112648.392500", "112649.882500", "112651.372500", "112652.862500", "112654.352500", "112655.842500", "112657.332500", "112658.822500", "112700.312500", "112701.802500", "112703.292500", "112704.782500", "112706.272500", "112707.762500", "112709.252500", "112710.742500", "112712.232500", "112713.722500", "112715.212500", "112716.702500", "112718.192500", "112719.682500", "112721.172500", "112722.662500", "112724.152500", "112725.642500", "112727.132500", "112728.622500", "112730.112500", "112731.602500", "112733.092500", "112734.582500", "112736.072500", "112737.562500", "112739.052500", "112740.542500", "112742.032500", "112743.522500", "112745.012500", "112746.502500", "112747.992500", "112749.482500", "112750.972500", "112752.462500", "112753.952500", "112755.442500", "112756.932500", "112758.422500", "112759.912500", "112801.402500", "112802.892500", "112804.382500", "112805.872500", "112807.362500", "112808.852500", "112810.342500", "112811.832500", "112813.322500", "112814.812500", "112816.302500", "112817.792500", "112819.282500"],
      "ContentTime": ["112510.120000", "112510.124000", "112510.127000", "112510.131000", "112510.134000", "112510.137000", "112510.141000", "112510.144000", "112510.147000", "112510.151000", "112510.154000", "112510.157000", "112510.161000", "112510.164000", "112510.168000", "112510.171000", "112510.174000", "112510.177000", "112510.181000", "112510.184000", "112510.187000", "112510.212000", "112510.215000", "112510.218000", "112510.222000", "112510.225000", "112510.228000", "112510.232000", "112510.240000", "112510.244000", "112510.247000", "112510.250000", "112510.254000", "112510.257000", "112510.260000", "112510.264000", "112510.267000", "112510.270000", "112530.080000", "112530.084000", "112530.092000", "112530.096000", "112530.099000", "112530.102000", "112530.106000", "112530.109000", "112530.112000", "112530.116000", "112530.119000", "112530.122000", "112530.126000", "112530.129000", "112530.132000", "112530.136000", "112530.139000", "112530.142000", "112530.146000", "112530.149000", "112550.080000", "112550.084000", "112550.097000", "112550.101000", "112550.104000", "112550.107000", "112550.114000", "112550.118000", "112550.121000", "112550.124000", "112550.128000", "112550.131000", "112550.134000", "112550.138000", "112550.141000", "112550.145000", "112550.148000", "112550.151000", "112550.155000", "112550.158000", "112550.161000", "112610.079000", "112610.083000", "112610.086000", "112610.089000", "112610.093000", "112610.096000", "112610.100000", "112610.104000", "112610.107000", "112610.110000", "112610.114000", "112610.117000", "112610.120000", "112610.124000", "112610.127000", "112610.130000", "112610.134000", "112610.137000", "112610.140000", "112610.144000", "112650.079000", "112650.083000", "112650.086000", "112650.090000", "112650.093000", "112650.097000", "112650.100000", "112650.103000", "112650.107000", "112650.110000", "112650.113000", "112650.117000", "112650.120000", "112650.123000", "112650.127000", "112650.130000", "112650.133000", "112650.137000", "112650.140000", "112650.144000", "112650.147000", "112650.150000", "112650.154000", "112650.157000", "112650.160000", "112650.164000", "112650.178000", "112650.181000", "112650.185000", "112730.079000", "112730.083000", "112730.087000", "112730.090000", "112730.093000", "112730.097000", "112730.100000", "112730.103000", "112730.107000", "112730.110000", "112730.113000", "112730.117000", "112730.120000", "112730.124000", "112730.127000", "112730.131000", "112730.134000", "112730.137000", "112730.141000", "112730.144000", "112730.148000", "112730.151000", "112730.154000", "112730.158000", "112730.161000", "112730.164000", "112730.168000", "112810.080000", "112810.084000", "112810.087000", "112810.091000", "112810.094000", "112810.098000", "112810.101000", "112810.104000", "112810.108000", "112810.111000", "112810.114000", "112810.118000", "112810.121000", "112810.124000", "112810.128000", "112810.131000", "112810.134000", "112810.138000", "112810.141000", "112810.144000", "112810.148000", "112810.151000", "112810.155000", "112810.158000", "112810.161000", "112810.165000", "112810.168000", "112821.414000", "112821.418000", "112821.421000", "112821.424000", "112821.428000", "112821.431000", "112821.435000", "112821.438000"],
      "InstanceCreationTime": ["112510.120000", "112510.124000", "112510.127000", "112510.131000", "112510.134000", "112510.137000", "112510.141000", "112510.144000", "112510.147000", "112510.151000", "112510.154000", "112510.157000", "112510.161000", "112510.164000", "112510.168000", "112510.171000", "112510.174000", "112510.177000", "112510.181000", "112510.184000", "112510.187000", "112510.212000", "112510.215000", "112510.218000", "112510.222000", "112510.225000", "112510.228000", "112510.232000", "112510.240000", "112510.244000", "112510.247000", "112510.250000", "112510.254000", "112510.257000", "112510.260000", "112510.264000", "112510.267000", "112510.270000", "112530.080000", "112530.084000", "112530.092000", "112530.096000", "112530.099000", "112530.102000", "112530.106000", "112530.109000", "112530.112000", "112530.116000", "112530.119000", "112530.122000", "112530.126000", "112530.129000", "112530.132000", "112530.136000", "112530.139000", "112530.142000", "112530.146000", "112530.149000", "112550.080000", "112550.084000", "112550.097000", "112550.101000", "112550.104000", "112550.107000", "112550.114000", "112550.118000", "112550.121000", "112550.124000", "112550.128000", "112550.131000", "112550.134000", "112550.138000", "112550.141000", "112550.145000", "112550.148000", "112550.151000", "112550.155000", "112550.158000", "112550.161000", "112610.079000", "112610.083000", "112610.086000", "112610.089000", "112610.093000", "112610.096000", "112610.100000", "112610.104000", "112610.107000", "112610.110000", "112610.114000", "112610.117000", "112610.120000", "112610.124000", "112610.127000", "112610.130000", "112610.134000", "112610.137000", "112610.140000", "112610.144000", "112650.079000", "112650.083000", "112650.086000", "112650.090000", "112650.093000", "112650.097000", "112650.100000", "112650.103000", "112650.107000", "112650.110000", "112650.113000", "112650.117000", "112650.120000", "112650.123000", "112650.127000", "112650.130000", "112650.133000", "112650.137000", "112650.140000", "112650.144000", "112650.147000", "112650.150000", "112650.154000", "112650.157000", "112650.160000", "112650.164000", "112650.178000", "112650.181000", "112650.185000", "112730.079000", "112730.083000", "112730.087000", "112730.090000", "112730.093000", "112730.097000", "112730.100000", "112730.103000", "112730.107000", "112730.110000", "112730.113000", "112730.117000", "112730.120000", "112730.124000", "112730.127000", "112730.131000", "112730.134000", "112730.137000", "112730.141000", "112730.144000", "112730.148000", "112730.151000", "112730.154000", "112730.158000", "112730.161000", "112730.164000", "112730.168000", "112810.080000", "112810.084000", "112810.087000", "112810.091000", "112810.094000", "112810.098000", "112810.101000", "112810.104000", "112810.108000", "112810.111000", "112810.114000", "112810.118000", "112810.121000", "112810.124000", "112810.128000", "112810.131000", "112810.134000", "112810.138000", "112810.141000", "112810.144000", "112810.148000", "112810.151000", "112810.155000", "112810.158000", "112810.161000", "112810.165000", "112810.168000", "112821.414000", "112821.418000", "112821.421000", "112821.424000", "112821.428000", "112821.431000", "112821.435000", "112821.438000"],
      "InstanceNumber": [1, 2, 3, 4, 5, 6, 7, 8, 9, 10, 11, 12, 13, 14, 15, 16, 17, 18, 19, 20, 21, 22, 23, 24, 25, 26, 27, 28, 29, 30, 31, 32, 33, 34, 35, 36, 37, 38, 39, 40, 41, 42, 43, 44, 45, 46, 47, 48, 49, 50, 51, 52, 53, 54, 55, 56, 57, 58, 59, 60, 61, 62, 63, 64, 65, 66, 67, 68, 69, 70, 71, 72, 73, 74, 75, 76, 77, 78, 79, 80, 81, 82, 83, 84, 85, 86, 87, 88, 89, 90, 91, 92, 93, 94, 95, 96, 97, 98, 99, 100, 101, 102, 103, 104, 105, 106, 107, 108, 109, 110, 111, 112, 113, 114, 115, 116, 117, 118, 119, 120, 121, 122, 123, 124, 125, 126, 127, 128, 129, 130, 131, 132, 133, 134, 135, 136, 137, 138, 139, 140, 141, 142, 143, 144, 145, 146, 147, 148, 149, 150, 151, 152, 153, 154, 155, 156, 157, 158, 159, 160, 161, 162, 163, 164, 165, 166, 167, 168, 169, 170, 171, 172, 173, 174, 175, 176, 177, 178, 179, 180, 181, 182, 183, 184, 185, 186, 187, 188, 189, 190],
      "LargestImagePixelValue": [44654, 43412, 42872, 42120, 41723, 41856, 41822, 42609, 41750, 42096, 41556, 41816, 41777, 41832, 41826, 41812, 41850, 41680, 43134, 45221, 42757, 42913, 42904, 42891, 44255, 44702, 44579, 44558, 46493, 45956, 43530, 42409, 43225, 42979, 44297, 43968, 44528, 44642, 44591, 44209, 44294, 45585, 45904, 43060, 42875, 43248, 42879, 44752, 45172, 44507, 44315, 43985, 45189, 45671, 43014, 42493, 42702, 42819, 43950, 45017, 45346, 45917, 46421, 45057, 43089, 42556, 43028, 43217, 43829, 44800, 45773, 46013, 45634, 44540, 43911, 43320, 43544, 45078, 43932, 44459, 44885, 45096, 44875, 45363, 44258, 44413, 45629, 43600, 42874, 44529, 45099, 46444, 44887, 44202, 42008, 45456, 44477, 43705, 44799, 45213, 44705, 45072, 44115, 44157, 44395, 44978, 45919, 44153, 43166, 43139, 43785, 44786, 45190, 46645, 44223, 42760, 43932, 43273, 44574, 44930, 43596, 44428, 44121, 43564, 45199, 46022, 44544, 42249, 43721, 44450, 44147, 45551, 45597, 45432, 45532, 45193, 45077, 45542, 44574, 42185, 42709, 44191, 45619, 45425, 46143, 46230, 45066, 44861, 45451, 46018, 43826, 42519, 43182, 44236, 45017, 45893, 44739, 44571, 46209, 46246, 44409, 42700, 42412, 42423, 44570, 45540, 45484, 45263, 45462, 45449, 44399, 44810, 46255, 43219, 42418, 41589, 45079, 44871, 43447, 44937, 45415, 44284, 43713, 43076, 43182, 44675, 44681, 43383, 43303, 41419],
      "WindowCenter": [10928.0, 10845.0, 10804.0, 10791.0, 10782.0, 10773.0, 10757.0, 10763.0, 10772.0, 10804.0, 10790.0, 10766.0, 10763.0, 10761.0, 10775.0, 10824.0, 10868.0, 10853.0, 10855.0, 10862.0, 10852.0, 10820.0, 10774.0, 10742.0, 10781.0, 10843.0, 10867.0, 10861.0, 10848.0, 10821.0, 10791.0, 10776.0, 10753.0, 10734.0, 10762.0, 10785.0, 10812.0, 10812.0, 10819.0, 10812.0, 10805.0, 10814.0, 10836.0, 10832.0, 10818.0, 10799.0, 10761.0, 10789.0, 10834.0, 10870.0, 10862.0, 10838.0, 10839.0, 10859.0, 10855.0, 10838.0, 10789.0, 10762.0, 10761.0, 10789.0, 10826.0, 10857.0, 10875.0, 10858.0, 10834.0, 10802.0, 10783.0, 10778.0, 10806.0, 10841.0, 10857.0, 10860.0, 10868.0, 10842.0, 10821.0, 10803.0, 10798.0, 10823.0, 10832.0, 10841.0, 10833.0, 10827.0, 10820.0, 10833.0, 10828.0, 10839.0, 10851.0, 10807.0, 10783.0, 10798.0, 10851.0, 10897.0, 10884.0, 10847.0, 10811.0, 10825.0, 10794.0, 10775.0, 10812.0, 10859.0, 10876.0, 10867.0, 10839.0, 10778.0, 10754.0, 10782.0, 10835.0, 10829.0, 10814.0, 10797.0, 10781.0, 10787.0, 10809.0, 10846.0, 10842.0, 10817.0, 10799.0, 10775.0, 10807.0, 10832.0, 10839.0, 10838.0, 10805.0, 10785.0, 10798.0, 10815.0, 10814.0, 10811.0, 10828.0, 10827.0, 10829.0, 10840.0, 10843.0, 10826.0, 10805.0, 10782.0, 10783.0, 10797.0, 10813.0, 10804.0, 10782.0, 10782.0, 10798.0, 10830.0, 10856.0, 10855.0, 10833.0, 10813.0, 10820.0, 10840.0, 10816.0, 10784.0, 10792.0, 10812.0, 10854.0, 10870.0, 10873.0, 10847.0, 10843.0, 10848.0, 10829.0, 10790.0, 10793.0, 10793.0, 10813.0, 10829.0, 10833.0, 10803.0, 10790.0, 10786.0, 10768.0, 10766.0, 10796.0, 10790.0, 10804.0, 10776.0, 10794.0, 10807.0, 10809.0, 10818.0, 10840.0, 10837.0, 10841.0, 10820.0, 10806.0, 10815.0, 10809.0, 10806.0, 10776.0, 10754.0],
      "WindowWidth": [23499.0, 23272.0, 23162.0, 23118.0, 23103.0, 23074.0, 23045.0, 23044.0, 23065.0, 23135.0, 23115.0, 23054.0, 23047.0, 23043.0, 23070.0, 23180.0, 23286.0, 23249.0, 23256.0, 23255.0, 23239.0, 23172.0, 23066.0, 22993.0, 23068.0, 23206.0, 23267.0, 23254.0, 23213.0, 23151.0, 23097.0, 23068.0, 23018.0, 22975.0, 23029.0, 23084.0, 23143.0, 23142.0, 23157.0, 23142.0, 23128.0, 23144.0, 23192.0, 23196.0, 23166.0, 23119.0, 23037.0, 23086.0, 23191.0, 23276.0, 23260.0, 23202.0, 23196.0, 23242.0, 23247.0, 23220.0, 23106.0, 23038.0, 23029.0, 23084.0, 23163.0, 23234.0, 23273.0, 23239.0, 23193.0, 23128.0, 23083.0, 23070.0, 23129.0, 23206.0, 23238.0, 23240.0, 23259.0, 23209.0, 23166.0, 23128.0, 23118.0, 23163.0, 23189.0, 23211.0, 23186.0, 23169.0, 23155.0, 23183.0, 23182.0, 23203.0, 23223.0, 23136.0, 23089.0, 23111.0, 23230.0, 23326.0, 23303.0, 23223.0, 23155.0, 23167.0, 23105.0, 23063.0, 23138.0, 23243.0, 23282.0, 23258.0, 23203.0, 23064.0, 23008.0, 23067.0, 23188.0, 23182.0, 23157.0, 23121.0, 23071.0, 23081.0, 23130.0, 23207.0, 23213.0, 23166.0, 23118.0, 23069.0, 23132.0, 23185.0, 23219.0, 23203.0, 23128.0, 23091.0, 23108.0, 23136.0, 23148.0, 23153.0, 23179.0, 23178.0, 23182.0, 23200.0, 23204.0, 23166.0, 23114.0, 23065.0, 23067.0, 23098.0, 23141.0, 23134.0, 23085.0, 23076.0, 23100.0, 23170.0, 23228.0, 23230.0, 23178.0, 23132.0, 23150.0, 23192.0, 23154.0, 23090.0, 23100.0, 23143.0, 23239.0, 23265.0, 23285.0, 23217.0, 23199.0, 23216.0, 23194.0, 23097.0, 23119.0, 23107.0, 23137.0, 23168.0, 23181.0, 23113.0, 23080.0, 23069.0, 23034.0, 23030.0, 23091.0, 23093.0, 23140.0, 23073.0, 23098.0, 23130.0, 23139.0, 23147.0, 23194.0, 23194.0, 23204.0, 23156.0, 23126.0, 23147.0, 23146.0, 23146.0, 23082.0, 23037.0]
    },
    "slices": {}
  }
}