{
  "AcquisitionMatrixPE": 104,
  "AcquisitionNumber": 1,
  "AcquisitionTime": "10:51:57.297500",
  "BandwidthPerPixelPhaseEncode": 17.17,
  "BaseResolution": 104,
  "BodyPartExamined": "BRAIN",
  "CoilString": "HC1-7;NC1_2",
  "ConsistencyInfo": "N4_VE11C_LATEST_20160120",
  "ConversionSoftware": "dcm2niix",
  "ConversionSoftwareVersion": "v1.0.20190902",
  "DerivedVendorReportedEchoSpacing": 0.000560011,
  "DeviceSerialNumber": "167006",
  "DwellTime": 2.1e-06,
  "EchoTime": 0.037,
  "EchoTrainLength": 104,
  "EffectiveEchoSpacing": 0.000560011,
  "FlipAngle": 52,
  "ImageComments": "Unaliased_MB4_PE3_LB",
  "ImageOrientationPatientDICOM": [0.999809, 0.0056798, 0.0186898, 0.00436253, 0.867701, -0.497067],
  "ImageType": [
    "ORIGINAL",
    "PRIMARY",
    "P",
    "MB",
    "ND",
    "MOSAIC"
],
  "ImagingFrequency": 123.259,
  "InPlanePhaseEncodingDirectionDICOM": "COL",
  "InstitutionAddress": "Chemin_Queen-Mary_4565_Montreal_District_CA_H3W_1W5",
  "InstitutionName": "IUGM",
  "InstitutionalDepartmentName": "Department",
  "MRAcquisitionType": "2D",
  "MagneticFieldStrength": 3,
  "Manufacturer": "Siemens",
  "ManufacturersModelName": "Prisma_fit",
  "Modality": "MR",
  "MultibandAccelerationFactor": 4,
  "PartialFourier": 1,
  "PatientPosition": "HFS",
  "PercentPhaseFOV": 100,
  "PhaseEncodingDirection": "j",
  "PhaseEncodingSteps": 104,
  "PhaseResolution": 1,
  "PixelBandwidth": 2290,
  "ProcedureStepDescription": "memory_things",
  "ProtocolName": "func_task-things_run-1",
  "PulseSequenceDetails": "%CustomerSeq%_cmrr_mbep2d_bold",
  "ReceiveCoilActiveElements": "HC1-7;NC1,2",
  "ReceiveCoilName": "HeadNeck_64",
  "ReconMatrixPE": 104,
  "RepetitionTime": 1.49,
  "SAR": 0.0601905,
  "ScanOptions": "FS",
  "ScanningSequence": "EP",
  "SequenceName": "epfid2d1_104",
  "SequenceVariant": "SK_SS",
  "SeriesDescription": "func_task-things_run-1",
  "SeriesNumber": 11,
  "ShimSetting": [615, -7196, -8844, 274, -1, -145, -18, -23],
  "SliceThickness": 2,
  "SliceTiming": [0, 0.7825, 0.0975, 0.88, 0.195, 0.9775, 0.2925, 1.0775, 0.39, 1.175, 0.49, 1.2725, 0.5875, 1.37, 0.685, 0, 0.7825, 0.0975, 0.88, 0.195, 0.9775, 0.2925, 1.0775, 0.39, 1.175, 0.49, 1.2725, 0.5875, 1.37, 0.685, 0, 0.7825, 0.0975, 0.88, 0.195, 0.9775, 0.2925, 1.0775, 0.39, 1.175, 0.49, 1.2725, 0.5875, 1.37, 0.685, 0, 0.7825, 0.0975, 0.88, 0.195, 0.9775, 0.2925, 1.0775, 0.39, 1.175, 0.49, 1.2725, 0.5875, 1.37, 0.685],
  "SoftwareVersions": "syngo_MR_E11",
  "SpacingBetweenSlices": 2,
  "StationName": "MRC35049",
  "TaskName": "things",
  "TotalReadoutTime": 0.0576811,
  "TxRefAmp": 295.801,
  "WipMemBlock": "f2ed0e69-51df-480e-b87e-0eb12b53df7a||Sequence: R016 ve11c/master r/e634e98; Dec 19 2017 11:00:25 by eja",
  "dcmmeta_affine": [
    [-1.999618411064148, 0.008725050836801529, 0.03808072581887245, 105.59679412841797],
    [-0.011359594762325287, 1.7354024648666382, -0.9941073656082153, -52.12059020996094],
    [0.03737951070070267, 0.9941339492797852, 1.7350218296051025, -77.6785888671875],
    [0.0, 0.0, 0.0, 1.0]
],
  "dcmmeta_reorient_transform": [
    [0.0, -1.0, 0.0, 103.0],
    [1.0, 0.0, 0.0, 0.0],
    [0.0, 0.0, 1.0, 0.0],
    [0.0, 0.0, 0.0, 1.0]
],
  "dcmmeta_shape": [104, 104, 60, 190],
  "dcmmeta_slice_dim": 2,
  "dcmmeta_version": 0.6,
  "global": {
    "const": {
      "AcquisitionMatrix": [104, 0, 0, 104],
      "AngioFlag": "N",
      "BitsAllocated": 16,
      "BitsStored": 16,
      "BodyPartExamined": "BRAIN",
      "Columns": 832,
      "EchoNumbers": 1,
      "EchoTime": 37.0,
      "EchoTrainLength": 104,
      "FlipAngle": 52.0,
      "HighBit": 15,
      "ImageOrientationPatient": [0.99980919826993, 0.00567979735234, 0.0186897553989, 0.0043625255932, 0.86770120857948, -0.4970669783844],
      "ImagePositionPatient": [-837.53249019803, -762.44723216476, 372.97582433165],
      "ImageType": [
        "ORIGINAL",
        "PRIMARY",
        "P",
        "MB",
        "ND",
        "MOSAIC"
],
      "ImagedNucleus": "1H",
      "ImagingFrequency": 123.258865,
      "InPlanePhaseEncodingDirection": "COL",
      "LargestImagePixelValue": 4095,
      "MRAcquisitionType": "2D",
      "MagneticFieldStrength": 3.0,
      "Manufacturer": "SIEMENS",
      "ManufacturerModelName": "Prisma_fit",
      "Modality": "MR",
      "NumberOfAverages": 1.0,
      "NumberOfPhaseEncodingSteps": 104,
      "PercentPhaseFieldOfView": 100.0,
      "PercentSampling": 100.0,
      "PerformedProcedureStepStartTime": "100700.475000",
      "PhotometricInterpretation": "MONOCHROME2",
      "PixelBandwidth": 2290.0,
      "PixelRepresentation": 0,
      "PixelSpacing": [2.0, 2.0],
      "ProtocolName": "func_task-things_run-1",
      "RepetitionTime": 1490.0,
      "RescaleIntercept": -4096.0,
      "RescaleSlope": 2.0,
      "RescaleType": "US",
      "Rows": 832,
      "SAR": 0.06019047545657,
      "SamplesPerPixel": 1,
      "ScanOptions": "FS",
      "ScanningSequence": "EP",
      "SequenceName": "epfid2d1_104",
      "SequenceVariant": [
        "SK",
        "SS"
],
      "SeriesDescription": "func_task-things_run-1",
      "SeriesNumber": 11,
      "SeriesTime": "105256.020000",
      "SliceLocation": -39.469691139635,
      "SliceThickness": 2.0,
      "SmallestImagePixelValue": 0,
      "SoftwareVersions": "syngo MR E11",
      "SpacingBetweenSlices": 2.0000000454824,
      "SpecificCharacterSet": "ISO_IR 100",
      "StudyID": "1",
      "StudyTime": "100700.408000",
      "TransmitCoilName": "Body",
      "VariableFlipAngleFlag": "N",
      "WindowCenterWidthExplanation": "Algo1",
      "dBdt": 0.0},
    "slices": {}
  },
  "time": {
    "samples": {
      "AcquisitionNumber": [1, 2, 3, 4, 5, 6, 7, 8, 9, 10, 11, 12, 13, 14, 15, 16, 17, 18, 19, 20, 21, 22, 23, 24, 25, 26, 27, 28, 29, 30, 31, 32, 33, 34, 35, 36, 37, 38, 39, 40, 41, 42, 43, 44, 45, 46, 47, 48, 49, 50, 51, 52, 53, 54, 55, 56, 57, 58, 59, 60, 61, 62, 63, 64, 65, 66, 67, 68, 69, 70, 71, 72, 73, 74, 75, 76, 77, 78, 79, 80, 81, 82, 83, 84, 85, 86, 87, 88, 89, 90, 91, 92, 93, 94, 95, 96, 97, 98, 99, 100, 101, 102, 103, 104, 105, 106, 107, 108, 109, 110, 111, 112, 113, 114, 115, 116, 117, 118, 119, 120, 121, 122, 123, 124, 125, 126, 127, 128, 129, 130, 131, 132, 133, 134, 135, 136, 137, 138, 139, 140, 141, 142, 143, 144, 145, 146, 147, 148, 149, 150, 151, 152, 153, 154, 155, 156, 157, 158, 159, 160, 161, 162, 163, 164, 165, 166, 167, 168, 169, 170, 171, 172, 173, 174, 175, 176, 177, 178, 179, 180, 181, 182, 183, 184, 185, 186, 187, 188, 189, 190],
      "AcquisitionTime": ["105157.297500", "105158.787500", "105200.277500", "105201.767500", "105203.257500", "105204.747500", "105206.237500", "105207.727500", "105209.217500", "105210.707500", "105212.197500", "105213.687500", "105215.177500", "105216.667500", "105218.157500", "105219.647500", "105221.137500", "105222.627500", "105224.117500", "105225.607500", "105227.097500", "105228.587500", "105230.077500", "105231.567500", "105233.057500", "105234.547500", "105236.037500", "105237.527500", "105239.017500", "105240.507500", "105241.997500", "105243.487500", "105244.977500", "105246.467500", "105247.957500", "105249.447500", "105250.937500", "105252.427500", "105253.917500", "105255.407500", "105256.897500", "105258.387500", "105259.877500", "105301.367500", "105302.857500", "105304.347500", "105305.837500", "105307.327500", "105308.817500", "105310.307500", "105311.797500", "105313.287500", "105314.777500", "105316.267500", "105317.757500", "105319.247500", "105320.737500", "105322.227500", "105323.717500", "105325.207500", "105326.697500", "105328.187500", "105329.677500", "105331.167500", "105332.657500", "105334.147500", "105335.637500", "105337.127500", "105338.617500", "105340.107500", "105341.597500", "105343.087500", "105344.577500", "105346.067500", "105347.557500", "105349.047500", "105350.537500", "105352.027500", "105353.517500", "105355.007500", "105356.497500", "105357.987500", "105359.477500", "105400.967500", "105402.457500", "105403.947500", "105405.437500", "105406.927500", "105408.417500", "105409.907500", "105411.397500", "105412.887500", "105414.377500", "105415.867500", "105417.357500", "105418.847500", "105420.337500", "105421.827500", "105423.317500", "105424.807500", "105426.297500", "105427.787500", "105429.277500", "105430.767500", "105432.257500", "105433.747500", "105435.237500", "105436.727500", "105438.217500", "105439.707500", "105441.197500", "105442.687500", "105444.177500", "105445.667500", "105447.157500", "105448.647500", "105450.137500", "105451.627500", "105453.117500", "105454.607500", "105456.097500", "105457.587500", "105459.077500", "105500.567500", "105502.057500", "105503.547500", "105505.037500", "105506.527500", "105508.017500", "105509.507500", "105510.997500", "105512.487500", "105513.977500", "105515.467500", "105516.957500", "105518.447500", "105519.937500", "105521.427500", "105522.917500", "105524.407500", "105525.897500", "105527.387500", "105528.877500", "105530.367500", "105531.857500", "105533.347500", "105534.837500", "105536.327500", "105537.817500", "105539.307500", "105540.797500", "105542.287500", "105543.777500", "105545.267500", "105546.757500", "105548.247500", "105549.737500", "105551.227500", "105552.717500", "105554.207500", "105555.697500", "105557.187500", "105558.677500", "105600.167500", "105601.657500", "105603.147500", "105604.637500", "105606.127500", "105607.617500", "105609.107500", "105610.597500", "105612.087500", "105613.577500", "105615.067500", "105616.557500", "105618.047500", "105619.537500", "105621.027500", "105622.517500", "105624.007500", "105625.497500", "105626.987500", "105628.477500", "105629.967500", "105631.457500", "105632.947500", "105634.437500", "105635.927500", "105637.417500", "105638.907500"],
      "ContentTime": ["105256.022000", "105256.028000", "105256.031000", "105256.033000", "105256.036000", "105336.144000", "105336.147000", "105336.149000", "105336.152000", "105336.155000", "105336.157000", "105336.160000", "105336.162000", "105336.165000", "105336.167000", "105336.170000", "105336.172000", "105336.175000", "105336.178000", "105336.180000", "105336.183000", "105336.185000", "105336.188000", "105336.190000", "105336.193000", "105336.196000", "105336.198000", "105336.201000", "105336.203000", "105336.206000", "105336.208000", "105336.211000", "105336.213000", "105336.216000", "105336.218000", "105336.221000", "105336.223000", "105336.226000", "105336.228000", "105336.231000", "105336.259000", "105336.262000", "105336.264000", "105336.267000", "105356.069000", "105356.071000", "105356.074000", "105356.076000", "105356.079000", "105356.081000", "105356.084000", "105356.086000", "105356.089000", "105356.091000", "105356.100000", "105356.103000", "105356.106000", "105356.108000", "105356.111000", "105356.113000", "105356.116000", "105356.118000", "105356.121000", "105356.123000", "105356.126000", "105416.051000", "105416.053000", "105416.056000", "105416.058000", "105416.061000", "105416.064000", "105416.066000", "105416.069000", "105416.071000", "105416.074000", "105416.076000", "105416.079000", "105416.081000", "105416.084000", "105416.094000", "105416.096000", "105416.099000", "105416.101000", "105416.104000", "105416.106000", "105436.055000", "105436.058000", "105436.060000", "105436.063000", "105436.065000", "105436.068000", "105436.070000", "105436.073000", "105436.075000", "105436.078000", "105436.090000", "105436.092000", "105436.095000", "105436.097000", "105436.100000", "105436.102000", "105436.105000", "105436.107000", "105436.110000", "105436.112000", "105516.098000", "105516.101000", "105516.103000", "105516.106000", "105516.108000", "105516.111000", "105516.113000", "105516.116000", "105516.119000", "105516.121000", "105516.124000", "105516.126000", "105516.129000", "105516.131000", "105516.134000", "105516.136000", "105516.139000", "105516.141000", "105516.144000", "105516.146000", "105516.149000", "105516.151000", "105516.154000", "105516.156000", "105516.159000", "105516.162000", "105516.164000", "105516.167000", "105556.088000", "105556.091000", "105556.094000", "105556.096000", "105556.099000", "105556.101000", "105556.104000", "105556.106000", "105556.109000", "105556.111000", "105556.114000", "105556.116000", "105556.119000", "105556.122000", "105556.124000", "105556.127000", "105556.129000", "105556.132000", "105556.134000", "105556.137000", "105556.141000", "105556.145000", "105556.148000", "105556.150000", "105556.153000", "105556.155000", "105636.096000", "105636.099000", "105636.101000", "105636.104000", "105636.107000", "105636.109000", "105636.112000", "105636.114000", "105636.117000", "105636.119000", "105636.122000", "105636.124000", "105636.127000", "105636.130000", "105636.132000", "105636.135000", "105636.137000", "105636.140000", "105636.142000", "105636.145000", "105636.148000", "105636.150000", "105636.153000", "105636.155000", "105636.158000", "105636.160000", "105636.163000", "105640.948000", "105640.951000", "105640.953000", "105640.956000"],
      "InstanceCreationTime": ["105256.022000", "105256.028000", "105256.031000", "105256.033000", "105256.036000", "105336.144000", "105336.147000", "105336.149000", "105336.152000", "105336.155000", "105336.157000", "105336.160000", "105336.162000", "105336.165000", "105336.167000", "105336.170000", "105336.172000", "105336.175000", "105336.178000", "105336.180000", "105336.183000", "105336.185000", "105336.188000", "105336.190000", "105336.193000", "105336.196000", "105336.198000", "105336.201000", "105336.203000", "105336.206000", "105336.208000", "105336.211000", "105336.213000", "105336.216000", "105336.218000", "105336.221000", "105336.223000", "105336.226000", "105336.228000", "105336.231000", "105336.259000", "105336.262000", "105336.264000", "105336.267000", "105356.069000", "105356.071000", "105356.074000", "105356.076000", "105356.079000", "105356.081000", "105356.084000", "105356.086000", "105356.089000", "105356.091000", "105356.100000", "105356.103000", "105356.106000", "105356.108000", "105356.111000", "105356.113000", "105356.116000", "105356.118000", "105356.121000", "105356.123000", "105356.126000", "105416.051000", "105416.053000", "105416.056000", "105416.058000", "105416.061000", "105416.064000", "105416.066000", "105416.069000", "105416.071000", "105416.074000", "105416.076000", "105416.079000", "105416.081000", "105416.084000", "105416.094000", "105416.096000", "105416.099000", "105416.101000", "105416.104000", "105416.106000", "105436.055000", "105436.058000", "105436.060000", "105436.063000", "105436.065000", "105436.068000", "105436.070000", "105436.073000", "105436.075000", "105436.078000", "105436.090000", "105436.092000", "105436.095000", "105436.097000", "105436.100000", "105436.102000", "105436.105000", "105436.107000", "105436.110000", "105436.112000", "105516.098000", "105516.101000", "105516.103000", "105516.106000", "105516.108000", "105516.111000", "105516.113000", "105516.116000", "105516.119000", "105516.121000", "105516.124000", "105516.126000", "105516.129000", "105516.131000", "105516.134000", "105516.136000", "105516.139000", "105516.141000", "105516.144000", "105516.146000", "105516.149000", "105516.151000", "105516.154000", "105516.156000", "105516.159000", "105516.162000", "105516.164000", "105516.167000", "105556.088000", "105556.091000", "105556.094000", "105556.096000", "105556.099000", "105556.101000", "105556.104000", "105556.106000", "105556.109000", "105556.111000", "105556.114000", "105556.116000", "105556.119000", "105556.122000", "105556.124000", "105556.127000", "105556.129000", "105556.132000", "105556.134000", "105556.137000", "105556.141000", "105556.145000", "105556.148000", "105556.150000", "105556.153000", "105556.155000", "105636.096000", "105636.099000", "105636.101000", "105636.104000", "105636.107000", "105636.109000", "105636.112000", "105636.114000", "105636.117000", "105636.119000", "105636.122000", "105636.124000", "105636.127000", "105636.130000", "105636.132000", "105636.135000", "105636.137000", "105636.140000", "105636.142000", "105636.145000", "105636.148000", "105636.150000", "105636.153000", "105636.155000", "105636.158000", "105636.160000", "105636.163000", "105640.948000", "105640.951000", "105640.953000", "105640.956000"],
      "InstanceNumber": [1, 2, 3, 4, 5, 6, 7, 8, 9, 10, 11, 12, 13, 14, 15, 16, 17, 18, 19, 20, 21, 22, 23, 24, 25, 26, 27, 28, 29, 30, 31, 32, 33, 34, 35, 36, 37, 38, 39, 40, 41, 42, 43, 44, 45, 46, 47, 48, 49, 50, 51, 52, 53, 54, 55, 56, 57, 58, 59, 60, 61, 62, 63, 64, 65, 66, 67, 68, 69, 70, 71, 72, 73, 74, 75, 76, 77, 78, 79, 80, 81, 82, 83, 84, 85, 86, 87, 88, 89, 90, 91, 92, 93, 94, 95, 96, 97, 98, 99, 100, 101, 102, 103, 104, 105, 106, 107, 108, 109, 110, 111, 112, 113, 114, 115, 116, 117, 118, 119, 120, 121, 122, 123, 124, 125, 126, 127, 128, 129, 130, 131, 132, 133, 134, 135, 136, 137, 138, 139, 140, 141, 142, 143, 144, 145, 146, 147, 148, 149, 150, 151, 152, 153, 154, 155, 156, 157, 158, 159, 160, 161, 162, 163, 164, 165, 166, 167, 168, 169, 170, 171, 172, 173, 174, 175, 176, 177, 178, 179, 180, 181, 182, 183, 184, 185, 186, 187, 188, 189, 190],
      "WindowCenter": [4742.0, 4734.0, 4746.0, 4742.0, 4714.0, 4752.0, 4722.0, 4722.0, 4750.0, 4722.0, 4744.0, 4748.0, 4742.0, 4716.0, 4712.0, 4718.0, 4720.0, 4752.0, 4748.0, 4726.0, 4756.0, 4750.0, 4758.0, 4720.0, 4730.0, 4716.0, 4716.0, 4720.0, 4718.0, 4722.0, 4726.0, 4752.0, 4760.0, 4726.0, 4728.0, 4728.0, 4718.0, 4716.0, 4746.0, 4718.0, 4706.0, 4704.0, 4712.0, 4768.0, 4796.0, 4758.0, 4724.0, 4724.0, 4736.0, 4708.0, 4714.0, 4710.0, 4712.0, 4754.0, 4734.0, 4760.0, 4762.0, 4730.0, 4732.0, 4724.0, 4712.0, 4716.0, 4714.0, 4716.0, 4738.0, 4754.0, 4756.0, 4750.0, 4748.0, 4722.0, 4762.0, 4758.0, 4746.0, 4750.0, 4754.0, 4738.0, 4732.0, 4740.0, 4714.0, 4726.0, 4758.0, 4732.0, 4724.0, 4752.0, 4746.0, 4718.0, 4724.0, 4718.0, 4728.0, 4754.0, 4720.0, 4726.0, 4732.0, 4724.0, 4728.0, 4722.0, 4718.0, 4726.0, 4720.0, 4746.0, 4750.0, 4726.0, 4756.0, 4722.0, 4720.0, 4718.0, 4756.0, 4728.0, 4752.0, 4754.0, 4722.0, 4746.0, 4722.0, 4756.0, 4724.0, 4724.0, 4758.0, 4724.0, 4752.0, 4730.0, 4720.0, 4728.0, 4752.0, 4720.0, 4730.0, 4730.0, 4722.0, 4756.0, 4758.0, 4720.0, 4716.0, 4746.0, 4720.0, 4726.0, 4726.0, 4720.0, 4724.0, 4752.0, 4726.0, 4724.0, 4758.0, 4752.0, 4748.0, 4754.0, 4748.0, 4716.0, 4750.0, 4724.0, 4752.0, 4752.0, 4724.0, 4754.0, 4758.0, 4726.0, 4752.0, 4726.0, 4742.0, 4720.0, 4726.0, 4726.0, 4756.0, 4726.0, 4752.0, 4752.0, 4740.0, 4722.0, 4742.0, 4724.0, 4724.0, 4720.0, 4722.0, 4758.0, 4772.0, 4754.0, 4766.0, 4754.0, 4720.0, 4714.0, 4716.0, 4740.0, 4718.0, 4756.0, 4756.0, 4760.0, 4764.0, 4752.0, 4768.0, 4768.0, 4750.0, 4712.0],
      "WindowWidth": [18538.0, 18536.0, 18540.0, 18540.0, 18506.0, 18542.0, 18508.0, 18508.0, 18540.0, 18512.0, 18542.0, 18542.0, 18542.0, 18506.0, 18506.0, 18514.0, 18506.0, 18538.0, 18540.0, 18508.0, 18540.0, 18538.0, 18538.0, 18514.0, 18534.0, 18508.0, 18508.0, 18506.0, 18508.0, 18510.0, 18510.0, 18544.0, 18548.0, 18516.0, 18512.0, 18512.0, 18512.0, 18508.0, 18544.0, 18510.0, 18506.0, 18496.0, 18506.0, 18534.0, 18560.0, 18540.0, 18512.0, 18512.0, 18536.0, 18504.0, 18508.0, 18504.0, 18508.0, 18546.0, 18514.0, 18544.0, 18542.0, 18510.0, 18512.0, 18514.0, 18506.0, 18512.0, 18510.0, 18508.0, 18538.0, 18542.0, 18548.0, 18544.0, 18542.0, 18512.0, 18546.0, 18540.0, 18542.0, 18542.0, 18544.0, 18538.0, 18538.0, 18540.0, 18510.0, 18514.0, 18546.0, 18514.0, 18512.0, 18542.0, 18542.0, 18508.0, 18510.0, 18510.0, 18512.0, 18546.0, 18512.0, 18518.0, 18514.0, 18514.0, 18510.0, 18506.0, 18510.0, 18512.0, 18512.0, 18546.0, 18544.0, 18512.0, 18550.0, 18514.0, 18512.0, 18512.0, 18540.0, 18512.0, 18542.0, 18546.0, 18512.0, 18544.0, 18508.0, 18550.0, 18514.0, 18510.0, 18546.0, 18516.0, 18544.0, 18512.0, 18514.0, 18514.0, 18544.0, 18512.0, 18514.0, 18514.0, 18508.0, 18544.0, 18544.0, 18508.0, 18510.0, 18542.0, 18512.0, 18514.0, 18512.0, 18508.0, 18516.0, 18546.0, 18514.0, 18512.0, 18542.0, 18546.0, 18544.0, 18546.0, 18546.0, 18514.0, 18544.0, 18512.0, 18544.0, 18542.0, 18510.0, 18542.0, 18548.0, 18512.0, 18546.0, 18512.0, 18546.0, 18512.0, 18514.0, 18516.0, 18546.0, 18514.0, 18546.0, 18542.0, 18544.0, 18514.0, 18542.0, 18514.0, 18512.0, 18510.0, 18516.0, 18544.0, 18540.0, 18546.0, 18542.0, 18546.0, 18508.0, 18506.0, 18512.0, 18538.0, 18512.0, 18546.0, 18548.0, 18546.0, 18542.0, 18542.0, 18540.0, 18534.0, 18548.0, 18506.0]
    },
    "slices": {}
  }
}