{
  "AcquisitionMatrixPE": 104,
  "AcquisitionNumber": 1,
  "AcquisitionTime": "13:29:13.012500",
  "BandwidthPerPixelPhaseEncode": 17.17,
  "BaseResolution": 104,
  "BodyPartExamined": "BRAIN",
  "CoilString": "HC1-7;NC1_2",
  "ConsistencyInfo": "N4_VE11C_LATEST_20160120",
  "ConversionSoftware": "dcm2niix",
  "ConversionSoftwareVersion": "v1.0.20190902",
  "DerivedVendorReportedEchoSpacing": 0.000560011,
  "DeviceSerialNumber": "167006",
  "DwellTime": 2.1e-06,
  "EchoTime": 0.037,
  "EchoTrainLength": 104,
  "EffectiveEchoSpacing": 0.000560011,
  "FlipAngle": 52,
  "ImageComments": "Unaliased_MB4_PE3_LB",
  "ImageOrientationPatientDICOM": [0.998842, 0.0110457, 0.0468249, 0.00191761, 0.963373, -0.268158],
  "ImageType": [
    "ORIGINAL",
    "PRIMARY",
    "P",
    "MB",
    "ND",
    "MOSAIC"
],
  "ImagingFrequency": 123.259,
  "InPlanePhaseEncodingDirectionDICOM": "COL",
  "InstitutionAddress": "Chemin_Queen-Mary_4565_Montreal_District_CA_H3W_1W5",
  "InstitutionName": "IUGM",
  "InstitutionalDepartmentName": "Department",
  "MRAcquisitionType": "2D",
  "MagneticFieldStrength": 3,
  "Manufacturer": "Siemens",
  "ManufacturersModelName": "Prisma_fit",
  "Modality": "MR",
  "MultibandAccelerationFactor": 4,
  "PartialFourier": 1,
  "PatientPosition": "HFS",
  "PercentPhaseFOV": 100,
  "PhaseEncodingDirection": "j",
  "PhaseEncodingSteps": 104,
  "PhaseResolution": 1,
  "PixelBandwidth": 2290,
  "ProcedureStepDescription": "memory_things",
  "ProtocolName": "func_task-things_run-2",
  "PulseSequenceDetails": "%CustomerSeq%_cmrr_mbep2d_bold",
  "ReceiveCoilActiveElements": "HC1-7;NC1,2",
  "ReceiveCoilName": "HeadNeck_64",
  "ReconMatrixPE": 104,
  "RepetitionTime": 1.49,
  "SAR": 0.0386648,
  "ScanOptions": "FS",
  "ScanningSequence": "EP",
  "SequenceName": "epfid2d1_104",
  "SequenceVariant": "SK_SS",
  "SeriesDescription": "func_task-things_run-2",
  "SeriesNumber": 14,
  "ShimSetting": [651, -7211, -8770, 731, 63, 23, 60, 3],
  "SliceThickness": 2,
  "SliceTiming": [0, 0.785, 0.0975, 0.8825, 0.1975, 0.98, 0.295, 1.0775, 0.3925, 1.175, 0.49, 1.275, 0.5875, 1.3725, 0.685, 0, 0.785, 0.0975, 0.8825, 0.1975, 0.98, 0.295, 1.0775, 0.3925, 1.175, 0.49, 1.275, 0.5875, 1.3725, 0.685, 0, 0.785, 0.0975, 0.8825, 0.1975, 0.98, 0.295, 1.0775, 0.3925, 1.175, 0.49, 1.275, 0.5875, 1.3725, 0.685, 0, 0.785, 0.0975, 0.8825, 0.1975, 0.98, 0.295, 1.0775, 0.3925, 1.175, 0.49, 1.275, 0.5875, 1.3725, 0.685],
  "SoftwareVersions": "syngo_MR_E11",
  "SpacingBetweenSlices": 2,
  "StationName": "MRC35049",
  "TaskName": "things",
  "TotalReadoutTime": 0.0576811,
  "TxRefAmp": 217.628,
  "WipMemBlock": "c0f63571-f0ed-4919-a541-2dfe231e37c7||Sequence: R016 ve11c/master r/e634e98; Dec 19 2017 11:00:25 by eja",
  "dcmmeta_affine": [
    [-1.997684121131897, 0.0038352126721292734, 0.09614372253417969, 106.39787292480469],
    [-0.02209131419658661, 1.926746129989624, -0.5358743071556091, -72.986083984375],
    [0.09364986419677734, 0.5363157391548157, 1.924472689628601, -62.16432189941406],
    [0.0, 0.0, 0.0, 1.0]
],
  "dcmmeta_reorient_transform": [
    [0.0, -1.0, 0.0, 103.0],
    [1.0, 0.0, 0.0, 0.0],
    [0.0, 0.0, 1.0, 0.0],
    [0.0, 0.0, 0.0, 1.0]
],
  "dcmmeta_shape": [104, 104, 60, 190],
  "dcmmeta_slice_dim": 2,
  "dcmmeta_version": 0.6,
  "global": {
    "const": {
      "AcquisitionMatrix": [104, 0, 0, 104],
      "AngioFlag": "N",
      "BitsAllocated": 16,
      "BitsStored": 16,
      "BodyPartExamined": "BRAIN",
      "Columns": 832,
      "EchoNumbers": 1,
      "EchoTime": 37.0,
      "EchoTrainLength": 104,
      "FlipAngle": 52.0,
      "HighBit": 15,
      "ImageOrientationPatient": [0.99884203909753, 0.01104565699023, 0.04682493345582, 0.0019176062955, 0.96337307451645, -0.2681578678369],
      "ImagePositionPatient": [-835.34592243366, -834.84560366873, 154.20657663087],
      "ImageType": [
        "ORIGINAL",
        "PRIMARY",
        "P",
        "MB",
        "ND",
        "MOSAIC"
],
      "ImagedNucleus": "1H",
      "ImagingFrequency": 123.258937,
      "InPlanePhaseEncodingDirection": "COL",
      "LargestImagePixelValue": 4095,
      "MRAcquisitionType": "2D",
      "MagneticFieldStrength": 3.0,
      "Manufacturer": "SIEMENS",
      "ManufacturerModelName": "Prisma_fit",
      "Modality": "MR",
      "NumberOfAverages": 1.0,
      "NumberOfPhaseEncodingSteps": 104,
      "PercentPhaseFieldOfView": 100.0,
      "PercentSampling": 100.0,
      "PerformedProcedureStepStartTime": "130034.336000",
      "PhotometricInterpretation": "MONOCHROME2",
      "PixelBandwidth": 2290.0,
      "PixelRepresentation": 0,
      "PixelSpacing": [2.0, 2.0],
      "ProtocolName": "func_task-things_run-2",
      "RepetitionTime": 1490.0,
      "RescaleIntercept": -4096.0,
      "RescaleSlope": 2.0,
      "RescaleType": "US",
      "Rows": 832,
      "SAR": 0.03866484396069,
      "SamplesPerPixel": 1,
      "ScanOptions": "FS",
      "ScanningSequence": "EP",
      "SequenceName": "epfid2d1_104",
      "SequenceVariant": [
        "SK",
        "SS"
],
      "SeriesDescription": "func_task-things_run-2",
      "SeriesNumber": 14,
      "SeriesTime": "133042.038000",
      "SliceLocation": -35.146341298093,
      "SliceThickness": 2.0,
      "SmallestImagePixelValue": 0,
      "SoftwareVersions": "syngo MR E11",
      "SpacingBetweenSlices": 1.9999999937375,
      "SpecificCharacterSet": "ISO_IR 100",
      "StudyID": "1",
      "StudyTime": "130034.220000",
      "TransmitCoilName": "Body",
      "VariableFlipAngleFlag": "N",
      "WindowCenterWidthExplanation": "Algo1",
      "dBdt": 0.0},
    "slices": {}
  },
  "time": {
    "samples": {
      "AcquisitionNumber": [1, 2, 3, 4, 5, 6, 7, 8, 9, 10, 11, 12, 13, 14, 15, 16, 17, 18, 19, 20, 21, 22, 23, 24, 25, 26, 27, 28, 29, 30, 31, 32, 33, 34, 35, 36, 37, 38, 39, 40, 41, 42, 43, 44, 45, 46, 47, 48, 49, 50, 51, 52, 53, 54, 55, 56, 57, 58, 59, 60, 61, 62, 63, 64, 65, 66, 67, 68, 69, 70, 71, 72, 73, 74, 75, 76, 77, 78, 79, 80, 81, 82, 83, 84, 85, 86, 87, 88, 89, 90, 91, 92, 93, 94, 95, 96, 97, 98, 99, 100, 101, 102, 103, 104, 105, 106, 107, 108, 109, 110, 111, 112, 113, 114, 115, 116, 117, 118, 119, 120, 121, 122, 123, 124, 125, 126, 127, 128, 129, 130, 131, 132, 133, 134, 135, 136, 137, 138, 139, 140, 141, 142, 143, 144, 145, 146, 147, 148, 149, 150, 151, 152, 153, 154, 155, 156, 157, 158, 159, 160, 161, 162, 163, 164, 165, 166, 167, 168, 169, 170, 171, 172, 173, 174, 175, 176, 177, 178, 179, 180, 181, 182, 183, 184, 185, 186, 187, 188, 189, 190],
      "AcquisitionTime": ["132913.012500", "132914.502500", "132915.992500", "132917.482500", "132918.972500", "132920.462500", "132921.952500", "132923.442500", "132924.932500", "132926.422500", "132927.912500", "132929.402500", "132930.892500", "132932.382500", "132933.872500", "132935.362500", "132936.852500", "132938.342500", "132939.832500", "132941.322500", "132942.812500", "132944.302500", "132945.792500", "132947.282500", "132948.772500", "132950.262500", "132951.752500", "132953.242500", "132954.732500", "132956.222500", "132957.712500", "132959.202500", "133000.692500", "133002.182500", "133003.672500", "133005.162500", "133006.652500", "133008.142500", "133009.632500", "133011.122500", "133012.612500", "133014.102500", "133015.592500", "133017.082500", "133018.572500", "133020.062500", "133021.552500", "133023.042500", "133024.532500", "133026.022500", "133027.512500", "133029.002500", "133030.492500", "133031.982500", "133033.472500", "133034.962500", "133036.452500", "133037.942500", "133039.432500", "133040.922500", "133042.412500", "133043.902500", "133045.392500", "133046.882500", "133048.372500", "133049.862500", "133051.352500", "133052.842500", "133054.332500", "133055.822500", "133057.312500", "133058.802500", "133100.292500", "133101.782500", "133103.272500", "133104.762500", "133106.252500", "133107.742500", "133109.232500", "133110.722500", "133112.212500", "133113.702500", "133115.192500", "133116.682500", "133118.172500", "133119.662500", "133121.152500", "133122.642500", "133124.132500", "133125.622500", "133127.112500", "133128.602500", "133130.092500", "133131.582500", "133133.072500", "133134.562500", "133136.052500", "133137.542500", "133139.032500", "133140.522500", "133142.012500", "133143.502500", "133144.992500", "133146.482500", "133147.972500", "133149.462500", "133150.952500", "133152.442500", "133153.932500", "133155.422500", "133156.912500", "133158.402500", "133159.892500", "133201.382500", "133202.872500", "133204.362500", "133205.852500", "133207.342500", "133208.832500", "133210.322500", "133211.812500", "133213.302500", "133214.792500", "133216.282500", "133217.772500", "133219.262500", "133220.752500", "133222.242500", "133223.732500", "133225.222500", "133226.712500", "133228.202500", "133229.692500", "133231.182500", "133232.672500", "133234.162500", "133235.652500", "133237.142500", "133238.632500", "133240.122500", "133241.612500", "133243.102500", "133244.592500", "133246.082500", "133247.572500", "133249.062500", "133250.552500", "133252.042500", "133253.532500", "133255.022500", "133256.512500", "133258.002500", "133259.492500", "133300.982500", "133302.472500", "133303.962500", "133305.452500", "133306.942500", "133308.432500", "133309.922500", "133311.412500", "133312.902500", "133314.392500", "133315.882500", "133317.372500", "133318.862500", "133320.352500", "133321.842500", "133323.332500", "133324.822500", "133326.312500", "133327.802500", "133329.292500", "133330.782500", "133332.272500", "133333.762500", "133335.252500", "133336.742500", "133338.232500", "133339.722500", "133341.212500", "133342.702500", "133344.192500", "133345.682500", "133347.172500", "133348.662500", "133350.152500", "133351.642500", "133353.132500", "133354.622500"],
      "ContentTime": ["133042.040000", "133042.043000", "133042.045000", "133042.048000", "133042.057000", "133042.059000", "133042.062000", "133042.064000", "133042.067000", "133042.070000", "133042.072000", "133042.074000", "133042.077000", "133042.080000", "133042.082000", "133042.085000", "133042.087000", "133042.090000", "133042.092000", "133042.095000", "133042.097000", "133042.100000", "133042.102000", "133042.105000", "133042.107000", "133042.110000", "133042.112000", "133042.115000", "133042.117000", "133042.130000", "133042.132000", "133042.135000", "133042.137000", "133042.140000", "133042.142000", "133042.145000", "133101.923000", "133101.925000", "133101.928000", "133101.931000", "133101.933000", "133101.936000", "133101.938000", "133101.941000", "133101.943000", "133101.946000", "133101.948000", "133101.951000", "133101.953000", "133101.956000", "133101.959000", "133101.961000", "133101.964000", "133101.966000", "133101.969000", "133101.971000", "133121.956000", "133121.959000", "133121.961000", "133121.964000", "133121.966000", "133121.969000", "133121.971000", "133121.974000", "133121.976000", "133121.979000", "133121.981000", "133121.984000", "133121.986000", "133121.989000", "133121.991000", "133121.994000", "133121.996000", "133122.000000", "133122.002000", "133122.005000", "133141.944000", "133141.947000", "133141.949000", "133141.952000", "133141.955000", "133141.957000", "133141.960000", "133141.962000", "133141.965000", "133141.967000", "133141.970000", "133141.972000", "133141.975000", "133141.977000", "133141.979000", "133141.982000", "133141.984000", "133141.987000", "133141.989000", "133141.992000", "133221.969000", "133221.972000", "133221.974000", "133221.977000", "133221.979000", "133221.982000", "133221.984000", "133221.987000", "133221.990000", "133221.992000", "133221.995000", "133221.997000", "133222.001000", "133222.003000", "133222.006000", "133222.008000", "133222.011000", "133222.013000", "133222.016000", "133222.018000", "133222.021000", "133222.024000", "133222.026000", "133222.029000", "133222.032000", "133222.034000", "133222.037000", "133222.039000", "133222.042000", "133222.044000", "133301.960000", "133301.962000", "133301.965000", "133301.967000", "133301.970000", "133301.972000", "133301.975000", "133301.977000", "133301.980000", "133301.982000", "133301.985000", "133301.987000", "133301.990000", "133301.992000", "133301.995000", "133301.998000", "133302.000000", "133302.003000", "133302.005000", "133302.008000", "133302.010000", "133302.013000", "133302.015000", "133302.018000", "133302.020000", "133302.023000", "133302.025000", "133341.956000", "133341.958000", "133341.961000", "133341.963000", "133341.966000", "133341.968000", "133341.971000", "133341.973000", "133341.976000", "133341.978000", "133341.981000", "133341.983000", "133341.986000", "133341.988000", "133341.991000", "133341.993000", "133341.996000", "133341.998000", "133342.002000", "133342.005000", "133342.007000", "133342.010000", "133342.012000", "133342.015000", "133342.017000", "133342.019000", "133342.022000", "133356.757000", "133356.760000", "133356.763000", "133356.765000", "133356.768000", "133356.770000", "133356.773000", "133356.776000", "133356.778000", "133356.781000"],
      "InstanceCreationTime": ["133042.040000", "133042.043000", "133042.045000", "133042.048000", "133042.057000", "133042.059000", "133042.062000", "133042.064000", "133042.067000", "133042.070000", "133042.072000", "133042.074000", "133042.077000", "133042.080000", "133042.082000", "133042.085000", "133042.087000", "133042.090000", "133042.092000", "133042.095000", "133042.097000", "133042.100000", "133042.102000", "133042.105000", "133042.107000", "133042.110000", "133042.112000", "133042.115000", "133042.117000", "133042.130000", "133042.132000", "133042.135000", "133042.137000", "133042.140000", "133042.142000", "133042.145000", "133101.923000", "133101.925000", "133101.928000", "133101.931000", "133101.933000", "133101.936000", "133101.938000", "133101.941000", "133101.943000", "133101.946000", "133101.948000", "133101.951000", "133101.953000", "133101.956000", "133101.959000", "133101.961000", "133101.964000", "133101.966000", "133101.969000", "133101.971000", "133121.956000", "133121.959000", "133121.961000", "133121.964000", "133121.966000", "133121.969000", "133121.971000", "133121.974000", "133121.976000", "133121.979000", "133121.981000", "133121.984000", "133121.986000", "133121.989000", "133121.991000", "133121.994000", "133121.996000", "133122.000000", "133122.002000", "133122.005000", "133141.944000", "133141.947000", "133141.949000", "133141.952000", "133141.955000", "133141.957000", "133141.960000", "133141.962000", "133141.965000", "133141.967000", "133141.970000", "133141.972000", "133141.975000", "133141.977000", "133141.979000", "133141.982000", "133141.984000", "133141.987000", "133141.989000", "133141.992000", "133221.969000", "133221.972000", "133221.974000", "133221.977000", "133221.979000", "133221.982000", "133221.984000", "133221.987000", "133221.990000", "133221.992000", "133221.995000", "133221.997000", "133222.001000", "133222.003000", "133222.006000", "133222.008000", "133222.011000", "133222.013000", "133222.016000", "133222.018000", "133222.021000", "133222.024000", "133222.026000", "133222.029000", "133222.032000", "133222.034000", "133222.037000", "133222.039000", "133222.042000", "133222.044000", "133301.960000", "133301.962000", "133301.965000", "133301.967000", "133301.970000", "133301.972000", "133301.975000", "133301.977000", "133301.980000", "133301.982000", "133301.985000", "133301.987000", "133301.990000", "133301.992000", "133301.995000", "133301.998000", "133302.000000", "133302.003000", "133302.005000", "133302.008000", "133302.010000", "133302.013000", "133302.015000", "133302.018000", "133302.020000", "133302.023000", "133302.025000", "133341.956000", "133341.958000", "133341.961000", "133341.963000", "133341.966000", "133341.968000", "133341.971000", "133341.973000", "133341.976000", "133341.978000", "133341.981000", "133341.983000", "133341.986000", "133341.988000", "133341.991000", "133341.993000", "133341.996000", "133341.998000", "133342.002000", "133342.005000", "133342.007000", "133342.010000", "133342.012000", "133342.015000", "133342.017000", "133342.019000", "133342.022000", "133356.757000", "133356.760000", "133356.763000", "133356.765000", "133356.768000", "133356.770000", "133356.773000", "133356.776000", "133356.778000", "133356.781000"],
      "InstanceNumber": [1, 2, 3, 4, 5, 6, 7, 8, 9, 10, 11, 12, 13, 14, 15, 16, 17, 18, 19, 20, 21, 22, 23, 24, 25, 26, 27, 28, 29, 30, 31, 32, 33, 34, 35, 36, 37, 38, 39, 40, 41, 42, 43, 44, 45, 46, 47, 48, 49, 50, 51, 52, 53, 54, 55, 56, 57, 58, 59, 60, 61, 62, 63, 64, 65, 66, 67, 68, 69, 70, 71, 72, 73, 74, 75, 76, 77, 78, 79, 80, 81, 82, 83, 84, 85, 86, 87, 88, 89, 90, 91, 92, 93, 94, 95, 96, 97, 98, 99, 100, 101, 102, 103, 104, 105, 106, 107, 108, 109, 110, 111, 112, 113, 114, 115, 116, 117, 118, 119, 120, 121, 122, 123, 124, 125, 126, 127, 128, 129, 130, 131, 132, 133, 134, 135, 136, 137, 138, 139, 140, 141, 142, 143, 144, 145, 146, 147, 148, 149, 150, 151, 152, 153, 154, 155, 156, 157, 158, 159, 160, 161, 162, 163, 164, 165, 166, 167, 168, 169, 170, 171, 172, 173, 174, 175, 176, 177, 178, 179, 180, 181, 182, 183, 184, 185, 186, 187, 188, 189, 190],
      "WindowCenter": [4828.0, 4802.0, 4804.0, 4804.0, 4804.0, 4800.0, 4826.0, 4806.0, 4804.0, 4828.0, 4830.0, 4804.0, 4802.0, 4802.0, 4806.0, 4804.0, 4804.0, 4802.0, 4802.0, 4802.0, 4802.0, 4826.0, 4800.0, 4802.0, 4806.0, 4804.0, 4828.0, 4802.0, 4804.0, 4804.0, 4802.0, 4802.0, 4800.0, 4804.0, 4804.0, 4826.0, 4804.0, 4804.0, 4804.0, 4824.0, 4824.0, 4804.0, 4806.0, 4804.0, 4802.0, 4804.0, 4804.0, 4802.0, 4828.0, 4804.0, 4806.0, 4804.0, 4826.0, 4802.0, 4804.0, 4804.0, 4828.0, 4804.0, 4826.0, 4826.0, 4804.0, 4802.0, 4828.0, 4806.0, 4804.0, 4824.0, 4802.0, 4804.0, 4826.0, 4804.0, 4804.0, 4826.0, 4826.0, 4804.0, 4824.0, 4804.0, 4802.0, 4826.0, 4802.0, 4826.0, 4800.0, 4804.0, 4800.0, 4802.0, 4802.0, 4802.0, 4804.0, 4828.0, 4804.0, 4802.0, 4828.0, 4824.0, 4826.0, 4826.0, 4804.0, 4800.0, 4828.0, 4828.0, 4806.0, 4804.0, 4828.0, 4804.0, 4804.0, 4806.0, 4824.0, 4826.0, 4806.0, 4804.0, 4804.0, 4802.0, 4802.0, 4826.0, 4806.0, 4828.0, 4804.0, 4802.0, 4804.0, 4826.0, 4826.0, 4806.0, 4830.0, 4802.0, 4802.0, 4804.0, 4828.0, 4802.0, 4802.0, 4828.0, 4802.0, 4806.0, 4826.0, 4824.0, 4826.0, 4804.0, 4828.0, 4806.0, 4804.0, 4804.0, 4804.0, 4806.0, 4802.0, 4804.0, 4828.0, 4804.0, 4826.0, 4806.0, 4806.0, 4826.0, 4802.0, 4828.0, 4806.0, 4804.0, 4800.0, 4804.0, 4824.0, 4804.0, 4802.0, 4802.0, 4804.0, 4828.0, 4828.0, 4806.0, 4826.0, 4802.0, 4800.0, 4804.0, 4806.0, 4826.0, 4802.0, 4804.0, 4826.0, 4828.0, 4806.0, 4826.0, 4804.0, 4804.0, 4806.0, 4828.0, 4826.0, 4804.0, 4806.0, 4828.0, 4804.0, 4802.0, 4804.0, 4826.0, 4802.0, 4802.0, 4802.0, 4806.0],
      "WindowWidth": [18592.0, 18560.0, 18556.0, 18558.0, 18554.0, 18558.0, 18586.0, 18564.0, 18556.0, 18588.0, 18588.0, 18558.0, 18558.0, 18552.0, 18560.0, 18560.0, 18556.0, 18560.0, 18558.0, 18558.0, 18560.0, 18588.0, 18562.0, 18554.0, 18558.0, 18556.0, 18588.0, 18554.0, 18560.0, 18552.0, 18560.0, 18554.0, 18556.0, 18556.0, 18560.0, 18588.0, 18560.0, 18556.0, 18558.0, 18588.0, 18590.0, 18558.0, 18556.0, 18556.0, 18552.0, 18558.0, 18556.0, 18558.0, 18588.0, 18558.0, 18558.0, 18562.0, 18584.0, 18556.0, 18554.0, 18560.0, 18584.0, 18558.0, 18594.0, 18590.0, 18556.0, 18554.0, 18592.0, 18562.0, 18556.0, 18590.0, 18556.0, 18556.0, 18584.0, 18558.0, 18560.0, 18586.0, 18594.0, 18560.0, 18584.0, 18554.0, 18554.0, 18586.0, 18562.0, 18586.0, 18554.0, 18554.0, 18554.0, 18558.0, 18554.0, 18554.0, 18558.0, 18586.0, 18556.0, 18558.0, 18586.0, 18592.0, 18584.0, 18590.0, 18562.0, 18548.0, 18584.0, 18588.0, 18556.0, 18554.0, 18588.0, 18556.0, 18558.0, 18554.0, 18590.0, 18588.0, 18564.0, 18558.0, 18558.0, 18556.0, 18556.0, 18582.0, 18560.0, 18584.0, 18554.0, 18554.0, 18556.0, 18586.0, 18590.0, 18558.0, 18590.0, 18554.0, 18556.0, 18556.0, 18588.0, 18556.0, 18550.0, 18592.0, 18552.0, 18560.0, 18584.0, 18590.0, 18584.0, 18562.0, 18584.0, 18556.0, 18554.0, 18560.0, 18558.0, 18558.0, 18554.0, 18554.0, 18588.0, 18558.0, 18586.0, 18558.0, 18556.0, 18588.0, 18556.0, 18590.0, 18556.0, 18556.0, 18558.0, 18560.0, 18584.0, 18556.0, 18554.0, 18552.0, 18554.0, 18586.0, 18586.0, 18558.0, 18584.0, 18552.0, 18552.0, 18552.0, 18556.0, 18584.0, 18560.0, 18554.0, 18588.0, 18588.0, 18552.0, 18582.0, 18556.0, 18554.0, 18558.0, 18590.0, 18582.0, 18558.0, 18554.0, 18590.0, 18560.0, 18552.0, 18558.0, 18588.0, 18560.0, 18556.0, 18558.0, 18554.0]
    },
    "slices": {}
  }
}