{
  "AcquisitionMatrixPE": 104,
  "AcquisitionNumber": 1,
  "AcquisitionTime": "13:53:3.877500",
  "BandwidthPerPixelPhaseEncode": 17.17,
  "BaseResolution": 104,
  "BodyPartExamined": "BRAIN",
  "CoilString": "HC1-7;NC1_2",
  "ConsistencyInfo": "N4_VE11C_LATEST_20160120",
  "ConversionSoftware": "dcm2niix",
  "ConversionSoftwareVersion": "v1.0.20190902",
  "DerivedVendorReportedEchoSpacing": 0.000560011,
  "DeviceSerialNumber": "167006",
  "DwellTime": 2.1e-06,
  "EchoTime": 0.037,
  "EchoTrainLength": 104,
  "EffectiveEchoSpacing": 0.000560011,
  "FlipAngle": 52,
  "ImageComments": "Unaliased_MB4_PE3_LB",
  "ImageOrientationPatientDICOM": [0.998842, 0.0110457, 0.0468249, 0.00191761, 0.963373, -0.268158],
  "ImageType": [
    "ORIGINAL",
    "PRIMARY",
    "P",
    "MB",
    "ND",
    "MOSAIC"
],
  "ImagingFrequency": 123.259,
  "InPlanePhaseEncodingDirectionDICOM": "COL",
  "InstitutionAddress": "Chemin_Queen-Mary_4565_Montreal_District_CA_H3W_1W5",
  "InstitutionName": "IUGM",
  "InstitutionalDepartmentName": "Department",
  "MRAcquisitionType": "2D",
  "MagneticFieldStrength": 3,
  "Manufacturer": "Siemens",
  "ManufacturersModelName": "Prisma_fit",
  "Modality": "MR",
  "MultibandAccelerationFactor": 4,
  "PartialFourier": 1,
  "PatientPosition": "HFS",
  "PercentPhaseFOV": 100,
  "PhaseEncodingDirection": "j",
  "PhaseEncodingSteps": 104,
  "PhaseResolution": 1,
  "PixelBandwidth": 2290,
  "ProcedureStepDescription": "memory_things",
  "ProtocolName": "func_task-things_run-6",
  "PulseSequenceDetails": "%CustomerSeq%_cmrr_mbep2d_bold",
  "ReceiveCoilActiveElements": "HC1-7;NC1,2",
  "ReceiveCoilName": "HeadNeck_64",
  "ReconMatrixPE": 104,
  "RepetitionTime": 1.49,
  "SAR": 0.0386648,
  "ScanOptions": "FS",
  "ScanningSequence": "EP",
  "SequenceName": "epfid2d1_104",
  "SequenceVariant": "SK_SS",
  "SeriesDescription": "func_task-things_run-6",
  "SeriesNumber": 26,
  "ShimSetting": [651, -7211, -8770, 731, 63, 23, 60, 3],
  "SliceThickness": 2,
  "SliceTiming": [0, 0.7825, 0.0975, 0.88, 0.195, 0.98, 0.2925, 1.0775, 0.39, 1.175, 0.49, 1.2725, 0.5875, 1.37, 0.685, 0, 0.7825, 0.0975, 0.88, 0.195, 0.98, 0.2925, 1.0775, 0.39, 1.175, 0.49, 1.2725, 0.5875, 1.37, 0.685, 0, 0.7825, 0.0975, 0.88, 0.195, 0.98, 0.2925, 1.0775, 0.39, 1.175, 0.49, 1.2725, 0.5875, 1.37, 0.685, 0, 0.7825, 0.0975, 0.88, 0.195, 0.98, 0.2925, 1.0775, 0.39, 1.175, 0.49, 1.2725, 0.5875, 1.37, 0.685],
  "SoftwareVersions": "syngo_MR_E11",
  "SpacingBetweenSlices": 2,
  "StationName": "MRC35049",
  "TaskName": "things",
  "TotalReadoutTime": 0.0576811,
  "TxRefAmp": 217.628,
  "WipMemBlock": "b72fd7ac-7ffc-4eb5-8e8e-a8d29198482f||Sequence: R016 ve11c/master r/e634e98; Dec 19 2017 11:00:25 by eja",
  "dcmmeta_affine": [
    [-1.997684121131897, 0.0038352126721292734, 0.09614372253417969, 106.39787292480469],
    [-0.02209131419658661, 1.926746129989624, -0.5358743071556091, -72.986083984375],
    [0.09364986419677734, 0.5363157391548157, 1.924472689628601, -62.16432189941406],
    [0.0, 0.0, 0.0, 1.0]
],
  "dcmmeta_reorient_transform": [
    [0.0, -1.0, 0.0, 103.0],
    [1.0, 0.0, 0.0, 0.0],
    [0.0, 0.0, 1.0, 0.0],
    [0.0, 0.0, 0.0, 1.0]
],
  "dcmmeta_shape": [104, 104, 60, 190],
  "dcmmeta_slice_dim": 2,
  "dcmmeta_version": 0.6,
  "global": {
    "const": {
      "AcquisitionMatrix": [104, 0, 0, 104],
      "AngioFlag": "N",
      "BitsAllocated": 16,
      "BitsStored": 16,
      "BodyPartExamined": "BRAIN",
      "Columns": 832,
      "EchoNumbers": 1,
      "EchoTime": 37.0,
      "EchoTrainLength": 104,
      "FlipAngle": 52.0,
      "HighBit": 15,
      "ImageOrientationPatient": [0.99884203909753, 0.01104565699023, 0.04682493345582, 0.0019176062955, 0.96337307451645, -0.2681578678369],
      "ImagePositionPatient": [-835.34592243366, -834.84560366873, 154.20657663087],
      "ImageType": [
        "ORIGINAL",
        "PRIMARY",
        "P",
        "MB",
        "ND",
        "MOSAIC"
],
      "ImagedNucleus": "1H",
      "ImagingFrequency": 123.258948,
      "InPlanePhaseEncodingDirection": "COL",
      "LargestImagePixelValue": 4095,
      "MRAcquisitionType": "2D",
      "MagneticFieldStrength": 3.0,
      "Manufacturer": "SIEMENS",
      "ManufacturerModelName": "Prisma_fit",
      "Modality": "MR",
      "NumberOfAverages": 1.0,
      "NumberOfPhaseEncodingSteps": 104,
      "PercentPhaseFieldOfView": 100.0,
      "PercentSampling": 100.0,
      "PerformedProcedureStepStartTime": "130034.336000",
      "PhotometricInterpretation": "MONOCHROME2",
      "PixelBandwidth": 2290.0,
      "PixelRepresentation": 0,
      "PixelSpacing": [2.0, 2.0],
      "ProtocolName": "func_task-things_run-6",
      "RepetitionTime": 1490.0,
      "RescaleIntercept": -4096.0,
      "RescaleSlope": 2.0,
      "RescaleType": "US",
      "Rows": 832,
      "SAR": 0.03866484396069,
      "SamplesPerPixel": 1,
      "ScanOptions": "FS",
      "ScanningSequence": "EP",
      "SequenceName": "epfid2d1_104",
      "SequenceVariant": [
        "SK",
        "SS"
],
      "SeriesDescription": "func_task-things_run-6",
      "SeriesNumber": 26,
      "SeriesTime": "135423.927000",
      "SliceLocation": -35.146341298093,
      "SliceThickness": 2.0,
      "SmallestImagePixelValue": 0,
      "SoftwareVersions": "syngo MR E11",
      "SpacingBetweenSlices": 1.9999999937375,
      "SpecificCharacterSet": "ISO_IR 100",
      "StudyID": "1",
      "StudyTime": "130034.220000",
      "TransmitCoilName": "Body",
      "VariableFlipAngleFlag": "N",
      "WindowCenterWidthExplanation": "Algo1",
      "dBdt": 0.0},
    "slices": {}
  },
  "time": {
    "samples": {
      "AcquisitionNumber": [1, 2, 3, 4, 5, 6, 7, 8, 9, 10, 11, 12, 13, 14, 15, 16, 17, 18, 19, 20, 21, 22, 23, 24, 25, 26, 27, 28, 29, 30, 31, 32, 33, 34, 35, 36, 37, 38, 39, 40, 41, 42, 43, 44, 45, 46, 47, 48, 49, 50, 51, 52, 53, 54, 55, 56, 57, 58, 59, 60, 61, 62, 63, 64, 65, 66, 67, 68, 69, 70, 71, 72, 73, 74, 75, 76, 77, 78, 79, 80, 81, 82, 83, 84, 85, 86, 87, 88, 89, 90, 91, 92, 93, 94, 95, 96, 97, 98, 99, 100, 101, 102, 103, 104, 105, 106, 107, 108, 109, 110, 111, 112, 113, 114, 115, 116, 117, 118, 119, 120, 121, 122, 123, 124, 125, 126, 127, 128, 129, 130, 131, 132, 133, 134, 135, 136, 137, 138, 139, 140, 141, 142, 143, 144, 145, 146, 147, 148, 149, 150, 151, 152, 153, 154, 155, 156, 157, 158, 159, 160, 161, 162, 163, 164, 165, 166, 167, 168, 169, 170, 171, 172, 173, 174, 175, 176, 177, 178, 179, 180, 181, 182, 183, 184, 185, 186, 187, 188, 189, 190],
      "AcquisitionTime": ["135303.877500", "135305.367500", "135306.857500", "135308.347500", "135309.837500", "135311.327500", "135312.817500", "135314.307500", "135315.797500", "135317.287500", "135318.777500", "135320.267500", "135321.757500", "135323.247500", "135324.737500", "135326.227500", "135327.717500", "135329.207500", "135330.697500", "135332.187500", "135333.677500", "135335.167500", "135336.657500", "135338.147500", "135339.637500", "135341.127500", "135342.617500", "135344.107500", "135345.597500", "135347.087500", "135348.577500", "135350.067500", "135351.557500", "135353.047500", "135354.537500", "135356.027500", "135357.517500", "135359.007500", "135400.497500", "135401.987500", "135403.477500", "135404.967500", "135406.457500", "135407.947500", "135409.437500", "135410.927500", "135412.417500", "135413.907500", "135415.397500", "135416.887500", "135418.377500", "135419.867500", "135421.357500", "135422.847500", "135424.337500", "135425.827500", "135427.317500", "135428.807500", "135430.297500", "135431.787500", "135433.277500", "135434.767500", "135436.257500", "135437.747500", "135439.237500", "135440.727500", "135442.217500", "135443.707500", "135445.197500", "135446.687500", "135448.177500", "135449.667500", "135451.157500", "135452.647500", "135454.137500", "135455.627500", "135457.117500", "135458.607500", "135500.097500", "135501.587500", "135503.077500", "135504.567500", "135506.057500", "135507.547500", "135509.037500", "135510.527500", "135512.017500", "135513.507500", "135514.997500", "135516.487500", "135517.977500", "135519.467500", "135520.957500", "135522.447500", "135523.937500", "135525.427500", "135526.917500", "135528.407500", "135529.897500", "135531.387500", "135532.877500", "135534.367500", "135535.857500", "135537.347500", "135538.837500", "135540.327500", "135541.817500", "135543.307500", "135544.797500", "135546.287500", "135547.777500", "135549.267500", "135550.757500", "135552.247500", "135553.737500", "135555.227500", "135556.717500", "135558.207500", "135559.697500", "135601.187500", "135602.677500", "135604.167500", "135605.657500", "135607.147500", "135608.637500", "135610.127500", "135611.617500", "135613.107500", "135614.597500", "135616.087500", "135617.577500", "135619.067500", "135620.557500", "135622.047500", "135623.537500", "135625.027500", "135626.517500", "135628.007500", "135629.497500", "135630.987500", "135632.477500", "135633.967500", "135635.457500", "135636.947500", "135638.437500", "135639.927500", "135641.417500", "135642.907500", "135644.397500", "135645.887500", "135647.377500", "135648.867500", "135650.357500", "135651.847500", "135653.337500", "135654.827500", "135656.317500", "135657.807500", "135659.297500", "135700.787500", "135702.277500", "135703.767500", "135705.257500", "135706.747500", "135708.237500", "135709.727500", "135711.217500", "135712.707500", "135714.197500", "135715.687500", "135717.177500", "135718.667500", "135720.157500", "135721.647500", "135723.137500", "135724.627500", "135726.117500", "135727.607500", "135729.097500", "135730.587500", "135732.077500", "135733.567500", "135735.057500", "135736.547500", "135738.037500", "135739.527500", "135741.017500", "135742.507500", "135743.997500", "135745.487500"],
      "ContentTime": ["135423.929000", "135423.932000", "135423.935000", "135423.937000", "135423.940000", "135423.942000", "135423.945000", "135423.947000", "135423.950000", "135423.952000", "135423.955000", "135423.957000", "135423.960000", "135423.962000", "135423.965000", "135423.967000", "135423.969000", "135423.972000", "135423.974000", "135423.977000", "135423.979000", "135423.982000", "135423.984000", "135423.987000", "135423.989000", "135443.875000", "135443.878000", "135443.880000", "135443.891000", "135443.893000", "135443.896000", "135443.898000", "135443.901000", "135443.903000", "135443.906000", "135443.908000", "135443.911000", "135443.913000", "135443.916000", "135443.918000", "135443.921000", "135443.923000", "135443.926000", "135443.928000", "135443.931000", "135504.352000", "135504.355000", "135504.358000", "135504.370000", "135504.372000", "135504.375000", "135504.377000", "135504.380000", "135504.382000", "135504.385000", "135504.387000", "135504.390000", "135504.392000", "135504.395000", "135504.397000", "135504.400000", "135504.402000", "135504.405000", "135504.407000", "135504.410000", "135523.866000", "135523.869000", "135523.871000", "135523.874000", "135523.876000", "135523.879000", "135523.881000", "135523.884000", "135523.886000", "135523.889000", "135523.891000", "135523.894000", "135523.896000", "135523.899000", "135523.901000", "135523.904000", "135523.906000", "135523.909000", "135523.911000", "135523.914000", "135543.865000", "135543.868000", "135543.870000", "135543.873000", "135543.875000", "135543.878000", "135543.880000", "135543.883000", "135543.885000", "135543.888000", "135543.890000", "135543.893000", "135543.895000", "135543.898000", "135543.900000", "135543.903000", "135543.906000", "135543.908000", "135543.910000", "135543.913000", "135623.914000", "135623.916000", "135623.919000", "135623.921000", "135623.924000", "135623.926000", "135623.929000", "135623.931000", "135623.934000", "135623.936000", "135623.939000", "135623.941000", "135623.944000", "135623.946000", "135623.949000", "135623.951000", "135623.954000", "135623.956000", "135623.959000", "135623.962000", "135623.964000", "135623.967000", "135623.969000", "135623.972000", "135623.974000", "135623.977000", "135623.979000", "135623.982000", "135703.911000", "135703.914000", "135703.917000", "135703.919000", "135703.922000", "135703.924000", "135703.927000", "135703.929000", "135703.932000", "135703.934000", "135703.937000", "135703.939000", "135703.941000", "135703.944000", "135703.947000", "135703.949000", "135703.952000", "135703.954000", "135703.957000", "135703.959000", "135703.962000", "135703.964000", "135703.967000", "135703.970000", "135703.972000", "135703.975000", "135703.977000", "135743.900000", "135743.903000", "135743.905000", "135743.908000", "135743.915000", "135743.917000", "135743.920000", "135743.922000", "135743.925000", "135743.927000", "135743.930000", "135743.932000", "135743.935000", "135743.937000", "135743.940000", "135743.942000", "135743.945000", "135743.960000", "135743.962000", "135743.965000", "135743.967000", "135743.970000", "135743.972000", "135743.975000", "135743.977000", "135743.980000", "135743.982000", "135747.360000", "135747.363000", "135747.365000"],
      "InstanceCreationTime": ["135423.929000", "135423.932000", "135423.935000", "135423.937000", "135423.940000", "135423.942000", "135423.945000", "135423.947000", "135423.950000", "135423.952000", "135423.955000", "135423.957000", "135423.960000", "135423.962000", "135423.965000", "135423.967000", "135423.969000", "135423.972000", "135423.974000", "135423.977000", "135423.979000", "135423.982000", "135423.984000", "135423.987000", "135423.989000", "135443.875000", "135443.878000", "135443.880000", "135443.891000", "135443.893000", "135443.896000", "135443.898000", "135443.901000", "135443.903000", "135443.906000", "135443.908000", "135443.911000", "135443.913000", "135443.916000", "135443.918000", "135443.921000", "135443.923000", "135443.926000", "135443.928000", "135443.931000", "135504.352000", "135504.355000", "135504.358000", "135504.370000", "135504.372000", "135504.375000", "135504.377000", "135504.380000", "135504.382000", "135504.385000", "135504.387000", "135504.390000", "135504.392000", "135504.395000", "135504.397000", "135504.400000", "135504.402000", "135504.405000", "135504.407000", "135504.410000", "135523.866000", "135523.869000", "135523.871000", "135523.874000", "135523.876000", "135523.879000", "135523.881000", "135523.884000", "135523.886000", "135523.889000", "135523.891000", "135523.894000", "135523.896000", "135523.899000", "135523.901000", "135523.904000", "135523.906000", "135523.909000", "135523.911000", "135523.914000", "135543.865000", "135543.868000", "135543.870000", "135543.873000", "135543.875000", "135543.878000", "135543.880000", "135543.883000", "135543.885000", "135543.888000", "135543.890000", "135543.893000", "135543.895000", "135543.898000", "135543.900000", "135543.903000", "135543.906000", "135543.908000", "135543.910000", "135543.913000", "135623.914000", "135623.916000", "135623.919000", "135623.921000", "135623.924000", "135623.926000", "135623.929000", "135623.931000", "135623.934000", "135623.936000", "135623.939000", "135623.941000", "135623.944000", "135623.946000", "135623.949000", "135623.951000", "135623.954000", "135623.956000", "135623.959000", "135623.962000", "135623.964000", "135623.967000", "135623.969000", "135623.972000", "135623.974000", "135623.977000", "135623.979000", "135623.982000", "135703.911000", "135703.914000", "135703.917000", "135703.919000", "135703.922000", "135703.924000", "135703.927000", "135703.929000", "135703.932000", "135703.934000", "135703.937000", "135703.939000", "135703.941000", "135703.944000", "135703.947000", "135703.949000", "135703.952000", "135703.954000", "135703.957000", "135703.959000", "135703.962000", "135703.964000", "135703.967000", "135703.970000", "135703.972000", "135703.975000", "135703.977000", "135743.900000", "135743.903000", "135743.905000", "135743.908000", "135743.915000", "135743.917000", "135743.920000", "135743.922000", "135743.925000", "135743.927000", "135743.930000", "135743.932000", "135743.935000", "135743.937000", "135743.940000", "135743.942000", "135743.945000", "135743.960000", "135743.962000", "135743.965000", "135743.967000", "135743.970000", "135743.972000", "135743.975000", "135743.977000", "135743.980000", "135743.982000", "135747.360000", "135747.363000", "135747.365000"],
      "InstanceNumber": [1, 2, 3, 4, 5, 6, 7, 8, 9, 10, 11, 12, 13, 14, 15, 16, 17, 18, 19, 20, 21, 22, 23, 24, 25, 26, 27, 28, 29, 30, 31, 32, 33, 34, 35, 36, 37, 38, 39, 40, 41, 42, 43, 44, 45, 46, 47, 48, 49, 50, 51, 52, 53, 54, 55, 56, 57, 58, 59, 60, 61, 62, 63, 64, 65, 66, 67, 68, 69, 70, 71, 72, 73, 74, 75, 76, 77, 78, 79, 80, 81, 82, 83, 84, 85, 86, 87, 88, 89, 90, 91, 92, 93, 94, 95, 96, 97, 98, 99, 100, 101, 102, 103, 104, 105, 106, 107, 108, 109, 110, 111, 112, 113, 114, 115, 116, 117, 118, 119, 120, 121, 122, 123, 124, 125, 126, 127, 128, 129, 130, 131, 132, 133, 134, 135, 136, 137, 138, 139, 140, 141, 142, 143, 144, 145, 146, 147, 148, 149, 150, 151, 152, 153, 154, 155, 156, 157, 158, 159, 160, 161, 162, 163, 164, 165, 166, 167, 168, 169, 170, 171, 172, 173, 174, 175, 176, 177, 178, 179, 180, 181, 182, 183, 184, 185, 186, 187, 188, 189, 190],
      "WindowCenter": [4794.0, 4802.0, 4796.0, 4792.0, 4794.0, 4800.0, 4794.0, 4794.0, 4798.0, 4796.0, 4798.0, 4796.0, 4796.0, 4798.0, 4794.0, 4800.0, 4796.0, 4796.0, 4794.0, 4796.0, 4796.0, 4798.0, 4794.0, 4800.0, 4796.0, 4798.0, 4798.0, 4804.0, 4796.0, 4798.0, 4794.0, 4800.0, 4804.0, 4796.0, 4796.0, 4796.0, 4800.0, 4796.0, 4794.0, 4796.0, 4796.0, 4802.0, 4798.0, 4800.0, 4798.0, 4798.0, 4800.0, 4798.0, 4798.0, 4794.0, 4796.0, 4798.0, 4802.0, 4800.0, 4800.0, 4796.0, 4798.0, 4798.0, 4798.0, 4800.0, 4800.0, 4798.0, 4798.0, 4796.0, 4798.0, 4798.0, 4796.0, 4796.0, 4800.0, 4802.0, 4798.0, 4798.0, 4792.0, 4798.0, 4792.0, 4798.0, 4794.0, 4798.0, 4798.0, 4798.0, 4798.0, 4798.0, 4800.0, 4804.0, 4798.0, 4802.0, 4798.0, 4800.0, 4794.0, 4798.0, 4802.0, 4796.0, 4802.0, 4798.0, 4798.0, 4796.0, 4796.0, 4798.0, 4800.0, 4800.0, 4800.0, 4798.0, 4800.0, 4798.0, 4796.0, 4798.0, 4798.0, 4796.0, 4798.0, 4800.0, 4798.0, 4800.0, 4800.0, 4800.0, 4798.0, 4798.0, 4802.0, 4798.0, 4800.0, 4798.0, 4796.0, 4796.0, 4798.0, 4800.0, 4802.0, 4798.0, 4800.0, 4794.0, 4796.0, 4794.0, 4798.0, 4798.0, 4798.0, 4796.0, 4804.0, 4800.0, 4802.0, 4798.0, 4800.0, 4800.0, 4796.0, 4798.0, 4802.0, 4796.0, 4802.0, 4798.0, 4798.0, 4798.0, 4802.0, 4796.0, 4798.0, 4800.0, 4802.0, 4800.0, 4800.0, 4798.0, 4800.0, 4798.0, 4798.0, 4798.0, 4800.0, 4802.0, 4800.0, 4800.0, 4796.0, 4802.0, 4792.0, 4802.0, 4798.0, 4798.0, 4798.0, 4802.0, 4798.0, 4800.0, 4800.0, 4798.0, 4796.0, 4800.0, 4798.0, 4802.0, 4796.0, 4802.0, 4802.0, 4800.0, 4800.0, 4800.0, 4800.0, 4798.0, 4800.0, 4804.0],
      "WindowWidth": [18558.0, 18560.0, 18560.0, 18550.0, 18556.0, 18562.0, 18558.0, 18560.0, 18558.0, 18562.0, 18564.0, 18556.0, 18562.0, 18558.0, 18556.0, 18562.0, 18560.0, 18560.0, 18556.0, 18558.0, 18560.0, 18560.0, 18564.0, 18560.0, 18558.0, 18562.0, 18556.0, 18566.0, 18560.0, 18554.0, 18558.0, 18556.0, 18558.0, 18558.0, 18556.0, 18558.0, 18564.0, 18560.0, 18558.0, 18558.0, 18562.0, 18564.0, 18558.0, 18560.0, 18560.0, 18558.0, 18558.0, 18554.0, 18558.0, 18558.0, 18558.0, 18562.0, 18568.0, 18560.0, 18564.0, 18560.0, 18556.0, 18564.0, 18558.0, 18564.0, 18562.0, 18564.0, 18560.0, 18558.0, 18558.0, 18558.0, 18554.0, 18562.0, 18564.0, 18564.0, 18556.0, 18558.0, 18556.0, 18558.0, 18558.0, 18558.0, 18558.0, 18556.0, 18560.0, 18556.0, 18560.0, 18558.0, 18566.0, 18564.0, 18558.0, 18562.0, 18554.0, 18562.0, 18556.0, 18556.0, 18564.0, 18558.0, 18558.0, 18560.0, 18566.0, 18558.0, 18558.0, 18562.0, 18558.0, 18564.0, 18558.0, 18564.0, 18564.0, 18558.0, 18560.0, 18558.0, 18558.0, 18558.0, 18558.0, 18562.0, 18556.0, 18562.0, 18558.0, 18562.0, 18560.0, 18556.0, 18562.0, 18558.0, 18560.0, 18560.0, 18558.0, 18554.0, 18556.0, 18558.0, 18558.0, 18556.0, 18562.0, 18556.0, 18558.0, 18558.0, 18556.0, 18564.0, 18558.0, 18558.0, 18562.0, 18562.0, 18556.0, 18564.0, 18554.0, 18562.0, 18560.0, 18558.0, 18562.0, 18560.0, 18560.0, 18556.0, 18556.0, 18556.0, 18560.0, 18558.0, 18560.0, 18560.0, 18560.0, 18564.0, 18558.0, 18558.0, 18564.0, 18560.0, 18554.0, 18554.0, 18556.0, 18558.0, 18562.0, 18554.0, 18556.0, 18560.0, 18558.0, 18562.0, 18560.0, 18556.0, 18560.0, 18564.0, 18562.0, 18566.0, 18560.0, 18554.0, 18562.0, 18564.0, 18558.0, 18562.0, 18554.0, 18562.0, 18562.0, 18560.0, 18560.0, 18556.0, 18554.0, 18562.0, 18560.0, 18560.0]
    },
    "slices": {}
  }
}