{
  "AcquisitionMatrixPE": 104,
  "AcquisitionNumber": 1,
  "AcquisitionTime": "13:53:3.877500",
  "BandwidthPerPixelPhaseEncode": 17.17,
  "BaseResolution": 104,
  "BodyPartExamined": "BRAIN",
  "CoilString": "HC1-7;NC1_2",
  "ConsistencyInfo": "N4_VE11C_LATEST_20160120",
  "ConversionSoftware": "dcm2niix",
  "ConversionSoftwareVersion": "v1.0.20190902",
  "DerivedVendorReportedEchoSpacing": 0.000560011,
  "DeviceSerialNumber": "167006",
  "DwellTime": 2.1e-06,
  "EchoTime": 0.037,
  "EchoTrainLength": 104,
  "EffectiveEchoSpacing": 0.000560011,
  "FlipAngle": 52,
  "ImageComments": "Unaliased_MB4_PE3_LB",
  "ImageOrientationPatientDICOM": [0.998842, 0.0110457, 0.0468249, 0.00191761, 0.963373, -0.268158],
  "ImageType": [
    "ORIGINAL",
    "PRIMARY",
    "M",
    "MB",
    "ND",
    "MOSAIC"
],
  "ImagingFrequency": 123.259,
  "InPlanePhaseEncodingDirectionDICOM": "COL",
  "InstitutionAddress": "Chemin_Queen-Mary_4565_Montreal_District_CA_H3W_1W5",
  "InstitutionName": "IUGM",
  "InstitutionalDepartmentName": "Department",
  "MRAcquisitionType": "2D",
  "MagneticFieldStrength": 3,
  "Manufacturer": "Siemens",
  "ManufacturersModelName": "Prisma_fit",
  "Modality": "MR",
  "MultibandAccelerationFactor": 4,
  "PartialFourier": 1,
  "PatientPosition": "HFS",
  "PercentPhaseFOV": 100,
  "PhaseEncodingDirection": "j",
  "PhaseEncodingSteps": 104,
  "PhaseResolution": 1,
  "PixelBandwidth": 2290,
  "ProcedureStepDescription": "memory_things",
  "ProtocolName": "func_task-things_run-6",
  "PulseSequenceDetails": "%CustomerSeq%_cmrr_mbep2d_bold",
  "ReceiveCoilActiveElements": "HC1-7;NC1,2",
  "ReceiveCoilName": "HeadNeck_64",
  "ReconMatrixPE": 104,
  "RepetitionTime": 1.49,
  "SAR": 0.0386648,
  "ScanOptions": "FS",
  "ScanningSequence": "EP",
  "SequenceName": "epfid2d1_104",
  "SequenceVariant": "SK_SS",
  "SeriesDescription": "func_task-things_run-6",
  "SeriesNumber": 25,
  "ShimSetting": [651, -7211, -8770, 731, 63, 23, 60, 3],
  "SliceThickness": 2,
  "SliceTiming": [0, 0.7825, 0.0975, 0.88, 0.195, 0.98, 0.2925, 1.0775, 0.39, 1.175, 0.49, 1.2725, 0.5875, 1.37, 0.685, 0, 0.7825, 0.0975, 0.88, 0.195, 0.98, 0.2925, 1.0775, 0.39, 1.175, 0.49, 1.2725, 0.5875, 1.37, 0.685, 0, 0.7825, 0.0975, 0.88, 0.195, 0.98, 0.2925, 1.0775, 0.39, 1.175, 0.49, 1.2725, 0.5875, 1.37, 0.685, 0, 0.7825, 0.0975, 0.88, 0.195, 0.98, 0.2925, 1.0775, 0.39, 1.175, 0.49, 1.2725, 0.5875, 1.37, 0.685],
  "SoftwareVersions": "syngo_MR_E11",
  "SpacingBetweenSlices": 2,
  "StationName": "MRC35049",
  "TaskName": "things",
  "TotalReadoutTime": 0.0576811,
  "TxRefAmp": 217.628,
  "WipMemBlock": "b72fd7ac-7ffc-4eb5-8e8e-a8d29198482f||Sequence: R016 ve11c/master r/e634e98; Dec 19 2017 11:00:25 by eja",
  "dcmmeta_affine": [
    [-1.997684121131897, 0.0038352126721292734, 0.09614372253417969, 106.39787292480469],
    [-0.02209131419658661, 1.926746129989624, -0.5358743071556091, -72.986083984375],
    [0.09364986419677734, 0.5363157391548157, 1.924472689628601, -62.16432189941406],
    [0.0, 0.0, 0.0, 1.0]
],
  "dcmmeta_reorient_transform": [
    [0.0, -1.0, 0.0, 103.0],
    [1.0, 0.0, 0.0, 0.0],
    [0.0, 0.0, 1.0, 0.0],
    [0.0, 0.0, 0.0, 1.0]
],
  "dcmmeta_shape": [104, 104, 60, 190],
  "dcmmeta_slice_dim": 2,
  "dcmmeta_version": 0.6,
  "global": {
    "const": {
      "AcquisitionMatrix": [104, 0, 0, 104],
      "AngioFlag": "N",
      "BitsAllocated": 16,
      "BitsStored": 16,
      "BodyPartExamined": "BRAIN",
      "Columns": 832,
      "EchoNumbers": 1,
      "EchoTime": 37.0,
      "EchoTrainLength": 104,
      "FlipAngle": 52.0,
      "HighBit": 15,
      "ImageOrientationPatient": [0.99884203909753, 0.01104565699023, 0.04682493345582, 0.0019176062955, 0.96337307451645, -0.2681578678369],
      "ImagePositionPatient": [-835.34592243366, -834.84560366873, 154.20657663087],
      "ImageType": [
        "ORIGINAL",
        "PRIMARY",
        "M",
        "MB",
        "ND",
        "MOSAIC"
],
      "ImagedNucleus": "1H",
      "ImagingFrequency": 123.258948,
      "InPlanePhaseEncodingDirection": "COL",
      "MRAcquisitionType": "2D",
      "MagneticFieldStrength": 3.0,
      "Manufacturer": "SIEMENS",
      "ManufacturerModelName": "Prisma_fit",
      "Modality": "MR",
      "NumberOfAverages": 1.0,
      "NumberOfPhaseEncodingSteps": 104,
      "PercentPhaseFieldOfView": 100.0,
      "PercentSampling": 100.0,
      "PerformedProcedureStepStartTime": "130034.336000",
      "PhotometricInterpretation": "MONOCHROME2",
      "PixelBandwidth": 2290.0,
      "PixelRepresentation": 0,
      "PixelSpacing": [2.0, 2.0],
      "ProtocolName": "func_task-things_run-6",
      "RepetitionTime": 1490.0,
      "Rows": 832,
      "SAR": 0.03866484396069,
      "SamplesPerPixel": 1,
      "ScanOptions": "FS",
      "ScanningSequence": "EP",
      "SequenceName": "epfid2d1_104",
      "SequenceVariant": [
        "SK",
        "SS"
],
      "SeriesDescription": "func_task-things_run-6",
      "SeriesNumber": 25,
      "SeriesTime": "135423.793000",
      "SliceLocation": -35.146341298093,
      "SliceThickness": 2.0,
      "SmallestImagePixelValue": 0,
      "SoftwareVersions": "syngo MR E11",
      "SpacingBetweenSlices": 1.9999999937375,
      "SpecificCharacterSet": "ISO_IR 100",
      "StudyID": "1",
      "StudyTime": "130034.220000",
      "TransmitCoilName": "Body",
      "VariableFlipAngleFlag": "N",
      "WindowCenterWidthExplanation": "Algo1",
      "dBdt": 0.0},
    "slices": {}
  },
  "time": {
    "samples": {
      "AcquisitionNumber": [1, 2, 3, 4, 5, 6, 7, 8, 9, 10, 11, 12, 13, 14, 15, 16, 17, 18, 19, 20, 21, 22, 23, 24, 25, 26, 27, 28, 29, 30, 31, 32, 33, 34, 35, 36, 37, 38, 39, 40, 41, 42, 43, 44, 45, 46, 47, 48, 49, 50, 51, 52, 53, 54, 55, 56, 57, 58, 59, 60, 61, 62, 63, 64, 65, 66, 67, 68, 69, 70, 71, 72, 73, 74, 75, 76, 77, 78, 79, 80, 81, 82, 83, 84, 85, 86, 87, 88, 89, 90, 91, 92, 93, 94, 95, 96, 97, 98, 99, 100, 101, 102, 103, 104, 105, 106, 107, 108, 109, 110, 111, 112, 113, 114, 115, 116, 117, 118, 119, 120, 121, 122, 123, 124, 125, 126, 127, 128, 129, 130, 131, 132, 133, 134, 135, 136, 137, 138, 139, 140, 141, 142, 143, 144, 145, 146, 147, 148, 149, 150, 151, 152, 153, 154, 155, 156, 157, 158, 159, 160, 161, 162, 163, 164, 165, 166, 167, 168, 169, 170, 171, 172, 173, 174, 175, 176, 177, 178, 179, 180, 181, 182, 183, 184, 185, 186, 187, 188, 189, 190],
      "AcquisitionTime": ["135303.877500", "135305.367500", "135306.857500", "135308.347500", "135309.837500", "135311.327500", "135312.817500", "135314.307500", "135315.797500", "135317.287500", "135318.777500", "135320.267500", "135321.757500", "135323.247500", "135324.737500", "135326.227500", "135327.717500", "135329.207500", "135330.697500", "135332.187500", "135333.677500", "135335.167500", "135336.657500", "135338.147500", "135339.637500", "135341.127500", "135342.617500", "135344.107500", "135345.597500", "135347.087500", "135348.577500", "135350.067500", "135351.557500", "135353.047500", "135354.537500", "135356.027500", "135357.517500", "135359.007500", "135400.497500", "135401.987500", "135403.477500", "135404.967500", "135406.457500", "135407.947500", "135409.437500", "135410.927500", "135412.417500", "135413.907500", "135415.397500", "135416.887500", "135418.377500", "135419.867500", "135421.357500", "135422.847500", "135424.337500", "135425.827500", "135427.317500", "135428.807500", "135430.297500", "135431.787500", "135433.277500", "135434.767500", "135436.257500", "135437.747500", "135439.237500", "135440.727500", "135442.217500", "135443.707500", "135445.197500", "135446.687500", "135448.177500", "135449.667500", "135451.157500", "135452.647500", "135454.137500", "135455.627500", "135457.117500", "135458.607500", "135500.097500", "135501.587500", "135503.077500", "135504.567500", "135506.057500", "135507.547500", "135509.037500", "135510.527500", "135512.017500", "135513.507500", "135514.997500", "135516.487500", "135517.977500", "135519.467500", "135520.957500", "135522.447500", "135523.937500", "135525.427500", "135526.917500", "135528.407500", "135529.897500", "135531.387500", "135532.877500", "135534.367500", "135535.857500", "135537.347500", "135538.837500", "135540.327500", "135541.817500", "135543.307500", "135544.797500", "135546.287500", "135547.777500", "135549.267500", "135550.757500", "135552.247500", "135553.737500", "135555.227500", "135556.717500", "135558.207500", "135559.697500", "135601.187500", "135602.677500", "135604.167500", "135605.657500", "135607.147500", "135608.637500", "135610.127500", "135611.617500", "135613.107500", "135614.597500", "135616.087500", "135617.577500", "135619.067500", "135620.557500", "135622.047500", "135623.537500", "135625.027500", "135626.517500", "135628.007500", "135629.497500", "135630.987500", "135632.477500", "135633.967500", "135635.457500", "135636.947500", "135638.437500", "135639.927500", "135641.417500", "135642.907500", "135644.397500", "135645.887500", "135647.377500", "135648.867500", "135650.357500", "135651.847500", "135653.337500", "135654.827500", "135656.317500", "135657.807500", "135659.297500", "135700.787500", "135702.277500", "135703.767500", "135705.257500", "135706.747500", "135708.237500", "135709.727500", "135711.217500", "135712.707500", "135714.197500", "135715.687500", "135717.177500", "135718.667500", "135720.157500", "135721.647500", "135723.137500", "135724.627500", "135726.117500", "135727.607500", "135729.097500", "135730.587500", "135732.077500", "135733.567500", "135735.057500", "135736.547500", "135738.037500", "135739.527500", "135741.017500", "135742.507500", "135743.997500", "135745.487500"],
      "ContentTime": ["135423.796000", "135423.800000", "135423.803000", "135423.806000", "135423.810000", "135423.813000", "135423.816000", "135423.820000", "135423.823000", "135423.826000", "135423.829000", "135423.833000", "135423.836000", "135423.839000", "135423.843000", "135423.846000", "135423.849000", "135423.853000", "135423.856000", "135423.865000", "135423.869000", "135423.872000", "135423.875000", "135423.879000", "135423.882000", "135443.755000", "135443.759000", "135443.762000", "135443.765000", "135443.769000", "135443.772000", "135443.775000", "135443.779000", "135443.788000", "135443.791000", "135443.794000", "135443.798000", "135443.801000", "135443.804000", "135443.808000", "135443.811000", "135443.815000", "135443.818000", "135443.821000", "135443.824000", "135503.755000", "135503.759000", "135503.762000", "135503.765000", "135503.769000", "135503.772000", "135503.776000", "135503.779000", "135503.782000", "135503.786000", "135503.789000", "135503.792000", "135503.795000", "135503.799000", "135503.802000", "135503.806000", "135503.809000", "135503.812000", "135503.816000", "135503.819000", "135523.755000", "135523.759000", "135523.762000", "135523.765000", "135523.769000", "135523.772000", "135523.775000", "135523.779000", "135523.782000", "135523.785000", "135523.789000", "135523.792000", "135523.795000", "135523.799000", "135523.802000", "135523.805000", "135523.809000", "135523.812000", "135523.815000", "135523.819000", "135543.762000", "135543.765000", "135543.769000", "135543.772000", "135543.776000", "135543.779000", "135543.782000", "135543.786000", "135543.789000", "135543.792000", "135543.796000", "135543.799000", "135543.802000", "135543.806000", "135543.809000", "135543.812000", "135543.816000", "135543.819000", "135543.822000", "135543.826000", "135623.755000", "135623.759000", "135623.762000", "135623.766000", "135623.769000", "135623.773000", "135623.776000", "135623.779000", "135623.783000", "135623.786000", "135623.790000", "135623.793000", "135623.796000", "135623.799000", "135623.808000", "135623.812000", "135623.815000", "135623.819000", "135623.822000", "135623.826000", "135623.829000", "135623.832000", "135623.836000", "135623.839000", "135623.842000", "135623.846000", "135623.849000", "135623.852000", "135703.755000", "135703.759000", "135703.762000", "135703.766000", "135703.769000", "135703.781000", "135703.785000", "135703.788000", "135703.791000", "135703.795000", "135703.798000", "135703.801000", "135703.804000", "135703.808000", "135703.811000", "135703.814000", "135703.818000", "135703.821000", "135703.824000", "135703.828000", "135703.831000", "135703.834000", "135703.838000", "135703.841000", "135703.844000", "135703.847000", "135703.851000", "135743.755000", "135743.759000", "135743.762000", "135743.766000", "135743.769000", "135743.772000", "135743.776000", "135743.779000", "135743.782000", "135743.786000", "135743.789000", "135743.792000", "135743.796000", "135743.799000", "135743.802000", "135743.806000", "135743.809000", "135743.813000", "135743.816000", "135743.819000", "135743.822000", "135743.826000", "135743.829000", "135743.833000", "135743.836000", "135743.839000", "135743.843000", "135747.322000", "135747.325000", "135747.329000"],
      "InstanceCreationTime": ["135423.796000", "135423.800000", "135423.803000", "135423.806000", "135423.810000", "135423.813000", "135423.816000", "135423.820000", "135423.823000", "135423.826000", "135423.829000", "135423.833000", "135423.836000", "135423.839000", "135423.843000", "135423.846000", "135423.849000", "135423.853000", "135423.856000", "135423.865000", "135423.869000", "135423.872000", "135423.875000", "135423.879000", "135423.882000", "135443.755000", "135443.759000", "135443.762000", "135443.765000", "135443.769000", "135443.772000", "135443.775000", "135443.779000", "135443.788000", "135443.791000", "135443.794000", "135443.798000", "135443.801000", "135443.804000", "135443.808000", "135443.811000", "135443.815000", "135443.818000", "135443.821000", "135443.824000", "135503.755000", "135503.759000", "135503.762000", "135503.765000", "135503.769000", "135503.772000", "135503.776000", "135503.779000", "135503.782000", "135503.786000", "135503.789000", "135503.792000", "135503.795000", "135503.799000", "135503.802000", "135503.806000", "135503.809000", "135503.812000", "135503.816000", "135503.819000", "135523.755000", "135523.759000", "135523.762000", "135523.765000", "135523.769000", "135523.772000", "135523.775000", "135523.779000", "135523.782000", "135523.785000", "135523.789000", "135523.792000", "135523.795000", "135523.799000", "135523.802000", "135523.805000", "135523.809000", "135523.812000", "135523.815000", "135523.819000", "135543.762000", "135543.765000", "135543.769000", "135543.772000", "135543.776000", "135543.779000", "135543.782000", "135543.786000", "135543.789000", "135543.792000", "135543.796000", "135543.799000", "135543.802000", "135543.806000", "135543.809000", "135543.812000", "135543.816000", "135543.819000", "135543.822000", "135543.826000", "135623.755000", "135623.759000", "135623.762000", "135623.766000", "135623.769000", "135623.773000", "135623.776000", "135623.779000", "135623.783000", "135623.786000", "135623.790000", "135623.793000", "135623.796000", "135623.799000", "135623.808000", "135623.812000", "135623.815000", "135623.819000", "135623.822000", "135623.826000", "135623.829000", "135623.832000", "135623.836000", "135623.839000", "135623.842000", "135623.846000", "135623.849000", "135623.852000", "135703.755000", "135703.759000", "135703.762000", "135703.766000", "135703.769000", "135703.781000", "135703.785000", "135703.788000", "135703.791000", "135703.795000", "135703.798000", "135703.801000", "135703.804000", "135703.808000", "135703.811000", "135703.814000", "135703.818000", "135703.821000", "135703.824000", "135703.828000", "135703.831000", "135703.834000", "135703.838000", "135703.841000", "135703.844000", "135703.847000", "135703.851000", "135743.755000", "135743.759000", "135743.762000", "135743.766000", "135743.769000", "135743.772000", "135743.776000", "135743.779000", "135743.782000", "135743.786000", "135743.789000", "135743.792000", "135743.796000", "135743.799000", "135743.802000", "135743.806000", "135743.809000", "135743.813000", "135743.816000", "135743.819000", "135743.822000", "135743.826000", "135743.829000", "135743.833000", "135743.836000", "135743.839000", "135743.843000", "135747.322000", "135747.325000", "135747.329000"],
      "InstanceNumber": [1, 2, 3, 4, 5, 6, 7, 8, 9, 10, 11, 12, 13, 14, 15, 16, 17, 18, 19, 20, 21, 22, 23, 24, 25, 26, 27, 28, 29, 30, 31, 32, 33, 34, 35, 36, 37, 38, 39, 40, 41, 42, 43, 44, 45, 46, 47, 48, 49, 50, 51, 52, 53, 54, 55, 56, 57, 58, 59, 60, 61, 62, 63, 64, 65, 66, 67, 68, 69, 70, 71, 72, 73, 74, 75, 76, 77, 78, 79, 80, 81, 82, 83, 84, 85, 86, 87, 88, 89, 90, 91, 92, 93, 94, 95, 96, 97, 98, 99, 100, 101, 102, 103, 104, 105, 106, 107, 108, 109, 110, 111, 112, 113, 114, 115, 116, 117, 118, 119, 120, 121, 122, 123, 124, 125, 126, 127, 128, 129, 130, 131, 132, 133, 134, 135, 136, 137, 138, 139, 140, 141, 142, 143, 144, 145, 146, 147, 148, 149, 150, 151, 152, 153, 154, 155, 156, 157, 158, 159, 160, 161, 162, 163, 164, 165, 166, 167, 168, 169, 170, 171, 172, 173, 174, 175, 176, 177, 178, 179, 180, 181, 182, 183, 184, 185, 186, 187, 188, 189, 190],
      "LargestImagePixelValue": [40603, 39577, 38767, 38082, 37966, 38026, 37939, 38564, 38098, 37545, 38271, 38290, 38114, 37905, 37711, 38309, 37804, 37824, 38110, 38304, 37673, 37540, 38159, 37929, 38176, 38328, 38572, 37968, 38127, 38313, 37947, 38157, 38267, 37703, 37895, 37990, 38225, 38193, 38224, 38157, 37664, 37816, 38006, 37964, 37506, 38057, 38174, 38130, 38217, 37876, 37729, 37927, 37734, 38063, 37937, 37523, 37825, 38090, 38320, 37664, 37949, 38106, 38197, 38333, 37895, 37866, 37452, 37620, 37618, 37779, 38437, 38239, 38391, 38071, 38190, 37897, 37901, 37971, 37969, 37736, 37890, 37836, 37782, 38011, 37899, 37917, 37786, 37782, 38016, 38119, 37305, 38034, 37979, 37796, 37838, 37566, 37733, 38049, 37661, 37985, 38011, 37709, 38267, 37847, 38053, 37957, 38124, 37932, 37528, 38385, 37901, 37909, 37716, 37592, 37599, 37375, 38321, 38388, 37860, 37925, 37677, 38340, 38170, 38265, 37787, 37347, 37633, 38083, 38219, 38120, 37490, 37737, 38207, 37915, 37997, 38141, 38186, 37938, 38042, 37605, 37647, 37608, 38396, 38074, 37767, 37387, 37679, 37939, 37991, 38000, 38163, 38233, 37747, 37830, 37951, 37925, 38269, 38022, 38042, 37750, 37939, 37561, 38055, 38010, 37600, 37808, 37878, 38153, 38216, 37919, 37630, 37909, 37716, 37782, 37970, 38101, 38163, 38111, 37687, 37455, 37279, 37833, 37911, 37882, 38244, 38298, 37953, 37660, 37442, 37790],
      "WindowCenter": [10108.0, 10077.0, 10053.0, 10036.0, 10016.0, 10007.0, 10014.0, 10030.0, 10016.0, 9995.0, 10005.0, 10007.0, 10007.0, 9999.0, 9997.0, 9997.0, 9998.0, 10005.0, 10012.0, 10020.0, 10008.0, 10001.0, 10020.0, 10031.0, 10018.0, 10008.0, 10005.0, 9997.0, 9996.0, 10004.0, 10006.0, 10014.0, 10023.0, 10026.0, 10010.0, 9998.0, 10006.0, 10022.0, 10019.0, 10002.0, 9990.0, 9981.0, 9985.0, 9994.0, 9991.0, 9990.0, 9989.0, 9989.0, 9989.0, 9999.0, 10001.0, 10004.0, 9999.0, 10009.0, 10023.0, 10012.0, 10007.0, 9999.0, 10005.0, 10013.0, 10008.0, 10007.0, 10006.0, 10013.0, 10010.0, 10024.0, 10011.0, 10000.0, 9985.0, 9988.0, 10002.0, 10008.0, 10013.0, 10006.0, 9997.0, 9991.0, 9998.0, 10014.0, 10016.0, 10010.0, 9999.0, 9989.0, 9989.0, 9997.0, 10008.0, 10010.0, 10008.0, 9993.0, 9998.0, 10008.0, 10010.0, 10009.0, 10001.0, 10000.0, 9999.0, 9995.0, 10000.0, 9998.0, 9998.0, 10006.0, 10014.0, 10011.0, 10023.0, 10009.0, 10009.0, 10008.0, 10001.0, 9998.0, 9984.0, 9995.0, 10000.0, 10006.0, 10003.0, 10002.0, 9994.0, 9986.0, 9998.0, 10012.0, 10024.0, 10027.0, 10013.0, 10007.0, 10007.0, 10021.0, 10021.0, 10007.0, 9987.0, 9983.0, 10005.0, 10024.0, 10021.0, 10011.0, 10010.0, 10010.0, 10009.0, 10000.0, 9992.0, 10006.0, 10011.0, 10011.0, 9998.0, 9994.0, 10007.0, 10026.0, 10030.0, 10015.0, 9996.0, 9976.0, 9974.0, 9991.0, 10007.0, 10009.0, 10009.0, 10003.0, 10002.0, 10000.0, 10005.0, 10015.0, 10025.0, 10019.0, 10010.0, 10003.0, 10008.0, 10008.0, 10009.0, 10003.0, 10001.0, 10002.0, 10008.0, 10002.0, 9994.0, 9985.0, 9984.0, 9999.0, 10006.0, 10009.0, 10015.0, 10011.0, 10017.0, 10012.0, 9999.0, 9996.0, 9993.0, 9985.0, 9989.0, 9996.0, 10006.0, 10012.0, 10014.0, 10018.0],
      "WindowWidth": [21525.0, 21435.0, 21372.0, 21327.0, 21276.0, 21252.0, 21269.0, 21303.0, 21273.0, 21226.0, 21243.0, 21250.0, 21250.0, 21233.0, 21226.0, 21226.0, 21229.0, 21242.0, 21260.0, 21275.0, 21253.0, 21236.0, 21274.0, 21302.0, 21276.0, 21252.0, 21242.0, 21226.0, 21223.0, 21240.0, 21248.0, 21264.0, 21282.0, 21292.0, 21255.0, 21227.0, 21244.0, 21282.0, 21279.0, 21239.0, 21208.0, 21186.0, 21193.0, 21216.0, 21213.0, 21211.0, 21206.0, 21207.0, 21210.0, 21234.0, 21239.0, 21240.0, 21231.0, 21255.0, 21285.0, 21264.0, 21250.0, 21231.0, 21244.0, 21262.0, 21254.0, 21250.0, 21246.0, 21262.0, 21259.0, 21288.0, 21261.0, 21235.0, 21201.0, 21203.0, 21234.0, 21251.0, 21260.0, 21245.0, 21225.0, 21212.0, 21228.0, 21264.0, 21271.0, 21257.0, 21230.0, 21206.0, 21206.0, 21226.0, 21255.0, 21258.0, 21251.0, 21218.0, 21228.0, 21253.0, 21258.0, 21254.0, 21236.0, 21232.0, 21232.0, 21226.0, 21234.0, 21226.0, 21226.0, 21245.0, 21264.0, 21261.0, 21283.0, 21254.0, 21254.0, 21251.0, 21237.0, 21227.0, 21198.0, 21218.0, 21233.0, 21245.0, 21242.0, 21241.0, 21222.0, 21204.0, 21229.0, 21255.0, 21285.0, 21292.0, 21263.0, 21245.0, 21245.0, 21276.0, 21282.0, 21251.0, 21203.0, 21193.0, 21243.0, 21286.0, 21284.0, 21260.0, 21254.0, 21255.0, 21254.0, 21232.0, 21215.0, 21244.0, 21259.0, 21262.0, 21233.0, 21221.0, 21247.0, 21291.0, 21302.0, 21269.0, 21223.0, 21179.0, 21173.0, 21213.0, 21249.0, 21253.0, 21254.0, 21240.0, 21237.0, 21232.0, 21241.0, 21265.0, 21289.0, 21276.0, 21254.0, 21241.0, 21249.0, 21251.0, 21253.0, 21241.0, 21234.0, 21236.0, 21249.0, 21238.0, 21220.0, 21201.0, 21199.0, 21232.0, 21246.0, 21252.0, 21266.0, 21259.0, 21271.0, 21262.0, 21235.0, 21225.0, 21217.0, 21200.0, 21205.0, 21221.0, 21247.0, 21264.0, 21268.0, 21271.0]
    },
    "slices": {}
  }
}