{
  "AcquisitionMatrixPE": 104,
  "AcquisitionNumber": 1,
  "AcquisitionTime": "13:35:13.165000",
  "BandwidthPerPixelPhaseEncode": 17.17,
  "BaseResolution": 104,
  "BodyPartExamined": "BRAIN",
  "CoilString": "HC1-7;NC1_2",
  "ConsistencyInfo": "N4_VE11C_LATEST_20160120",
  "ConversionSoftware": "dcm2niix",
  "ConversionSoftwareVersion": "v1.0.20190902",
  "DerivedVendorReportedEchoSpacing": 0.000560011,
  "DeviceSerialNumber": "167006",
  "DwellTime": 2.1e-06,
  "EchoTime": 0.037,
  "EchoTrainLength": 104,
  "EffectiveEchoSpacing": 0.000560011,
  "FlipAngle": 52,
  "ImageComments": "Unaliased_MB4_PE3_LB",
  "ImageOrientationPatientDICOM": [0.998842, 0.0110457, 0.0468249, 0.00191761, 0.963373, -0.268158],
  "ImageType": [
    "ORIGINAL",
    "PRIMARY",
    "P",
    "MB",
    "ND",
    "MOSAIC"
],
  "ImagingFrequency": 123.259,
  "InPlanePhaseEncodingDirectionDICOM": "COL",
  "InstitutionAddress": "Chemin_Queen-Mary_4565_Montreal_District_CA_H3W_1W5",
  "InstitutionName": "IUGM",
  "InstitutionalDepartmentName": "Department",
  "MRAcquisitionType": "2D",
  "MagneticFieldStrength": 3,
  "Manufacturer": "Siemens",
  "ManufacturersModelName": "Prisma_fit",
  "Modality": "MR",
  "MultibandAccelerationFactor": 4,
  "PartialFourier": 1,
  "PatientPosition": "HFS",
  "PercentPhaseFOV": 100,
  "PhaseEncodingDirection": "j",
  "PhaseEncodingSteps": 104,
  "PhaseResolution": 1,
  "PixelBandwidth": 2290,
  "ProcedureStepDescription": "memory_things",
  "ProtocolName": "func_task-things_run-3",
  "PulseSequenceDetails": "%CustomerSeq%_cmrr_mbep2d_bold",
  "ReceiveCoilActiveElements": "HC1-7;NC1,2",
  "ReceiveCoilName": "HeadNeck_64",
  "ReconMatrixPE": 104,
  "RepetitionTime": 1.49,
  "SAR": 0.0386648,
  "ScanOptions": "FS",
  "ScanningSequence": "EP",
  "SequenceName": "epfid2d1_104",
  "SequenceVariant": "SK_SS",
  "SeriesDescription": "func_task-things_run-3",
  "SeriesNumber": 17,
  "ShimSetting": [651, -7211, -8770, 731, 63, 23, 60, 3],
  "SliceThickness": 2,
  "SliceTiming": [0, 0.7825, 0.0975, 0.8825, 0.195, 0.98, 0.2925, 1.0775, 0.3925, 1.175, 0.49, 1.2725, 0.5875, 1.3725, 0.685, 0, 0.7825, 0.0975, 0.8825, 0.195, 0.98, 0.2925, 1.0775, 0.3925, 1.175, 0.49, 1.2725, 0.5875, 1.3725, 0.685, 0, 0.7825, 0.0975, 0.8825, 0.195, 0.98, 0.2925, 1.0775, 0.3925, 1.175, 0.49, 1.2725, 0.5875, 1.3725, 0.685, 0, 0.7825, 0.0975, 0.8825, 0.195, 0.98, 0.2925, 1.0775, 0.3925, 1.175, 0.49, 1.2725, 0.5875, 1.3725, 0.685],
  "SoftwareVersions": "syngo_MR_E11",
  "SpacingBetweenSlices": 2,
  "StationName": "MRC35049",
  "TaskName": "things",
  "TotalReadoutTime": 0.0576811,
  "TxRefAmp": 217.628,
  "WipMemBlock": "6790fc26-98e3-45ad-adc6-b12472fcb554||Sequence: R016 ve11c/master r/e634e98; Dec 19 2017 11:00:25 by eja",
  "dcmmeta_affine": [
    [-1.997684121131897, 0.0038352126721292734, 0.09614372253417969, 106.39787292480469],
    [-0.02209131419658661, 1.926746129989624, -0.5358743071556091, -72.986083984375],
    [0.09364986419677734, 0.5363157391548157, 1.924472689628601, -62.16432189941406],
    [0.0, 0.0, 0.0, 1.0]
],
  "dcmmeta_reorient_transform": [
    [0.0, -1.0, 0.0, 103.0],
    [1.0, 0.0, 0.0, 0.0],
    [0.0, 0.0, 1.0, 0.0],
    [0.0, 0.0, 0.0, 1.0]
],
  "dcmmeta_shape": [104, 104, 60, 190],
  "dcmmeta_slice_dim": 2,
  "dcmmeta_version": 0.6,
  "global": {
    "const": {
      "AcquisitionMatrix": [104, 0, 0, 104],
      "AngioFlag": "N",
      "BitsAllocated": 16,
      "BitsStored": 16,
      "BodyPartExamined": "BRAIN",
      "Columns": 832,
      "EchoNumbers": 1,
      "EchoTime": 37.0,
      "EchoTrainLength": 104,
      "FlipAngle": 52.0,
      "HighBit": 15,
      "ImageOrientationPatient": [0.99884203909753, 0.01104565699023, 0.04682493345582, 0.0019176062955, 0.96337307451645, -0.2681578678369],
      "ImagePositionPatient": [-835.34592243366, -834.84560366873, 154.20657663087],
      "ImageType": [
        "ORIGINAL",
        "PRIMARY",
        "P",
        "MB",
        "ND",
        "MOSAIC"
],
      "ImagedNucleus": "1H",
      "ImagingFrequency": 123.258941,
      "InPlanePhaseEncodingDirection": "COL",
      "LargestImagePixelValue": 4095,
      "MRAcquisitionType": "2D",
      "MagneticFieldStrength": 3.0,
      "Manufacturer": "SIEMENS",
      "ManufacturerModelName": "Prisma_fit",
      "Modality": "MR",
      "NumberOfAverages": 1.0,
      "NumberOfPhaseEncodingSteps": 104,
      "PercentPhaseFieldOfView": 100.0,
      "PercentSampling": 100.0,
      "PerformedProcedureStepStartTime": "130034.336000",
      "PhotometricInterpretation": "MONOCHROME2",
      "PixelBandwidth": 2290.0,
      "PixelRepresentation": 0,
      "PixelSpacing": [2.0, 2.0],
      "ProtocolName": "func_task-things_run-3",
      "RepetitionTime": 1490.0,
      "RescaleIntercept": -4096.0,
      "RescaleSlope": 2.0,
      "RescaleType": "US",
      "Rows": 832,
      "SAR": 0.03866484396069,
      "SamplesPerPixel": 1,
      "ScanOptions": "FS",
      "ScanningSequence": "EP",
      "SequenceName": "epfid2d1_104",
      "SequenceVariant": [
        "SK",
        "SS"
],
      "SeriesDescription": "func_task-things_run-3",
      "SeriesNumber": 17,
      "SeriesTime": "133643.962000",
      "SliceLocation": -35.146341298093,
      "SliceThickness": 2.0,
      "SmallestImagePixelValue": 0,
      "SoftwareVersions": "syngo MR E11",
      "SpacingBetweenSlices": 1.9999999937375,
      "SpecificCharacterSet": "ISO_IR 100",
      "StudyID": "1",
      "StudyTime": "130034.220000",
      "TransmitCoilName": "Body",
      "VariableFlipAngleFlag": "N",
      "WindowCenterWidthExplanation": "Algo1",
      "dBdt": 0.0},
    "slices": {}
  },
  "time": {
    "samples": {
      "AcquisitionNumber": [1, 2, 3, 4, 5, 6, 7, 8, 9, 10, 11, 12, 13, 14, 15, 16, 17, 18, 19, 20, 21, 22, 23, 24, 25, 26, 27, 28, 29, 30, 31, 32, 33, 34, 35, 36, 37, 38, 39, 40, 41, 42, 43, 44, 45, 46, 47, 48, 49, 50, 51, 52, 53, 54, 55, 56, 57, 58, 59, 60, 61, 62, 63, 64, 65, 66, 67, 68, 69, 70, 71, 72, 73, 74, 75, 76, 77, 78, 79, 80, 81, 82, 83, 84, 85, 86, 87, 88, 89, 90, 91, 92, 93, 94, 95, 96, 97, 98, 99, 100, 101, 102, 103, 104, 105, 106, 107, 108, 109, 110, 111, 112, 113, 114, 115, 116, 117, 118, 119, 120, 121, 122, 123, 124, 125, 126, 127, 128, 129, 130, 131, 132, 133, 134, 135, 136, 137, 138, 139, 140, 141, 142, 143, 144, 145, 146, 147, 148, 149, 150, 151, 152, 153, 154, 155, 156, 157, 158, 159, 160, 161, 162, 163, 164, 165, 166, 167, 168, 169, 170, 171, 172, 173, 174, 175, 176, 177, 178, 179, 180, 181, 182, 183, 184, 185, 186, 187, 188, 189, 190],
      "AcquisitionTime": ["133513.165000", "133514.655000", "133516.145000", "133517.635000", "133519.125000", "133520.615000", "133522.105000", "133523.595000", "133525.085000", "133526.575000", "133528.065000", "133529.555000", "133531.045000", "133532.535000", "133534.025000", "133535.515000", "133537.005000", "133538.495000", "133539.985000", "133541.475000", "133542.965000", "133544.455000", "133545.945000", "133547.435000", "133548.925000", "133550.415000", "133551.905000", "133553.395000", "133554.885000", "133556.375000", "133557.865000", "133559.355000", "133600.845000", "133602.335000", "133603.825000", "133605.315000", "133606.805000", "133608.295000", "133609.785000", "133611.275000", "133612.765000", "133614.255000", "133615.745000", "133617.235000", "133618.725000", "133620.215000", "133621.705000", "133623.195000", "133624.685000", "133626.175000", "133627.665000", "133629.155000", "133630.645000", "133632.135000", "133633.625000", "133635.115000", "133636.605000", "133638.095000", "133639.585000", "133641.075000", "133642.565000", "133644.055000", "133645.545000", "133647.035000", "133648.525000", "133650.015000", "133651.505000", "133652.995000", "133654.485000", "133655.975000", "133657.465000", "133658.955000", "133700.445000", "133701.935000", "133703.425000", "133704.915000", "133706.405000", "133707.895000", "133709.385000", "133710.875000", "133712.365000", "133713.855000", "133715.345000", "133716.835000", "133718.325000", "133719.815000", "133721.305000", "133722.795000", "133724.285000", "133725.775000", "133727.265000", "133728.755000", "133730.245000", "133731.735000", "133733.225000", "133734.715000", "133736.205000", "133737.695000", "133739.185000", "133740.675000", "133742.165000", "133743.655000", "133745.145000", "133746.635000", "133748.125000", "133749.615000", "133751.105000", "133752.595000", "133754.085000", "133755.575000", "133757.065000", "133758.555000", "133800.045000", "133801.535000", "133803.025000", "133804.515000", "133806.005000", "133807.495000", "133808.985000", "133810.475000", "133811.965000", "133813.455000", "133814.945000", "133816.435000", "133817.925000", "133819.415000", "133820.905000", "133822.395000", "133823.885000", "133825.375000", "133826.865000", "133828.355000", "133829.845000", "133831.335000", "133832.825000", "133834.315000", "133835.805000", "133837.295000", "133838.785000", "133840.275000", "133841.765000", "133843.255000", "133844.745000", "133846.235000", "133847.725000", "133849.215000", "133850.705000", "133852.195000", "133853.685000", "133855.175000", "133856.665000", "133858.155000", "133859.645000", "133901.135000", "133902.625000", "133904.115000", "133905.605000", "133907.095000", "133908.585000", "133910.075000", "133911.565000", "133913.055000", "133914.545000", "133916.035000", "133917.525000", "133919.015000", "133920.505000", "133921.995000", "133923.485000", "133924.975000", "133926.465000", "133927.955000", "133929.445000", "133930.935000", "133932.425000", "133933.915000", "133935.405000", "133936.895000", "133938.385000", "133939.875000", "133941.365000", "133942.855000", "133944.345000", "133945.835000", "133947.325000", "133948.815000", "133950.305000", "133951.795000", "133953.285000", "133954.775000"],
      "ContentTime": ["133643.964000", "133643.967000", "133643.970000", "133643.972000", "133643.975000", "133643.977000", "133643.980000", "133643.982000", "133643.985000", "133643.987000", "133643.990000", "133643.992000", "133643.995000", "133643.997000", "133644.001000", "133644.003000", "133644.006000", "133644.008000", "133644.011000", "133644.013000", "133644.016000", "133644.018000", "133644.020000", "133644.023000", "133644.035000", "133644.037000", "133644.040000", "133644.044000", "133644.048000", "133644.051000", "133644.054000", "133644.057000", "133644.059000", "133644.062000", "133644.064000", "133644.067000", "133703.904000", "133703.907000", "133703.909000", "133703.911000", "133703.914000", "133703.917000", "133703.919000", "133703.922000", "133703.924000", "133703.927000", "133703.929000", "133703.932000", "133703.934000", "133703.937000", "133703.939000", "133703.950000", "133703.953000", "133703.956000", "133703.958000", "133703.961000", "133723.898000", "133723.901000", "133723.904000", "133723.906000", "133723.909000", "133723.911000", "133723.914000", "133723.916000", "133723.919000", "133723.921000", "133723.923000", "133723.926000", "133723.928000", "133723.931000", "133723.933000", "133723.936000", "133723.939000", "133723.941000", "133723.944000", "133723.946000", "133723.949000", "133743.857000", "133743.860000", "133743.863000", "133743.865000", "133743.867000", "133743.870000", "133743.872000", "133743.875000", "133743.877000", "133743.880000", "133743.882000", "133743.885000", "133743.887000", "133743.890000", "133743.892000", "133743.895000", "133743.897000", "133743.900000", "133743.902000", "133743.905000", "133823.905000", "133823.908000", "133823.910000", "133823.913000", "133823.915000", "133823.918000", "133823.920000", "133823.923000", "133823.925000", "133823.928000", "133823.930000", "133823.933000", "133823.935000", "133823.938000", "133823.940000", "133823.943000", "133823.945000", "133823.948000", "133823.950000", "133823.953000", "133823.955000", "133823.958000", "133823.961000", "133823.963000", "133823.966000", "133823.968000", "133823.971000", "133823.973000", "133823.976000", "133823.978000", "133903.893000", "133903.896000", "133903.898000", "133903.901000", "133903.903000", "133903.906000", "133903.908000", "133903.911000", "133903.913000", "133903.916000", "133903.918000", "133903.921000", "133903.923000", "133903.926000", "133903.929000", "133903.931000", "133903.934000", "133903.936000", "133903.939000", "133903.941000", "133903.944000", "133903.946000", "133903.949000", "133903.951000", "133903.954000", "133903.956000", "133903.958000", "133944.330000", "133944.333000", "133944.336000", "133944.338000", "133944.341000", "133944.343000", "133944.346000", "133944.348000", "133944.351000", "133944.353000", "133944.356000", "133944.358000", "133944.361000", "133944.363000", "133944.366000", "133944.368000", "133944.371000", "133944.373000", "133944.376000", "133944.378000", "133944.381000", "133944.383000", "133944.386000", "133944.388000", "133944.391000", "133944.393000", "133957.324000", "133957.327000", "133957.330000", "133957.332000", "133957.335000", "133957.337000", "133957.340000", "133957.342000", "133957.345000", "133957.347000"],
      "InstanceCreationTime": ["133643.964000", "133643.967000", "133643.970000", "133643.972000", "133643.975000", "133643.977000", "133643.980000", "133643.982000", "133643.985000", "133643.987000", "133643.990000", "133643.992000", "133643.995000", "133643.997000", "133644.001000", "133644.003000", "133644.006000", "133644.008000", "133644.011000", "133644.013000", "133644.016000", "133644.018000", "133644.020000", "133644.023000", "133644.035000", "133644.037000", "133644.040000", "133644.044000", "133644.048000", "133644.051000", "133644.054000", "133644.057000", "133644.059000", "133644.062000", "133644.064000", "133644.067000", "133703.904000", "133703.907000", "133703.909000", "133703.911000", "133703.914000", "133703.917000", "133703.919000", "133703.922000", "133703.924000", "133703.927000", "133703.929000", "133703.932000", "133703.934000", "133703.937000", "133703.939000", "133703.950000", "133703.953000", "133703.956000", "133703.958000", "133703.961000", "133723.898000", "133723.901000", "133723.904000", "133723.906000", "133723.909000", "133723.911000", "133723.914000", "133723.916000", "133723.919000", "133723.921000", "133723.923000", "133723.926000", "133723.928000", "133723.931000", "133723.933000", "133723.936000", "133723.939000", "133723.941000", "133723.944000", "133723.946000", "133723.949000", "133743.857000", "133743.860000", "133743.863000", "133743.865000", "133743.867000", "133743.870000", "133743.872000", "133743.875000", "133743.877000", "133743.880000", "133743.882000", "133743.885000", "133743.887000", "133743.890000", "133743.892000", "133743.895000", "133743.897000", "133743.900000", "133743.902000", "133743.905000", "133823.905000", "133823.908000", "133823.910000", "133823.913000", "133823.915000", "133823.918000", "133823.920000", "133823.923000", "133823.925000", "133823.928000", "133823.930000", "133823.933000", "133823.935000", "133823.938000", "133823.940000", "133823.943000", "133823.945000", "133823.948000", "133823.950000", "133823.953000", "133823.955000", "133823.958000", "133823.961000", "133823.963000", "133823.966000", "133823.968000", "133823.971000", "133823.973000", "133823.976000", "133823.978000", "133903.893000", "133903.896000", "133903.898000", "133903.901000", "133903.903000", "133903.906000", "133903.908000", "133903.911000", "133903.913000", "133903.916000", "133903.918000", "133903.921000", "133903.923000", "133903.926000", "133903.929000", "133903.931000", "133903.934000", "133903.936000", "133903.939000", "133903.941000", "133903.944000", "133903.946000", "133903.949000", "133903.951000", "133903.954000", "133903.956000", "133903.958000", "133944.330000", "133944.333000", "133944.336000", "133944.338000", "133944.341000", "133944.343000", "133944.346000", "133944.348000", "133944.351000", "133944.353000", "133944.356000", "133944.358000", "133944.361000", "133944.363000", "133944.366000", "133944.368000", "133944.371000", "133944.373000", "133944.376000", "133944.378000", "133944.381000", "133944.383000", "133944.386000", "133944.388000", "133944.391000", "133944.393000", "133957.324000", "133957.327000", "133957.330000", "133957.332000", "133957.335000", "133957.337000", "133957.340000", "133957.342000", "133957.345000", "133957.347000"],
      "InstanceNumber": [1, 2, 3, 4, 5, 6, 7, 8, 9, 10, 11, 12, 13, 14, 15, 16, 17, 18, 19, 20, 21, 22, 23, 24, 25, 26, 27, 28, 29, 30, 31, 32, 33, 34, 35, 36, 37, 38, 39, 40, 41, 42, 43, 44, 45, 46, 47, 48, 49, 50, 51, 52, 53, 54, 55, 56, 57, 58, 59, 60, 61, 62, 63, 64, 65, 66, 67, 68, 69, 70, 71, 72, 73, 74, 75, 76, 77, 78, 79, 80, 81, 82, 83, 84, 85, 86, 87, 88, 89, 90, 91, 92, 93, 94, 95, 96, 97, 98, 99, 100, 101, 102, 103, 104, 105, 106, 107, 108, 109, 110, 111, 112, 113, 114, 115, 116, 117, 118, 119, 120, 121, 122, 123, 124, 125, 126, 127, 128, 129, 130, 131, 132, 133, 134, 135, 136, 137, 138, 139, 140, 141, 142, 143, 144, 145, 146, 147, 148, 149, 150, 151, 152, 153, 154, 155, 156, 157, 158, 159, 160, 161, 162, 163, 164, 165, 166, 167, 168, 169, 170, 171, 172, 173, 174, 175, 176, 177, 178, 179, 180, 181, 182, 183, 184, 185, 186, 187, 188, 189, 190],
      "WindowCenter": [4796.0, 4800.0, 4796.0, 4800.0, 4798.0, 4800.0, 4794.0, 4800.0, 4794.0, 4798.0, 4796.0, 4800.0, 4802.0, 4802.0, 4796.0, 4798.0, 4798.0, 4800.0, 4798.0, 4800.0, 4800.0, 4798.0, 4796.0, 4798.0, 4798.0, 4798.0, 4800.0, 4800.0, 4796.0, 4798.0, 4798.0, 4800.0, 4798.0, 4774.0, 4796.0, 4798.0, 4798.0, 4798.0, 4800.0, 4792.0, 4796.0, 4796.0, 4798.0, 4792.0, 4798.0, 4796.0, 4796.0, 4794.0, 4770.0, 4794.0, 4796.0, 4796.0, 4798.0, 4800.0, 4794.0, 4796.0, 4800.0, 4802.0, 4794.0, 4796.0, 4798.0, 4798.0, 4800.0, 4798.0, 4800.0, 4796.0, 4800.0, 4798.0, 4798.0, 4794.0, 4798.0, 4798.0, 4798.0, 4796.0, 4800.0, 4798.0, 4796.0, 4772.0, 4796.0, 4796.0, 4798.0, 4794.0, 4798.0, 4798.0, 4800.0, 4796.0, 4800.0, 4798.0, 4798.0, 4798.0, 4802.0, 4796.0, 4798.0, 4800.0, 4800.0, 4798.0, 4796.0, 4798.0, 4798.0, 4798.0, 4796.0, 4772.0, 4800.0, 4800.0, 4798.0, 4796.0, 4798.0, 4796.0, 4800.0, 4800.0, 4800.0, 4796.0, 4796.0, 4798.0, 4800.0, 4798.0, 4796.0, 4798.0, 4800.0, 4798.0, 4796.0, 4800.0, 4798.0, 4796.0, 4794.0, 4798.0, 4798.0, 4798.0, 4796.0, 4792.0, 4802.0, 4800.0, 4798.0, 4804.0, 4800.0, 4804.0, 4804.0, 4796.0, 4794.0, 4792.0, 4796.0, 4772.0, 4800.0, 4800.0, 4804.0, 4806.0, 4802.0, 4796.0, 4798.0, 4796.0, 4796.0, 4796.0, 4796.0, 4798.0, 4798.0, 4796.0, 4800.0, 4802.0, 4804.0, 4798.0, 4800.0, 4796.0, 4798.0, 4796.0, 4798.0, 4796.0, 4802.0, 4798.0, 4802.0, 4798.0, 4798.0, 4800.0, 4802.0, 4804.0, 4794.0, 4790.0, 4794.0, 4796.0, 4796.0, 4802.0, 4804.0, 4806.0, 4804.0, 4800.0, 4798.0, 4800.0, 4794.0, 4796.0, 4796.0, 4798.0],
      "WindowWidth": [18556.0, 18556.0, 18554.0, 18554.0, 18558.0, 18558.0, 18552.0, 18560.0, 18554.0, 18560.0, 18554.0, 18556.0, 18558.0, 18560.0, 18554.0, 18558.0, 18558.0, 18556.0, 18556.0, 18562.0, 18556.0, 18556.0, 18554.0, 18554.0, 18556.0, 18560.0, 18560.0, 18564.0, 18556.0, 18562.0, 18556.0, 18556.0, 18558.0, 18518.0, 18560.0, 18556.0, 18560.0, 18558.0, 18558.0, 18556.0, 18552.0, 18562.0, 18554.0, 18554.0, 18556.0, 18560.0, 18558.0, 18558.0, 18524.0, 18556.0, 18554.0, 18552.0, 18558.0, 18554.0, 18550.0, 18558.0, 18558.0, 18556.0, 18554.0, 18558.0, 18556.0, 18552.0, 18560.0, 18560.0, 18554.0, 18552.0, 18558.0, 18556.0, 18556.0, 18554.0, 18560.0, 18560.0, 18560.0, 18558.0, 18558.0, 18564.0, 18552.0, 18526.0, 18554.0, 18554.0, 18560.0, 18556.0, 18562.0, 18560.0, 18558.0, 18558.0, 18558.0, 18560.0, 18554.0, 18556.0, 18560.0, 18554.0, 18560.0, 18558.0, 18558.0, 18562.0, 18560.0, 18558.0, 18552.0, 18560.0, 18550.0, 18528.0, 18560.0, 18556.0, 18556.0, 18558.0, 18562.0, 18560.0, 18558.0, 18560.0, 18562.0, 18558.0, 18556.0, 18562.0, 18556.0, 18558.0, 18558.0, 18560.0, 18560.0, 18562.0, 18554.0, 18564.0, 18554.0, 18550.0, 18556.0, 18556.0, 18560.0, 18560.0, 18554.0, 18554.0, 18558.0, 18558.0, 18558.0, 18560.0, 18558.0, 18556.0, 18556.0, 18552.0, 18556.0, 18560.0, 18560.0, 18526.0, 18562.0, 18560.0, 18556.0, 18562.0, 18560.0, 18554.0, 18558.0, 18552.0, 18558.0, 18556.0, 18562.0, 18564.0, 18556.0, 18556.0, 18552.0, 18560.0, 18564.0, 18558.0, 18562.0, 18558.0, 18558.0, 18554.0, 18560.0, 18560.0, 18562.0, 18558.0, 18556.0, 18558.0, 18560.0, 18560.0, 18560.0, 18554.0, 18554.0, 18556.0, 18562.0, 18560.0, 18558.0, 18558.0, 18554.0, 18558.0, 18556.0, 18554.0, 18558.0, 18558.0, 18560.0, 18558.0, 18562.0, 18550.0]
    },
    "slices": {}
  }
}