{
  "AcquisitionMatrixPE": 104,
  "AcquisitionNumber": 1,
  "AcquisitionTime": "13:41:12.935000",
  "BandwidthPerPixelPhaseEncode": 17.17,
  "BaseResolution": 104,
  "BodyPartExamined": "BRAIN",
  "CoilString": "HC1-7;NC1_2",
  "ConsistencyInfo": "N4_VE11C_LATEST_20160120",
  "ConversionSoftware": "dcm2niix",
  "ConversionSoftwareVersion": "v1.0.20190902",
  "DerivedVendorReportedEchoSpacing": 0.000560011,
  "DeviceSerialNumber": "167006",
  "DwellTime": 2.1e-06,
  "EchoTime": 0.037,
  "EchoTrainLength": 104,
  "EffectiveEchoSpacing": 0.000560011,
  "FlipAngle": 52,
  "ImageComments": "Unaliased_MB4_PE3_LB",
  "ImageOrientationPatientDICOM": [0.998842, 0.0110457, 0.0468249, 0.00191761, 0.963373, -0.268158],
  "ImageType": [
    "ORIGINAL",
    "PRIMARY",
    "P",
    "MB",
    "ND",
    "MOSAIC"
],
  "ImagingFrequency": 123.259,
  "InPlanePhaseEncodingDirectionDICOM": "COL",
  "InstitutionAddress": "Chemin_Queen-Mary_4565_Montreal_District_CA_H3W_1W5",
  "InstitutionName": "IUGM",
  "InstitutionalDepartmentName": "Department",
  "MRAcquisitionType": "2D",
  "MagneticFieldStrength": 3,
  "Manufacturer": "Siemens",
  "ManufacturersModelName": "Prisma_fit",
  "Modality": "MR",
  "MultibandAccelerationFactor": 4,
  "PartialFourier": 1,
  "PatientPosition": "HFS",
  "PercentPhaseFOV": 100,
  "PhaseEncodingDirection": "j",
  "PhaseEncodingSteps": 104,
  "PhaseResolution": 1,
  "PixelBandwidth": 2290,
  "ProcedureStepDescription": "memory_things",
  "ProtocolName": "func_task-things_run-4",
  "PulseSequenceDetails": "%CustomerSeq%_cmrr_mbep2d_bold",
  "ReceiveCoilActiveElements": "HC1-7;NC1,2",
  "ReceiveCoilName": "HeadNeck_64",
  "ReconMatrixPE": 104,
  "RepetitionTime": 1.49,
  "SAR": 0.0386648,
  "ScanOptions": "FS",
  "ScanningSequence": "EP",
  "SequenceName": "epfid2d1_104",
  "SequenceVariant": "SK_SS",
  "SeriesDescription": "func_task-things_run-4",
  "SeriesNumber": 20,
  "ShimSetting": [651, -7211, -8770, 731, 63, 23, 60, 3],
  "SliceThickness": 2,
  "SliceTiming": [0, 0.785, 0.0975, 0.8825, 0.195, 0.98, 0.295, 1.0775, 0.3925, 1.175, 0.49, 1.275, 0.5875, 1.3725, 0.685, 0, 0.785, 0.0975, 0.8825, 0.195, 0.98, 0.295, 1.0775, 0.3925, 1.175, 0.49, 1.275, 0.5875, 1.3725, 0.685, 0, 0.785, 0.0975, 0.8825, 0.195, 0.98, 0.295, 1.0775, 0.3925, 1.175, 0.49, 1.275, 0.5875, 1.3725, 0.685, 0, 0.785, 0.0975, 0.8825, 0.195, 0.98, 0.295, 1.0775, 0.3925, 1.175, 0.49, 1.275, 0.5875, 1.3725, 0.685],
  "SoftwareVersions": "syngo_MR_E11",
  "SpacingBetweenSlices": 2,
  "StationName": "MRC35049",
  "TaskName": "things",
  "TotalReadoutTime": 0.0576811,
  "TxRefAmp": 217.628,
  "WipMemBlock": "f69028f7-f4b0-4492-ab5d-e58a1796d72d||Sequence: R016 ve11c/master r/e634e98; Dec 19 2017 11:00:25 by eja",
  "dcmmeta_affine": [
    [-1.997684121131897, 0.0038352126721292734, 0.09614372253417969, 106.39787292480469],
    [-0.02209131419658661, 1.926746129989624, -0.5358743071556091, -72.986083984375],
    [0.09364986419677734, 0.5363157391548157, 1.924472689628601, -62.16432189941406],
    [0.0, 0.0, 0.0, 1.0]
],
  "dcmmeta_reorient_transform": [
    [0.0, -1.0, 0.0, 103.0],
    [1.0, 0.0, 0.0, 0.0],
    [0.0, 0.0, 1.0, 0.0],
    [0.0, 0.0, 0.0, 1.0]
],
  "dcmmeta_shape": [104, 104, 60, 190],
  "dcmmeta_slice_dim": 2,
  "dcmmeta_version": 0.6,
  "global": {
    "const": {
      "AcquisitionMatrix": [104, 0, 0, 104],
      "AngioFlag": "N",
      "BitsAllocated": 16,
      "BitsStored": 16,
      "BodyPartExamined": "BRAIN",
      "Columns": 832,
      "EchoNumbers": 1,
      "EchoTime": 37.0,
      "EchoTrainLength": 104,
      "FlipAngle": 52.0,
      "HighBit": 15,
      "ImageOrientationPatient": [0.99884203909753, 0.01104565699023, 0.04682493345582, 0.0019176062955, 0.96337307451645, -0.2681578678369],
      "ImagePositionPatient": [-835.34592243366, -834.84560366873, 154.20657663087],
      "ImageType": [
        "ORIGINAL",
        "PRIMARY",
        "P",
        "MB",
        "ND",
        "MOSAIC"
],
      "ImagedNucleus": "1H",
      "ImagingFrequency": 123.258944,
      "InPlanePhaseEncodingDirection": "COL",
      "LargestImagePixelValue": 4095,
      "MRAcquisitionType": "2D",
      "MagneticFieldStrength": 3.0,
      "Manufacturer": "SIEMENS",
      "ManufacturerModelName": "Prisma_fit",
      "Modality": "MR",
      "NumberOfAverages": 1.0,
      "NumberOfPhaseEncodingSteps": 104,
      "PercentPhaseFieldOfView": 100.0,
      "PercentSampling": 100.0,
      "PerformedProcedureStepStartTime": "130034.336000",
      "PhotometricInterpretation": "MONOCHROME2",
      "PixelBandwidth": 2290.0,
      "PixelRepresentation": 0,
      "PixelSpacing": [2.0, 2.0],
      "ProtocolName": "func_task-things_run-4",
      "RepetitionTime": 1490.0,
      "RescaleIntercept": -4096.0,
      "RescaleSlope": 2.0,
      "RescaleType": "US",
      "Rows": 832,
      "SAR": 0.03866484396069,
      "SamplesPerPixel": 1,
      "ScanOptions": "FS",
      "ScanningSequence": "EP",
      "SequenceName": "epfid2d1_104",
      "SequenceVariant": [
        "SK",
        "SS"
],
      "SeriesDescription": "func_task-things_run-4",
      "SeriesNumber": 20,
      "SeriesTime": "134213.280000",
      "SliceLocation": -35.146341298093,
      "SliceThickness": 2.0,
      "SmallestImagePixelValue": 0,
      "SoftwareVersions": "syngo MR E11",
      "SpacingBetweenSlices": 1.9999999937375,
      "SpecificCharacterSet": "ISO_IR 100",
      "StudyID": "1",
      "StudyTime": "130034.220000",
      "TransmitCoilName": "Body",
      "VariableFlipAngleFlag": "N",
      "WindowCenterWidthExplanation": "Algo1",
      "dBdt": 0.0},
    "slices": {}
  },
  "time": {
    "samples": {
      "AcquisitionNumber": [1, 2, 3, 4, 5, 6, 7, 8, 9, 10, 11, 12, 13, 14, 15, 16, 17, 18, 19, 20, 21, 22, 23, 24, 25, 26, 27, 28, 29, 30, 31, 32, 33, 34, 35, 36, 37, 38, 39, 40, 41, 42, 43, 44, 45, 46, 47, 48, 49, 50, 51, 52, 53, 54, 55, 56, 57, 58, 59, 60, 61, 62, 63, 64, 65, 66, 67, 68, 69, 70, 71, 72, 73, 74, 75, 76, 77, 78, 79, 80, 81, 82, 83, 84, 85, 86, 87, 88, 89, 90, 91, 92, 93, 94, 95, 96, 97, 98, 99, 100, 101, 102, 103, 104, 105, 106, 107, 108, 109, 110, 111, 112, 113, 114, 115, 116, 117, 118, 119, 120, 121, 122, 123, 124, 125, 126, 127, 128, 129, 130, 131, 132, 133, 134, 135, 136, 137, 138, 139, 140, 141, 142, 143, 144, 145, 146, 147, 148, 149, 150, 151, 152, 153, 154, 155, 156, 157, 158, 159, 160, 161, 162, 163, 164, 165, 166, 167, 168, 169, 170, 171, 172, 173, 174, 175, 176, 177, 178, 179, 180, 181, 182, 183, 184, 185, 186, 187, 188, 189, 190],
      "AcquisitionTime": ["134112.935000", "134114.425000", "134115.915000", "134117.405000", "134118.895000", "134120.385000", "134121.875000", "134123.365000", "134124.855000", "134126.345000", "134127.835000", "134129.325000", "134130.815000", "134132.305000", "134133.795000", "134135.285000", "134136.775000", "134138.265000", "134139.755000", "134141.245000", "134142.735000", "134144.225000", "134145.715000", "134147.205000", "134148.695000", "134150.185000", "134151.675000", "134153.165000", "134154.655000", "134156.145000", "134157.635000", "134159.125000", "134200.615000", "134202.105000", "134203.595000", "134205.085000", "134206.575000", "134208.065000", "134209.555000", "134211.045000", "134212.535000", "134214.025000", "134215.515000", "134217.005000", "134218.495000", "134219.985000", "134221.475000", "134222.965000", "134224.455000", "134225.945000", "134227.435000", "134228.925000", "134230.415000", "134231.905000", "134233.395000", "134234.885000", "134236.375000", "134237.865000", "134239.355000", "134240.845000", "134242.335000", "134243.825000", "134245.315000", "134246.805000", "134248.295000", "134249.785000", "134251.275000", "134252.765000", "134254.255000", "134255.745000", "134257.235000", "134258.725000", "134300.215000", "134301.705000", "134303.195000", "134304.685000", "134306.175000", "134307.665000", "134309.155000", "134310.645000", "134312.135000", "134313.625000", "134315.115000", "134316.605000", "134318.095000", "134319.585000", "134321.075000", "134322.565000", "134324.055000", "134325.545000", "134327.035000", "134328.525000", "134330.015000", "134331.505000", "134332.995000", "134334.485000", "134335.975000", "134337.465000", "134338.955000", "134340.445000", "134341.935000", "134343.425000", "134344.915000", "134346.405000", "134347.895000", "134349.385000", "134350.875000", "134352.365000", "134353.855000", "134355.345000", "134356.835000", "134358.325000", "134359.815000", "134401.305000", "134402.795000", "134404.285000", "134405.775000", "134407.265000", "134408.755000", "134410.245000", "134411.735000", "134413.225000", "134414.715000", "134416.205000", "134417.695000", "134419.185000", "134420.675000", "134422.165000", "134423.655000", "134425.145000", "134426.635000", "134428.125000", "134429.615000", "134431.105000", "134432.595000", "134434.085000", "134435.575000", "134437.065000", "134438.555000", "134440.045000", "134441.535000", "134443.025000", "134444.515000", "134446.005000", "134447.495000", "134448.985000", "134450.475000", "134451.965000", "134453.455000", "134454.945000", "134456.435000", "134457.925000", "134459.415000", "134500.905000", "134502.395000", "134503.885000", "134505.375000", "134506.865000", "134508.355000", "134509.845000", "134511.335000", "134512.825000", "134514.315000", "134515.805000", "134517.295000", "134518.785000", "134520.275000", "134521.765000", "134523.255000", "134524.745000", "134526.235000", "134527.725000", "134529.215000", "134530.705000", "134532.195000", "134533.685000", "134535.175000", "134536.665000", "134538.155000", "134539.645000", "134541.135000", "134542.625000", "134544.115000", "134545.605000", "134547.095000", "134548.585000", "134550.075000", "134551.565000", "134553.055000", "134554.545000"],
      "ContentTime": ["134213.283000", "134213.285000", "134213.288000", "134213.290000", "134213.293000", "134213.295000", "134213.298000", "134233.315000", "134233.318000", "134233.320000", "134233.323000", "134233.325000", "134233.328000", "134233.330000", "134233.333000", "134233.335000", "134233.338000", "134233.340000", "134233.348000", "134233.350000", "134233.353000", "134233.355000", "134233.357000", "134233.360000", "134233.362000", "134233.365000", "134233.367000", "134253.319000", "134253.322000", "134253.324000", "134253.327000", "134253.329000", "134253.332000", "134253.334000", "134253.337000", "134253.339000", "134253.342000", "134253.344000", "134253.347000", "134253.349000", "134253.352000", "134253.354000", "134253.357000", "134253.359000", "134253.362000", "134253.364000", "134253.367000", "134313.318000", "134313.321000", "134313.324000", "134313.326000", "134313.329000", "134313.331000", "134313.334000", "134313.336000", "134313.338000", "134313.341000", "134313.343000", "134313.346000", "134313.348000", "134313.351000", "134313.353000", "134313.356000", "134313.358000", "134313.361000", "134313.363000", "134313.366000", "134313.368000", "134333.295000", "134333.298000", "134333.306000", "134333.308000", "134333.311000", "134333.313000", "134333.316000", "134333.318000", "134333.329000", "134333.332000", "134333.334000", "134333.337000", "134333.339000", "134333.342000", "134333.344000", "134333.347000", "134333.349000", "134333.352000", "134333.354000", "134333.357000", "134413.344000", "134413.347000", "134413.349000", "134413.352000", "134413.354000", "134413.357000", "134413.359000", "134413.362000", "134413.364000", "134413.367000", "134413.369000", "134413.372000", "134413.374000", "134413.377000", "134413.379000", "134413.382000", "134413.384000", "134413.386000", "134413.389000", "134413.391000", "134413.394000", "134413.396000", "134413.399000", "134413.401000", "134413.404000", "134413.407000", "134413.409000", "134413.413000", "134413.416000", "134413.420000", "134413.433000", "134413.436000", "134453.339000", "134453.342000", "134453.345000", "134453.347000", "134453.350000", "134453.352000", "134453.355000", "134453.357000", "134453.360000", "134453.362000", "134453.365000", "134453.367000", "134453.370000", "134453.372000", "134453.375000", "134453.377000", "134453.380000", "134453.383000", "134453.385000", "134453.388000", "134453.398000", "134453.401000", "134453.403000", "134453.406000", "134453.408000", "134453.411000", "134453.413000", "134533.354000", "134533.356000", "134533.359000", "134533.361000", "134533.364000", "134533.376000", "134533.379000", "134533.381000", "134533.384000", "134533.386000", "134533.389000", "134533.392000", "134533.394000", "134533.397000", "134533.408000", "134533.411000", "134533.413000", "134533.416000", "134533.418000", "134533.421000", "134533.423000", "134533.426000", "134533.429000", "134533.431000", "134533.434000", "134533.436000", "134533.439000", "134556.397000", "134556.400000", "134556.403000", "134556.406000", "134556.408000", "134556.411000", "134556.414000", "134556.417000", "134556.420000", "134556.422000", "134556.425000", "134556.428000", "134556.430000", "134556.433000", "134556.436000", "134556.438000"],
      "InstanceCreationTime": ["134213.283000", "134213.285000", "134213.288000", "134213.290000", "134213.293000", "134213.295000", "134213.298000", "134233.315000", "134233.318000", "134233.320000", "134233.323000", "134233.325000", "134233.328000", "134233.330000", "134233.333000", "134233.335000", "134233.338000", "134233.340000", "134233.348000", "134233.350000", "134233.353000", "134233.355000", "134233.357000", "134233.360000", "134233.362000", "134233.365000", "134233.367000", "134253.319000", "134253.322000", "134253.324000", "134253.327000", "134253.329000", "134253.332000", "134253.334000", "134253.337000", "134253.339000", "134253.342000", "134253.344000", "134253.347000", "134253.349000", "134253.352000", "134253.354000", "134253.357000", "134253.359000", "134253.362000", "134253.364000", "134253.367000", "134313.318000", "134313.321000", "134313.324000", "134313.326000", "134313.329000", "134313.331000", "134313.334000", "134313.336000", "134313.338000", "134313.341000", "134313.343000", "134313.346000", "134313.348000", "134313.351000", "134313.353000", "134313.356000", "134313.358000", "134313.361000", "134313.363000", "134313.366000", "134313.368000", "134333.295000", "134333.298000", "134333.306000", "134333.308000", "134333.311000", "134333.313000", "134333.316000", "134333.318000", "134333.329000", "134333.332000", "134333.334000", "134333.337000", "134333.339000", "134333.342000", "134333.344000", "134333.347000", "134333.349000", "134333.352000", "134333.354000", "134333.357000", "134413.344000", "134413.347000", "134413.349000", "134413.352000", "134413.354000", "134413.357000", "134413.359000", "134413.362000", "134413.364000", "134413.367000", "134413.369000", "134413.372000", "134413.374000", "134413.377000", "134413.379000", "134413.382000", "134413.384000", "134413.386000", "134413.389000", "134413.391000", "134413.394000", "134413.396000", "134413.399000", "134413.401000", "134413.404000", "134413.407000", "134413.409000", "134413.413000", "134413.416000", "134413.420000", "134413.433000", "134413.436000", "134453.339000", "134453.342000", "134453.345000", "134453.347000", "134453.350000", "134453.352000", "134453.355000", "134453.357000", "134453.360000", "134453.362000", "134453.365000", "134453.367000", "134453.370000", "134453.372000", "134453.375000", "134453.377000", "134453.380000", "134453.383000", "134453.385000", "134453.388000", "134453.398000", "134453.401000", "134453.403000", "134453.406000", "134453.408000", "134453.411000", "134453.413000", "134533.354000", "134533.356000", "134533.359000", "134533.361000", "134533.364000", "134533.376000", "134533.379000", "134533.381000", "134533.384000", "134533.386000", "134533.389000", "134533.392000", "134533.394000", "134533.397000", "134533.408000", "134533.411000", "134533.413000", "134533.416000", "134533.418000", "134533.421000", "134533.423000", "134533.426000", "134533.429000", "134533.431000", "134533.434000", "134533.436000", "134533.439000", "134556.397000", "134556.400000", "134556.403000", "134556.406000", "134556.408000", "134556.411000", "134556.414000", "134556.417000", "134556.420000", "134556.422000", "134556.425000", "134556.428000", "134556.430000", "134556.433000", "134556.436000", "134556.438000"],
      "InstanceNumber": [1, 2, 3, 4, 5, 6, 7, 8, 9, 10, 11, 12, 13, 14, 15, 16, 17, 18, 19, 20, 21, 22, 23, 24, 25, 26, 27, 28, 29, 30, 31, 32, 33, 34, 35, 36, 37, 38, 39, 40, 41, 42, 43, 44, 45, 46, 47, 48, 49, 50, 51, 52, 53, 54, 55, 56, 57, 58, 59, 60, 61, 62, 63, 64, 65, 66, 67, 68, 69, 70, 71, 72, 73, 74, 75, 76, 77, 78, 79, 80, 81, 82, 83, 84, 85, 86, 87, 88, 89, 90, 91, 92, 93, 94, 95, 96, 97, 98, 99, 100, 101, 102, 103, 104, 105, 106, 107, 108, 109, 110, 111, 112, 113, 114, 115, 116, 117, 118, 119, 120, 121, 122, 123, 124, 125, 126, 127, 128, 129, 130, 131, 132, 133, 134, 135, 136, 137, 138, 139, 140, 141, 142, 143, 144, 145, 146, 147, 148, 149, 150, 151, 152, 153, 154, 155, 156, 157, 158, 159, 160, 161, 162, 163, 164, 165, 166, 167, 168, 169, 170, 171, 172, 173, 174, 175, 176, 177, 178, 179, 180, 181, 182, 183, 184, 185, 186, 187, 188, 189, 190],
      "WindowCenter": [4802.0, 4796.0, 4798.0, 4798.0, 4800.0, 4804.0, 4798.0, 4802.0, 4804.0, 4800.0, 4802.0, 4802.0, 4798.0, 4800.0, 4800.0, 4802.0, 4804.0, 4802.0, 4802.0, 4804.0, 4798.0, 4798.0, 4798.0, 4802.0, 4804.0, 4800.0, 4804.0, 4804.0, 4802.0, 4804.0, 4804.0, 4800.0, 4804.0, 4802.0, 4826.0, 4802.0, 4802.0, 4798.0, 4802.0, 4802.0, 4802.0, 4800.0, 4802.0, 4802.0, 4800.0, 4804.0, 4802.0, 4804.0, 4800.0, 4800.0, 4800.0, 4804.0, 4800.0, 4806.0, 4802.0, 4802.0, 4802.0, 4802.0, 4800.0, 4806.0, 4800.0, 4826.0, 4804.0, 4800.0, 4800.0, 4804.0, 4804.0, 4798.0, 4800.0, 4802.0, 4800.0, 4800.0, 4802.0, 4802.0, 4806.0, 4802.0, 4802.0, 4804.0, 4798.0, 4800.0, 4800.0, 4802.0, 4802.0, 4800.0, 4800.0, 4802.0, 4804.0, 4800.0, 4802.0, 4802.0, 4802.0, 4804.0, 4802.0, 4802.0, 4802.0, 4804.0, 4800.0, 4804.0, 4802.0, 4802.0, 4800.0, 4804.0, 4800.0, 4798.0, 4802.0, 4802.0, 4802.0, 4804.0, 4804.0, 4804.0, 4800.0, 4804.0, 4802.0, 4802.0, 4802.0, 4802.0, 4800.0, 4830.0, 4804.0, 4798.0, 4800.0, 4798.0, 4800.0, 4796.0, 4800.0, 4826.0, 4804.0, 4802.0, 4804.0, 4826.0, 4802.0, 4802.0, 4802.0, 4806.0, 4802.0, 4802.0, 4804.0, 4804.0, 4802.0, 4802.0, 4828.0, 4804.0, 4800.0, 4800.0, 4800.0, 4800.0, 4804.0, 4802.0, 4802.0, 4804.0, 4806.0, 4826.0, 4806.0, 4802.0, 4800.0, 4800.0, 4800.0, 4798.0, 4802.0, 4828.0, 4804.0, 4830.0, 4802.0, 4802.0, 4804.0, 4802.0, 4800.0, 4802.0, 4800.0, 4826.0, 4804.0, 4804.0, 4802.0, 4828.0, 4800.0, 4804.0, 4796.0, 4806.0, 4804.0, 4804.0, 4802.0, 4802.0, 4826.0, 4828.0, 4802.0, 4828.0, 4828.0, 4802.0, 4796.0, 4794.0],
      "WindowWidth": [18560.0, 18552.0, 18554.0, 18556.0, 18562.0, 18562.0, 18558.0, 18554.0, 18560.0, 18558.0, 18560.0, 18558.0, 18560.0, 18556.0, 18560.0, 18560.0, 18562.0, 18554.0, 18560.0, 18562.0, 18558.0, 18556.0, 18556.0, 18558.0, 18562.0, 18554.0, 18562.0, 18560.0, 18558.0, 18560.0, 18558.0, 18558.0, 18560.0, 18558.0, 18592.0, 18556.0, 18562.0, 18554.0, 18560.0, 18560.0, 18560.0, 18554.0, 18554.0, 18556.0, 18558.0, 18560.0, 18558.0, 18558.0, 18558.0, 18556.0, 18558.0, 18556.0, 18558.0, 18560.0, 18560.0, 18556.0, 18558.0, 18562.0, 18560.0, 18560.0, 18558.0, 18588.0, 18560.0, 18554.0, 18556.0, 18560.0, 18564.0, 18558.0, 18556.0, 18564.0, 18554.0, 18560.0, 18556.0, 18560.0, 18562.0, 18560.0, 18558.0, 18562.0, 18552.0, 18560.0, 18554.0, 18560.0, 18562.0, 18556.0, 18558.0, 18558.0, 18556.0, 18562.0, 18558.0, 18564.0, 18556.0, 18560.0, 18560.0, 18554.0, 18558.0, 18558.0, 18552.0, 18558.0, 18554.0, 18554.0, 18560.0, 18556.0, 18556.0, 18556.0, 18554.0, 18556.0, 18562.0, 18560.0, 18562.0, 18562.0, 18560.0, 18554.0, 18560.0, 18558.0, 18556.0, 18562.0, 18556.0, 18582.0, 18558.0, 18556.0, 18556.0, 18554.0, 18560.0, 18554.0, 18556.0, 18590.0, 18556.0, 18548.0, 18556.0, 18592.0, 18554.0, 18556.0, 18556.0, 18558.0, 18552.0, 18556.0, 18556.0, 18558.0, 18556.0, 18552.0, 18582.0, 18552.0, 18558.0, 18560.0, 18558.0, 18556.0, 18554.0, 18558.0, 18558.0, 18552.0, 18558.0, 18592.0, 18556.0, 18552.0, 18562.0, 18554.0, 18558.0, 18562.0, 18558.0, 18592.0, 18558.0, 18586.0, 18554.0, 18558.0, 18558.0, 18556.0, 18556.0, 18552.0, 18558.0, 18588.0, 18560.0, 18560.0, 18552.0, 18586.0, 18558.0, 18560.0, 18554.0, 18558.0, 18558.0, 18560.0, 18554.0, 18556.0, 18592.0, 18584.0, 18560.0, 18582.0, 18576.0, 18556.0, 18564.0, 18566.0]
    },
    "slices": {}
  }
}