{
  "AcquisitionMatrixPE": 104,
  "AcquisitionNumber": 1,
  "AcquisitionTime": "13:23:9.465000",
  "BandwidthPerPixelPhaseEncode": 17.17,
  "BaseResolution": 104,
  "BodyPartExamined": "BRAIN",
  "CoilString": "HC1-7;NC1_2",
  "ConsistencyInfo": "N4_VE11C_LATEST_20160120",
  "ConversionSoftware": "dcm2niix",
  "ConversionSoftwareVersion": "v1.0.20190902",
  "DerivedVendorReportedEchoSpacing": 0.000560011,
  "DeviceSerialNumber": "167006",
  "DwellTime": 2.1e-06,
  "EchoTime": 0.037,
  "EchoTrainLength": 104,
  "EffectiveEchoSpacing": 0.000560011,
  "FlipAngle": 52,
  "ImageComments": "Unaliased_MB4_PE3_LB",
  "ImageOrientationPatientDICOM": [0.998842, 0.0110457, 0.0468249, 0.00191761, 0.963373, -0.268158],
  "ImageType": [
    "ORIGINAL",
    "PRIMARY",
    "P",
    "MB",
    "ND",
    "MOSAIC"
],
  "ImagingFrequency": 123.259,
  "InPlanePhaseEncodingDirectionDICOM": "COL",
  "InstitutionAddress": "Chemin_Queen-Mary_4565_Montreal_District_CA_H3W_1W5",
  "InstitutionName": "IUGM",
  "InstitutionalDepartmentName": "Department",
  "MRAcquisitionType": "2D",
  "MagneticFieldStrength": 3,
  "Manufacturer": "Siemens",
  "ManufacturersModelName": "Prisma_fit",
  "Modality": "MR",
  "MultibandAccelerationFactor": 4,
  "PartialFourier": 1,
  "PatientPosition": "HFS",
  "PercentPhaseFOV": 100,
  "PhaseEncodingDirection": "j",
  "PhaseEncodingSteps": 104,
  "PhaseResolution": 1,
  "PixelBandwidth": 2290,
  "ProcedureStepDescription": "memory_things",
  "ProtocolName": "func_task-things_run-1",
  "PulseSequenceDetails": "%CustomerSeq%_cmrr_mbep2d_bold",
  "ReceiveCoilActiveElements": "HC1-7;NC1,2",
  "ReceiveCoilName": "HeadNeck_64",
  "ReconMatrixPE": 104,
  "RepetitionTime": 1.49,
  "SAR": 0.0386648,
  "ScanOptions": "FS",
  "ScanningSequence": "EP",
  "SequenceName": "epfid2d1_104",
  "SequenceVariant": "SK_SS",
  "SeriesDescription": "func_task-things_run-1",
  "SeriesNumber": 11,
  "ShimSetting": [651, -7211, -8770, 731, 63, 23, 60, 3],
  "SliceThickness": 2,
  "SliceTiming": [0, 0.785, 0.0975, 0.8825, 0.195, 0.98, 0.295, 1.0775, 0.3925, 1.175, 0.49, 1.275, 0.5875, 1.3725, 0.685, 0, 0.785, 0.0975, 0.8825, 0.195, 0.98, 0.295, 1.0775, 0.3925, 1.175, 0.49, 1.275, 0.5875, 1.3725, 0.685, 0, 0.785, 0.0975, 0.8825, 0.195, 0.98, 0.295, 1.0775, 0.3925, 1.175, 0.49, 1.275, 0.5875, 1.3725, 0.685, 0, 0.785, 0.0975, 0.8825, 0.195, 0.98, 0.295, 1.0775, 0.3925, 1.175, 0.49, 1.275, 0.5875, 1.3725, 0.685],
  "SoftwareVersions": "syngo_MR_E11",
  "SpacingBetweenSlices": 2,
  "StationName": "MRC35049",
  "TaskName": "things",
  "TotalReadoutTime": 0.0576811,
  "TxRefAmp": 217.628,
  "WipMemBlock": "d17b9f3c-c91e-4496-98c5-f6a29ee8ef02||Sequence: R016 ve11c/master r/e634e98; Dec 19 2017 11:00:25 by eja",
  "dcmmeta_affine": [
    [-1.997684121131897, 0.0038352126721292734, 0.09614372253417969, 106.39787292480469],
    [-0.02209131419658661, 1.926746129989624, -0.5358743071556091, -72.986083984375],
    [0.09364986419677734, 0.5363157391548157, 1.924472689628601, -62.16432189941406],
    [0.0, 0.0, 0.0, 1.0]
],
  "dcmmeta_reorient_transform": [
    [0.0, -1.0, 0.0, 103.0],
    [1.0, 0.0, 0.0, 0.0],
    [0.0, 0.0, 1.0, 0.0],
    [0.0, 0.0, 0.0, 1.0]
],
  "dcmmeta_shape": [104, 104, 60, 190],
  "dcmmeta_slice_dim": 2,
  "dcmmeta_version": 0.6,
  "global": {
    "const": {
      "AcquisitionMatrix": [104, 0, 0, 104],
      "AngioFlag": "N",
      "BitsAllocated": 16,
      "BitsStored": 16,
      "BodyPartExamined": "BRAIN",
      "Columns": 832,
      "EchoNumbers": 1,
      "EchoTime": 37.0,
      "EchoTrainLength": 104,
      "FlipAngle": 52.0,
      "HighBit": 15,
      "ImageOrientationPatient": [0.99884203909753, 0.01104565699023, 0.04682493345582, 0.0019176062955, 0.96337307451645, -0.2681578678369],
      "ImagePositionPatient": [-835.34592243366, -834.84560366873, 154.20657663087],
      "ImageType": [
        "ORIGINAL",
        "PRIMARY",
        "P",
        "MB",
        "ND",
        "MOSAIC"
],
      "ImagedNucleus": "1H",
      "ImagingFrequency": 123.258932,
      "InPlanePhaseEncodingDirection": "COL",
      "LargestImagePixelValue": 4095,
      "MRAcquisitionType": "2D",
      "MagneticFieldStrength": 3.0,
      "Manufacturer": "SIEMENS",
      "ManufacturerModelName": "Prisma_fit",
      "Modality": "MR",
      "NumberOfAverages": 1.0,
      "NumberOfPhaseEncodingSteps": 104,
      "PercentPhaseFieldOfView": 100.0,
      "PercentSampling": 100.0,
      "PerformedProcedureStepStartTime": "130034.336000",
      "PhotometricInterpretation": "MONOCHROME2",
      "PixelBandwidth": 2290.0,
      "PixelRepresentation": 0,
      "PixelSpacing": [2.0, 2.0],
      "ProtocolName": "func_task-things_run-1",
      "RepetitionTime": 1490.0,
      "RescaleIntercept": -4096.0,
      "RescaleSlope": 2.0,
      "RescaleType": "US",
      "Rows": 832,
      "SAR": 0.03866484396069,
      "SamplesPerPixel": 1,
      "ScanOptions": "FS",
      "ScanningSequence": "EP",
      "SequenceName": "epfid2d1_104",
      "SequenceVariant": [
        "SK",
        "SS"
],
      "SeriesDescription": "func_task-things_run-1",
      "SeriesNumber": 11,
      "SeriesTime": "132453.431000",
      "SliceLocation": -35.146341298093,
      "SliceThickness": 2.0,
      "SmallestImagePixelValue": 0,
      "SoftwareVersions": "syngo MR E11",
      "SpacingBetweenSlices": 1.9999999937375,
      "SpecificCharacterSet": "ISO_IR 100",
      "StudyID": "1",
      "StudyTime": "130034.220000",
      "TransmitCoilName": "Body",
      "VariableFlipAngleFlag": "N",
      "WindowCenterWidthExplanation": "Algo1",
      "dBdt": 0.0},
    "slices": {}
  },
  "time": {
    "samples": {
      "AcquisitionNumber": [1, 2, 3, 4, 5, 6, 7, 8, 9, 10, 11, 12, 13, 14, 15, 16, 17, 18, 19, 20, 21, 22, 23, 24, 25, 26, 27, 28, 29, 30, 31, 32, 33, 34, 35, 36, 37, 38, 39, 40, 41, 42, 43, 44, 45, 46, 47, 48, 49, 50, 51, 52, 53, 54, 55, 56, 57, 58, 59, 60, 61, 62, 63, 64, 65, 66, 67, 68, 69, 70, 71, 72, 73, 74, 75, 76, 77, 78, 79, 80, 81, 82, 83, 84, 85, 86, 87, 88, 89, 90, 91, 92, 93, 94, 95, 96, 97, 98, 99, 100, 101, 102, 103, 104, 105, 106, 107, 108, 109, 110, 111, 112, 113, 114, 115, 116, 117, 118, 119, 120, 121, 122, 123, 124, 125, 126, 127, 128, 129, 130, 131, 132, 133, 134, 135, 136, 137, 138, 139, 140, 141, 142, 143, 144, 145, 146, 147, 148, 149, 150, 151, 152, 153, 154, 155, 156, 157, 158, 159, 160, 161, 162, 163, 164, 165, 166, 167, 168, 169, 170, 171, 172, 173, 174, 175, 176, 177, 178, 179, 180, 181, 182, 183, 184, 185, 186, 187, 188, 189, 190],
      "AcquisitionTime": ["132309.465000", "132310.955000", "132312.445000", "132313.935000", "132315.425000", "132316.915000", "132318.405000", "132319.895000", "132321.385000", "132322.875000", "132324.365000", "132325.855000", "132327.345000", "132328.835000", "132330.325000", "132331.815000", "132333.305000", "132334.795000", "132336.285000", "132337.775000", "132339.265000", "132340.755000", "132342.245000", "132343.735000", "132345.225000", "132346.715000", "132348.205000", "132349.695000", "132351.185000", "132352.675000", "132354.165000", "132355.655000", "132357.145000", "132358.635000", "132400.125000", "132401.615000", "132403.105000", "132404.595000", "132406.085000", "132407.575000", "132409.065000", "132410.555000", "132412.045000", "132413.535000", "132415.025000", "132416.515000", "132418.005000", "132419.495000", "132420.985000", "132422.475000", "132423.965000", "132425.455000", "132426.945000", "132428.435000", "132429.925000", "132431.415000", "132432.905000", "132434.395000", "132435.885000", "132437.375000", "132438.865000", "132440.355000", "132441.845000", "132443.335000", "132444.825000", "132446.315000", "132447.805000", "132449.295000", "132450.785000", "132452.275000", "132453.765000", "132455.255000", "132456.745000", "132458.235000", "132459.725000", "132501.215000", "132502.705000", "132504.195000", "132505.685000", "132507.175000", "132508.665000", "132510.155000", "132511.645000", "132513.135000", "132514.625000", "132516.115000", "132517.605000", "132519.095000", "132520.585000", "132522.075000", "132523.565000", "132525.055000", "132526.545000", "132528.035000", "132529.525000", "132531.015000", "132532.505000", "132533.995000", "132535.485000", "132536.975000", "132538.465000", "132539.955000", "132541.445000", "132542.935000", "132544.425000", "132545.915000", "132547.405000", "132548.895000", "132550.385000", "132551.875000", "132553.365000", "132554.855000", "132556.345000", "132557.835000", "132559.325000", "132600.815000", "132602.305000", "132603.795000", "132605.285000", "132606.775000", "132608.265000", "132609.755000", "132611.245000", "132612.735000", "132614.225000", "132615.715000", "132617.205000", "132618.695000", "132620.185000", "132621.675000", "132623.165000", "132624.655000", "132626.145000", "132627.635000", "132629.125000", "132630.615000", "132632.105000", "132633.595000", "132635.085000", "132636.575000", "132638.065000", "132639.555000", "132641.045000", "132642.535000", "132644.025000", "132645.515000", "132647.005000", "132648.495000", "132649.985000", "132651.475000", "132652.965000", "132654.455000", "132655.945000", "132657.435000", "132658.925000", "132700.415000", "132701.905000", "132703.395000", "132704.885000", "132706.375000", "132707.865000", "132709.355000", "132710.845000", "132712.335000", "132713.825000", "132715.315000", "132716.805000", "132718.295000", "132719.785000", "132721.275000", "132722.765000", "132724.255000", "132725.745000", "132727.235000", "132728.725000", "132730.215000", "132731.705000", "132733.195000", "132734.685000", "132736.175000", "132737.665000", "132739.155000", "132740.645000", "132742.135000", "132743.625000", "132745.115000", "132746.605000", "132748.095000", "132749.585000", "132751.075000"],
      "ContentTime": ["132453.434000", "132453.436000", "132453.439000", "132453.441000", "132453.444000", "132453.446000", "132453.456000", "132453.458000", "132453.461000", "132453.463000", "132453.466000", "132453.468000", "132453.471000", "132453.473000", "132453.476000", "132453.478000", "132453.481000", "132453.483000", "132453.486000", "132453.488000", "132453.505000", "132453.507000", "132453.510000", "132453.512000", "132453.515000", "132453.517000", "132453.520000", "132453.522000", "132453.525000", "132453.527000", "132453.530000", "132453.532000", "132453.535000", "132453.537000", "132453.540000", "132453.550000", "132453.552000", "132453.555000", "132453.558000", "132513.298000", "132513.301000", "132513.303000", "132513.306000", "132513.309000", "132513.311000", "132513.313000", "132513.316000", "132513.318000", "132513.321000", "132513.323000", "132513.326000", "132513.328000", "132513.331000", "132513.333000", "132513.336000", "132513.338000", "132513.341000", "132513.343000", "132513.358000", "132533.788000", "132533.791000", "132533.793000", "132533.796000", "132533.798000", "132533.801000", "132533.803000", "132533.805000", "132533.808000", "132533.810000", "132533.813000", "132533.825000", "132533.827000", "132533.830000", "132533.832000", "132533.835000", "132533.838000", "132533.840000", "132533.842000", "132533.845000", "132553.313000", "132553.316000", "132553.318000", "132553.321000", "132553.323000", "132553.326000", "132553.328000", "132553.331000", "132553.333000", "132553.335000", "132553.338000", "132553.340000", "132553.343000", "132553.346000", "132553.348000", "132553.351000", "132553.353000", "132553.356000", "132553.358000", "132553.361000", "132613.295000", "132613.298000", "132613.301000", "132613.303000", "132613.305000", "132613.308000", "132613.310000", "132613.313000", "132613.315000", "132613.318000", "132613.320000", "132613.323000", "132613.325000", "132613.328000", "132613.330000", "132613.334000", "132613.337000", "132613.340000", "132613.343000", "132613.345000", "132653.343000", "132653.346000", "132653.348000", "132653.351000", "132653.353000", "132653.356000", "132653.359000", "132653.361000", "132653.364000", "132653.366000", "132653.369000", "132653.371000", "132653.374000", "132653.376000", "132653.379000", "132653.381000", "132653.384000", "132653.386000", "132653.389000", "132653.391000", "132653.394000", "132653.396000", "132653.399000", "132653.401000", "132653.404000", "132653.406000", "132653.409000", "132653.411000", "132653.414000", "132653.416000", "132733.345000", "132733.348000", "132733.351000", "132733.353000", "132733.356000", "132733.358000", "132733.361000", "132733.363000", "132733.366000", "132733.369000", "132733.371000", "132733.374000", "132733.382000", "132733.385000", "132733.387000", "132733.390000", "132733.392000", "132733.395000", "132733.397000", "132733.400000", "132733.402000", "132733.405000", "132733.408000", "132733.410000", "132733.413000", "132733.415000", "132733.418000", "132753.446000", "132753.449000", "132753.452000", "132753.454000", "132753.457000", "132753.459000", "132753.462000", "132753.465000", "132753.468000", "132753.471000", "132753.473000", "132753.476000", "132753.479000", "132753.481000"],
      "InstanceCreationTime": ["132453.434000", "132453.436000", "132453.439000", "132453.441000", "132453.444000", "132453.446000", "132453.456000", "132453.458000", "132453.461000", "132453.463000", "132453.466000", "132453.468000", "132453.471000", "132453.473000", "132453.476000", "132453.478000", "132453.481000", "132453.483000", "132453.486000", "132453.488000", "132453.505000", "132453.507000", "132453.510000", "132453.512000", "132453.515000", "132453.517000", "132453.520000", "132453.522000", "132453.525000", "132453.527000", "132453.530000", "132453.532000", "132453.535000", "132453.537000", "132453.540000", "132453.550000", "132453.552000", "132453.555000", "132453.558000", "132513.298000", "132513.301000", "132513.303000", "132513.306000", "132513.309000", "132513.311000", "132513.313000", "132513.316000", "132513.318000", "132513.321000", "132513.323000", "132513.326000", "132513.328000", "132513.331000", "132513.333000", "132513.336000", "132513.338000", "132513.341000", "132513.343000", "132513.358000", "132533.788000", "132533.791000", "132533.793000", "132533.796000", "132533.798000", "132533.801000", "132533.803000", "132533.805000", "132533.808000", "132533.810000", "132533.813000", "132533.825000", "132533.827000", "132533.830000", "132533.832000", "132533.835000", "132533.838000", "132533.840000", "132533.842000", "132533.845000", "132553.313000", "132553.316000", "132553.318000", "132553.321000", "132553.323000", "132553.326000", "132553.328000", "132553.331000", "132553.333000", "132553.335000", "132553.338000", "132553.340000", "132553.343000", "132553.346000", "132553.348000", "132553.351000", "132553.353000", "132553.356000", "132553.358000", "132553.361000", "132613.295000", "132613.298000", "132613.301000", "132613.303000", "132613.305000", "132613.308000", "132613.310000", "132613.313000", "132613.315000", "132613.318000", "132613.320000", "132613.323000", "132613.325000", "132613.328000", "132613.330000", "132613.334000", "132613.337000", "132613.340000", "132613.343000", "132613.345000", "132653.343000", "132653.346000", "132653.348000", "132653.351000", "132653.353000", "132653.356000", "132653.359000", "132653.361000", "132653.364000", "132653.366000", "132653.369000", "132653.371000", "132653.374000", "132653.376000", "132653.379000", "132653.381000", "132653.384000", "132653.386000", "132653.389000", "132653.391000", "132653.394000", "132653.396000", "132653.399000", "132653.401000", "132653.404000", "132653.406000", "132653.409000", "132653.411000", "132653.414000", "132653.416000", "132733.345000", "132733.348000", "132733.351000", "132733.353000", "132733.356000", "132733.358000", "132733.361000", "132733.363000", "132733.366000", "132733.369000", "132733.371000", "132733.374000", "132733.382000", "132733.385000", "132733.387000", "132733.390000", "132733.392000", "132733.395000", "132733.397000", "132733.400000", "132733.402000", "132733.405000", "132733.408000", "132733.410000", "132733.413000", "132733.415000", "132733.418000", "132753.446000", "132753.449000", "132753.452000", "132753.454000", "132753.457000", "132753.459000", "132753.462000", "132753.465000", "132753.468000", "132753.471000", "132753.473000", "132753.476000", "132753.479000", "132753.481000"],
      "InstanceNumber": [1, 2, 3, 4, 5, 6, 7, 8, 9, 10, 11, 12, 13, 14, 15, 16, 17, 18, 19, 20, 21, 22, 23, 24, 25, 26, 27, 28, 29, 30, 31, 32, 33, 34, 35, 36, 37, 38, 39, 40, 41, 42, 43, 44, 45, 46, 47, 48, 49, 50, 51, 52, 53, 54, 55, 56, 57, 58, 59, 60, 61, 62, 63, 64, 65, 66, 67, 68, 69, 70, 71, 72, 73, 74, 75, 76, 77, 78, 79, 80, 81, 82, 83, 84, 85, 86, 87, 88, 89, 90, 91, 92, 93, 94, 95, 96, 97, 98, 99, 100, 101, 102, 103, 104, 105, 106, 107, 108, 109, 110, 111, 112, 113, 114, 115, 116, 117, 118, 119, 120, 121, 122, 123, 124, 125, 126, 127, 128, 129, 130, 131, 132, 133, 134, 135, 136, 137, 138, 139, 140, 141, 142, 143, 144, 145, 146, 147, 148, 149, 150, 151, 152, 153, 154, 155, 156, 157, 158, 159, 160, 161, 162, 163, 164, 165, 166, 167, 168, 169, 170, 171, 172, 173, 174, 175, 176, 177, 178, 179, 180, 181, 182, 183, 184, 185, 186, 187, 188, 189, 190],
      "WindowCenter": [4800.0, 4800.0, 4802.0, 4800.0, 4802.0, 4802.0, 4804.0, 4798.0, 4802.0, 4802.0, 4800.0, 4798.0, 4800.0, 4826.0, 4802.0, 4800.0, 4802.0, 4802.0, 4800.0, 4800.0, 4802.0, 4800.0, 4804.0, 4804.0, 4800.0, 4804.0, 4802.0, 4802.0, 4804.0, 4804.0, 4800.0, 4804.0, 4802.0, 4804.0, 4800.0, 4800.0, 4800.0, 4804.0, 4800.0, 4802.0, 4802.0, 4806.0, 4802.0, 4804.0, 4804.0, 4802.0, 4802.0, 4804.0, 4802.0, 4824.0, 4804.0, 4826.0, 4800.0, 4806.0, 4802.0, 4802.0, 4802.0, 4804.0, 4804.0, 4800.0, 4802.0, 4804.0, 4806.0, 4804.0, 4802.0, 4828.0, 4804.0, 4804.0, 4828.0, 4802.0, 4804.0, 4826.0, 4802.0, 4802.0, 4802.0, 4828.0, 4828.0, 4802.0, 4806.0, 4806.0, 4826.0, 4826.0, 4804.0, 4802.0, 4828.0, 4804.0, 4804.0, 4800.0, 4806.0, 4806.0, 4802.0, 4824.0, 4826.0, 4804.0, 4804.0, 4806.0, 4804.0, 4804.0, 4802.0, 4826.0, 4828.0, 4800.0, 4802.0, 4804.0, 4828.0, 4800.0, 4806.0, 4804.0, 4802.0, 4804.0, 4826.0, 4806.0, 4802.0, 4802.0, 4804.0, 4806.0, 4806.0, 4804.0, 4802.0, 4826.0, 4804.0, 4828.0, 4806.0, 4806.0, 4802.0, 4826.0, 4828.0, 4804.0, 4804.0, 4806.0, 4808.0, 4804.0, 4802.0, 4824.0, 4832.0, 4828.0, 4830.0, 4806.0, 4804.0, 4804.0, 4830.0, 4804.0, 4804.0, 4828.0, 4802.0, 4804.0, 4804.0, 4802.0, 4828.0, 4804.0, 4830.0, 4828.0, 4804.0, 4806.0, 4804.0, 4802.0, 4802.0, 4826.0, 4824.0, 4826.0, 4802.0, 4828.0, 4802.0, 4806.0, 4828.0, 4828.0, 4804.0, 4804.0, 4830.0, 4804.0, 4828.0, 4828.0, 4806.0, 4806.0, 4826.0, 4804.0, 4804.0, 4802.0, 4826.0, 4804.0, 4828.0, 4802.0, 4828.0, 4804.0, 4826.0, 4826.0, 4828.0, 4804.0, 4826.0, 4828.0],
      "WindowWidth": [18554.0, 18558.0, 18560.0, 18552.0, 18556.0, 18556.0, 18556.0, 18554.0, 18558.0, 18560.0, 18550.0, 18554.0, 18556.0, 18588.0, 18548.0, 18558.0, 18560.0, 18560.0, 18556.0, 18560.0, 18558.0, 18554.0, 18554.0, 18554.0, 18556.0, 18556.0, 18560.0, 18552.0, 18560.0, 18550.0, 18552.0, 18554.0, 18556.0, 18554.0, 18556.0, 18548.0, 18558.0, 18554.0, 18556.0, 18556.0, 18560.0, 18552.0, 18558.0, 18556.0, 18554.0, 18552.0, 18552.0, 18552.0, 18556.0, 18584.0, 18556.0, 18586.0, 18556.0, 18556.0, 18558.0, 18554.0, 18554.0, 18554.0, 18560.0, 18554.0, 18558.0, 18554.0, 18560.0, 18556.0, 18558.0, 18586.0, 18554.0, 18556.0, 18590.0, 18552.0, 18554.0, 18582.0, 18558.0, 18556.0, 18554.0, 18586.0, 18588.0, 18554.0, 18554.0, 18556.0, 18592.0, 18590.0, 18554.0, 18552.0, 18584.0, 18556.0, 18556.0, 18556.0, 18554.0, 18560.0, 18558.0, 18584.0, 18584.0, 18550.0, 18554.0, 18556.0, 18554.0, 18556.0, 18546.0, 18586.0, 18586.0, 18554.0, 18552.0, 18556.0, 18582.0, 18552.0, 18554.0, 18560.0, 18550.0, 18562.0, 18584.0, 18556.0, 18550.0, 18554.0, 18550.0, 18554.0, 18560.0, 18560.0, 18554.0, 18586.0, 18558.0, 18590.0, 18556.0, 18552.0, 18548.0, 18588.0, 18586.0, 18556.0, 18556.0, 18554.0, 18556.0, 18552.0, 18550.0, 18586.0, 18582.0, 18590.0, 18582.0, 18558.0, 18552.0, 18552.0, 18586.0, 18552.0, 18550.0, 18584.0, 18552.0, 18556.0, 18556.0, 18552.0, 18582.0, 18556.0, 18588.0, 18584.0, 18554.0, 18552.0, 18554.0, 18552.0, 18556.0, 18580.0, 18584.0, 18580.0, 18552.0, 18584.0, 18554.0, 18548.0, 18584.0, 18584.0, 18554.0, 18552.0, 18586.0, 18552.0, 18586.0, 18586.0, 18558.0, 18554.0, 18582.0, 18556.0, 18548.0, 18552.0, 18580.0, 18554.0, 18584.0, 18554.0, 18582.0, 18552.0, 18584.0, 18586.0, 18586.0, 18554.0, 18586.0, 18588.0]
    },
    "slices": {}
  }
}