{
  "AcquisitionMatrixPE": 104,
  "AcquisitionNumber": 1,
  "AcquisitionTime": "15:41:21.347500",
  "BandwidthPerPixelPhaseEncode": 17.17,
  "BaseResolution": 104,
  "BodyPartExamined": "BRAIN",
  "CoilString": "HC1-7;NC1_2",
  "ConsistencyInfo": "N4_VE11C_LATEST_20160120",
  "ConversionSoftware": "dcm2niix",
  "ConversionSoftwareVersion": "v1.0.20190902",
  "DerivedVendorReportedEchoSpacing": 0.000560011,
  "DeviceSerialNumber": "167006",
  "DwellTime": 2.1e-06,
  "EchoTime": 0.037,
  "EchoTrainLength": 104,
  "EffectiveEchoSpacing": 0.000560011,
  "FlipAngle": 52,
  "ImageComments": "Unaliased_MB4_PE3_LB",
  "ImageOrientationPatientDICOM": [0.999167, -0.0407418, -0.00223812, 0.0380349, 0.949836, -0.310427],
  "ImageType": [
    "ORIGINAL",
    "PRIMARY",
    "M",
    "MB",
    "ND",
    "MOSAIC"
],
  "ImagingFrequency": 123.259,
  "InPlanePhaseEncodingDirectionDICOM": "COL",
  "InstitutionAddress": "Chemin_Queen-Mary_4565_Montreal_District_CA_H3W_1W5",
  "InstitutionName": "IUGM",
  "InstitutionalDepartmentName": "Department",
  "MRAcquisitionType": "2D",
  "MagneticFieldStrength": 3,
  "Manufacturer": "Siemens",
  "ManufacturersModelName": "Prisma_fit",
  "Modality": "MR",
  "MultibandAccelerationFactor": 4,
  "PartialFourier": 1,
  "PatientPosition": "HFS",
  "PercentPhaseFOV": 100,
  "PhaseEncodingDirection": "j",
  "PhaseEncodingSteps": 104,
  "PhaseResolution": 1,
  "PixelBandwidth": 2290,
  "ProcedureStepDescription": "memory_things",
  "ProtocolName": "func_task-things_run-4",
  "PulseSequenceDetails": "%CustomerSeq%_cmrr_mbep2d_bold",
  "ReceiveCoilActiveElements": "HC1-7;NC1,2",
  "ReceiveCoilName": "HeadNeck_64",
  "ReconMatrixPE": 104,
  "RepetitionTime": 1.49,
  "SAR": 0.058174,
  "ScanOptions": "FS",
  "ScanningSequence": "EP",
  "SequenceName": "epfid2d1_104",
  "SequenceVariant": "SK_SS",
  "SeriesDescription": "func_task-things_run-4",
  "SeriesNumber": 19,
  "ShimSetting": [622, -7245, -8818, 584, -26, -179, -30, -25],
  "SliceThickness": 2,
  "SliceTiming": [0, 0.785, 0.1, 0.8825, 0.1975, 0.98, 0.295, 1.08, 0.3925, 1.1775, 0.49, 1.275, 0.59, 1.3725, 0.6875, 0, 0.785, 0.1, 0.8825, 0.1975, 0.98, 0.295, 1.08, 0.3925, 1.1775, 0.49, 1.275, 0.59, 1.3725, 0.6875, 0, 0.785, 0.1, 0.8825, 0.1975, 0.98, 0.295, 1.08, 0.3925, 1.1775, 0.49, 1.275, 0.59, 1.3725, 0.6875, 0, 0.785, 0.1, 0.8825, 0.1975, 0.98, 0.295, 1.08, 0.3925, 1.1775, 0.49, 1.275, 0.59, 1.3725, 0.6875],
  "SoftwareVersions": "syngo_MR_E11",
  "SpacingBetweenSlices": 2,
  "StationName": "MRC35049",
  "TaskName": "things",
  "TotalReadoutTime": 0.0576811,
  "TxRefAmp": 271.444,
  "WipMemBlock": "82057f20-db21-41d4-8780-2945224b0b80||Sequence: R016 ve11c/master r/e634e98; Dec 19 2017 11:00:25 by eja",
  "dcmmeta_affine": [
    [-1.9983344078063965, 0.07606977969408035, -0.02954634465277195, 103.01985931396484],
    [0.08148350566625595, 1.899672269821167, -0.6201659440994263, -70.93247985839844],
    [-0.004476241301745176, 0.6208532452583313, 1.9011894464492798, -60.32374572753906],
    [0.0, 0.0, 0.0, 1.0]
],
  "dcmmeta_reorient_transform": [
    [0.0, -1.0, 0.0, 103.0],
    [1.0, 0.0, 0.0, 0.0],
    [0.0, 0.0, 1.0, 0.0],
    [0.0, 0.0, 0.0, 1.0]
],
  "dcmmeta_shape": [104, 104, 60, 190],
  "dcmmeta_slice_dim": 2,
  "dcmmeta_version": 0.6,
  "global": {
    "const": {
      "AcquisitionMatrix": [104, 0, 0, 104],
      "AngioFlag": "N",
      "BitsAllocated": 16,
      "BitsStored": 16,
      "BodyPartExamined": "BRAIN",
      "Columns": 832,
      "EchoNumbers": 1,
      "EchoTime": 37.0,
      "EchoTrainLength": 104,
      "FlipAngle": 52.0,
      "HighBit": 15,
      "ImageOrientationPatient": [0.99916720342318, -0.0407417527778, -0.0022381206631, 0.03803489166417, 0.94983612440229, -0.3104266157992],
      "ImagePositionPatient": [-865.9381724992, -786.55446351117, 231.2440649023],
      "ImageType": [
        "ORIGINAL",
        "PRIMARY",
        "M",
        "MB",
        "ND",
        "MOSAIC"
],
      "ImagedNucleus": "1H",
      "ImagingFrequency": 123.258937,
      "InPlanePhaseEncodingDirection": "COL",
      "MRAcquisitionType": "2D",
      "MagneticFieldStrength": 3.0,
      "Manufacturer": "SIEMENS",
      "ManufacturerModelName": "Prisma_fit",
      "Modality": "MR",
      "NumberOfAverages": 1.0,
      "NumberOfPhaseEncodingSteps": 104,
      "PercentPhaseFieldOfView": 100.0,
      "PercentSampling": 100.0,
      "PerformedProcedureStepStartTime": "144610.001000",
      "PhotometricInterpretation": "MONOCHROME2",
      "PixelBandwidth": 2290.0,
      "PixelRepresentation": 0,
      "PixelSpacing": [2.0, 2.0],
      "ProtocolName": "func_task-things_run-4",
      "RepetitionTime": 1490.0,
      "Rows": 832,
      "SAR": 0.0581740403318,
      "SamplesPerPixel": 1,
      "ScanOptions": "FS",
      "ScanningSequence": "EP",
      "SequenceName": "epfid2d1_104",
      "SequenceVariant": [
        "SK",
        "SS"
],
      "SeriesDescription": "func_task-things_run-4",
      "SeriesNumber": 19,
      "SeriesTime": "154254.333000",
      "SliceLocation": -36.870410148103,
      "SliceThickness": 2.0,
      "SmallestImagePixelValue": 0,
      "SoftwareVersions": "syngo MR E11",
      "SpacingBetweenSlices": 2.0000000445224,
      "SpecificCharacterSet": "ISO_IR 100",
      "StudyID": "1",
      "StudyTime": "144609.882000",
      "TransmitCoilName": "Body",
      "VariableFlipAngleFlag": "N",
      "WindowCenterWidthExplanation": "Algo1",
      "dBdt": 0.0},
    "slices": {}
  },
  "time": {
    "samples": {
      "AcquisitionNumber": [1, 2, 3, 4, 5, 6, 7, 8, 9, 10, 11, 12, 13, 14, 15, 16, 17, 18, 19, 20, 21, 22, 23, 24, 25, 26, 27, 28, 29, 30, 31, 32, 33, 34, 35, 36, 37, 38, 39, 40, 41, 42, 43, 44, 45, 46, 47, 48, 49, 50, 51, 52, 53, 54, 55, 56, 57, 58, 59, 60, 61, 62, 63, 64, 65, 66, 67, 68, 69, 70, 71, 72, 73, 74, 75, 76, 77, 78, 79, 80, 81, 82, 83, 84, 85, 86, 87, 88, 89, 90, 91, 92, 93, 94, 95, 96, 97, 98, 99, 100, 101, 102, 103, 104, 105, 106, 107, 108, 109, 110, 111, 112, 113, 114, 115, 116, 117, 118, 119, 120, 121, 122, 123, 124, 125, 126, 127, 128, 129, 130, 131, 132, 133, 134, 135, 136, 137, 138, 139, 140, 141, 142, 143, 144, 145, 146, 147, 148, 149, 150, 151, 152, 153, 154, 155, 156, 157, 158, 159, 160, 161, 162, 163, 164, 165, 166, 167, 168, 169, 170, 171, 172, 173, 174, 175, 176, 177, 178, 179, 180, 181, 182, 183, 184, 185, 186, 187, 188, 189, 190],
      "AcquisitionTime": ["154121.347500", "154122.837500", "154124.327500", "154125.817500", "154127.307500", "154128.797500", "154130.287500", "154131.777500", "154133.267500", "154134.757500", "154136.247500", "154137.737500", "154139.227500", "154140.717500", "154142.207500", "154143.697500", "154145.187500", "154146.677500", "154148.167500", "154149.657500", "154151.147500", "154152.637500", "154154.127500", "154155.617500", "154157.107500", "154158.597500", "154200.087500", "154201.577500", "154203.067500", "154204.557500", "154206.047500", "154207.537500", "154209.027500", "154210.517500", "154212.007500", "154213.497500", "154214.987500", "154216.477500", "154217.967500", "154219.457500", "154220.947500", "154222.437500", "154223.927500", "154225.417500", "154226.907500", "154228.397500", "154229.887500", "154231.377500", "154232.867500", "154234.357500", "154235.847500", "154237.337500", "154238.827500", "154240.317500", "154241.807500", "154243.297500", "154244.787500", "154246.277500", "154247.767500", "154249.257500", "154250.747500", "154252.237500", "154253.727500", "154255.217500", "154256.707500", "154258.197500", "154259.687500", "154301.177500", "154302.667500", "154304.157500", "154305.647500", "154307.137500", "154308.627500", "154310.117500", "154311.607500", "154313.097500", "154314.587500", "154316.077500", "154317.567500", "154319.057500", "154320.547500", "154322.037500", "154323.527500", "154325.017500", "154326.507500", "154327.997500", "154329.487500", "154330.977500", "154332.467500", "154333.957500", "154335.447500", "154336.937500", "154338.427500", "154339.917500", "154341.407500", "154342.897500", "154344.387500", "154345.877500", "154347.367500", "154348.857500", "154350.347500", "154351.837500", "154353.327500", "154354.817500", "154356.307500", "154357.797500", "154359.287500", "154400.777500", "154402.267500", "154403.757500", "154405.247500", "154406.737500", "154408.227500", "154409.717500", "154411.207500", "154412.697500", "154414.187500", "154415.677500", "154417.167500", "154418.657500", "154420.147500", "154421.637500", "154423.127500", "154424.617500", "154426.107500", "154427.597500", "154429.087500", "154430.577500", "154432.067500", "154433.557500", "154435.047500", "154436.537500", "154438.027500", "154439.517500", "154441.007500", "154442.497500", "154443.987500", "154445.477500", "154446.967500", "154448.457500", "154449.947500", "154451.437500", "154452.927500", "154454.417500", "154455.907500", "154457.397500", "154458.887500", "154500.377500", "154501.867500", "154503.357500", "154504.847500", "154506.337500", "154507.827500", "154509.317500", "154510.807500", "154512.297500", "154513.787500", "154515.277500", "154516.767500", "154518.257500", "154519.747500", "154521.237500", "154522.727500", "154524.217500", "154525.707500", "154527.197500", "154528.687500", "154530.177500", "154531.667500", "154533.157500", "154534.647500", "154536.137500", "154537.627500", "154539.117500", "154540.607500", "154542.097500", "154543.587500", "154545.077500", "154546.567500", "154548.057500", "154549.547500", "154551.037500", "154552.527500", "154554.017500", "154555.507500", "154556.997500", "154558.487500", "154559.977500", "154601.467500", "154602.957500"],
      "ContentTime": ["154254.336000", "154254.340000", "154254.343000", "154254.347000", "154254.350000", "154254.354000", "154254.357000", "154254.360000", "154254.364000", "154254.367000", "154254.371000", "154254.374000", "154254.378000", "154254.381000", "154254.384000", "154254.388000", "154254.391000", "154254.395000", "154254.398000", "154254.411000", "154254.414000", "154254.417000", "154254.421000", "154254.424000", "154254.428000", "154254.431000", "154254.435000", "154254.438000", "154254.442000", "154254.445000", "154254.448000", "154254.452000", "154254.455000", "154254.458000", "154254.462000", "154254.465000", "154314.304000", "154314.308000", "154314.311000", "154314.315000", "154314.318000", "154314.322000", "154314.325000", "154314.329000", "154314.332000", "154314.335000", "154314.339000", "154314.342000", "154314.346000", "154314.349000", "154314.353000", "154314.356000", "154314.359000", "154314.363000", "154314.368000", "154314.371000", "154334.304000", "154334.325000", "154334.329000", "154334.332000", "154334.336000", "154334.339000", "154334.342000", "154334.346000", "154334.349000", "154334.352000", "154334.356000", "154334.359000", "154334.362000", "154334.366000", "154334.369000", "154334.373000", "154334.376000", "154334.380000", "154334.383000", "154334.386000", "154334.390000", "154354.303000", "154354.307000", "154354.311000", "154354.314000", "154354.317000", "154354.321000", "154354.324000", "154354.328000", "154354.331000", "154354.334000", "154354.338000", "154354.341000", "154354.345000", "154354.348000", "154354.352000", "154354.355000", "154354.358000", "154354.362000", "154354.365000", "154354.368000", "154434.303000", "154434.307000", "154434.310000", "154434.314000", "154434.317000", "154434.320000", "154434.324000", "154434.327000", "154434.331000", "154434.334000", "154434.338000", "154434.341000", "154434.344000", "154434.348000", "154434.351000", "154434.355000", "154434.358000", "154434.362000", "154434.365000", "154434.368000", "154434.372000", "154434.375000", "154434.378000", "154434.382000", "154434.385000", "154434.388000", "154434.392000", "154434.395000", "154434.399000", "154434.402000", "154434.405000", "154454.303000", "154454.307000", "154454.310000", "154454.314000", "154454.317000", "154454.320000", "154454.324000", "154454.327000", "154454.331000", "154454.334000", "154454.337000", "154454.341000", "154454.344000", "154454.348000", "154534.304000", "154534.308000", "154534.311000", "154534.315000", "154534.318000", "154534.322000", "154534.325000", "154534.328000", "154534.332000", "154534.335000", "154534.338000", "154534.342000", "154534.345000", "154534.349000", "154534.352000", "154534.369000", "154534.373000", "154534.376000", "154534.380000", "154534.383000", "154534.386000", "154534.390000", "154534.393000", "154534.397000", "154534.400000", "154534.403000", "154534.407000", "154605.570000", "154605.574000", "154605.577000", "154605.581000", "154605.584000", "154605.588000", "154605.591000", "154605.595000", "154605.598000", "154605.602000", "154605.606000", "154605.609000", "154605.613000", "154605.616000", "154605.620000", "154605.623000", "154605.627000", "154605.630000", "154605.633000", "154605.637000", "154605.640000"],
      "InstanceCreationTime": ["154254.336000", "154254.340000", "154254.343000", "154254.347000", "154254.350000", "154254.354000", "154254.357000", "154254.360000", "154254.364000", "154254.367000", "154254.371000", "154254.374000", "154254.378000", "154254.381000", "154254.384000", "154254.388000", "154254.391000", "154254.395000", "154254.398000", "154254.411000", "154254.414000", "154254.417000", "154254.421000", "154254.424000", "154254.428000", "154254.431000", "154254.435000", "154254.438000", "154254.442000", "154254.445000", "154254.448000", "154254.452000", "154254.455000", "154254.458000", "154254.462000", "154254.465000", "154314.304000", "154314.308000", "154314.311000", "154314.315000", "154314.318000", "154314.322000", "154314.325000", "154314.329000", "154314.332000", "154314.335000", "154314.339000", "154314.342000", "154314.346000", "154314.349000", "154314.353000", "154314.356000", "154314.359000", "154314.363000", "154314.368000", "154314.371000", "154334.304000", "154334.325000", "154334.329000", "154334.332000", "154334.336000", "154334.339000", "154334.342000", "154334.346000", "154334.349000", "154334.352000", "154334.356000", "154334.359000", "154334.362000", "154334.366000", "154334.369000", "154334.373000", "154334.376000", "154334.380000", "154334.383000", "154334.386000", "154334.390000", "154354.303000", "154354.307000", "154354.311000", "154354.314000", "154354.317000", "154354.321000", "154354.324000", "154354.328000", "154354.331000", "154354.334000", "154354.338000", "154354.341000", "154354.345000", "154354.348000", "154354.352000", "154354.355000", "154354.358000", "154354.362000", "154354.365000", "154354.368000", "154434.303000", "154434.307000", "154434.310000", "154434.314000", "154434.317000", "154434.320000", "154434.324000", "154434.327000", "154434.331000", "154434.334000", "154434.338000", "154434.341000", "154434.344000", "154434.348000", "154434.351000", "154434.355000", "154434.358000", "154434.362000", "154434.365000", "154434.368000", "154434.372000", "154434.375000", "154434.378000", "154434.382000", "154434.385000", "154434.388000", "154434.392000", "154434.395000", "154434.399000", "154434.402000", "154434.405000", "154454.303000", "154454.307000", "154454.310000", "154454.314000", "154454.317000", "154454.320000", "154454.324000", "154454.327000", "154454.331000", "154454.334000", "154454.337000", "154454.341000", "154454.344000", "154454.348000", "154534.304000", "154534.308000", "154534.311000", "154534.315000", "154534.318000", "154534.322000", "154534.325000", "154534.328000", "154534.332000", "154534.335000", "154534.338000", "154534.342000", "154534.345000", "154534.349000", "154534.352000", "154534.369000", "154534.373000", "154534.376000", "154534.380000", "154534.383000", "154534.386000", "154534.390000", "154534.393000", "154534.397000", "154534.400000", "154534.403000", "154534.407000", "154605.570000", "154605.574000", "154605.577000", "154605.581000", "154605.584000", "154605.588000", "154605.591000", "154605.595000", "154605.598000", "154605.602000", "154605.606000", "154605.609000", "154605.613000", "154605.616000", "154605.620000", "154605.623000", "154605.627000", "154605.630000", "154605.633000", "154605.637000", "154605.640000"],
      "InstanceNumber": [1, 2, 3, 4, 5, 6, 7, 8, 9, 10, 11, 12, 13, 14, 15, 16, 17, 18, 19, 20, 21, 22, 23, 24, 25, 26, 27, 28, 29, 30, 31, 32, 33, 34, 35, 36, 37, 38, 39, 40, 41, 42, 43, 44, 45, 46, 47, 48, 49, 50, 51, 52, 53, 54, 55, 56, 57, 58, 59, 60, 61, 62, 63, 64, 65, 66, 67, 68, 69, 70, 71, 72, 73, 74, 75, 76, 77, 78, 79, 80, 81, 82, 83, 84, 85, 86, 87, 88, 89, 90, 91, 92, 93, 94, 95, 96, 97, 98, 99, 100, 101, 102, 103, 104, 105, 106, 107, 108, 109, 110, 111, 112, 113, 114, 115, 116, 117, 118, 119, 120, 121, 122, 123, 124, 125, 126, 127, 128, 129, 130, 131, 132, 133, 134, 135, 136, 137, 138, 139, 140, 141, 142, 143, 144, 145, 146, 147, 148, 149, 150, 151, 152, 153, 154, 155, 156, 157, 158, 159, 160, 161, 162, 163, 164, 165, 166, 167, 168, 169, 170, 171, 172, 173, 174, 175, 176, 177, 178, 179, 180, 181, 182, 183, 184, 185, 186, 187, 188, 189, 190],
      "LargestImagePixelValue": [44019, 42695, 41448, 41034, 40623, 41307, 41448, 40807, 40822, 40739, 40292, 39281, 40262, 40714, 41474, 41352, 40888, 40816, 41073, 41099, 40852, 41008, 40915, 40941, 40557, 40418, 40786, 41249, 41273, 41008, 41492, 41443, 41649, 41321, 42050, 41310, 41259, 42020, 41714, 41825, 40966, 42308, 41721, 42076, 41388, 41580, 41477, 41234, 41232, 41447, 41646, 42290, 42214, 42236, 42281, 42488, 42104, 41834, 41894, 41529, 41053, 41211, 41927, 41351, 41775, 41762, 42138, 42060, 41787, 42025, 41641, 41830, 41713, 41402, 41113, 42057, 41999, 41834, 40881, 41641, 41738, 41142, 41145, 40867, 40580, 40926, 41131, 41497, 40673, 42341, 42174, 41175, 41937, 42065, 40905, 41544, 40361, 41226, 41742, 41631, 41346, 42064, 41826, 41642, 41478, 42138, 42018, 42693, 42332, 42338, 42744, 42146, 41992, 42074, 41565, 42188, 42264, 42165, 41396, 42759, 42277, 41745, 42639, 42593, 41564, 42323, 41650, 42014, 41707, 41759, 41678, 42093, 41321, 42359, 41904, 42065, 42526, 42037, 42038, 42384, 42153, 42654, 41977, 42764, 42401, 42430, 42936, 42641, 42350, 41881, 41761, 41150, 41798, 41795, 41575, 42035, 42506, 41827, 42484, 42230, 41870, 42142, 41186, 41859, 41535, 41983, 42217, 42453, 42381, 42235, 42078, 41607, 41573, 41247, 42639, 42362, 42116, 42671, 39862, 40223, 43919, 43027, 42403, 40887, 40532, 40661, 40432, 40501, 41535, 42140],
      "WindowCenter": [10364.0, 10309.0, 10257.0, 10215.0, 10209.0, 10250.0, 10274.0, 10273.0, 10256.0, 10253.0, 10266.0, 10261.0, 10263.0, 10254.0, 10251.0, 10243.0, 10248.0, 10258.0, 10250.0, 10240.0, 10234.0, 10235.0, 10234.0, 10226.0, 10220.0, 10235.0, 10275.0, 10301.0, 10296.0, 10263.0, 10268.0, 10258.0, 10256.0, 10242.0, 10240.0, 10261.0, 10304.0, 10332.0, 10310.0, 10291.0, 10272.0, 10345.0, 10326.0, 10314.0, 10251.0, 10239.0, 10248.0, 10243.0, 10229.0, 10218.0, 10226.0, 10243.0, 10266.0, 10297.0, 10293.0, 10266.0, 10240.0, 10231.0, 10246.0, 10256.0, 10261.0, 10269.0, 10269.0, 10250.0, 10252.0, 10256.0, 10262.0, 10270.0, 10264.0, 10263.0, 10256.0, 10255.0, 10259.0, 10259.0, 10267.0, 10281.0, 10276.0, 10257.0, 10243.0, 10255.0, 10273.0, 10267.0, 10245.0, 10227.0, 10227.0, 10242.0, 10252.0, 10253.0, 10248.0, 10266.0, 10271.0, 10275.0, 10280.0, 10287.0, 10276.0, 10266.0, 10255.0, 10267.0, 10261.0, 10247.0, 10239.0, 10248.0, 10263.0, 10266.0, 10252.0, 10262.0, 10278.0, 10305.0, 10315.0, 10310.0, 10289.0, 10265.0, 10250.0, 10248.0, 10248.0, 10255.0, 10272.0, 10275.0, 10269.0, 10301.0, 10284.0, 10263.0, 10255.0, 10254.0, 10256.0, 10257.0, 10251.0, 10257.0, 10253.0, 10253.0, 10246.0, 10263.0, 10267.0, 10282.0, 10285.0, 10277.0, 10263.0, 10257.0, 10257.0, 10277.0, 10292.0, 10303.0, 10298.0, 10282.0, 10272.0, 10281.0, 10291.0, 10263.0, 10239.0, 10218.0, 10223.0, 10235.0, 10242.0, 10243.0, 10235.0, 10237.0, 10247.0, 10258.0, 10286.0, 10306.0, 10287.0, 10270.0, 10250.0, 10261.0, 10270.0, 10278.0, 10283.0, 10284.0, 10274.0, 10275.0, 10269.0, 10263.0, 10261.0, 10279.0, 10322.0, 10312.0, 10289.0, 10278.0, 10262.0, 10292.0, 10318.0, 10266.0, 10249.0, 10244.0, 10227.0, 10207.0, 10198.0, 10196.0, 10215.0, 10233.0],
      "WindowWidth": [22407.0, 22248.0, 22108.0, 22000.0, 21976.0, 22064.0, 22119.0, 22116.0, 22075.0, 22065.0, 22095.0, 22087.0, 22088.0, 22064.0, 22058.0, 22047.0, 22056.0, 22078.0, 22059.0, 22035.0, 22024.0, 22027.0, 22024.0, 22002.0, 21993.0, 22025.0, 22117.0, 22180.0, 22169.0, 22092.0, 22102.0, 22079.0, 22074.0, 22047.0, 22040.0, 22082.0, 22181.0, 22248.0, 22199.0, 22154.0, 22119.0, 22290.0, 22246.0, 22211.0, 22062.0, 22029.0, 22051.0, 22039.0, 22010.0, 21979.0, 22000.0, 22039.0, 22093.0, 22163.0, 22156.0, 22092.0, 22036.0, 22012.0, 22046.0, 22070.0, 22085.0, 22102.0, 22102.0, 22060.0, 22062.0, 22071.0, 22085.0, 22103.0, 22092.0, 22085.0, 22072.0, 22067.0, 22079.0, 22080.0, 22098.0, 22128.0, 22121.0, 22075.0, 22044.0, 22071.0, 22113.0, 22099.0, 22049.0, 22008.0, 22007.0, 22043.0, 22068.0, 22069.0, 22061.0, 22097.0, 22109.0, 22120.0, 22129.0, 22144.0, 22119.0, 22095.0, 22071.0, 22096.0, 22085.0, 22054.0, 22039.0, 22055.0, 22086.0, 22096.0, 22067.0, 22088.0, 22125.0, 22186.0, 22205.0, 22195.0, 22147.0, 22093.0, 22063.0, 22056.0, 22054.0, 22070.0, 22106.0, 22113.0, 22106.0, 22172.0, 22139.0, 22090.0, 22066.0, 22065.0, 22071.0, 22072.0, 22060.0, 22072.0, 22066.0, 22066.0, 22052.0, 22086.0, 22098.0, 22131.0, 22139.0, 22119.0, 22085.0, 22070.0, 22071.0, 22120.0, 22150.0, 22180.0, 22169.0, 22131.0, 22107.0, 22130.0, 22151.0, 22089.0, 22031.0, 21984.0, 21993.0, 22022.0, 22038.0, 22037.0, 22022.0, 22028.0, 22049.0, 22076.0, 22136.0, 22180.0, 22142.0, 22102.0, 22060.0, 22081.0, 22102.0, 22119.0, 22128.0, 22131.0, 22111.0, 22113.0, 22099.0, 22087.0, 22082.0, 22125.0, 22220.0, 22202.0, 22147.0, 22122.0, 22092.0, 22166.0, 22218.0, 22099.0, 22062.0, 22047.0, 22013.0, 21971.0, 21949.0, 21942.0, 21983.0, 22023.0]
    },
    "slices": {}
  }
}