{
  "AcquisitionMatrixPE": 104,
  "AcquisitionNumber": 1,
  "AcquisitionTime": "15:47:40.662500",
  "BandwidthPerPixelPhaseEncode": 17.17,
  "BaseResolution": 104,
  "BodyPartExamined": "BRAIN",
  "CoilString": "HC1-7;NC1_2",
  "ConsistencyInfo": "N4_VE11C_LATEST_20160120",
  "ConversionSoftware": "dcm2niix",
  "ConversionSoftwareVersion": "v1.0.20190902",
  "DerivedVendorReportedEchoSpacing": 0.000560011,
  "DeviceSerialNumber": "167006",
  "DwellTime": 2.1e-06,
  "EchoTime": 0.037,
  "EchoTrainLength": 104,
  "EffectiveEchoSpacing": 0.000560011,
  "FlipAngle": 52,
  "ImageComments": "Unaliased_MB4_PE3_LB",
  "ImageOrientationPatientDICOM": [0.999167, -0.0407418, -0.00223812, 0.0380349, 0.949836, -0.310427],
  "ImageType": [
    "ORIGINAL",
    "PRIMARY",
    "P",
    "MB",
    "ND",
    "MOSAIC"
],
  "ImagingFrequency": 123.259,
  "InPlanePhaseEncodingDirectionDICOM": "COL",
  "InstitutionAddress": "Chemin_Queen-Mary_4565_Montreal_District_CA_H3W_1W5",
  "InstitutionName": "IUGM",
  "InstitutionalDepartmentName": "Department",
  "MRAcquisitionType": "2D",
  "MagneticFieldStrength": 3,
  "Manufacturer": "Siemens",
  "ManufacturersModelName": "Prisma_fit",
  "Modality": "MR",
  "MultibandAccelerationFactor": 4,
  "PartialFourier": 1,
  "PatientPosition": "HFS",
  "PercentPhaseFOV": 100,
  "PhaseEncodingDirection": "j",
  "PhaseEncodingSteps": 104,
  "PhaseResolution": 1,
  "PixelBandwidth": 2290,
  "ProcedureStepDescription": "memory_things",
  "ProtocolName": "func_task-things_run-5",
  "PulseSequenceDetails": "%CustomerSeq%_cmrr_mbep2d_bold",
  "ReceiveCoilActiveElements": "HC1-7;NC1,2",
  "ReceiveCoilName": "HeadNeck_64",
  "ReconMatrixPE": 104,
  "RepetitionTime": 1.49,
  "SAR": 0.058174,
  "ScanOptions": "FS",
  "ScanningSequence": "EP",
  "SequenceName": "epfid2d1_104",
  "SequenceVariant": "SK_SS",
  "SeriesDescription": "func_task-things_run-5",
  "SeriesNumber": 23,
  "ShimSetting": [622, -7245, -8818, 584, -26, -179, -30, -25],
  "SliceThickness": 2,
  "SliceTiming": [0, 0.785, 0.0975, 0.8825, 0.195, 0.98, 0.295, 1.0775, 0.3925, 1.175, 0.49, 1.275, 0.5875, 1.3725, 0.685, 0, 0.785, 0.0975, 0.8825, 0.195, 0.98, 0.295, 1.0775, 0.3925, 1.175, 0.49, 1.275, 0.5875, 1.3725, 0.685, 0, 0.785, 0.0975, 0.8825, 0.195, 0.98, 0.295, 1.0775, 0.3925, 1.175, 0.49, 1.275, 0.5875, 1.3725, 0.685, 0, 0.785, 0.0975, 0.8825, 0.195, 0.98, 0.295, 1.0775, 0.3925, 1.175, 0.49, 1.275, 0.5875, 1.3725, 0.685],
  "SoftwareVersions": "syngo_MR_E11",
  "SpacingBetweenSlices": 2,
  "StationName": "MRC35049",
  "TaskName": "things",
  "TotalReadoutTime": 0.0576811,
  "TxRefAmp": 271.444,
  "WipMemBlock": "5aaae13f-8ea5-4dae-aa09-d18b25315014||Sequence: R016 ve11c/master r/e634e98; Dec 19 2017 11:00:25 by eja",
  "dcmmeta_affine": [
    [-1.9983344078063965, 0.07606977969408035, -0.02954634465277195, 103.01985931396484],
    [0.08148350566625595, 1.899672269821167, -0.6201659440994263, -70.93247985839844],
    [-0.004476241301745176, 0.6208532452583313, 1.9011894464492798, -60.32374572753906],
    [0.0, 0.0, 0.0, 1.0]
],
  "dcmmeta_reorient_transform": [
    [0.0, -1.0, 0.0, 103.0],
    [1.0, 0.0, 0.0, 0.0],
    [0.0, 0.0, 1.0, 0.0],
    [0.0, 0.0, 0.0, 1.0]
],
  "dcmmeta_shape": [104, 104, 60, 190],
  "dcmmeta_slice_dim": 2,
  "dcmmeta_version": 0.6,
  "global": {
    "const": {
      "AcquisitionMatrix": [104, 0, 0, 104],
      "AngioFlag": "N",
      "BitsAllocated": 16,
      "BitsStored": 16,
      "BodyPartExamined": "BRAIN",
      "Columns": 832,
      "EchoNumbers": 1,
      "EchoTime": 37.0,
      "EchoTrainLength": 104,
      "FlipAngle": 52.0,
      "HighBit": 15,
      "ImageOrientationPatient": [0.99916720342318, -0.0407417527778, -0.0022381206631, 0.03803489166417, 0.94983612440229, -0.3104266157992],
      "ImagePositionPatient": [-865.9381724992, -786.55446351117, 231.2440649023],
      "ImageType": [
        "ORIGINAL",
        "PRIMARY",
        "P",
        "MB",
        "ND",
        "MOSAIC"
],
      "ImagedNucleus": "1H",
      "ImagingFrequency": 123.258935,
      "InPlanePhaseEncodingDirection": "COL",
      "LargestImagePixelValue": 4095,
      "MRAcquisitionType": "2D",
      "MagneticFieldStrength": 3.0,
      "Manufacturer": "SIEMENS",
      "ManufacturerModelName": "Prisma_fit",
      "Modality": "MR",
      "NumberOfAverages": 1.0,
      "NumberOfPhaseEncodingSteps": 104,
      "PercentPhaseFieldOfView": 100.0,
      "PercentSampling": 100.0,
      "PerformedProcedureStepStartTime": "144610.001000",
      "PhotometricInterpretation": "MONOCHROME2",
      "PixelBandwidth": 2290.0,
      "PixelRepresentation": 0,
      "PixelSpacing": [2.0, 2.0],
      "ProtocolName": "func_task-things_run-5",
      "RepetitionTime": 1490.0,
      "RescaleIntercept": -4096.0,
      "RescaleSlope": 2.0,
      "RescaleType": "US",
      "Rows": 832,
      "SAR": 0.0581740403318,
      "SamplesPerPixel": 1,
      "ScanOptions": "FS",
      "ScanningSequence": "EP",
      "SequenceName": "epfid2d1_104",
      "SequenceVariant": [
        "SK",
        "SS"
],
      "SeriesDescription": "func_task-things_run-5",
      "SeriesNumber": 23,
      "SeriesTime": "154856.062000",
      "SliceLocation": -36.870410148103,
      "SliceThickness": 2.0,
      "SmallestImagePixelValue": 0,
      "SoftwareVersions": "syngo MR E11",
      "SpacingBetweenSlices": 2.0000000445224,
      "SpecificCharacterSet": "ISO_IR 100",
      "StudyID": "1",
      "StudyTime": "144609.882000",
      "TransmitCoilName": "Body",
      "VariableFlipAngleFlag": "N",
      "WindowCenterWidthExplanation": "Algo1",
      "dBdt": 0.0},
    "slices": {}
  },
  "time": {
    "samples": {
      "AcquisitionNumber": [1, 2, 3, 4, 5, 6, 7, 8, 9, 10, 11, 12, 13, 14, 15, 16, 17, 18, 19, 20, 21, 22, 23, 24, 25, 26, 27, 28, 29, 30, 31, 32, 33, 34, 35, 36, 37, 38, 39, 40, 41, 42, 43, 44, 45, 46, 47, 48, 49, 50, 51, 52, 53, 54, 55, 56, 57, 58, 59, 60, 61, 62, 63, 64, 65, 66, 67, 68, 69, 70, 71, 72, 73, 74, 75, 76, 77, 78, 79, 80, 81, 82, 83, 84, 85, 86, 87, 88, 89, 90, 91, 92, 93, 94, 95, 96, 97, 98, 99, 100, 101, 102, 103, 104, 105, 106, 107, 108, 109, 110, 111, 112, 113, 114, 115, 116, 117, 118, 119, 120, 121, 122, 123, 124, 125, 126, 127, 128, 129, 130, 131, 132, 133, 134, 135, 136, 137, 138, 139, 140, 141, 142, 143, 144, 145, 146, 147, 148, 149, 150, 151, 152, 153, 154, 155, 156, 157, 158, 159, 160, 161, 162, 163, 164, 165, 166, 167, 168, 169, 170, 171, 172, 173, 174, 175, 176, 177, 178, 179, 180, 181, 182, 183, 184, 185, 186, 187, 188, 189, 190],
      "AcquisitionTime": ["154740.662500", "154742.152500", "154743.642500", "154745.132500", "154746.622500", "154748.112500", "154749.602500", "154751.092500", "154752.582500", "154754.072500", "154755.562500", "154757.052500", "154758.542500", "154800.032500", "154801.522500", "154803.012500", "154804.502500", "154805.992500", "154807.482500", "154808.972500", "154810.462500", "154811.952500", "154813.442500", "154814.932500", "154816.422500", "154817.912500", "154819.402500", "154820.892500", "154822.382500", "154823.872500", "154825.362500", "154826.852500", "154828.342500", "154829.832500", "154831.322500", "154832.812500", "154834.302500", "154835.792500", "154837.282500", "154838.772500", "154840.262500", "154841.752500", "154843.242500", "154844.732500", "154846.222500", "154847.712500", "154849.202500", "154850.692500", "154852.182500", "154853.672500", "154855.162500", "154856.652500", "154858.142500", "154859.632500", "154901.122500", "154902.612500", "154904.102500", "154905.592500", "154907.082500", "154908.572500", "154910.062500", "154911.552500", "154913.042500", "154914.532500", "154916.022500", "154917.512500", "154919.002500", "154920.492500", "154921.982500", "154923.472500", "154924.962500", "154926.452500", "154927.942500", "154929.432500", "154930.922500", "154932.412500", "154933.902500", "154935.392500", "154936.882500", "154938.372500", "154939.862500", "154941.352500", "154942.842500", "154944.332500", "154945.822500", "154947.312500", "154948.802500", "154950.292500", "154951.782500", "154953.272500", "154954.762500", "154956.252500", "154957.742500", "154959.232500", "155000.722500", "155002.212500", "155003.702500", "155005.192500", "155006.682500", "155008.172500", "155009.662500", "155011.152500", "155012.642500", "155014.132500", "155015.622500", "155017.112500", "155018.602500", "155020.092500", "155021.582500", "155023.072500", "155024.562500", "155026.052500", "155027.542500", "155029.032500", "155030.522500", "155032.012500", "155033.502500", "155034.992500", "155036.482500", "155037.972500", "155039.462500", "155040.952500", "155042.442500", "155043.932500", "155045.422500", "155046.912500", "155048.402500", "155049.892500", "155051.382500", "155052.872500", "155054.362500", "155055.852500", "155057.342500", "155058.832500", "155100.322500", "155101.812500", "155103.302500", "155104.792500", "155106.282500", "155107.772500", "155109.262500", "155110.752500", "155112.242500", "155113.732500", "155115.222500", "155116.712500", "155118.202500", "155119.692500", "155121.182500", "155122.672500", "155124.162500", "155125.652500", "155127.142500", "155128.632500", "155130.122500", "155131.612500", "155133.102500", "155134.592500", "155136.082500", "155137.572500", "155139.062500", "155140.552500", "155142.042500", "155143.532500", "155145.022500", "155146.512500", "155148.002500", "155149.492500", "155150.982500", "155152.472500", "155153.962500", "155155.452500", "155156.942500", "155158.432500", "155159.922500", "155201.412500", "155202.902500", "155204.392500", "155205.882500", "155207.372500", "155208.862500", "155210.352500", "155211.842500", "155213.332500", "155214.822500", "155216.312500", "155217.802500", "155219.292500", "155220.782500", "155222.272500"],
      "ContentTime": ["154856.064000", "154856.067000", "154856.069000", "154856.072000", "154856.075000", "154856.077000", "154856.080000", "154856.083000", "154856.087000", "154856.090000", "154856.093000", "154856.098000", "154856.101000", "154856.104000", "154856.107000", "154856.110000", "154856.114000", "154856.116000", "154856.119000", "154856.144000", "154856.147000", "154856.150000", "154916.016000", "154916.019000", "154916.029000", "154916.032000", "154916.034000", "154916.037000", "154916.039000", "154916.042000", "154916.044000", "154916.047000", "154916.049000", "154916.052000", "154916.055000", "154916.058000", "154916.060000", "154916.063000", "154916.065000", "154916.068000", "154916.070000", "154916.073000", "154916.076000", "154936.004000", "154936.007000", "154936.009000", "154936.012000", "154936.014000", "154936.017000", "154936.019000", "154936.022000", "154936.025000", "154936.027000", "154936.030000", "154936.032000", "154936.035000", "154936.037000", "154936.040000", "154936.042000", "154936.045000", "154936.047000", "154936.050000", "154936.052000", "154955.997000", "154956.000000", "154956.003000", "154956.005000", "154956.008000", "154956.011000", "154956.013000", "154956.016000", "154956.018000", "154956.021000", "154956.023000", "154956.026000", "154956.028000", "154956.031000", "154956.033000", "154956.036000", "154956.039000", "154956.048000", "154956.051000", "154956.054000", "155016.007000", "155016.010000", "155016.013000", "155016.015000", "155016.018000", "155016.020000", "155016.023000", "155016.025000", "155016.028000", "155016.031000", "155016.033000", "155016.036000", "155016.038000", "155016.041000", "155016.043000", "155016.046000", "155016.048000", "155016.051000", "155016.054000", "155016.056000", "155056.043000", "155056.046000", "155056.048000", "155056.051000", "155056.054000", "155056.056000", "155056.059000", "155056.061000", "155056.064000", "155056.066000", "155056.069000", "155056.072000", "155056.074000", "155056.077000", "155056.080000", "155056.083000", "155056.093000", "155056.096000", "155056.098000", "155056.101000", "155056.104000", "155056.106000", "155056.109000", "155056.112000", "155056.115000", "155056.117000", "155056.120000", "155136.068000", "155136.071000", "155136.073000", "155136.076000", "155136.078000", "155136.081000", "155136.083000", "155136.086000", "155136.089000", "155136.091000", "155136.094000", "155136.096000", "155136.099000", "155136.101000", "155136.104000", "155136.107000", "155136.109000", "155136.112000", "155136.114000", "155136.117000", "155136.119000", "155136.122000", "155136.124000", "155136.127000", "155136.130000", "155136.132000", "155136.135000", "155216.042000", "155216.045000", "155216.048000", "155216.057000", "155216.059000", "155216.062000", "155216.064000", "155216.067000", "155216.070000", "155216.072000", "155216.075000", "155216.078000", "155216.080000", "155216.083000", "155216.085000", "155216.088000", "155216.091000", "155216.093000", "155216.096000", "155216.098000", "155216.101000", "155216.104000", "155216.106000", "155216.109000", "155216.111000", "155216.114000", "155216.116000", "155224.369000", "155224.372000", "155224.375000", "155224.377000", "155224.380000", "155224.383000"],
      "InstanceCreationTime": ["154856.064000", "154856.067000", "154856.069000", "154856.072000", "154856.075000", "154856.077000", "154856.080000", "154856.083000", "154856.087000", "154856.090000", "154856.093000", "154856.098000", "154856.101000", "154856.104000", "154856.107000", "154856.110000", "154856.114000", "154856.116000", "154856.119000", "154856.144000", "154856.147000", "154856.150000", "154916.016000", "154916.019000", "154916.029000", "154916.032000", "154916.034000", "154916.037000", "154916.039000", "154916.042000", "154916.044000", "154916.047000", "154916.049000", "154916.052000", "154916.055000", "154916.058000", "154916.060000", "154916.063000", "154916.065000", "154916.068000", "154916.070000", "154916.073000", "154916.076000", "154936.004000", "154936.007000", "154936.009000", "154936.012000", "154936.014000", "154936.017000", "154936.019000", "154936.022000", "154936.025000", "154936.027000", "154936.030000", "154936.032000", "154936.035000", "154936.037000", "154936.040000", "154936.042000", "154936.045000", "154936.047000", "154936.050000", "154936.052000", "154955.997000", "154956.000000", "154956.003000", "154956.005000", "154956.008000", "154956.011000", "154956.013000", "154956.016000", "154956.018000", "154956.021000", "154956.023000", "154956.026000", "154956.028000", "154956.031000", "154956.033000", "154956.036000", "154956.039000", "154956.048000", "154956.051000", "154956.054000", "155016.007000", "155016.010000", "155016.013000", "155016.015000", "155016.018000", "155016.020000", "155016.023000", "155016.025000", "155016.028000", "155016.031000", "155016.033000", "155016.036000", "155016.038000", "155016.041000", "155016.043000", "155016.046000", "155016.048000", "155016.051000", "155016.054000", "155016.056000", "155056.043000", "155056.046000", "155056.048000", "155056.051000", "155056.054000", "155056.056000", "155056.059000", "155056.061000", "155056.064000", "155056.066000", "155056.069000", "155056.072000", "155056.074000", "155056.077000", "155056.080000", "155056.083000", "155056.093000", "155056.096000", "155056.098000", "155056.101000", "155056.104000", "155056.106000", "155056.109000", "155056.112000", "155056.115000", "155056.117000", "155056.120000", "155136.068000", "155136.071000", "155136.073000", "155136.076000", "155136.078000", "155136.081000", "155136.083000", "155136.086000", "155136.089000", "155136.091000", "155136.094000", "155136.096000", "155136.099000", "155136.101000", "155136.104000", "155136.107000", "155136.109000", "155136.112000", "155136.114000", "155136.117000", "155136.119000", "155136.122000", "155136.124000", "155136.127000", "155136.130000", "155136.132000", "155136.135000", "155216.042000", "155216.045000", "155216.048000", "155216.057000", "155216.059000", "155216.062000", "155216.064000", "155216.067000", "155216.070000", "155216.072000", "155216.075000", "155216.078000", "155216.080000", "155216.083000", "155216.085000", "155216.088000", "155216.091000", "155216.093000", "155216.096000", "155216.098000", "155216.101000", "155216.104000", "155216.106000", "155216.109000", "155216.111000", "155216.114000", "155216.116000", "155224.369000", "155224.372000", "155224.375000", "155224.377000", "155224.380000", "155224.383000"],
      "InstanceNumber": [1, 2, 3, 4, 5, 6, 7, 8, 9, 10, 11, 12, 13, 14, 15, 16, 17, 18, 19, 20, 21, 22, 23, 24, 25, 26, 27, 28, 29, 30, 31, 32, 33, 34, 35, 36, 37, 38, 39, 40, 41, 42, 43, 44, 45, 46, 47, 48, 49, 50, 51, 52, 53, 54, 55, 56, 57, 58, 59, 60, 61, 62, 63, 64, 65, 66, 67, 68, 69, 70, 71, 72, 73, 74, 75, 76, 77, 78, 79, 80, 81, 82, 83, 84, 85, 86, 87, 88, 89, 90, 91, 92, 93, 94, 95, 96, 97, 98, 99, 100, 101, 102, 103, 104, 105, 106, 107, 108, 109, 110, 111, 112, 113, 114, 115, 116, 117, 118, 119, 120, 121, 122, 123, 124, 125, 126, 127, 128, 129, 130, 131, 132, 133, 134, 135, 136, 137, 138, 139, 140, 141, 142, 143, 144, 145, 146, 147, 148, 149, 150, 151, 152, 153, 154, 155, 156, 157, 158, 159, 160, 161, 162, 163, 164, 165, 166, 167, 168, 169, 170, 171, 172, 173, 174, 175, 176, 177, 178, 179, 180, 181, 182, 183, 184, 185, 186, 187, 188, 189, 190],
      "WindowCenter": [4798.0, 4820.0, 4818.0, 4830.0, 4832.0, 4822.0, 4794.0, 4794.0, 4794.0, 4818.0, 4824.0, 4824.0, 4820.0, 4796.0, 4796.0, 4816.0, 4816.0, 4820.0, 4830.0, 4798.0, 4790.0, 4794.0, 4790.0, 4816.0, 4816.0, 4798.0, 4798.0, 4818.0, 4820.0, 4852.0, 4828.0, 4790.0, 4786.0, 4786.0, 4792.0, 4794.0, 4816.0, 4820.0, 4820.0, 4820.0, 4824.0, 4794.0, 4820.0, 4822.0, 4820.0, 4818.0, 4796.0, 4792.0, 4792.0, 4792.0, 4792.0, 4796.0, 4796.0, 4796.0, 4818.0, 4792.0, 4794.0, 4792.0, 4816.0, 4816.0, 4818.0, 4792.0, 4796.0, 4794.0, 4826.0, 4880.0, 4830.0, 4794.0, 4788.0, 4786.0, 4792.0, 4818.0, 4796.0, 4822.0, 4820.0, 4822.0, 4820.0, 4822.0, 4826.0, 4794.0, 4792.0, 4796.0, 4794.0, 4794.0, 4816.0, 4826.0, 4828.0, 4822.0, 4820.0, 4796.0, 4818.0, 4818.0, 4792.0, 4816.0, 4796.0, 4796.0, 4818.0, 4798.0, 4796.0, 4822.0, 4800.0, 4816.0, 4822.0, 4820.0, 4792.0, 4798.0, 4818.0, 4822.0, 4796.0, 4820.0, 4798.0, 4818.0, 4820.0, 4818.0, 4818.0, 4794.0, 4820.0, 4798.0, 4824.0, 4798.0, 4820.0, 4828.0, 4818.0, 4824.0, 4794.0, 4788.0, 4794.0, 4792.0, 4822.0, 4820.0, 4822.0, 4822.0, 4856.0, 4858.0, 4796.0, 4782.0, 4784.0, 4784.0, 4812.0, 4794.0, 4820.0, 4826.0, 4824.0, 4826.0, 4798.0, 4816.0, 4816.0, 4792.0, 4792.0, 4792.0, 4816.0, 4818.0, 4816.0, 4824.0, 4826.0, 4798.0, 4796.0, 4820.0, 4794.0, 4794.0, 4792.0, 4820.0, 4796.0, 4796.0, 4796.0, 4820.0, 4818.0, 4826.0, 4820.0, 4794.0, 4792.0, 4796.0, 4820.0, 4800.0, 4792.0, 4798.0, 4796.0, 4820.0, 4822.0, 4796.0, 4794.0, 4792.0, 4794.0, 4818.0, 4796.0, 4818.0, 4820.0, 4820.0, 4818.0, 4794.0],
      "WindowWidth": [18558.0, 18594.0, 18588.0, 18592.0, 18580.0, 18580.0, 18570.0, 18566.0, 18564.0, 18598.0, 18588.0, 18584.0, 18586.0, 18560.0, 18564.0, 18596.0, 18596.0, 18588.0, 18586.0, 18554.0, 18568.0, 18568.0, 18570.0, 18600.0, 18594.0, 18562.0, 18550.0, 18580.0, 18582.0, 18622.0, 18588.0, 18560.0, 18574.0, 18568.0, 18568.0, 18570.0, 18590.0, 18582.0, 18580.0, 18584.0, 18588.0, 18558.0, 18594.0, 18590.0, 18588.0, 18600.0, 18564.0, 18566.0, 18568.0, 18556.0, 18552.0, 18554.0, 18558.0, 18558.0, 18592.0, 18558.0, 18560.0, 18562.0, 18596.0, 18588.0, 18588.0, 18552.0, 18558.0, 18560.0, 18588.0, 18664.0, 18582.0, 18572.0, 18568.0, 18570.0, 18570.0, 18598.0, 18560.0, 18586.0, 18582.0, 18582.0, 18578.0, 18580.0, 18580.0, 18564.0, 18570.0, 18568.0, 18570.0, 18558.0, 18592.0, 18592.0, 18590.0, 18580.0, 18582.0, 18562.0, 18590.0, 18594.0, 18568.0, 18594.0, 18556.0, 18560.0, 18586.0, 18554.0, 18554.0, 18586.0, 18558.0, 18592.0, 18582.0, 18584.0, 18560.0, 18558.0, 18588.0, 18584.0, 18558.0, 18580.0, 18560.0, 18586.0, 18584.0, 18584.0, 18586.0, 18560.0, 18590.0, 18558.0, 18584.0, 18558.0, 18592.0, 18584.0, 18586.0, 18590.0, 18568.0, 18570.0, 18564.0, 18558.0, 18586.0, 18582.0, 18584.0, 18582.0, 18632.0, 18628.0, 18562.0, 18558.0, 18574.0, 18566.0, 18600.0, 18556.0, 18584.0, 18582.0, 18582.0, 18580.0, 18554.0, 18592.0, 18602.0, 18570.0, 18574.0, 18566.0, 18590.0, 18584.0, 18584.0, 18588.0, 18584.0, 18556.0, 18560.0, 18588.0, 18570.0, 18562.0, 18568.0, 18600.0, 18554.0, 18556.0, 18554.0, 18584.0, 18582.0, 18582.0, 18588.0, 18558.0, 18560.0, 18568.0, 18592.0, 18552.0, 18556.0, 18556.0, 18560.0, 18586.0, 18582.0, 18552.0, 18556.0, 18556.0, 18560.0, 18586.0, 18560.0, 18584.0, 18580.0, 18586.0, 18582.0, 18556.0]
    },
    "slices": {}
  }
}