{
  "AcquisitionMatrixPE": 104,
  "AcquisitionNumber": 1,
  "AcquisitionTime": "15:24:20.462500",
  "BandwidthPerPixelPhaseEncode": 17.17,
  "BaseResolution": 104,
  "BodyPartExamined": "BRAIN",
  "CoilString": "HC1-7;NC1_2",
  "ConsistencyInfo": "N4_VE11C_LATEST_20160120",
  "ConversionSoftware": "dcm2niix",
  "ConversionSoftwareVersion": "v1.0.20190902",
  "DerivedVendorReportedEchoSpacing": 0.000560011,
  "DeviceSerialNumber": "167006",
  "DwellTime": 2.1e-06,
  "EchoTime": 0.037,
  "EchoTrainLength": 104,
  "EffectiveEchoSpacing": 0.000560011,
  "FlipAngle": 52,
  "ImageComments": "Unaliased_MB4_PE3_LB",
  "ImageOrientationPatientDICOM": [0.999167, -0.0407418, -0.00223812, 0.0380349, 0.949836, -0.310427],
  "ImageType": [
    "ORIGINAL",
    "PRIMARY",
    "M",
    "MB",
    "ND",
    "MOSAIC"
],
  "ImagingFrequency": 123.259,
  "InPlanePhaseEncodingDirectionDICOM": "COL",
  "InstitutionAddress": "Chemin_Queen-Mary_4565_Montreal_District_CA_H3W_1W5",
  "InstitutionName": "IUGM",
  "InstitutionalDepartmentName": "Department",
  "MRAcquisitionType": "2D",
  "MagneticFieldStrength": 3,
  "Manufacturer": "Siemens",
  "ManufacturersModelName": "Prisma_fit",
  "Modality": "MR",
  "MultibandAccelerationFactor": 4,
  "PartialFourier": 1,
  "PatientPosition": "HFS",
  "PercentPhaseFOV": 100,
  "PhaseEncodingDirection": "j",
  "PhaseEncodingSteps": 104,
  "PhaseResolution": 1,
  "PixelBandwidth": 2290,
  "ProcedureStepDescription": "memory_things",
  "ProtocolName": "func_task-things_run-2",
  "PulseSequenceDetails": "%CustomerSeq%_cmrr_mbep2d_bold",
  "ReceiveCoilActiveElements": "HC1-7;NC1,2",
  "ReceiveCoilName": "HeadNeck_64",
  "ReconMatrixPE": 104,
  "RepetitionTime": 1.49,
  "SAR": 0.058174,
  "ScanOptions": "FS",
  "ScanningSequence": "EP",
  "SequenceName": "epfid2d1_104",
  "SequenceVariant": "SK_SS",
  "SeriesDescription": "func_task-things_run-2",
  "SeriesNumber": 13,
  "ShimSetting": [622, -7245, -8818, 584, -26, -179, -30, -25],
  "SliceThickness": 2,
  "SliceTiming": [0, 0.785, 0.0975, 0.8825, 0.1975, 0.98, 0.295, 1.0775, 0.3925, 1.1775, 0.49, 1.275, 0.5875, 1.3725, 0.6875, 0, 0.785, 0.0975, 0.8825, 0.1975, 0.98, 0.295, 1.0775, 0.3925, 1.1775, 0.49, 1.275, 0.5875, 1.3725, 0.6875, 0, 0.785, 0.0975, 0.8825, 0.1975, 0.98, 0.295, 1.0775, 0.3925, 1.1775, 0.49, 1.275, 0.5875, 1.3725, 0.6875, 0, 0.785, 0.0975, 0.8825, 0.1975, 0.98, 0.295, 1.0775, 0.3925, 1.1775, 0.49, 1.275, 0.5875, 1.3725, 0.6875],
  "SoftwareVersions": "syngo_MR_E11",
  "SpacingBetweenSlices": 2,
  "StationName": "MRC35049",
  "TaskName": "things",
  "TotalReadoutTime": 0.0576811,
  "TxRefAmp": 271.444,
  "WipMemBlock": "0ffecc21-4292-4f07-a544-2a3be6786076||Sequence: R016 ve11c/master r/e634e98; Dec 19 2017 11:00:25 by eja",
  "dcmmeta_affine": [
    [-1.9983344078063965, 0.07606977969408035, -0.02954634465277195, 103.01985931396484],
    [0.08148350566625595, 1.899672269821167, -0.6201659440994263, -70.93247985839844],
    [-0.004476241301745176, 0.6208532452583313, 1.9011894464492798, -60.32374572753906],
    [0.0, 0.0, 0.0, 1.0]
],
  "dcmmeta_reorient_transform": [
    [0.0, -1.0, 0.0, 103.0],
    [1.0, 0.0, 0.0, 0.0],
    [0.0, 0.0, 1.0, 0.0],
    [0.0, 0.0, 0.0, 1.0]
],
  "dcmmeta_shape": [104, 104, 60, 190],
  "dcmmeta_slice_dim": 2,
  "dcmmeta_version": 0.6,
  "global": {
    "const": {
      "AcquisitionMatrix": [104, 0, 0, 104],
      "AngioFlag": "N",
      "BitsAllocated": 16,
      "BitsStored": 16,
      "BodyPartExamined": "BRAIN",
      "Columns": 832,
      "EchoNumbers": 1,
      "EchoTime": 37.0,
      "EchoTrainLength": 104,
      "FlipAngle": 52.0,
      "HighBit": 15,
      "ImageOrientationPatient": [0.99916720342318, -0.0407417527778, -0.0022381206631, 0.03803489166417, 0.94983612440229, -0.3104266157992],
      "ImagePositionPatient": [-865.9381724992, -786.55446351117, 231.2440649023],
      "ImageType": [
        "ORIGINAL",
        "PRIMARY",
        "M",
        "MB",
        "ND",
        "MOSAIC"
],
      "ImagedNucleus": "1H",
      "ImagingFrequency": 123.258931,
      "InPlanePhaseEncodingDirection": "COL",
      "MRAcquisitionType": "2D",
      "MagneticFieldStrength": 3.0,
      "Manufacturer": "SIEMENS",
      "ManufacturerModelName": "Prisma_fit",
      "Modality": "MR",
      "NumberOfAverages": 1.0,
      "NumberOfPhaseEncodingSteps": 104,
      "PercentPhaseFieldOfView": 100.0,
      "PercentSampling": 100.0,
      "PerformedProcedureStepStartTime": "144610.001000",
      "PhotometricInterpretation": "MONOCHROME2",
      "PixelBandwidth": 2290.0,
      "PixelRepresentation": 0,
      "PixelSpacing": [2.0, 2.0],
      "ProtocolName": "func_task-things_run-2",
      "RepetitionTime": 1490.0,
      "Rows": 832,
      "SAR": 0.0581740403318,
      "SamplesPerPixel": 1,
      "ScanOptions": "FS",
      "ScanningSequence": "EP",
      "SequenceName": "epfid2d1_104",
      "SequenceVariant": [
        "SK",
        "SS"
],
      "SeriesDescription": "func_task-things_run-2",
      "SeriesNumber": 13,
      "SeriesTime": "152535.888000",
      "SliceLocation": -36.870410148103,
      "SliceThickness": 2.0,
      "SmallestImagePixelValue": 0,
      "SoftwareVersions": "syngo MR E11",
      "SpacingBetweenSlices": 2.0000000445224,
      "SpecificCharacterSet": "ISO_IR 100",
      "StudyID": "1",
      "StudyTime": "144609.882000",
      "TransmitCoilName": "Body",
      "VariableFlipAngleFlag": "N",
      "WindowCenterWidthExplanation": "Algo1",
      "dBdt": 0.0},
    "slices": {}
  },
  "time": {
    "samples": {
      "AcquisitionNumber": [1, 2, 3, 4, 5, 6, 7, 8, 9, 10, 11, 12, 13, 14, 15, 16, 17, 18, 19, 20, 21, 22, 23, 24, 25, 26, 27, 28, 29, 30, 31, 32, 33, 34, 35, 36, 37, 38, 39, 40, 41, 42, 43, 44, 45, 46, 47, 48, 49, 50, 51, 52, 53, 54, 55, 56, 57, 58, 59, 60, 61, 62, 63, 64, 65, 66, 67, 68, 69, 70, 71, 72, 73, 74, 75, 76, 77, 78, 79, 80, 81, 82, 83, 84, 85, 86, 87, 88, 89, 90, 91, 92, 93, 94, 95, 96, 97, 98, 99, 100, 101, 102, 103, 104, 105, 106, 107, 108, 109, 110, 111, 112, 113, 114, 115, 116, 117, 118, 119, 120, 121, 122, 123, 124, 125, 126, 127, 128, 129, 130, 131, 132, 133, 134, 135, 136, 137, 138, 139, 140, 141, 142, 143, 144, 145, 146, 147, 148, 149, 150, 151, 152, 153, 154, 155, 156, 157, 158, 159, 160, 161, 162, 163, 164, 165, 166, 167, 168, 169, 170, 171, 172, 173, 174, 175, 176, 177, 178, 179, 180, 181, 182, 183, 184, 185, 186, 187, 188, 189, 190],
      "AcquisitionTime": ["152420.462500", "152421.952500", "152423.442500", "152424.932500", "152426.422500", "152427.912500", "152429.402500", "152430.892500", "152432.382500", "152433.872500", "152435.362500", "152436.852500", "152438.342500", "152439.832500", "152441.322500", "152442.812500", "152444.302500", "152445.792500", "152447.282500", "152448.772500", "152450.262500", "152451.752500", "152453.242500", "152454.732500", "152456.222500", "152457.712500", "152459.202500", "152500.692500", "152502.182500", "152503.672500", "152505.162500", "152506.652500", "152508.142500", "152509.632500", "152511.122500", "152512.612500", "152514.102500", "152515.592500", "152517.082500", "152518.572500", "152520.062500", "152521.552500", "152523.042500", "152524.532500", "152526.022500", "152527.512500", "152529.002500", "152530.492500", "152531.982500", "152533.472500", "152534.962500", "152536.452500", "152537.942500", "152539.432500", "152540.922500", "152542.412500", "152543.902500", "152545.392500", "152546.882500", "152548.372500", "152549.862500", "152551.352500", "152552.842500", "152554.332500", "152555.822500", "152557.312500", "152558.802500", "152600.292500", "152601.782500", "152603.272500", "152604.762500", "152606.252500", "152607.742500", "152609.232500", "152610.722500", "152612.212500", "152613.702500", "152615.192500", "152616.682500", "152618.172500", "152619.662500", "152621.152500", "152622.642500", "152624.132500", "152625.622500", "152627.112500", "152628.602500", "152630.092500", "152631.582500", "152633.072500", "152634.562500", "152636.052500", "152637.542500", "152639.032500", "152640.522500", "152642.012500", "152643.502500", "152644.992500", "152646.482500", "152647.972500", "152649.462500", "152650.952500", "152652.442500", "152653.932500", "152655.422500", "152656.912500", "152658.402500", "152659.892500", "152701.382500", "152702.872500", "152704.362500", "152705.852500", "152707.342500", "152708.832500", "152710.322500", "152711.812500", "152713.302500", "152714.792500", "152716.282500", "152717.772500", "152719.262500", "152720.752500", "152722.242500", "152723.732500", "152725.222500", "152726.712500", "152728.202500", "152729.692500", "152731.182500", "152732.672500", "152734.162500", "152735.652500", "152737.142500", "152738.632500", "152740.122500", "152741.612500", "152743.102500", "152744.592500", "152746.082500", "152747.572500", "152749.062500", "152750.552500", "152752.042500", "152753.532500", "152755.022500", "152756.512500", "152758.002500", "152759.492500", "152800.982500", "152802.472500", "152803.962500", "152805.452500", "152806.942500", "152808.432500", "152809.922500", "152811.412500", "152812.902500", "152814.392500", "152815.882500", "152817.372500", "152818.862500", "152820.352500", "152821.842500", "152823.332500", "152824.822500", "152826.312500", "152827.802500", "152829.292500", "152830.782500", "152832.272500", "152833.762500", "152835.252500", "152836.742500", "152838.232500", "152839.722500", "152841.212500", "152842.702500", "152844.192500", "152845.682500", "152847.172500", "152848.662500", "152850.152500", "152851.642500", "152853.132500", "152854.622500", "152856.112500", "152857.602500", "152859.092500", "152900.582500", "152902.072500"],
      "ContentTime": ["152535.891000", "152535.895000", "152535.898000", "152535.901000", "152535.909000", "152535.914000", "152535.917000", "152535.921000", "152535.924000", "152535.927000", "152535.931000", "152535.934000", "152535.937000", "152535.941000", "152535.944000", "152535.947000", "152535.951000", "152535.954000", "152535.962000", "152535.965000", "152555.888000", "152555.892000", "152555.895000", "152555.898000", "152555.902000", "152555.905000", "152555.909000", "152555.912000", "152555.915000", "152555.919000", "152555.931000", "152555.934000", "152555.938000", "152555.941000", "152555.945000", "152555.948000", "152555.952000", "152555.955000", "152555.958000", "152555.962000", "152615.888000", "152615.892000", "152615.895000", "152615.899000", "152615.902000", "152615.905000", "152615.909000", "152615.912000", "152615.916000", "152615.919000", "152615.923000", "152615.926000", "152615.929000", "152615.933000", "152615.936000", "152615.940000", "152615.943000", "152615.946000", "152615.950000", "152615.971000", "152635.888000", "152635.892000", "152635.895000", "152635.899000", "152635.902000", "152635.905000", "152635.909000", "152635.912000", "152635.916000", "152635.919000", "152635.922000", "152635.926000", "152635.929000", "152635.932000", "152635.936000", "152635.939000", "152635.950000", "152635.954000", "152635.957000", "152635.961000", "152635.964000", "152655.889000", "152655.893000", "152655.896000", "152655.900000", "152655.903000", "152655.906000", "152655.910000", "152655.913000", "152655.916000", "152655.920000", "152655.923000", "152655.927000", "152655.930000", "152655.933000", "152655.937000", "152655.941000", "152655.944000", "152655.948000", "152655.951000", "152655.955000", "152735.889000", "152735.893000", "152735.896000", "152735.900000", "152735.913000", "152735.916000", "152735.920000", "152735.923000", "152735.927000", "152735.930000", "152735.933000", "152735.937000", "152735.940000", "152735.944000", "152735.947000", "152735.950000", "152735.954000", "152735.957000", "152735.961000", "152735.964000", "152735.967000", "152735.971000", "152735.974000", "152735.978000", "152735.981000", "152735.984000", "152735.988000", "152735.991000", "152735.995000", "152815.888000", "152815.892000", "152815.896000", "152815.899000", "152815.902000", "152815.906000", "152815.909000", "152815.913000", "152815.916000", "152815.920000", "152815.923000", "152815.926000", "152815.930000", "152815.933000", "152815.937000", "152815.940000", "152815.944000", "152815.947000", "152815.950000", "152815.954000", "152815.957000", "152815.961000", "152815.964000", "152815.968000", "152815.971000", "152815.974000", "152815.978000", "152855.888000", "152855.892000", "152855.895000", "152855.899000", "152855.902000", "152855.906000", "152855.909000", "152855.913000", "152855.916000", "152855.920000", "152855.923000", "152855.927000", "152855.930000", "152855.933000", "152855.937000", "152855.940000", "152855.944000", "152855.947000", "152855.950000", "152855.954000", "152855.957000", "152855.961000", "152855.964000", "152855.967000", "152855.971000", "152855.974000", "152855.977000", "152904.713000", "152904.717000", "152904.721000", "152904.724000", "152904.728000", "152904.731000"],
      "InstanceCreationTime": ["152535.891000", "152535.895000", "152535.898000", "152535.901000", "152535.909000", "152535.914000", "152535.917000", "152535.921000", "152535.924000", "152535.927000", "152535.931000", "152535.934000", "152535.937000", "152535.941000", "152535.944000", "152535.947000", "152535.951000", "152535.954000", "152535.962000", "152535.965000", "152555.888000", "152555.892000", "152555.895000", "152555.898000", "152555.902000", "152555.905000", "152555.909000", "152555.912000", "152555.915000", "152555.919000", "152555.931000", "152555.934000", "152555.938000", "152555.941000", "152555.945000", "152555.948000", "152555.952000", "152555.955000", "152555.958000", "152555.962000", "152615.888000", "152615.892000", "152615.895000", "152615.899000", "152615.902000", "152615.905000", "152615.909000", "152615.912000", "152615.916000", "152615.919000", "152615.923000", "152615.926000", "152615.929000", "152615.933000", "152615.936000", "152615.940000", "152615.943000", "152615.946000", "152615.950000", "152615.971000", "152635.888000", "152635.892000", "152635.895000", "152635.899000", "152635.902000", "152635.905000", "152635.909000", "152635.912000", "152635.916000", "152635.919000", "152635.922000", "152635.926000", "152635.929000", "152635.932000", "152635.936000", "152635.939000", "152635.950000", "152635.954000", "152635.957000", "152635.961000", "152635.964000", "152655.889000", "152655.893000", "152655.896000", "152655.900000", "152655.903000", "152655.906000", "152655.910000", "152655.913000", "152655.916000", "152655.920000", "152655.923000", "152655.927000", "152655.930000", "152655.933000", "152655.937000", "152655.941000", "152655.944000", "152655.948000", "152655.951000", "152655.955000", "152735.889000", "152735.893000", "152735.896000", "152735.900000", "152735.913000", "152735.916000", "152735.920000", "152735.923000", "152735.927000", "152735.930000", "152735.933000", "152735.937000", "152735.940000", "152735.944000", "152735.947000", "152735.950000", "152735.954000", "152735.957000", "152735.961000", "152735.964000", "152735.967000", "152735.971000", "152735.974000", "152735.978000", "152735.981000", "152735.984000", "152735.988000", "152735.991000", "152735.995000", "152815.888000", "152815.892000", "152815.896000", "152815.899000", "152815.902000", "152815.906000", "152815.909000", "152815.913000", "152815.916000", "152815.920000", "152815.923000", "152815.926000", "152815.930000", "152815.933000", "152815.937000", "152815.940000", "152815.944000", "152815.947000", "152815.950000", "152815.954000", "152815.957000", "152815.961000", "152815.964000", "152815.968000", "152815.971000", "152815.974000", "152815.978000", "152855.888000", "152855.892000", "152855.895000", "152855.899000", "152855.902000", "152855.906000", "152855.909000", "152855.913000", "152855.916000", "152855.920000", "152855.923000", "152855.927000", "152855.930000", "152855.933000", "152855.937000", "152855.940000", "152855.944000", "152855.947000", "152855.950000", "152855.954000", "152855.957000", "152855.961000", "152855.964000", "152855.967000", "152855.971000", "152855.974000", "152855.977000", "152904.713000", "152904.717000", "152904.721000", "152904.724000", "152904.728000", "152904.731000"],
      "InstanceNumber": [1, 2, 3, 4, 5, 6, 7, 8, 9, 10, 11, 12, 13, 14, 15, 16, 17, 18, 19, 20, 21, 22, 23, 24, 25, 26, 27, 28, 29, 30, 31, 32, 33, 34, 35, 36, 37, 38, 39, 40, 41, 42, 43, 44, 45, 46, 47, 48, 49, 50, 51, 52, 53, 54, 55, 56, 57, 58, 59, 60, 61, 62, 63, 64, 65, 66, 67, 68, 69, 70, 71, 72, 73, 74, 75, 76, 77, 78, 79, 80, 81, 82, 83, 84, 85, 86, 87, 88, 89, 90, 91, 92, 93, 94, 95, 96, 97, 98, 99, 100, 101, 102, 103, 104, 105, 106, 107, 108, 109, 110, 111, 112, 113, 114, 115, 116, 117, 118, 119, 120, 121, 122, 123, 124, 125, 126, 127, 128, 129, 130, 131, 132, 133, 134, 135, 136, 137, 138, 139, 140, 141, 142, 143, 144, 145, 146, 147, 148, 149, 150, 151, 152, 153, 154, 155, 156, 157, 158, 159, 160, 161, 162, 163, 164, 165, 166, 167, 168, 169, 170, 171, 172, 173, 174, 175, 176, 177, 178, 179, 180, 181, 182, 183, 184, 185, 186, 187, 188, 189, 190],
      "LargestImagePixelValue": [44045, 42394, 43236, 40662, 40070, 40040, 41312, 40771, 41284, 41094, 40088, 39870, 40267, 39717, 40193, 40328, 39965, 39907, 41063, 41042, 40999, 39973, 40674, 40161, 40423, 41448, 40380, 40806, 40998, 40303, 40389, 40131, 40454, 41156, 41521, 40691, 41255, 41038, 39917, 41069, 40056, 40153, 40646, 40591, 40275, 40305, 39947, 40130, 40966, 40553, 40223, 41105, 41087, 40182, 40860, 40536, 40328, 40280, 39940, 40307, 40305, 40061, 40630, 40321, 40395, 40445, 40977, 41024, 40373, 40390, 40226, 40442, 40650, 40407, 41168, 40346, 40556, 40234, 40216, 41146, 40341, 39989, 40399, 40552, 40369, 40688, 40380, 40434, 40641, 40274, 40727, 40184, 40751, 40391, 40944, 42133, 40422, 40416, 40913, 40745, 40590, 40336, 39587, 40421, 40099, 40034, 40178, 40268, 40400, 40135, 40589, 40513, 40049, 40394, 40103, 40452, 40335, 39712, 40162, 40595, 40316, 40024, 40023, 40678, 40405, 40325, 40129, 39904, 40352, 40110, 39814, 40072, 40209, 40515, 40335, 40439, 40222, 40558, 40526, 40295, 40115, 40603, 40428, 40928, 40031, 40872, 40413, 40317, 41277, 40620, 40840, 40590, 40519, 41452, 40432, 40454, 41736, 41591, 41451, 40895, 40543, 40645, 39939, 40671, 41577, 41696, 41526, 42062, 42140, 40718, 41819, 40963, 41706, 40798, 40958, 41294, 41732, 41495, 42317, 42169, 41377, 41887, 41343, 41683, 42728, 41149, 40896, 41068, 42529, 42206],
      "WindowCenter": [10429.0, 10372.0, 10353.0, 10328.0, 10317.0, 10317.0, 10324.0, 10318.0, 10314.0, 10294.0, 10273.0, 10287.0, 10293.0, 10291.0, 10302.0, 10299.0, 10301.0, 10294.0, 10340.0, 10374.0, 10349.0, 10317.0, 10305.0, 10305.0, 10305.0, 10316.0, 10306.0, 10304.0, 10310.0, 10301.0, 10300.0, 10308.0, 10322.0, 10334.0, 10335.0, 10336.0, 10343.0, 10337.0, 10339.0, 10343.0, 10331.0, 10325.0, 10328.0, 10322.0, 10315.0, 10313.0, 10300.0, 10299.0, 10302.0, 10297.0, 10305.0, 10310.0, 10318.0, 10321.0, 10327.0, 10313.0, 10313.0, 10306.0, 10306.0, 10308.0, 10306.0, 10307.0, 10311.0, 10299.0, 10307.0, 10312.0, 10333.0, 10327.0, 10305.0, 10297.0, 10303.0, 10325.0, 10334.0, 10323.0, 10325.0, 10304.0, 10311.0, 10313.0, 10315.0, 10317.0, 10305.0, 10290.0, 10288.0, 10292.0, 10295.0, 10309.0, 10306.0, 10299.0, 10302.0, 10307.0, 10303.0, 10298.0, 10301.0, 10295.0, 10307.0, 10325.0, 10317.0, 10353.0, 10356.0, 10302.0, 10272.0, 10254.0, 10254.0, 10262.0, 10264.0, 10259.0, 10266.0, 10278.0, 10288.0, 10287.0, 10289.0, 10300.0, 10290.0, 10298.0, 10294.0, 10289.0, 10298.0, 10308.0, 10309.0, 10306.0, 10300.0, 10300.0, 10315.0, 10322.0, 10313.0, 10306.0, 10293.0, 10292.0, 10299.0, 10300.0, 10303.0, 10295.0, 10295.0, 10308.0, 10315.0, 10323.0, 10317.0, 10306.0, 10297.0, 10294.0, 10293.0, 10303.0, 10299.0, 10302.0, 10291.0, 10302.0, 10296.0, 10290.0, 10300.0, 10302.0, 10301.0, 10298.0, 10305.0, 10308.0, 10303.0, 10311.0, 10323.0, 10300.0, 10289.0, 10284.0, 10261.0, 10236.0, 10214.0, 10227.0, 10262.0, 10280.0, 10291.0, 10312.0, 10327.0, 10321.0, 10336.0, 10325.0, 10329.0, 10332.0, 10359.0, 10350.0, 10321.0, 10293.0, 10287.0, 10301.0, 10304.0, 10311.0, 10321.0, 10322.0, 10318.0, 10299.0, 10301.0, 10330.0, 10344.0, 10315.0],
      "WindowWidth": [22579.0, 22415.0, 22346.0, 22276.0, 22242.0, 22236.0, 22245.0, 22234.0, 22221.0, 22177.0, 22130.0, 22161.0, 22173.0, 22171.0, 22193.0, 22190.0, 22196.0, 22183.0, 22278.0, 22360.0, 22306.0, 22229.0, 22199.0, 22198.0, 22198.0, 22217.0, 22201.0, 22194.0, 22206.0, 22193.0, 22192.0, 22210.0, 22241.0, 22265.0, 22265.0, 22270.0, 22284.0, 22272.0, 22276.0, 22287.0, 22261.0, 22250.0, 22255.0, 22240.0, 22224.0, 22220.0, 22194.0, 22192.0, 22196.0, 22186.0, 22203.0, 22215.0, 22233.0, 22242.0, 22252.0, 22222.0, 22221.0, 22207.0, 22208.0, 22216.0, 22207.0, 22209.0, 22216.0, 22191.0, 22211.0, 22219.0, 22267.0, 22253.0, 22203.0, 22185.0, 22201.0, 22249.0, 22268.0, 22249.0, 22247.0, 22199.0, 22216.0, 22223.0, 22231.0, 22230.0, 22204.0, 22171.0, 22164.0, 22172.0, 22180.0, 22211.0, 22207.0, 22193.0, 22196.0, 22209.0, 22197.0, 22188.0, 22190.0, 22181.0, 22206.0, 22242.0, 22231.0, 22315.0, 22325.0, 22204.0, 22127.0, 22084.0, 22084.0, 22102.0, 22108.0, 22097.0, 22110.0, 22138.0, 22163.0, 22160.0, 22165.0, 22186.0, 22168.0, 22184.0, 22177.0, 22163.0, 22183.0, 22210.0, 22211.0, 22205.0, 22191.0, 22193.0, 22224.0, 22238.0, 22216.0, 22200.0, 22174.0, 22171.0, 22187.0, 22190.0, 22199.0, 22178.0, 22177.0, 22203.0, 22225.0, 22241.0, 22228.0, 22203.0, 22181.0, 22176.0, 22176.0, 22193.0, 22184.0, 22190.0, 22172.0, 22193.0, 22181.0, 22165.0, 22185.0, 22190.0, 22189.0, 22186.0, 22199.0, 22202.0, 22194.0, 22216.0, 22241.0, 22187.0, 22159.0, 22147.0, 22094.0, 22039.0, 21990.0, 22017.0, 22094.0, 22139.0, 22165.0, 22209.0, 22242.0, 22235.0, 22263.0, 22241.0, 22248.0, 22259.0, 22319.0, 22297.0, 22232.0, 22168.0, 22149.0, 22182.0, 22190.0, 22208.0, 22229.0, 22231.0, 22220.0, 22181.0, 22186.0, 22252.0, 22282.0, 22216.0]
    },
    "slices": {}
  }
}