{
  "AcquisitionMatrixPE": 104,
  "AcquisitionNumber": 1,
  "AcquisitionTime": "15:30:59.355000",
  "BandwidthPerPixelPhaseEncode": 17.17,
  "BaseResolution": 104,
  "BodyPartExamined": "BRAIN",
  "CoilString": "HC1-7;NC1_2",
  "ConsistencyInfo": "N4_VE11C_LATEST_20160120",
  "ConversionSoftware": "dcm2niix",
  "ConversionSoftwareVersion": "v1.0.20190902",
  "DerivedVendorReportedEchoSpacing": 0.000560011,
  "DeviceSerialNumber": "167006",
  "DwellTime": 2.1e-06,
  "EchoTime": 0.037,
  "EchoTrainLength": 104,
  "EffectiveEchoSpacing": 0.000560011,
  "FlipAngle": 52,
  "ImageComments": "Unaliased_MB4_PE3_LB",
  "ImageOrientationPatientDICOM": [0.999167, -0.0407418, -0.00223812, 0.0380349, 0.949836, -0.310427],
  "ImageType": [
    "ORIGINAL",
    "PRIMARY",
    "P",
    "MB",
    "ND",
    "MOSAIC"
],
  "ImagingFrequency": 123.259,
  "InPlanePhaseEncodingDirectionDICOM": "COL",
  "InstitutionAddress": "Chemin_Queen-Mary_4565_Montreal_District_CA_H3W_1W5",
  "InstitutionName": "IUGM",
  "InstitutionalDepartmentName": "Department",
  "MRAcquisitionType": "2D",
  "MagneticFieldStrength": 3,
  "Manufacturer": "Siemens",
  "ManufacturersModelName": "Prisma_fit",
  "Modality": "MR",
  "MultibandAccelerationFactor": 4,
  "PartialFourier": 1,
  "PatientPosition": "HFS",
  "PercentPhaseFOV": 100,
  "PhaseEncodingDirection": "j",
  "PhaseEncodingSteps": 104,
  "PhaseResolution": 1,
  "PixelBandwidth": 2290,
  "ProcedureStepDescription": "memory_things",
  "ProtocolName": "func_task-things_run-3",
  "PulseSequenceDetails": "%CustomerSeq%_cmrr_mbep2d_bold",
  "ReceiveCoilActiveElements": "HC1-7;NC1,2",
  "ReceiveCoilName": "HeadNeck_64",
  "ReconMatrixPE": 104,
  "RepetitionTime": 1.49,
  "SAR": 0.058174,
  "ScanOptions": "FS",
  "ScanningSequence": "EP",
  "SequenceName": "epfid2d1_104",
  "SequenceVariant": "SK_SS",
  "SeriesDescription": "func_task-things_run-3",
  "SeriesNumber": 17,
  "ShimSetting": [622, -7245, -8818, 584, -26, -179, -30, -25],
  "SliceThickness": 2,
  "SliceTiming": [0, 0.785, 0.0975, 0.8825, 0.1975, 0.98, 0.295, 1.0775, 0.3925, 1.1775, 0.49, 1.275, 0.5875, 1.3725, 0.6875, 0, 0.785, 0.0975, 0.8825, 0.1975, 0.98, 0.295, 1.0775, 0.3925, 1.1775, 0.49, 1.275, 0.5875, 1.3725, 0.6875, 0, 0.785, 0.0975, 0.8825, 0.1975, 0.98, 0.295, 1.0775, 0.3925, 1.1775, 0.49, 1.275, 0.5875, 1.3725, 0.6875, 0, 0.785, 0.0975, 0.8825, 0.1975, 0.98, 0.295, 1.0775, 0.3925, 1.1775, 0.49, 1.275, 0.5875, 1.3725, 0.6875],
  "SoftwareVersions": "syngo_MR_E11",
  "SpacingBetweenSlices": 2,
  "StationName": "MRC35049",
  "TaskName": "things",
  "TotalReadoutTime": 0.0576811,
  "TxRefAmp": 271.444,
  "WipMemBlock": "3e6aa343-2ccd-48d4-8318-3915831654cb||Sequence: R016 ve11c/master r/e634e98; Dec 19 2017 11:00:25 by eja",
  "dcmmeta_affine": [
    [-1.9983344078063965, 0.07606977969408035, -0.02954634465277195, 103.01985931396484],
    [0.08148350566625595, 1.899672269821167, -0.6201659440994263, -70.93247985839844],
    [-0.004476241301745176, 0.6208532452583313, 1.9011894464492798, -60.32374572753906],
    [0.0, 0.0, 0.0, 1.0]
],
  "dcmmeta_reorient_transform": [
    [0.0, -1.0, 0.0, 103.0],
    [1.0, 0.0, 0.0, 0.0],
    [0.0, 0.0, 1.0, 0.0],
    [0.0, 0.0, 0.0, 1.0]
],
  "dcmmeta_shape": [104, 104, 60, 190],
  "dcmmeta_slice_dim": 2,
  "dcmmeta_version": 0.6,
  "global": {
    "const": {
      "AcquisitionMatrix": [104, 0, 0, 104],
      "AngioFlag": "N",
      "BitsAllocated": 16,
      "BitsStored": 16,
      "BodyPartExamined": "BRAIN",
      "Columns": 832,
      "EchoNumbers": 1,
      "EchoTime": 37.0,
      "EchoTrainLength": 104,
      "FlipAngle": 52.0,
      "HighBit": 15,
      "ImageOrientationPatient": [0.99916720342318, -0.0407417527778, -0.0022381206631, 0.03803489166417, 0.94983612440229, -0.3104266157992],
      "ImagePositionPatient": [-865.9381724992, -786.55446351117, 231.2440649023],
      "ImageType": [
        "ORIGINAL",
        "PRIMARY",
        "P",
        "MB",
        "ND",
        "MOSAIC"
],
      "ImagedNucleus": "1H",
      "ImagingFrequency": 123.258935,
      "InPlanePhaseEncodingDirection": "COL",
      "LargestImagePixelValue": 4095,
      "MRAcquisitionType": "2D",
      "MagneticFieldStrength": 3.0,
      "Manufacturer": "SIEMENS",
      "ManufacturerModelName": "Prisma_fit",
      "Modality": "MR",
      "NumberOfAverages": 1.0,
      "NumberOfPhaseEncodingSteps": 104,
      "PercentPhaseFieldOfView": 100.0,
      "PercentSampling": 100.0,
      "PerformedProcedureStepStartTime": "144610.001000",
      "PhotometricInterpretation": "MONOCHROME2",
      "PixelBandwidth": 2290.0,
      "PixelRepresentation": 0,
      "PixelSpacing": [2.0, 2.0],
      "ProtocolName": "func_task-things_run-3",
      "RepetitionTime": 1490.0,
      "RescaleIntercept": -4096.0,
      "RescaleSlope": 2.0,
      "RescaleType": "US",
      "Rows": 832,
      "SAR": 0.0581740403318,
      "SamplesPerPixel": 1,
      "ScanOptions": "FS",
      "ScanningSequence": "EP",
      "SequenceName": "epfid2d1_104",
      "SequenceVariant": [
        "SK",
        "SS"
],
      "SeriesDescription": "func_task-things_run-3",
      "SeriesNumber": 17,
      "SeriesTime": "153221.980000",
      "SliceLocation": -36.870410148103,
      "SliceThickness": 2.0,
      "SmallestImagePixelValue": 0,
      "SoftwareVersions": "syngo MR E11",
      "SpacingBetweenSlices": 2.0000000445224,
      "SpecificCharacterSet": "ISO_IR 100",
      "StudyID": "1",
      "StudyTime": "144609.882000",
      "TransmitCoilName": "Body",
      "VariableFlipAngleFlag": "N",
      "WindowCenterWidthExplanation": "Algo1",
      "dBdt": 0.0},
    "slices": {}
  },
  "time": {
    "samples": {
      "AcquisitionNumber": [1, 2, 3, 4, 5, 6, 7, 8, 9, 10, 11, 12, 13, 14, 15, 16, 17, 18, 19, 20, 21, 22, 23, 24, 25, 26, 27, 28, 29, 30, 31, 32, 33, 34, 35, 36, 37, 38, 39, 40, 41, 42, 43, 44, 45, 46, 47, 48, 49, 50, 51, 52, 53, 54, 55, 56, 57, 58, 59, 60, 61, 62, 63, 64, 65, 66, 67, 68, 69, 70, 71, 72, 73, 74, 75, 76, 77, 78, 79, 80, 81, 82, 83, 84, 85, 86, 87, 88, 89, 90, 91, 92, 93, 94, 95, 96, 97, 98, 99, 100, 101, 102, 103, 104, 105, 106, 107, 108, 109, 110, 111, 112, 113, 114, 115, 116, 117, 118, 119, 120, 121, 122, 123, 124, 125, 126, 127, 128, 129, 130, 131, 132, 133, 134, 135, 136, 137, 138, 139, 140, 141, 142, 143, 144, 145, 146, 147, 148, 149, 150, 151, 152, 153, 154, 155, 156, 157, 158, 159, 160, 161, 162, 163, 164, 165, 166, 167, 168, 169, 170, 171, 172, 173, 174, 175, 176, 177, 178, 179, 180, 181, 182, 183, 184, 185, 186, 187, 188, 189, 190],
      "AcquisitionTime": ["153059.355000", "153100.845000", "153102.335000", "153103.825000", "153105.315000", "153106.805000", "153108.295000", "153109.785000", "153111.275000", "153112.765000", "153114.255000", "153115.745000", "153117.235000", "153118.725000", "153120.215000", "153121.705000", "153123.195000", "153124.685000", "153126.175000", "153127.665000", "153129.155000", "153130.645000", "153132.135000", "153133.625000", "153135.115000", "153136.605000", "153138.095000", "153139.585000", "153141.075000", "153142.565000", "153144.055000", "153145.545000", "153147.035000", "153148.525000", "153150.015000", "153151.505000", "153152.995000", "153154.485000", "153155.975000", "153157.465000", "153158.955000", "153200.445000", "153201.935000", "153203.425000", "153204.915000", "153206.405000", "153207.895000", "153209.385000", "153210.875000", "153212.365000", "153213.855000", "153215.345000", "153216.835000", "153218.325000", "153219.815000", "153221.305000", "153222.795000", "153224.285000", "153225.775000", "153227.265000", "153228.755000", "153230.245000", "153231.735000", "153233.225000", "153234.715000", "153236.205000", "153237.695000", "153239.185000", "153240.675000", "153242.165000", "153243.655000", "153245.145000", "153246.635000", "153248.125000", "153249.615000", "153251.105000", "153252.595000", "153254.085000", "153255.575000", "153257.065000", "153258.555000", "153300.045000", "153301.535000", "153303.025000", "153304.515000", "153306.005000", "153307.495000", "153308.985000", "153310.475000", "153311.965000", "153313.455000", "153314.945000", "153316.435000", "153317.925000", "153319.415000", "153320.905000", "153322.395000", "153323.885000", "153325.375000", "153326.865000", "153328.355000", "153329.845000", "153331.335000", "153332.825000", "153334.315000", "153335.805000", "153337.295000", "153338.785000", "153340.275000", "153341.765000", "153343.255000", "153344.745000", "153346.235000", "153347.725000", "153349.215000", "153350.705000", "153352.195000", "153353.685000", "153355.175000", "153356.665000", "153358.155000", "153359.645000", "153401.135000", "153402.625000", "153404.115000", "153405.605000", "153407.095000", "153408.585000", "153410.075000", "153411.565000", "153413.055000", "153414.545000", "153416.035000", "153417.525000", "153419.015000", "153420.505000", "153421.995000", "153423.485000", "153424.975000", "153426.465000", "153427.955000", "153429.445000", "153430.935000", "153432.425000", "153433.915000", "153435.405000", "153436.895000", "153438.385000", "153439.875000", "153441.365000", "153442.855000", "153444.345000", "153445.835000", "153447.325000", "153448.815000", "153450.305000", "153451.795000", "153453.285000", "153454.775000", "153456.265000", "153457.755000", "153459.245000", "153500.735000", "153502.225000", "153503.715000", "153505.205000", "153506.695000", "153508.185000", "153509.675000", "153511.165000", "153512.655000", "153514.145000", "153515.635000", "153517.125000", "153518.615000", "153520.105000", "153521.595000", "153523.085000", "153524.575000", "153526.065000", "153527.555000", "153529.045000", "153530.535000", "153532.025000", "153533.515000", "153535.005000", "153536.495000", "153537.985000", "153539.475000", "153540.965000"],
      "ContentTime": ["153221.983000", "153221.985000", "153221.988000", "153221.991000", "153221.993000", "153221.996000", "153221.998000", "153222.002000", "153222.004000", "153222.007000", "153222.009000", "153222.012000", "153222.014000", "153222.017000", "153222.019000", "153222.022000", "153222.024000", "153222.027000", "153222.029000", "153222.032000", "153222.035000", "153222.037000", "153222.040000", "153222.042000", "153222.045000", "153222.047000", "153222.050000", "153222.052000", "153241.905000", "153241.908000", "153241.911000", "153241.913000", "153241.916000", "153241.918000", "153241.921000", "153241.923000", "153241.926000", "153241.929000", "153241.931000", "153241.934000", "153241.936000", "153241.939000", "153241.942000", "153241.944000", "153241.947000", "153241.949000", "153241.952000", "153241.954000", "153301.940000", "153301.942000", "153301.945000", "153301.947000", "153301.950000", "153301.953000", "153301.955000", "153301.958000", "153301.960000", "153301.963000", "153301.965000", "153301.968000", "153301.970000", "153301.973000", "153301.975000", "153301.978000", "153301.980000", "153301.983000", "153301.985000", "153301.988000", "153321.933000", "153321.936000", "153321.938000", "153321.941000", "153321.943000", "153321.946000", "153321.948000", "153321.951000", "153321.953000", "153321.956000", "153321.959000", "153321.961000", "153321.964000", "153321.966000", "153321.969000", "153321.971000", "153321.974000", "153321.976000", "153321.979000", "153321.982000", "153342.092000", "153342.094000", "153342.097000", "153342.100000", "153342.102000", "153342.105000", "153342.107000", "153342.110000", "153342.112000", "153342.115000", "153342.117000", "153342.120000", "153342.123000", "153342.125000", "153342.128000", "153342.130000", "153342.133000", "153342.135000", "153342.138000", "153342.140000", "153421.945000", "153421.948000", "153421.951000", "153421.954000", "153421.956000", "153421.959000", "153421.961000", "153421.964000", "153421.966000", "153421.969000", "153421.971000", "153421.974000", "153421.976000", "153421.979000", "153421.981000", "153421.984000", "153421.987000", "153421.989000", "153421.992000", "153421.994000", "153421.997000", "153422.005000", "153422.008000", "153422.010000", "153422.013000", "153422.016000", "153422.018000", "153502.135000", "153502.138000", "153502.141000", "153502.143000", "153502.146000", "153502.148000", "153502.151000", "153502.154000", "153502.156000", "153502.159000", "153502.161000", "153502.170000", "153502.172000", "153502.175000", "153502.177000", "153502.180000", "153502.183000", "153502.185000", "153502.188000", "153502.190000", "153502.193000", "153502.196000", "153502.198000", "153502.201000", "153502.203000", "153502.206000", "153502.209000", "153542.349000", "153542.352000", "153542.355000", "153542.357000", "153542.360000", "153542.363000", "153542.365000", "153542.368000", "153542.371000", "153542.373000", "153542.376000", "153542.378000", "153542.381000", "153542.384000", "153542.386000", "153542.389000", "153542.391000", "153542.394000", "153542.396000", "153542.399000", "153542.401000", "153542.404000", "153542.407000", "153542.409000", "153542.412000", "153542.414000", "153542.417000", "153543.194000"],
      "InstanceCreationTime": ["153221.983000", "153221.985000", "153221.988000", "153221.991000", "153221.993000", "153221.996000", "153221.998000", "153222.002000", "153222.004000", "153222.007000", "153222.009000", "153222.012000", "153222.014000", "153222.017000", "153222.019000", "153222.022000", "153222.024000", "153222.027000", "153222.029000", "153222.032000", "153222.035000", "153222.037000", "153222.040000", "153222.042000", "153222.045000", "153222.047000", "153222.050000", "153222.052000", "153241.905000", "153241.908000", "153241.911000", "153241.913000", "153241.916000", "153241.918000", "153241.921000", "153241.923000", "153241.926000", "153241.929000", "153241.931000", "153241.934000", "153241.936000", "153241.939000", "153241.942000", "153241.944000", "153241.947000", "153241.949000", "153241.952000", "153241.954000", "153301.940000", "153301.942000", "153301.945000", "153301.947000", "153301.950000", "153301.953000", "153301.955000", "153301.958000", "153301.960000", "153301.963000", "153301.965000", "153301.968000", "153301.970000", "153301.973000", "153301.975000", "153301.978000", "153301.980000", "153301.983000", "153301.985000", "153301.988000", "153321.933000", "153321.936000", "153321.938000", "153321.941000", "153321.943000", "153321.946000", "153321.948000", "153321.951000", "153321.953000", "153321.956000", "153321.959000", "153321.961000", "153321.964000", "153321.966000", "153321.969000", "153321.971000", "153321.974000", "153321.976000", "153321.979000", "153321.982000", "153342.092000", "153342.094000", "153342.097000", "153342.100000", "153342.102000", "153342.105000", "153342.107000", "153342.110000", "153342.112000", "153342.115000", "153342.117000", "153342.120000", "153342.123000", "153342.125000", "153342.128000", "153342.130000", "153342.133000", "153342.135000", "153342.138000", "153342.140000", "153421.945000", "153421.948000", "153421.951000", "153421.954000", "153421.956000", "153421.959000", "153421.961000", "153421.964000", "153421.966000", "153421.969000", "153421.971000", "153421.974000", "153421.976000", "153421.979000", "153421.981000", "153421.984000", "153421.987000", "153421.989000", "153421.992000", "153421.994000", "153421.997000", "153422.005000", "153422.008000", "153422.010000", "153422.013000", "153422.016000", "153422.018000", "153502.135000", "153502.138000", "153502.141000", "153502.143000", "153502.146000", "153502.148000", "153502.151000", "153502.154000", "153502.156000", "153502.159000", "153502.161000", "153502.170000", "153502.172000", "153502.175000", "153502.177000", "153502.180000", "153502.183000", "153502.185000", "153502.188000", "153502.190000", "153502.193000", "153502.196000", "153502.198000", "153502.201000", "153502.203000", "153502.206000", "153502.209000", "153542.349000", "153542.352000", "153542.355000", "153542.357000", "153542.360000", "153542.363000", "153542.365000", "153542.368000", "153542.371000", "153542.373000", "153542.376000", "153542.378000", "153542.381000", "153542.384000", "153542.386000", "153542.389000", "153542.391000", "153542.394000", "153542.396000", "153542.399000", "153542.401000", "153542.404000", "153542.407000", "153542.409000", "153542.412000", "153542.414000", "153542.417000", "153543.194000"],
      "InstanceNumber": [1, 2, 3, 4, 5, 6, 7, 8, 9, 10, 11, 12, 13, 14, 15, 16, 17, 18, 19, 20, 21, 22, 23, 24, 25, 26, 27, 28, 29, 30, 31, 32, 33, 34, 35, 36, 37, 38, 39, 40, 41, 42, 43, 44, 45, 46, 47, 48, 49, 50, 51, 52, 53, 54, 55, 56, 57, 58, 59, 60, 61, 62, 63, 64, 65, 66, 67, 68, 69, 70, 71, 72, 73, 74, 75, 76, 77, 78, 79, 80, 81, 82, 83, 84, 85, 86, 87, 88, 89, 90, 91, 92, 93, 94, 95, 96, 97, 98, 99, 100, 101, 102, 103, 104, 105, 106, 107, 108, 109, 110, 111, 112, 113, 114, 115, 116, 117, 118, 119, 120, 121, 122, 123, 124, 125, 126, 127, 128, 129, 130, 131, 132, 133, 134, 135, 136, 137, 138, 139, 140, 141, 142, 143, 144, 145, 146, 147, 148, 149, 150, 151, 152, 153, 154, 155, 156, 157, 158, 159, 160, 161, 162, 163, 164, 165, 166, 167, 168, 169, 170, 171, 172, 173, 174, 175, 176, 177, 178, 179, 180, 181, 182, 183, 184, 185, 186, 187, 188, 189, 190],
      "WindowCenter": [4790.0, 4812.0, 4788.0, 4796.0, 4820.0, 4790.0, 4792.0, 4786.0, 4788.0, 4792.0, 4790.0, 4790.0, 4792.0, 4820.0, 4818.0, 4790.0, 4812.0, 4812.0, 4784.0, 4792.0, 4810.0, 4788.0, 4820.0, 4820.0, 4812.0, 4792.0, 4812.0, 4790.0, 4792.0, 4792.0, 4790.0, 4794.0, 4790.0, 4792.0, 4822.0, 4790.0, 4814.0, 4818.0, 4812.0, 4818.0, 4792.0, 4792.0, 4810.0, 4788.0, 4792.0, 4794.0, 4792.0, 4816.0, 4816.0, 4816.0, 4790.0, 4810.0, 4790.0, 4792.0, 4816.0, 4788.0, 4792.0, 4820.0, 4790.0, 4792.0, 4816.0, 4786.0, 4818.0, 4790.0, 4792.0, 4814.0, 4816.0, 4828.0, 4824.0, 4784.0, 4782.0, 4784.0, 4782.0, 4786.0, 4790.0, 4798.0, 4816.0, 4816.0, 4792.0, 4794.0, 4792.0, 4810.0, 4790.0, 4814.0, 4784.0, 4788.0, 4792.0, 4820.0, 4816.0, 4820.0, 4792.0, 4794.0, 4794.0, 4788.0, 4790.0, 4818.0, 4814.0, 4790.0, 4788.0, 4790.0, 4794.0, 4792.0, 4826.0, 4824.0, 4788.0, 4788.0, 4784.0, 4784.0, 4790.0, 4812.0, 4818.0, 4794.0, 4818.0, 4820.0, 4792.0, 4814.0, 4816.0, 4784.0, 4792.0, 4788.0, 4790.0, 4818.0, 4818.0, 4820.0, 4814.0, 4792.0, 4790.0, 4812.0, 4790.0, 4790.0, 4820.0, 4796.0, 4790.0, 4790.0, 4790.0, 4812.0, 4792.0, 4816.0, 4814.0, 4792.0, 4818.0, 4794.0, 4818.0, 4790.0, 4822.0, 4786.0, 4792.0, 4788.0, 4816.0, 4816.0, 4816.0, 4820.0, 4796.0, 4818.0, 4814.0, 4792.0, 4812.0, 4790.0, 4818.0, 4790.0, 4816.0, 4816.0, 4794.0, 4794.0, 4818.0, 4796.0, 4792.0, 4822.0, 4788.0, 4792.0, 4788.0, 4792.0, 4790.0, 4816.0, 4798.0, 4814.0, 4818.0, 4794.0, 4794.0, 4792.0, 4818.0, 4792.0, 4790.0, 4792.0, 4792.0, 4794.0, 4794.0, 4794.0, 4818.0, 4788.0],
      "WindowWidth": [18574.0, 18602.0, 18568.0, 18564.0, 18594.0, 18568.0, 18560.0, 18566.0, 18562.0, 18566.0, 18566.0, 18558.0, 18568.0, 18596.0, 18598.0, 18572.0, 18602.0, 18596.0, 18570.0, 18568.0, 18600.0, 18564.0, 18594.0, 18598.0, 18598.0, 18566.0, 18600.0, 18570.0, 18566.0, 18570.0, 18570.0, 18566.0, 18570.0, 18572.0, 18598.0, 18570.0, 18600.0, 18600.0, 18598.0, 18596.0, 18564.0, 18568.0, 18598.0, 18572.0, 18570.0, 18570.0, 18570.0, 18600.0, 18604.0, 18598.0, 18572.0, 18600.0, 18574.0, 18576.0, 18600.0, 18566.0, 18572.0, 18600.0, 18568.0, 18570.0, 18600.0, 18568.0, 18602.0, 18572.0, 18572.0, 18596.0, 18598.0, 18584.0, 18588.0, 18564.0, 18576.0, 18574.0, 18570.0, 18570.0, 18560.0, 18562.0, 18596.0, 18594.0, 18568.0, 18568.0, 18576.0, 18600.0, 18560.0, 18596.0, 18566.0, 18568.0, 18570.0, 18602.0, 18604.0, 18606.0, 18568.0, 18570.0, 18566.0, 18572.0, 18568.0, 18594.0, 18596.0, 18570.0, 18566.0, 18566.0, 18566.0, 18564.0, 18584.0, 18588.0, 18564.0, 18564.0, 18568.0, 18570.0, 18564.0, 18596.0, 18598.0, 18568.0, 18596.0, 18600.0, 18568.0, 18594.0, 18598.0, 18562.0, 18566.0, 18568.0, 18566.0, 18600.0, 18592.0, 18590.0, 18596.0, 18564.0, 18566.0, 18592.0, 18568.0, 18562.0, 18592.0, 18564.0, 18564.0, 18566.0, 18568.0, 18594.0, 18564.0, 18594.0, 18596.0, 18562.0, 18598.0, 18560.0, 18600.0, 18564.0, 18596.0, 18564.0, 18564.0, 18566.0, 18600.0, 18598.0, 18598.0, 18596.0, 18570.0, 18594.0, 18598.0, 18562.0, 18598.0, 18558.0, 18592.0, 18568.0, 18590.0, 18598.0, 18566.0, 18570.0, 18596.0, 18570.0, 18564.0, 18598.0, 18566.0, 18562.0, 18564.0, 18566.0, 18566.0, 18598.0, 18564.0, 18594.0, 18594.0, 18568.0, 18566.0, 18572.0, 18596.0, 18570.0, 18564.0, 18568.0, 18566.0, 18566.0, 18566.0, 18564.0, 18598.0, 18560.0]
    },
    "slices": {}
  }
}