{
  "AcquisitionMatrixPE": 104,
  "AcquisitionNumber": 1,
  "AcquisitionTime": "15:24:20.462500",
  "BandwidthPerPixelPhaseEncode": 17.17,
  "BaseResolution": 104,
  "BodyPartExamined": "BRAIN",
  "CoilString": "HC1-7;NC1_2",
  "ConsistencyInfo": "N4_VE11C_LATEST_20160120",
  "ConversionSoftware": "dcm2niix",
  "ConversionSoftwareVersion": "v1.0.20190902",
  "DerivedVendorReportedEchoSpacing": 0.000560011,
  "DeviceSerialNumber": "167006",
  "DwellTime": 2.1e-06,
  "EchoTime": 0.037,
  "EchoTrainLength": 104,
  "EffectiveEchoSpacing": 0.000560011,
  "FlipAngle": 52,
  "ImageComments": "Unaliased_MB4_PE3_LB",
  "ImageOrientationPatientDICOM": [0.999167, -0.0407418, -0.00223812, 0.0380349, 0.949836, -0.310427],
  "ImageType": [
    "ORIGINAL",
    "PRIMARY",
    "P",
    "MB",
    "ND",
    "MOSAIC"
],
  "ImagingFrequency": 123.259,
  "InPlanePhaseEncodingDirectionDICOM": "COL",
  "InstitutionAddress": "Chemin_Queen-Mary_4565_Montreal_District_CA_H3W_1W5",
  "InstitutionName": "IUGM",
  "InstitutionalDepartmentName": "Department",
  "MRAcquisitionType": "2D",
  "MagneticFieldStrength": 3,
  "Manufacturer": "Siemens",
  "ManufacturersModelName": "Prisma_fit",
  "Modality": "MR",
  "MultibandAccelerationFactor": 4,
  "PartialFourier": 1,
  "PatientPosition": "HFS",
  "PercentPhaseFOV": 100,
  "PhaseEncodingDirection": "j",
  "PhaseEncodingSteps": 104,
  "PhaseResolution": 1,
  "PixelBandwidth": 2290,
  "ProcedureStepDescription": "memory_things",
  "ProtocolName": "func_task-things_run-2",
  "PulseSequenceDetails": "%CustomerSeq%_cmrr_mbep2d_bold",
  "ReceiveCoilActiveElements": "HC1-7;NC1,2",
  "ReceiveCoilName": "HeadNeck_64",
  "ReconMatrixPE": 104,
  "RepetitionTime": 1.49,
  "SAR": 0.058174,
  "ScanOptions": "FS",
  "ScanningSequence": "EP",
  "SequenceName": "epfid2d1_104",
  "SequenceVariant": "SK_SS",
  "SeriesDescription": "func_task-things_run-2",
  "SeriesNumber": 14,
  "ShimSetting": [622, -7245, -8818, 584, -26, -179, -30, -25],
  "SliceThickness": 2,
  "SliceTiming": [0, 0.785, 0.0975, 0.8825, 0.1975, 0.98, 0.295, 1.0775, 0.3925, 1.1775, 0.49, 1.275, 0.5875, 1.3725, 0.6875, 0, 0.785, 0.0975, 0.8825, 0.1975, 0.98, 0.295, 1.0775, 0.3925, 1.1775, 0.49, 1.275, 0.5875, 1.3725, 0.6875, 0, 0.785, 0.0975, 0.8825, 0.1975, 0.98, 0.295, 1.0775, 0.3925, 1.1775, 0.49, 1.275, 0.5875, 1.3725, 0.6875, 0, 0.785, 0.0975, 0.8825, 0.1975, 0.98, 0.295, 1.0775, 0.3925, 1.1775, 0.49, 1.275, 0.5875, 1.3725, 0.6875],
  "SoftwareVersions": "syngo_MR_E11",
  "SpacingBetweenSlices": 2,
  "StationName": "MRC35049",
  "TaskName": "things",
  "TotalReadoutTime": 0.0576811,
  "TxRefAmp": 271.444,
  "WipMemBlock": "0ffecc21-4292-4f07-a544-2a3be6786076||Sequence: R016 ve11c/master r/e634e98; Dec 19 2017 11:00:25 by eja",
  "dcmmeta_affine": [
    [-1.9983344078063965, 0.07606977969408035, -0.02954634465277195, 103.01985931396484],
    [0.08148350566625595, 1.899672269821167, -0.6201659440994263, -70.93247985839844],
    [-0.004476241301745176, 0.6208532452583313, 1.9011894464492798, -60.32374572753906],
    [0.0, 0.0, 0.0, 1.0]
],
  "dcmmeta_reorient_transform": [
    [0.0, -1.0, 0.0, 103.0],
    [1.0, 0.0, 0.0, 0.0],
    [0.0, 0.0, 1.0, 0.0],
    [0.0, 0.0, 0.0, 1.0]
],
  "dcmmeta_shape": [104, 104, 60, 190],
  "dcmmeta_slice_dim": 2,
  "dcmmeta_version": 0.6,
  "global": {
    "const": {
      "AcquisitionMatrix": [104, 0, 0, 104],
      "AngioFlag": "N",
      "BitsAllocated": 16,
      "BitsStored": 16,
      "BodyPartExamined": "BRAIN",
      "Columns": 832,
      "EchoNumbers": 1,
      "EchoTime": 37.0,
      "EchoTrainLength": 104,
      "FlipAngle": 52.0,
      "HighBit": 15,
      "ImageOrientationPatient": [0.99916720342318, -0.0407417527778, -0.0022381206631, 0.03803489166417, 0.94983612440229, -0.3104266157992],
      "ImagePositionPatient": [-865.9381724992, -786.55446351117, 231.2440649023],
      "ImageType": [
        "ORIGINAL",
        "PRIMARY",
        "P",
        "MB",
        "ND",
        "MOSAIC"
],
      "ImagedNucleus": "1H",
      "ImagingFrequency": 123.258931,
      "InPlanePhaseEncodingDirection": "COL",
      "LargestImagePixelValue": 4095,
      "MRAcquisitionType": "2D",
      "MagneticFieldStrength": 3.0,
      "Manufacturer": "SIEMENS",
      "ManufacturerModelName": "Prisma_fit",
      "Modality": "MR",
      "NumberOfAverages": 1.0,
      "NumberOfPhaseEncodingSteps": 104,
      "PercentPhaseFieldOfView": 100.0,
      "PercentSampling": 100.0,
      "PerformedProcedureStepStartTime": "144610.001000",
      "PhotometricInterpretation": "MONOCHROME2",
      "PixelBandwidth": 2290.0,
      "PixelRepresentation": 0,
      "PixelSpacing": [2.0, 2.0],
      "ProtocolName": "func_task-things_run-2",
      "RepetitionTime": 1490.0,
      "RescaleIntercept": -4096.0,
      "RescaleSlope": 2.0,
      "RescaleType": "US",
      "Rows": 832,
      "SAR": 0.0581740403318,
      "SamplesPerPixel": 1,
      "ScanOptions": "FS",
      "ScanningSequence": "EP",
      "SequenceName": "epfid2d1_104",
      "SequenceVariant": [
        "SK",
        "SS"
],
      "SeriesDescription": "func_task-things_run-2",
      "SeriesNumber": 14,
      "SeriesTime": "152536.013000",
      "SliceLocation": -36.870410148103,
      "SliceThickness": 2.0,
      "SmallestImagePixelValue": 0,
      "SoftwareVersions": "syngo MR E11",
      "SpacingBetweenSlices": 2.0000000445224,
      "SpecificCharacterSet": "ISO_IR 100",
      "StudyID": "1",
      "StudyTime": "144609.882000",
      "TransmitCoilName": "Body",
      "VariableFlipAngleFlag": "N",
      "WindowCenterWidthExplanation": "Algo1",
      "dBdt": 0.0},
    "slices": {}
  },
  "time": {
    "samples": {
      "AcquisitionNumber": [1, 2, 3, 4, 5, 6, 7, 8, 9, 10, 11, 12, 13, 14, 15, 16, 17, 18, 19, 20, 21, 22, 23, 24, 25, 26, 27, 28, 29, 30, 31, 32, 33, 34, 35, 36, 37, 38, 39, 40, 41, 42, 43, 44, 45, 46, 47, 48, 49, 50, 51, 52, 53, 54, 55, 56, 57, 58, 59, 60, 61, 62, 63, 64, 65, 66, 67, 68, 69, 70, 71, 72, 73, 74, 75, 76, 77, 78, 79, 80, 81, 82, 83, 84, 85, 86, 87, 88, 89, 90, 91, 92, 93, 94, 95, 96, 97, 98, 99, 100, 101, 102, 103, 104, 105, 106, 107, 108, 109, 110, 111, 112, 113, 114, 115, 116, 117, 118, 119, 120, 121, 122, 123, 124, 125, 126, 127, 128, 129, 130, 131, 132, 133, 134, 135, 136, 137, 138, 139, 140, 141, 142, 143, 144, 145, 146, 147, 148, 149, 150, 151, 152, 153, 154, 155, 156, 157, 158, 159, 160, 161, 162, 163, 164, 165, 166, 167, 168, 169, 170, 171, 172, 173, 174, 175, 176, 177, 178, 179, 180, 181, 182, 183, 184, 185, 186, 187, 188, 189, 190],
      "AcquisitionTime": ["152420.462500", "152421.952500", "152423.442500", "152424.932500", "152426.422500", "152427.912500", "152429.402500", "152430.892500", "152432.382500", "152433.872500", "152435.362500", "152436.852500", "152438.342500", "152439.832500", "152441.322500", "152442.812500", "152444.302500", "152445.792500", "152447.282500", "152448.772500", "152450.262500", "152451.752500", "152453.242500", "152454.732500", "152456.222500", "152457.712500", "152459.202500", "152500.692500", "152502.182500", "152503.672500", "152505.162500", "152506.652500", "152508.142500", "152509.632500", "152511.122500", "152512.612500", "152514.102500", "152515.592500", "152517.082500", "152518.572500", "152520.062500", "152521.552500", "152523.042500", "152524.532500", "152526.022500", "152527.512500", "152529.002500", "152530.492500", "152531.982500", "152533.472500", "152534.962500", "152536.452500", "152537.942500", "152539.432500", "152540.922500", "152542.412500", "152543.902500", "152545.392500", "152546.882500", "152548.372500", "152549.862500", "152551.352500", "152552.842500", "152554.332500", "152555.822500", "152557.312500", "152558.802500", "152600.292500", "152601.782500", "152603.272500", "152604.762500", "152606.252500", "152607.742500", "152609.232500", "152610.722500", "152612.212500", "152613.702500", "152615.192500", "152616.682500", "152618.172500", "152619.662500", "152621.152500", "152622.642500", "152624.132500", "152625.622500", "152627.112500", "152628.602500", "152630.092500", "152631.582500", "152633.072500", "152634.562500", "152636.052500", "152637.542500", "152639.032500", "152640.522500", "152642.012500", "152643.502500", "152644.992500", "152646.482500", "152647.972500", "152649.462500", "152650.952500", "152652.442500", "152653.932500", "152655.422500", "152656.912500", "152658.402500", "152659.892500", "152701.382500", "152702.872500", "152704.362500", "152705.852500", "152707.342500", "152708.832500", "152710.322500", "152711.812500", "152713.302500", "152714.792500", "152716.282500", "152717.772500", "152719.262500", "152720.752500", "152722.242500", "152723.732500", "152725.222500", "152726.712500", "152728.202500", "152729.692500", "152731.182500", "152732.672500", "152734.162500", "152735.652500", "152737.142500", "152738.632500", "152740.122500", "152741.612500", "152743.102500", "152744.592500", "152746.082500", "152747.572500", "152749.062500", "152750.552500", "152752.042500", "152753.532500", "152755.022500", "152756.512500", "152758.002500", "152759.492500", "152800.982500", "152802.472500", "152803.962500", "152805.452500", "152806.942500", "152808.432500", "152809.922500", "152811.412500", "152812.902500", "152814.392500", "152815.882500", "152817.372500", "152818.862500", "152820.352500", "152821.842500", "152823.332500", "152824.822500", "152826.312500", "152827.802500", "152829.292500", "152830.782500", "152832.272500", "152833.762500", "152835.252500", "152836.742500", "152838.232500", "152839.722500", "152841.212500", "152842.702500", "152844.192500", "152845.682500", "152847.172500", "152848.662500", "152850.152500", "152851.642500", "152853.132500", "152854.622500", "152856.112500", "152857.602500", "152859.092500", "152900.582500", "152902.072500"],
      "ContentTime": ["152536.015000", "152536.018000", "152536.021000", "152536.023000", "152536.026000", "152536.028000", "152536.031000", "152536.033000", "152536.036000", "152536.038000", "152536.041000", "152536.043000", "152536.046000", "152536.048000", "152536.051000", "152536.054000", "152536.056000", "152536.059000", "152536.061000", "152536.064000", "152556.002000", "152556.005000", "152556.010000", "152556.013000", "152556.015000", "152556.018000", "152556.020000", "152556.023000", "152556.025000", "152556.028000", "152556.030000", "152556.033000", "152556.035000", "152556.038000", "152556.040000", "152556.043000", "152556.045000", "152556.048000", "152556.050000", "152556.053000", "152616.012000", "152616.015000", "152616.017000", "152616.020000", "152616.022000", "152616.025000", "152616.028000", "152616.031000", "152616.034000", "152616.037000", "152616.039000", "152616.042000", "152616.045000", "152616.048000", "152616.051000", "152616.053000", "152616.056000", "152616.058000", "152616.061000", "152616.063000", "152636.021000", "152636.023000", "152636.026000", "152636.029000", "152636.031000", "152636.034000", "152636.036000", "152636.039000", "152636.041000", "152636.044000", "152636.046000", "152636.049000", "152636.051000", "152636.054000", "152636.056000", "152636.059000", "152636.061000", "152636.064000", "152636.072000", "152636.074000", "152636.077000", "152656.004000", "152656.007000", "152656.009000", "152656.012000", "152656.014000", "152656.017000", "152656.019000", "152656.022000", "152656.024000", "152656.027000", "152656.029000", "152656.032000", "152656.034000", "152656.037000", "152656.040000", "152656.042000", "152656.045000", "152656.047000", "152656.050000", "152656.052000", "152736.051000", "152736.054000", "152736.057000", "152736.059000", "152736.062000", "152736.064000", "152736.067000", "152736.070000", "152736.072000", "152736.075000", "152736.085000", "152736.088000", "152736.091000", "152736.093000", "152736.096000", "152736.098000", "152736.101000", "152736.103000", "152736.106000", "152736.109000", "152736.111000", "152736.114000", "152736.116000", "152736.119000", "152736.122000", "152736.124000", "152736.127000", "152736.129000", "152736.132000", "152816.036000", "152816.039000", "152816.043000", "152816.045000", "152816.048000", "152816.051000", "152816.053000", "152816.056000", "152816.058000", "152816.061000", "152816.063000", "152816.077000", "152816.080000", "152816.082000", "152816.085000", "152816.087000", "152816.090000", "152816.093000", "152816.095000", "152816.098000", "152816.100000", "152816.103000", "152816.106000", "152816.108000", "152816.111000", "152816.113000", "152816.116000", "152856.045000", "152856.048000", "152856.050000", "152856.053000", "152856.055000", "152856.058000", "152856.060000", "152856.063000", "152856.065000", "152856.068000", "152856.071000", "152856.073000", "152856.076000", "152856.078000", "152856.081000", "152856.083000", "152856.086000", "152856.088000", "152856.091000", "152856.094000", "152856.096000", "152856.099000", "152856.101000", "152856.104000", "152856.106000", "152856.109000", "152856.111000", "152904.783000", "152904.786000", "152904.789000", "152904.791000", "152904.794000", "152904.796000"],
      "InstanceCreationTime": ["152536.015000", "152536.018000", "152536.021000", "152536.023000", "152536.026000", "152536.028000", "152536.031000", "152536.033000", "152536.036000", "152536.038000", "152536.041000", "152536.043000", "152536.046000", "152536.048000", "152536.051000", "152536.054000", "152536.056000", "152536.059000", "152536.061000", "152536.064000", "152556.002000", "152556.005000", "152556.010000", "152556.013000", "152556.015000", "152556.018000", "152556.020000", "152556.023000", "152556.025000", "152556.028000", "152556.030000", "152556.033000", "152556.035000", "152556.038000", "152556.040000", "152556.043000", "152556.045000", "152556.048000", "152556.050000", "152556.053000", "152616.012000", "152616.015000", "152616.017000", "152616.020000", "152616.022000", "152616.025000", "152616.028000", "152616.031000", "152616.034000", "152616.037000", "152616.039000", "152616.042000", "152616.045000", "152616.048000", "152616.051000", "152616.053000", "152616.056000", "152616.058000", "152616.061000", "152616.063000", "152636.021000", "152636.023000", "152636.026000", "152636.029000", "152636.031000", "152636.034000", "152636.036000", "152636.039000", "152636.041000", "152636.044000", "152636.046000", "152636.049000", "152636.051000", "152636.054000", "152636.056000", "152636.059000", "152636.061000", "152636.064000", "152636.072000", "152636.074000", "152636.077000", "152656.004000", "152656.007000", "152656.009000", "152656.012000", "152656.014000", "152656.017000", "152656.019000", "152656.022000", "152656.024000", "152656.027000", "152656.029000", "152656.032000", "152656.034000", "152656.037000", "152656.040000", "152656.042000", "152656.045000", "152656.047000", "152656.050000", "152656.052000", "152736.051000", "152736.054000", "152736.057000", "152736.059000", "152736.062000", "152736.064000", "152736.067000", "152736.070000", "152736.072000", "152736.075000", "152736.085000", "152736.088000", "152736.091000", "152736.093000", "152736.096000", "152736.098000", "152736.101000", "152736.103000", "152736.106000", "152736.109000", "152736.111000", "152736.114000", "152736.116000", "152736.119000", "152736.122000", "152736.124000", "152736.127000", "152736.129000", "152736.132000", "152816.036000", "152816.039000", "152816.043000", "152816.045000", "152816.048000", "152816.051000", "152816.053000", "152816.056000", "152816.058000", "152816.061000", "152816.063000", "152816.077000", "152816.080000", "152816.082000", "152816.085000", "152816.087000", "152816.090000", "152816.093000", "152816.095000", "152816.098000", "152816.100000", "152816.103000", "152816.106000", "152816.108000", "152816.111000", "152816.113000", "152816.116000", "152856.045000", "152856.048000", "152856.050000", "152856.053000", "152856.055000", "152856.058000", "152856.060000", "152856.063000", "152856.065000", "152856.068000", "152856.071000", "152856.073000", "152856.076000", "152856.078000", "152856.081000", "152856.083000", "152856.086000", "152856.088000", "152856.091000", "152856.094000", "152856.096000", "152856.099000", "152856.101000", "152856.104000", "152856.106000", "152856.109000", "152856.111000", "152904.783000", "152904.786000", "152904.789000", "152904.791000", "152904.794000", "152904.796000"],
      "InstanceNumber": [1, 2, 3, 4, 5, 6, 7, 8, 9, 10, 11, 12, 13, 14, 15, 16, 17, 18, 19, 20, 21, 22, 23, 24, 25, 26, 27, 28, 29, 30, 31, 32, 33, 34, 35, 36, 37, 38, 39, 40, 41, 42, 43, 44, 45, 46, 47, 48, 49, 50, 51, 52, 53, 54, 55, 56, 57, 58, 59, 60, 61, 62, 63, 64, 65, 66, 67, 68, 69, 70, 71, 72, 73, 74, 75, 76, 77, 78, 79, 80, 81, 82, 83, 84, 85, 86, 87, 88, 89, 90, 91, 92, 93, 94, 95, 96, 97, 98, 99, 100, 101, 102, 103, 104, 105, 106, 107, 108, 109, 110, 111, 112, 113, 114, 115, 116, 117, 118, 119, 120, 121, 122, 123, 124, 125, 126, 127, 128, 129, 130, 131, 132, 133, 134, 135, 136, 137, 138, 139, 140, 141, 142, 143, 144, 145, 146, 147, 148, 149, 150, 151, 152, 153, 154, 155, 156, 157, 158, 159, 160, 161, 162, 163, 164, 165, 166, 167, 168, 169, 170, 171, 172, 173, 174, 175, 176, 177, 178, 179, 180, 181, 182, 183, 184, 185, 186, 187, 188, 189, 190],
      "WindowCenter": [4818.0, 4826.0, 4798.0, 4820.0, 4796.0, 4820.0, 4824.0, 4802.0, 4794.0, 4794.0, 4812.0, 4792.0, 4824.0, 4822.0, 4818.0, 4820.0, 4818.0, 4824.0, 4826.0, 4796.0, 4814.0, 4788.0, 4812.0, 4810.0, 4816.0, 4796.0, 4794.0, 4820.0, 4796.0, 4794.0, 4816.0, 4818.0, 4814.0, 4790.0, 4818.0, 4818.0, 4820.0, 4794.0, 4816.0, 4822.0, 4794.0, 4816.0, 4818.0, 4794.0, 4816.0, 4822.0, 4796.0, 4816.0, 4820.0, 4820.0, 4816.0, 4796.0, 4820.0, 4818.0, 4816.0, 4820.0, 4794.0, 4794.0, 4816.0, 4818.0, 4794.0, 4792.0, 4794.0, 4794.0, 4794.0, 4816.0, 4820.0, 4792.0, 4792.0, 4796.0, 4796.0, 4820.0, 4818.0, 4796.0, 4820.0, 4816.0, 4818.0, 4796.0, 4818.0, 4822.0, 4816.0, 4818.0, 4794.0, 4818.0, 4820.0, 4794.0, 4794.0, 4816.0, 4794.0, 4818.0, 4794.0, 4816.0, 4816.0, 4794.0, 4820.0, 4820.0, 4798.0, 4826.0, 4820.0, 4792.0, 4818.0, 4814.0, 4792.0, 4814.0, 4816.0, 4820.0, 4796.0, 4794.0, 4824.0, 4820.0, 4794.0, 4820.0, 4816.0, 4814.0, 4816.0, 4818.0, 4818.0, 4820.0, 4798.0, 4794.0, 4818.0, 4798.0, 4794.0, 4796.0, 4816.0, 4818.0, 4818.0, 4816.0, 4796.0, 4792.0, 4818.0, 4796.0, 4794.0, 4796.0, 4816.0, 4820.0, 4796.0, 4816.0, 4818.0, 4818.0, 4820.0, 4816.0, 4796.0, 4794.0, 4818.0, 4820.0, 4818.0, 4818.0, 4816.0, 4820.0, 4816.0, 4818.0, 4794.0, 4816.0, 4822.0, 4852.0, 4826.0, 4794.0, 4812.0, 4784.0, 4786.0, 4816.0, 4816.0, 4796.0, 4816.0, 4816.0, 4822.0, 4796.0, 4794.0, 4818.0, 4818.0, 4820.0, 4818.0, 4820.0, 4822.0, 4822.0, 4820.0, 4820.0, 4822.0, 4820.0, 4798.0, 4794.0, 4816.0, 4818.0, 4820.0, 4820.0, 4826.0, 4828.0, 4818.0, 4818.0],
      "WindowWidth": [18596.0, 18592.0, 18562.0, 18586.0, 18564.0, 18598.0, 18586.0, 18558.0, 18562.0, 18566.0, 18596.0, 18572.0, 18596.0, 18596.0, 18588.0, 18596.0, 18598.0, 18590.0, 18586.0, 18552.0, 18602.0, 18576.0, 18602.0, 18600.0, 18606.0, 18558.0, 18554.0, 18594.0, 18556.0, 18564.0, 18596.0, 18600.0, 18608.0, 18566.0, 18596.0, 18604.0, 18590.0, 18564.0, 18596.0, 18584.0, 18558.0, 18608.0, 18594.0, 18568.0, 18600.0, 18598.0, 18570.0, 18602.0, 18594.0, 18596.0, 18594.0, 18556.0, 18594.0, 18596.0, 18594.0, 18604.0, 18570.0, 18572.0, 18602.0, 18594.0, 18564.0, 18564.0, 18560.0, 18568.0, 18562.0, 18598.0, 18598.0, 18562.0, 18568.0, 18564.0, 18572.0, 18592.0, 18592.0, 18566.0, 18590.0, 18596.0, 18592.0, 18558.0, 18600.0, 18590.0, 18598.0, 18600.0, 18564.0, 18600.0, 18588.0, 18566.0, 18564.0, 18586.0, 18564.0, 18598.0, 18570.0, 18594.0, 18598.0, 18558.0, 18590.0, 18598.0, 18562.0, 18582.0, 18580.0, 18570.0, 18600.0, 18598.0, 18572.0, 18590.0, 18592.0, 18590.0, 18556.0, 18558.0, 18592.0, 18590.0, 18564.0, 18594.0, 18602.0, 18606.0, 18598.0, 18592.0, 18596.0, 18590.0, 18554.0, 18560.0, 18592.0, 18566.0, 18568.0, 18560.0, 18600.0, 18602.0, 18596.0, 18598.0, 18554.0, 18564.0, 18594.0, 18566.0, 18566.0, 18562.0, 18598.0, 18592.0, 18562.0, 18596.0, 18592.0, 18596.0, 18590.0, 18596.0, 18560.0, 18566.0, 18586.0, 18592.0, 18596.0, 18594.0, 18596.0, 18592.0, 18594.0, 18598.0, 18554.0, 18596.0, 18588.0, 18616.0, 18578.0, 18568.0, 18604.0, 18566.0, 18568.0, 18600.0, 18592.0, 18552.0, 18580.0, 18578.0, 18588.0, 18554.0, 18566.0, 18592.0, 18600.0, 18604.0, 18590.0, 18592.0, 18588.0, 18582.0, 18592.0, 18586.0, 18594.0, 18596.0, 18562.0, 18566.0, 18592.0, 18588.0, 18594.0, 18596.0, 18588.0, 18588.0, 18582.0, 18602.0]
    },
    "slices": {}
  }
}