{
  "AcquisitionMatrixPE": 104,
  "AcquisitionNumber": 1,
  "AcquisitionTime": "15:54:29.510000",
  "BandwidthPerPixelPhaseEncode": 17.17,
  "BaseResolution": 104,
  "BodyPartExamined": "BRAIN",
  "CoilString": "HC1-7;NC1_2",
  "ConsistencyInfo": "N4_VE11C_LATEST_20160120",
  "ConversionSoftware": "dcm2niix",
  "ConversionSoftwareVersion": "v1.0.20190902",
  "DerivedVendorReportedEchoSpacing": 0.000560011,
  "DeviceSerialNumber": "167006",
  "DwellTime": 2.1e-06,
  "EchoTime": 0.037,
  "EchoTrainLength": 104,
  "EffectiveEchoSpacing": 0.000560011,
  "FlipAngle": 52,
  "ImageComments": "Unaliased_MB4_PE3_LB",
  "ImageOrientationPatientDICOM": [0.999167, -0.0407418, -0.00223812, 0.0380349, 0.949836, -0.310427],
  "ImageType": [
    "ORIGINAL",
    "PRIMARY",
    "M",
    "MB",
    "ND",
    "MOSAIC"
],
  "ImagingFrequency": 123.259,
  "InPlanePhaseEncodingDirectionDICOM": "COL",
  "InstitutionAddress": "Chemin_Queen-Mary_4565_Montreal_District_CA_H3W_1W5",
  "InstitutionName": "IUGM",
  "InstitutionalDepartmentName": "Department",
  "MRAcquisitionType": "2D",
  "MagneticFieldStrength": 3,
  "Manufacturer": "Siemens",
  "ManufacturersModelName": "Prisma_fit",
  "Modality": "MR",
  "MultibandAccelerationFactor": 4,
  "PartialFourier": 1,
  "PatientPosition": "HFS",
  "PercentPhaseFOV": 100,
  "PhaseEncodingDirection": "j",
  "PhaseEncodingSteps": 104,
  "PhaseResolution": 1,
  "PixelBandwidth": 2290,
  "ProcedureStepDescription": "memory_things",
  "ProtocolName": "func_task-things_run-6",
  "PulseSequenceDetails": "%CustomerSeq%_cmrr_mbep2d_bold",
  "ReceiveCoilActiveElements": "HC1-7;NC1,2",
  "ReceiveCoilName": "HeadNeck_64",
  "ReconMatrixPE": 104,
  "RepetitionTime": 1.49,
  "SAR": 0.058174,
  "ScanOptions": "FS",
  "ScanningSequence": "EP",
  "SequenceName": "epfid2d1_104",
  "SequenceVariant": "SK_SS",
  "SeriesDescription": "func_task-things_run-6",
  "SeriesNumber": 25,
  "ShimSetting": [622, -7245, -8818, 584, -26, -179, -30, -25],
  "SliceThickness": 2,
  "SliceTiming": [0, 0.785, 0.0975, 0.8825, 0.1975, 0.98, 0.295, 1.0775, 0.3925, 1.1775, 0.49, 1.275, 0.5875, 1.3725, 0.6875, 0, 0.785, 0.0975, 0.8825, 0.1975, 0.98, 0.295, 1.0775, 0.3925, 1.1775, 0.49, 1.275, 0.5875, 1.3725, 0.6875, 0, 0.785, 0.0975, 0.8825, 0.1975, 0.98, 0.295, 1.0775, 0.3925, 1.1775, 0.49, 1.275, 0.5875, 1.3725, 0.6875, 0, 0.785, 0.0975, 0.8825, 0.1975, 0.98, 0.295, 1.0775, 0.3925, 1.1775, 0.49, 1.275, 0.5875, 1.3725, 0.6875],
  "SoftwareVersions": "syngo_MR_E11",
  "SpacingBetweenSlices": 2,
  "StationName": "MRC35049",
  "TaskName": "things",
  "TotalReadoutTime": 0.0576811,
  "TxRefAmp": 271.444,
  "WipMemBlock": "cd39af36-66b1-407c-8930-452ed263c49a||Sequence: R016 ve11c/master r/e634e98; Dec 19 2017 11:00:25 by eja",
  "dcmmeta_affine": [
    [-1.9983344078063965, 0.07606977969408035, -0.02954634465277195, 103.01985931396484],
    [0.08148350566625595, 1.899672269821167, -0.6201659440994263, -70.93247985839844],
    [-0.004476241301745176, 0.6208532452583313, 1.9011894464492798, -60.32374572753906],
    [0.0, 0.0, 0.0, 1.0]
],
  "dcmmeta_reorient_transform": [
    [0.0, -1.0, 0.0, 103.0],
    [1.0, 0.0, 0.0, 0.0],
    [0.0, 0.0, 1.0, 0.0],
    [0.0, 0.0, 0.0, 1.0]
],
  "dcmmeta_shape": [104, 104, 60, 190],
  "dcmmeta_slice_dim": 2,
  "dcmmeta_version": 0.6,
  "global": {
    "const": {
      "AcquisitionMatrix": [104, 0, 0, 104],
      "AngioFlag": "N",
      "BitsAllocated": 16,
      "BitsStored": 16,
      "BodyPartExamined": "BRAIN",
      "Columns": 832,
      "EchoNumbers": 1,
      "EchoTime": 37.0,
      "EchoTrainLength": 104,
      "FlipAngle": 52.0,
      "HighBit": 15,
      "ImageOrientationPatient": [0.99916720342318, -0.0407417527778, -0.0022381206631, 0.03803489166417, 0.94983612440229, -0.3104266157992],
      "ImagePositionPatient": [-865.9381724992, -786.55446351117, 231.2440649023],
      "ImageType": [
        "ORIGINAL",
        "PRIMARY",
        "M",
        "MB",
        "ND",
        "MOSAIC"
],
      "ImagedNucleus": "1H",
      "ImagingFrequency": 123.25894,
      "InPlanePhaseEncodingDirection": "COL",
      "MRAcquisitionType": "2D",
      "MagneticFieldStrength": 3.0,
      "Manufacturer": "SIEMENS",
      "ManufacturerModelName": "Prisma_fit",
      "Modality": "MR",
      "NumberOfAverages": 1.0,
      "NumberOfPhaseEncodingSteps": 104,
      "PercentPhaseFieldOfView": 100.0,
      "PercentSampling": 100.0,
      "PerformedProcedureStepStartTime": "144610.001000",
      "PhotometricInterpretation": "MONOCHROME2",
      "PixelBandwidth": 2290.0,
      "PixelRepresentation": 0,
      "PixelSpacing": [2.0, 2.0],
      "ProtocolName": "func_task-things_run-6",
      "RepetitionTime": 1490.0,
      "Rows": 832,
      "SAR": 0.0581740403318,
      "SamplesPerPixel": 1,
      "ScanOptions": "FS",
      "ScanningSequence": "EP",
      "SequenceName": "epfid2d1_104",
      "SequenceVariant": [
        "SK",
        "SS"
],
      "SeriesDescription": "func_task-things_run-6",
      "SeriesNumber": 25,
      "SeriesTime": "155541.848000",
      "SliceLocation": -36.870410148103,
      "SliceThickness": 2.0,
      "SmallestImagePixelValue": 0,
      "SoftwareVersions": "syngo MR E11",
      "SpacingBetweenSlices": 2.0000000445224,
      "SpecificCharacterSet": "ISO_IR 100",
      "StudyID": "1",
      "StudyTime": "144609.882000",
      "TransmitCoilName": "Body",
      "VariableFlipAngleFlag": "N",
      "WindowCenterWidthExplanation": "Algo1",
      "dBdt": 0.0},
    "slices": {}
  },
  "time": {
    "samples": {
      "AcquisitionNumber": [1, 2, 3, 4, 5, 6, 7, 8, 9, 10, 11, 12, 13, 14, 15, 16, 17, 18, 19, 20, 21, 22, 23, 24, 25, 26, 27, 28, 29, 30, 31, 32, 33, 34, 35, 36, 37, 38, 39, 40, 41, 42, 43, 44, 45, 46, 47, 48, 49, 50, 51, 52, 53, 54, 55, 56, 57, 58, 59, 60, 61, 62, 63, 64, 65, 66, 67, 68, 69, 70, 71, 72, 73, 74, 75, 76, 77, 78, 79, 80, 81, 82, 83, 84, 85, 86, 87, 88, 89, 90, 91, 92, 93, 94, 95, 96, 97, 98, 99, 100, 101, 102, 103, 104, 105, 106, 107, 108, 109, 110, 111, 112, 113, 114, 115, 116, 117, 118, 119, 120, 121, 122, 123, 124, 125, 126, 127, 128, 129, 130, 131, 132, 133, 134, 135, 136, 137, 138, 139, 140, 141, 142, 143, 144, 145, 146, 147, 148, 149, 150, 151, 152, 153, 154, 155, 156, 157, 158, 159, 160, 161, 162, 163, 164, 165, 166, 167, 168, 169, 170, 171, 172, 173, 174, 175, 176, 177, 178, 179, 180, 181, 182, 183, 184, 185, 186, 187, 188, 189, 190],
      "AcquisitionTime": ["155429.510000", "155431.000000", "155432.490000", "155433.980000", "155435.470000", "155436.960000", "155438.450000", "155439.940000", "155441.430000", "155442.920000", "155444.410000", "155445.900000", "155447.390000", "155448.880000", "155450.370000", "155451.860000", "155453.350000", "155454.840000", "155456.330000", "155457.820000", "155459.310000", "155500.800000", "155502.290000", "155503.780000", "155505.270000", "155506.760000", "155508.250000", "155509.740000", "155511.230000", "155512.720000", "155514.210000", "155515.700000", "155517.190000", "155518.680000", "155520.170000", "155521.660000", "155523.150000", "155524.640000", "155526.130000", "155527.620000", "155529.110000", "155530.600000", "155532.090000", "155533.580000", "155535.070000", "155536.560000", "155538.050000", "155539.540000", "155541.030000", "155542.520000", "155544.010000", "155545.500000", "155546.990000", "155548.480000", "155549.970000", "155551.460000", "155552.950000", "155554.440000", "155555.930000", "155557.420000", "155558.910000", "155600.400000", "155601.890000", "155603.380000", "155604.870000", "155606.360000", "155607.850000", "155609.340000", "155610.830000", "155612.320000", "155613.810000", "155615.300000", "155616.790000", "155618.280000", "155619.770000", "155621.260000", "155622.750000", "155624.240000", "155625.730000", "155627.220000", "155628.710000", "155630.200000", "155631.690000", "155633.180000", "155634.670000", "155636.160000", "155637.650000", "155639.140000", "155640.630000", "155642.120000", "155643.610000", "155645.100000", "155646.590000", "155648.080000", "155649.570000", "155651.060000", "155652.550000", "155654.040000", "155655.530000", "155657.020000", "155658.510000", "155700.000000", "155701.490000", "155702.980000", "155704.470000", "155705.960000", "155707.450000", "155708.940000", "155710.430000", "155711.920000", "155713.410000", "155714.900000", "155716.390000", "155717.880000", "155719.370000", "155720.860000", "155722.350000", "155723.840000", "155725.330000", "155726.820000", "155728.310000", "155729.800000", "155731.290000", "155732.780000", "155734.270000", "155735.760000", "155737.250000", "155738.740000", "155740.230000", "155741.720000", "155743.210000", "155744.700000", "155746.190000", "155747.680000", "155749.170000", "155750.660000", "155752.150000", "155753.640000", "155755.130000", "155756.620000", "155758.110000", "155759.600000", "155801.090000", "155802.580000", "155804.070000", "155805.560000", "155807.050000", "155808.540000", "155810.030000", "155811.520000", "155813.010000", "155814.500000", "155815.990000", "155817.480000", "155818.970000", "155820.460000", "155821.950000", "155823.440000", "155824.930000", "155826.420000", "155827.910000", "155829.400000", "155830.890000", "155832.380000", "155833.870000", "155835.360000", "155836.850000", "155838.340000", "155839.830000", "155841.320000", "155842.810000", "155844.300000", "155845.790000", "155847.280000", "155848.770000", "155850.260000", "155851.750000", "155853.240000", "155854.730000", "155856.220000", "155857.710000", "155859.200000", "155900.690000", "155902.180000", "155903.670000", "155905.160000", "155906.650000", "155908.140000", "155909.630000", "155911.120000"],
      "ContentTime": ["155541.852000", "155541.856000", "155541.860000", "155541.863000", "155541.866000", "155541.870000", "155541.873000", "155541.877000", "155541.880000", "155541.883000", "155541.887000", "155541.890000", "155541.893000", "155541.913000", "155541.917000", "155541.920000", "155541.924000", "155541.927000", "155541.930000", "155601.802000", "155601.806000", "155601.809000", "155601.813000", "155601.816000", "155601.820000", "155601.823000", "155601.826000", "155601.830000", "155601.833000", "155601.837000", "155601.840000", "155601.843000", "155601.847000", "155601.850000", "155601.854000", "155601.857000", "155601.860000", "155601.864000", "155601.867000", "155621.803000", "155621.807000", "155621.810000", "155621.814000", "155621.817000", "155621.820000", "155621.824000", "155621.827000", "155621.831000", "155621.834000", "155621.844000", "155621.847000", "155621.850000", "155621.854000", "155621.857000", "155621.861000", "155621.864000", "155621.867000", "155621.871000", "155621.874000", "155641.803000", "155641.807000", "155641.811000", "155641.816000", "155641.820000", "155641.824000", "155641.831000", "155641.837000", "155641.841000", "155641.845000", "155641.848000", "155641.852000", "155641.855000", "155641.859000", "155641.862000", "155641.866000", "155641.869000", "155641.872000", "155641.876000", "155641.879000", "155701.802000", "155701.806000", "155701.809000", "155701.813000", "155701.816000", "155701.820000", "155701.823000", "155701.826000", "155701.830000", "155701.833000", "155701.837000", "155701.840000", "155701.843000", "155701.847000", "155701.850000", "155701.854000", "155701.857000", "155701.861000", "155701.864000", "155701.867000", "155701.871000", "155741.802000", "155741.806000", "155741.810000", "155741.813000", "155741.817000", "155741.820000", "155741.824000", "155741.827000", "155741.830000", "155741.834000", "155741.837000", "155741.841000", "155741.844000", "155741.848000", "155741.851000", "155741.855000", "155741.858000", "155741.862000", "155741.883000", "155741.886000", "155741.890000", "155741.893000", "155741.897000", "155741.900000", "155741.904000", "155741.907000", "155741.911000", "155741.914000", "155821.802000", "155821.806000", "155821.810000", "155821.813000", "155821.816000", "155821.820000", "155821.824000", "155821.827000", "155821.831000", "155821.834000", "155821.838000", "155821.841000", "155821.844000", "155821.848000", "155821.851000", "155821.855000", "155821.858000", "155821.862000", "155821.865000", "155821.868000", "155821.872000", "155821.875000", "155821.879000", "155821.882000", "155821.885000", "155821.889000", "155821.892000", "155901.803000", "155901.807000", "155901.811000", "155901.814000", "155901.817000", "155901.821000", "155901.824000", "155901.828000", "155901.831000", "155901.834000", "155901.838000", "155901.841000", "155901.845000", "155901.848000", "155901.851000", "155901.855000", "155901.858000", "155901.862000", "155901.865000", "155901.868000", "155901.872000", "155901.875000", "155901.879000", "155901.882000", "155901.886000", "155901.889000", "155901.893000", "155912.933000", "155912.937000", "155912.940000", "155912.943000", "155912.947000", "155912.950000", "155912.954000", "155912.957000"],
      "InstanceCreationTime": ["155541.852000", "155541.856000", "155541.860000", "155541.863000", "155541.866000", "155541.870000", "155541.873000", "155541.877000", "155541.880000", "155541.883000", "155541.887000", "155541.890000", "155541.893000", "155541.913000", "155541.917000", "155541.920000", "155541.924000", "155541.927000", "155541.930000", "155601.802000", "155601.806000", "155601.809000", "155601.813000", "155601.816000", "155601.820000", "155601.823000", "155601.826000", "155601.830000", "155601.833000", "155601.837000", "155601.840000", "155601.843000", "155601.847000", "155601.850000", "155601.854000", "155601.857000", "155601.860000", "155601.864000", "155601.867000", "155621.803000", "155621.807000", "155621.810000", "155621.814000", "155621.817000", "155621.820000", "155621.824000", "155621.827000", "155621.831000", "155621.834000", "155621.844000", "155621.847000", "155621.850000", "155621.854000", "155621.857000", "155621.861000", "155621.864000", "155621.867000", "155621.871000", "155621.874000", "155641.803000", "155641.807000", "155641.811000", "155641.816000", "155641.820000", "155641.824000", "155641.831000", "155641.837000", "155641.841000", "155641.845000", "155641.848000", "155641.852000", "155641.855000", "155641.859000", "155641.862000", "155641.866000", "155641.869000", "155641.872000", "155641.876000", "155641.879000", "155701.802000", "155701.806000", "155701.809000", "155701.813000", "155701.816000", "155701.820000", "155701.823000", "155701.826000", "155701.830000", "155701.833000", "155701.837000", "155701.840000", "155701.843000", "155701.847000", "155701.850000", "155701.854000", "155701.857000", "155701.861000", "155701.864000", "155701.867000", "155701.871000", "155741.802000", "155741.806000", "155741.810000", "155741.813000", "155741.817000", "155741.820000", "155741.824000", "155741.827000", "155741.830000", "155741.834000", "155741.837000", "155741.841000", "155741.844000", "155741.848000", "155741.851000", "155741.855000", "155741.858000", "155741.862000", "155741.883000", "155741.886000", "155741.890000", "155741.893000", "155741.897000", "155741.900000", "155741.904000", "155741.907000", "155741.911000", "155741.914000", "155821.802000", "155821.806000", "155821.810000", "155821.813000", "155821.816000", "155821.820000", "155821.824000", "155821.827000", "155821.831000", "155821.834000", "155821.838000", "155821.841000", "155821.844000", "155821.848000", "155821.851000", "155821.855000", "155821.858000", "155821.862000", "155821.865000", "155821.868000", "155821.872000", "155821.875000", "155821.879000", "155821.882000", "155821.885000", "155821.889000", "155821.892000", "155901.803000", "155901.807000", "155901.811000", "155901.814000", "155901.817000", "155901.821000", "155901.824000", "155901.828000", "155901.831000", "155901.834000", "155901.838000", "155901.841000", "155901.845000", "155901.848000", "155901.851000", "155901.855000", "155901.858000", "155901.862000", "155901.865000", "155901.868000", "155901.872000", "155901.875000", "155901.879000", "155901.882000", "155901.886000", "155901.889000", "155901.893000", "155912.933000", "155912.937000", "155912.940000", "155912.943000", "155912.947000", "155912.950000", "155912.954000", "155912.957000"],
      "InstanceNumber": [1, 2, 3, 4, 5, 6, 7, 8, 9, 10, 11, 12, 13, 14, 15, 16, 17, 18, 19, 20, 21, 22, 23, 24, 25, 26, 27, 28, 29, 30, 31, 32, 33, 34, 35, 36, 37, 38, 39, 40, 41, 42, 43, 44, 45, 46, 47, 48, 49, 50, 51, 52, 53, 54, 55, 56, 57, 58, 59, 60, 61, 62, 63, 64, 65, 66, 67, 68, 69, 70, 71, 72, 73, 74, 75, 76, 77, 78, 79, 80, 81, 82, 83, 84, 85, 86, 87, 88, 89, 90, 91, 92, 93, 94, 95, 96, 97, 98, 99, 100, 101, 102, 103, 104, 105, 106, 107, 108, 109, 110, 111, 112, 113, 114, 115, 116, 117, 118, 119, 120, 121, 122, 123, 124, 125, 126, 127, 128, 129, 130, 131, 132, 133, 134, 135, 136, 137, 138, 139, 140, 141, 142, 143, 144, 145, 146, 147, 148, 149, 150, 151, 152, 153, 154, 155, 156, 157, 158, 159, 160, 161, 162, 163, 164, 165, 166, 167, 168, 169, 170, 171, 172, 173, 174, 175, 176, 177, 178, 179, 180, 181, 182, 183, 184, 185, 186, 187, 188, 189, 190],
      "LargestImagePixelValue": [43090, 41658, 40418, 40543, 40559, 40757, 41645, 42258, 40881, 40392, 40499, 40143, 40219, 40031, 40181, 39919, 40007, 40048, 40087, 39829, 40459, 39840, 39891, 39947, 40146, 40410, 39560, 40146, 40101, 40204, 40213, 40565, 40115, 40294, 41479, 40467, 40240, 39398, 39821, 39405, 39322, 40475, 41473, 40886, 40273, 40210, 39774, 39551, 39803, 39880, 39795, 39293, 39660, 39975, 39611, 39726, 39884, 40540, 39677, 40621, 40347, 39651, 39662, 40061, 40234, 39663, 39505, 39814, 39906, 39818, 40952, 40676, 40169, 41068, 40027, 39571, 39697, 40148, 39814, 39730, 39762, 40579, 40101, 39799, 40556, 40068, 40162, 42269, 41679, 41089, 40555, 40396, 40260, 41347, 41000, 40565, 41123, 40687, 41846, 41601, 40442, 40543, 40729, 40066, 40415, 42340, 42216, 41181, 40828, 40642, 40143, 40814, 40804, 40798, 41156, 41957, 42094, 40890, 42237, 40848, 41120, 40273, 40299, 41071, 40199, 40620, 40880, 40756, 41488, 41595, 41676, 41055, 42540, 42328, 41622, 40727, 40123, 40609, 40505, 40918, 41511, 41014, 40699, 41985, 41882, 41791, 41400, 40539, 40938, 41822, 41026, 41440, 41772, 41038, 40562, 40909, 41112, 41259, 42343, 41910, 40751, 42157, 41571, 41115, 40955, 40581, 41153, 41578, 41175, 40686, 42160, 41463, 40725, 41724, 42668, 42005, 41526, 40512, 40627, 40402, 40863, 42409, 42231, 42852, 41226, 42247, 42661, 41683, 41208, 40291],
      "WindowCenter": [10345.0, 10313.0, 10282.0, 10282.0, 10288.0, 10327.0, 10353.0, 10339.0, 10304.0, 10290.0, 10280.0, 10271.0, 10264.0, 10250.0, 10248.0, 10249.0, 10259.0, 10268.0, 10268.0, 10277.0, 10310.0, 10316.0, 10301.0, 10285.0, 10273.0, 10278.0, 10290.0, 10315.0, 10302.0, 10284.0, 10269.0, 10271.0, 10286.0, 10331.0, 10350.0, 10309.0, 10273.0, 10252.0, 10262.0, 10266.0, 10257.0, 10262.0, 10273.0, 10269.0, 10257.0, 10239.0, 10225.0, 10238.0, 10249.0, 10249.0, 10235.0, 10236.0, 10277.0, 10299.0, 10279.0, 10270.0, 10274.0, 10287.0, 10284.0, 10295.0, 10288.0, 10277.0, 10275.0, 10282.0, 10281.0, 10255.0, 10229.0, 10224.0, 10244.0, 10279.0, 10323.0, 10300.0, 10267.0, 10246.0, 10230.0, 10230.0, 10247.0, 10256.0, 10228.0, 10225.0, 10233.0, 10259.0, 10256.0, 10250.0, 10255.0, 10273.0, 10295.0, 10330.0, 10317.0, 10306.0, 10280.0, 10255.0, 10259.0, 10260.0, 10254.0, 10238.0, 10233.0, 10244.0, 10288.0, 10298.0, 10275.0, 10257.0, 10245.0, 10269.0, 10324.0, 10346.0, 10316.0, 10277.0, 10252.0, 10245.0, 10238.0, 10243.0, 10256.0, 10268.0, 10268.0, 10256.0, 10247.0, 10257.0, 10293.0, 10294.0, 10285.0, 10262.0, 10270.0, 10293.0, 10306.0, 10300.0, 10281.0, 10264.0, 10265.0, 10263.0, 10292.0, 10318.0, 10341.0, 10308.0, 10273.0, 10243.0, 10236.0, 10243.0, 10230.0, 10225.0, 10223.0, 10217.0, 10234.0, 10262.0, 10263.0, 10248.0, 10235.0, 10244.0, 10288.0, 10299.0, 10264.0, 10248.0, 10251.0, 10257.0, 10260.0, 10253.0, 10241.0, 10249.0, 10275.0, 10287.0, 10283.0, 10287.0, 10280.0, 10267.0, 10265.0, 10266.0, 10295.0, 10298.0, 10285.0, 10270.0, 10292.0, 10294.0, 10285.0, 10301.0, 10299.0, 10269.0, 10253.0, 10232.0, 10232.0, 10232.0, 10239.0, 10253.0, 10264.0, 10300.0, 10304.0, 10318.0, 10303.0, 10268.0, 10242.0, 10227.0],
      "WindowWidth": [22380.0, 22267.0, 22179.0, 22160.0, 22162.0, 22252.0, 22313.0, 22273.0, 22195.0, 22160.0, 22133.0, 22112.0, 22094.0, 22064.0, 22060.0, 22063.0, 22090.0, 22113.0, 22116.0, 22136.0, 22206.0, 22223.0, 22187.0, 22146.0, 22117.0, 22124.0, 22157.0, 22215.0, 22186.0, 22143.0, 22114.0, 22120.0, 22155.0, 22255.0, 22299.0, 22207.0, 22124.0, 22079.0, 22097.0, 22107.0, 22087.0, 22097.0, 22119.0, 22111.0, 22089.0, 22050.0, 22015.0, 22041.0, 22068.0, 22065.0, 22036.0, 22038.0, 22126.0, 22181.0, 22139.0, 22119.0, 22125.0, 22153.0, 22147.0, 22168.0, 22157.0, 22134.0, 22127.0, 22139.0, 22137.0, 22083.0, 22025.0, 22013.0, 22055.0, 22138.0, 22234.0, 22186.0, 22109.0, 22058.0, 22022.0, 22025.0, 22063.0, 22085.0, 22024.0, 22014.0, 22031.0, 22086.0, 22086.0, 22072.0, 22085.0, 22124.0, 22175.0, 22249.0, 22219.0, 22197.0, 22135.0, 22079.0, 22084.0, 22090.0, 22077.0, 22040.0, 22026.0, 22054.0, 22150.0, 22173.0, 22127.0, 22084.0, 22053.0, 22111.0, 22237.0, 22285.0, 22215.0, 22127.0, 22067.0, 22052.0, 22039.0, 22049.0, 22076.0, 22104.0, 22103.0, 22074.0, 22055.0, 22081.0, 22159.0, 22167.0, 22144.0, 22095.0, 22114.0, 22165.0, 22194.0, 22179.0, 22135.0, 22099.0, 22097.0, 22097.0, 22162.0, 22221.0, 22273.0, 22198.0, 22116.0, 22047.0, 22031.0, 22047.0, 22018.0, 22005.0, 21996.0, 21985.0, 22027.0, 22087.0, 22088.0, 22052.0, 22024.0, 22046.0, 22146.0, 22175.0, 22097.0, 22055.0, 22056.0, 22076.0, 22084.0, 22067.0, 22039.0, 22058.0, 22113.0, 22143.0, 22138.0, 22143.0, 22127.0, 22099.0, 22094.0, 22097.0, 22160.0, 22167.0, 22141.0, 22110.0, 22154.0, 22159.0, 22147.0, 22180.0, 22173.0, 22104.0, 22063.0, 22019.0, 22019.0, 22019.0, 22033.0, 22063.0, 22089.0, 22165.0, 22186.0, 22215.0, 22184.0, 22104.0, 22042.0, 22012.0]
    },
    "slices": {}
  }
}