{
  "AcquisitionMatrixPE": 104,
  "AcquisitionNumber": 1,
  "AcquisitionTime": "15:41:21.347500",
  "BandwidthPerPixelPhaseEncode": 17.17,
  "BaseResolution": 104,
  "BodyPartExamined": "BRAIN",
  "CoilString": "HC1-7;NC1_2",
  "ConsistencyInfo": "N4_VE11C_LATEST_20160120",
  "ConversionSoftware": "dcm2niix",
  "ConversionSoftwareVersion": "v1.0.20190902",
  "DerivedVendorReportedEchoSpacing": 0.000560011,
  "DeviceSerialNumber": "167006",
  "DwellTime": 2.1e-06,
  "EchoTime": 0.037,
  "EchoTrainLength": 104,
  "EffectiveEchoSpacing": 0.000560011,
  "FlipAngle": 52,
  "ImageComments": "Unaliased_MB4_PE3_LB",
  "ImageOrientationPatientDICOM": [0.999167, -0.0407418, -0.00223812, 0.0380349, 0.949836, -0.310427],
  "ImageType": [
    "ORIGINAL",
    "PRIMARY",
    "P",
    "MB",
    "ND",
    "MOSAIC"
],
  "ImagingFrequency": 123.259,
  "InPlanePhaseEncodingDirectionDICOM": "COL",
  "InstitutionAddress": "Chemin_Queen-Mary_4565_Montreal_District_CA_H3W_1W5",
  "InstitutionName": "IUGM",
  "InstitutionalDepartmentName": "Department",
  "MRAcquisitionType": "2D",
  "MagneticFieldStrength": 3,
  "Manufacturer": "Siemens",
  "ManufacturersModelName": "Prisma_fit",
  "Modality": "MR",
  "MultibandAccelerationFactor": 4,
  "PartialFourier": 1,
  "PatientPosition": "HFS",
  "PercentPhaseFOV": 100,
  "PhaseEncodingDirection": "j",
  "PhaseEncodingSteps": 104,
  "PhaseResolution": 1,
  "PixelBandwidth": 2290,
  "ProcedureStepDescription": "memory_things",
  "ProtocolName": "func_task-things_run-4",
  "PulseSequenceDetails": "%CustomerSeq%_cmrr_mbep2d_bold",
  "ReceiveCoilActiveElements": "HC1-7;NC1,2",
  "ReceiveCoilName": "HeadNeck_64",
  "ReconMatrixPE": 104,
  "RepetitionTime": 1.49,
  "SAR": 0.058174,
  "ScanOptions": "FS",
  "ScanningSequence": "EP",
  "SequenceName": "epfid2d1_104",
  "SequenceVariant": "SK_SS",
  "SeriesDescription": "func_task-things_run-4",
  "SeriesNumber": 20,
  "ShimSetting": [622, -7245, -8818, 584, -26, -179, -30, -25],
  "SliceThickness": 2,
  "SliceTiming": [0, 0.785, 0.1, 0.8825, 0.1975, 0.98, 0.295, 1.08, 0.3925, 1.1775, 0.49, 1.275, 0.59, 1.3725, 0.6875, 0, 0.785, 0.1, 0.8825, 0.1975, 0.98, 0.295, 1.08, 0.3925, 1.1775, 0.49, 1.275, 0.59, 1.3725, 0.6875, 0, 0.785, 0.1, 0.8825, 0.1975, 0.98, 0.295, 1.08, 0.3925, 1.1775, 0.49, 1.275, 0.59, 1.3725, 0.6875, 0, 0.785, 0.1, 0.8825, 0.1975, 0.98, 0.295, 1.08, 0.3925, 1.1775, 0.49, 1.275, 0.59, 1.3725, 0.6875],
  "SoftwareVersions": "syngo_MR_E11",
  "SpacingBetweenSlices": 2,
  "StationName": "MRC35049",
  "TaskName": "things",
  "TotalReadoutTime": 0.0576811,
  "TxRefAmp": 271.444,
  "WipMemBlock": "82057f20-db21-41d4-8780-2945224b0b80||Sequence: R016 ve11c/master r/e634e98; Dec 19 2017 11:00:25 by eja",
  "dcmmeta_affine": [
    [-1.9983344078063965, 0.07606977969408035, -0.02954634465277195, 103.01985931396484],
    [0.08148350566625595, 1.899672269821167, -0.6201659440994263, -70.93247985839844],
    [-0.004476241301745176, 0.6208532452583313, 1.9011894464492798, -60.32374572753906],
    [0.0, 0.0, 0.0, 1.0]
],
  "dcmmeta_reorient_transform": [
    [0.0, -1.0, 0.0, 103.0],
    [1.0, 0.0, 0.0, 0.0],
    [0.0, 0.0, 1.0, 0.0],
    [0.0, 0.0, 0.0, 1.0]
],
  "dcmmeta_shape": [104, 104, 60, 190],
  "dcmmeta_slice_dim": 2,
  "dcmmeta_version": 0.6,
  "global": {
    "const": {
      "AcquisitionMatrix": [104, 0, 0, 104],
      "AngioFlag": "N",
      "BitsAllocated": 16,
      "BitsStored": 16,
      "BodyPartExamined": "BRAIN",
      "Columns": 832,
      "EchoNumbers": 1,
      "EchoTime": 37.0,
      "EchoTrainLength": 104,
      "FlipAngle": 52.0,
      "HighBit": 15,
      "ImageOrientationPatient": [0.99916720342318, -0.0407417527778, -0.0022381206631, 0.03803489166417, 0.94983612440229, -0.3104266157992],
      "ImagePositionPatient": [-865.9381724992, -786.55446351117, 231.2440649023],
      "ImageType": [
        "ORIGINAL",
        "PRIMARY",
        "P",
        "MB",
        "ND",
        "MOSAIC"
],
      "ImagedNucleus": "1H",
      "ImagingFrequency": 123.258937,
      "InPlanePhaseEncodingDirection": "COL",
      "LargestImagePixelValue": 4095,
      "MRAcquisitionType": "2D",
      "MagneticFieldStrength": 3.0,
      "Manufacturer": "SIEMENS",
      "ManufacturerModelName": "Prisma_fit",
      "Modality": "MR",
      "NumberOfAverages": 1.0,
      "NumberOfPhaseEncodingSteps": 104,
      "PercentPhaseFieldOfView": 100.0,
      "PercentSampling": 100.0,
      "PerformedProcedureStepStartTime": "144610.001000",
      "PhotometricInterpretation": "MONOCHROME2",
      "PixelBandwidth": 2290.0,
      "PixelRepresentation": 0,
      "PixelSpacing": [2.0, 2.0],
      "ProtocolName": "func_task-things_run-4",
      "RepetitionTime": 1490.0,
      "RescaleIntercept": -4096.0,
      "RescaleSlope": 2.0,
      "RescaleType": "US",
      "Rows": 832,
      "SAR": 0.0581740403318,
      "SamplesPerPixel": 1,
      "ScanOptions": "FS",
      "ScanningSequence": "EP",
      "SequenceName": "epfid2d1_104",
      "SequenceVariant": [
        "SK",
        "SS"
],
      "SeriesDescription": "func_task-things_run-4",
      "SeriesNumber": 20,
      "SeriesTime": "154254.527000",
      "SliceLocation": -36.870410148103,
      "SliceThickness": 2.0,
      "SmallestImagePixelValue": 0,
      "SoftwareVersions": "syngo MR E11",
      "SpacingBetweenSlices": 2.0000000445224,
      "SpecificCharacterSet": "ISO_IR 100",
      "StudyID": "1",
      "StudyTime": "144609.882000",
      "TransmitCoilName": "Body",
      "VariableFlipAngleFlag": "N",
      "WindowCenterWidthExplanation": "Algo1",
      "dBdt": 0.0},
    "slices": {}
  },
  "time": {
    "samples": {
      "AcquisitionNumber": [1, 2, 3, 4, 5, 6, 7, 8, 9, 10, 11, 12, 13, 14, 15, 16, 17, 18, 19, 20, 21, 22, 23, 24, 25, 26, 27, 28, 29, 30, 31, 32, 33, 34, 35, 36, 37, 38, 39, 40, 41, 42, 43, 44, 45, 46, 47, 48, 49, 50, 51, 52, 53, 54, 55, 56, 57, 58, 59, 60, 61, 62, 63, 64, 65, 66, 67, 68, 69, 70, 71, 72, 73, 74, 75, 76, 77, 78, 79, 80, 81, 82, 83, 84, 85, 86, 87, 88, 89, 90, 91, 92, 93, 94, 95, 96, 97, 98, 99, 100, 101, 102, 103, 104, 105, 106, 107, 108, 109, 110, 111, 112, 113, 114, 115, 116, 117, 118, 119, 120, 121, 122, 123, 124, 125, 126, 127, 128, 129, 130, 131, 132, 133, 134, 135, 136, 137, 138, 139, 140, 141, 142, 143, 144, 145, 146, 147, 148, 149, 150, 151, 152, 153, 154, 155, 156, 157, 158, 159, 160, 161, 162, 163, 164, 165, 166, 167, 168, 169, 170, 171, 172, 173, 174, 175, 176, 177, 178, 179, 180, 181, 182, 183, 184, 185, 186, 187, 188, 189, 190],
      "AcquisitionTime": ["154121.347500", "154122.837500", "154124.327500", "154125.817500", "154127.307500", "154128.797500", "154130.287500", "154131.777500", "154133.267500", "154134.757500", "154136.247500", "154137.737500", "154139.227500", "154140.717500", "154142.207500", "154143.697500", "154145.187500", "154146.677500", "154148.167500", "154149.657500", "154151.147500", "154152.637500", "154154.127500", "154155.617500", "154157.107500", "154158.597500", "154200.087500", "154201.577500", "154203.067500", "154204.557500", "154206.047500", "154207.537500", "154209.027500", "154210.517500", "154212.007500", "154213.497500", "154214.987500", "154216.477500", "154217.967500", "154219.457500", "154220.947500", "154222.437500", "154223.927500", "154225.417500", "154226.907500", "154228.397500", "154229.887500", "154231.377500", "154232.867500", "154234.357500", "154235.847500", "154237.337500", "154238.827500", "154240.317500", "154241.807500", "154243.297500", "154244.787500", "154246.277500", "154247.767500", "154249.257500", "154250.747500", "154252.237500", "154253.727500", "154255.217500", "154256.707500", "154258.197500", "154259.687500", "154301.177500", "154302.667500", "154304.157500", "154305.647500", "154307.137500", "154308.627500", "154310.117500", "154311.607500", "154313.097500", "154314.587500", "154316.077500", "154317.567500", "154319.057500", "154320.547500", "154322.037500", "154323.527500", "154325.017500", "154326.507500", "154327.997500", "154329.487500", "154330.977500", "154332.467500", "154333.957500", "154335.447500", "154336.937500", "154338.427500", "154339.917500", "154341.407500", "154342.897500", "154344.387500", "154345.877500", "154347.367500", "154348.857500", "154350.347500", "154351.837500", "154353.327500", "154354.817500", "154356.307500", "154357.797500", "154359.287500", "154400.777500", "154402.267500", "154403.757500", "154405.247500", "154406.737500", "154408.227500", "154409.717500", "154411.207500", "154412.697500", "154414.187500", "154415.677500", "154417.167500", "154418.657500", "154420.147500", "154421.637500", "154423.127500", "154424.617500", "154426.107500", "154427.597500", "154429.087500", "154430.577500", "154432.067500", "154433.557500", "154435.047500", "154436.537500", "154438.027500", "154439.517500", "154441.007500", "154442.497500", "154443.987500", "154445.477500", "154446.967500", "154448.457500", "154449.947500", "154451.437500", "154452.927500", "154454.417500", "154455.907500", "154457.397500", "154458.887500", "154500.377500", "154501.867500", "154503.357500", "154504.847500", "154506.337500", "154507.827500", "154509.317500", "154510.807500", "154512.297500", "154513.787500", "154515.277500", "154516.767500", "154518.257500", "154519.747500", "154521.237500", "154522.727500", "154524.217500", "154525.707500", "154527.197500", "154528.687500", "154530.177500", "154531.667500", "154533.157500", "154534.647500", "154536.137500", "154537.627500", "154539.117500", "154540.607500", "154542.097500", "154543.587500", "154545.077500", "154546.567500", "154548.057500", "154549.547500", "154551.037500", "154552.527500", "154554.017500", "154555.507500", "154556.997500", "154558.487500", "154559.977500", "154601.467500", "154602.957500"],
      "ContentTime": ["154254.529000", "154254.532000", "154254.534000", "154254.537000", "154254.539000", "154254.552000", "154254.554000", "154254.557000", "154254.560000", "154254.562000", "154254.565000", "154254.567000", "154254.570000", "154254.573000", "154254.575000", "154254.578000", "154254.580000", "154254.583000", "154254.585000", "154254.588000", "154254.590000", "154254.593000", "154254.596000", "154254.598000", "154254.601000", "154254.603000", "154254.606000", "154254.608000", "154254.611000", "154254.613000", "154254.616000", "154254.619000", "154254.621000", "154254.624000", "154254.626000", "154254.629000", "154314.430000", "154314.432000", "154314.435000", "154314.438000", "154314.440000", "154314.443000", "154314.446000", "154314.448000", "154314.451000", "154314.453000", "154314.456000", "154314.458000", "154314.461000", "154314.463000", "154314.466000", "154314.469000", "154314.471000", "154314.474000", "154314.476000", "154314.479000", "154334.440000", "154334.444000", "154334.447000", "154334.449000", "154334.452000", "154334.454000", "154334.457000", "154334.459000", "154334.462000", "154334.464000", "154334.467000", "154334.470000", "154334.472000", "154334.475000", "154334.477000", "154334.480000", "154334.482000", "154334.485000", "154334.487000", "154334.490000", "154334.493000", "154354.410000", "154354.413000", "154354.416000", "154354.418000", "154354.421000", "154354.423000", "154354.426000", "154354.429000", "154354.431000", "154354.434000", "154354.436000", "154354.439000", "154354.441000", "154354.444000", "154354.446000", "154354.449000", "154354.451000", "154354.454000", "154354.457000", "154354.459000", "154434.459000", "154434.462000", "154434.464000", "154434.467000", "154434.469000", "154434.472000", "154434.474000", "154434.478000", "154434.481000", "154434.483000", "154434.486000", "154434.488000", "154434.491000", "154434.493000", "154434.496000", "154434.498000", "154434.501000", "154434.504000", "154434.506000", "154434.509000", "154434.511000", "154434.514000", "154434.516000", "154434.519000", "154434.521000", "154434.524000", "154434.526000", "154434.529000", "154434.532000", "154434.534000", "154434.537000", "154454.388000", "154454.391000", "154454.393000", "154454.396000", "154454.398000", "154454.401000", "154454.404000", "154454.406000", "154454.409000", "154454.411000", "154454.414000", "154454.416000", "154454.419000", "154454.421000", "154534.458000", "154534.461000", "154534.464000", "154534.466000", "154534.469000", "154534.471000", "154534.474000", "154534.476000", "154534.479000", "154534.482000", "154534.484000", "154534.487000", "154534.489000", "154534.494000", "154534.496000", "154534.499000", "154534.501000", "154534.504000", "154534.506000", "154534.509000", "154534.512000", "154534.514000", "154534.517000", "154534.519000", "154534.522000", "154534.524000", "154534.527000", "154605.693000", "154605.696000", "154605.699000", "154605.702000", "154605.704000", "154605.707000", "154605.710000", "154605.712000", "154605.715000", "154605.718000", "154605.720000", "154605.723000", "154605.726000", "154605.729000", "154605.731000", "154605.734000", "154605.737000", "154605.740000", "154605.743000", "154605.746000", "154605.748000"],
      "InstanceCreationTime": ["154254.529000", "154254.532000", "154254.534000", "154254.537000", "154254.539000", "154254.552000", "154254.554000", "154254.557000", "154254.560000", "154254.562000", "154254.565000", "154254.567000", "154254.570000", "154254.573000", "154254.575000", "154254.578000", "154254.580000", "154254.583000", "154254.585000", "154254.588000", "154254.590000", "154254.593000", "154254.596000", "154254.598000", "154254.601000", "154254.603000", "154254.606000", "154254.608000", "154254.611000", "154254.613000", "154254.616000", "154254.619000", "154254.621000", "154254.624000", "154254.626000", "154254.629000", "154314.430000", "154314.432000", "154314.435000", "154314.438000", "154314.440000", "154314.443000", "154314.446000", "154314.448000", "154314.451000", "154314.453000", "154314.456000", "154314.458000", "154314.461000", "154314.463000", "154314.466000", "154314.469000", "154314.471000", "154314.474000", "154314.476000", "154314.479000", "154334.440000", "154334.444000", "154334.447000", "154334.449000", "154334.452000", "154334.454000", "154334.457000", "154334.459000", "154334.462000", "154334.464000", "154334.467000", "154334.470000", "154334.472000", "154334.475000", "154334.477000", "154334.480000", "154334.482000", "154334.485000", "154334.487000", "154334.490000", "154334.493000", "154354.410000", "154354.413000", "154354.416000", "154354.418000", "154354.421000", "154354.423000", "154354.426000", "154354.429000", "154354.431000", "154354.434000", "154354.436000", "154354.439000", "154354.441000", "154354.444000", "154354.446000", "154354.449000", "154354.451000", "154354.454000", "154354.457000", "154354.459000", "154434.459000", "154434.462000", "154434.464000", "154434.467000", "154434.469000", "154434.472000", "154434.474000", "154434.478000", "154434.481000", "154434.483000", "154434.486000", "154434.488000", "154434.491000", "154434.493000", "154434.496000", "154434.498000", "154434.501000", "154434.504000", "154434.506000", "154434.509000", "154434.511000", "154434.514000", "154434.516000", "154434.519000", "154434.521000", "154434.524000", "154434.526000", "154434.529000", "154434.532000", "154434.534000", "154434.537000", "154454.388000", "154454.391000", "154454.393000", "154454.396000", "154454.398000", "154454.401000", "154454.404000", "154454.406000", "154454.409000", "154454.411000", "154454.414000", "154454.416000", "154454.419000", "154454.421000", "154534.458000", "154534.461000", "154534.464000", "154534.466000", "154534.469000", "154534.471000", "154534.474000", "154534.476000", "154534.479000", "154534.482000", "154534.484000", "154534.487000", "154534.489000", "154534.494000", "154534.496000", "154534.499000", "154534.501000", "154534.504000", "154534.506000", "154534.509000", "154534.512000", "154534.514000", "154534.517000", "154534.519000", "154534.522000", "154534.524000", "154534.527000", "154605.693000", "154605.696000", "154605.699000", "154605.702000", "154605.704000", "154605.707000", "154605.710000", "154605.712000", "154605.715000", "154605.718000", "154605.720000", "154605.723000", "154605.726000", "154605.729000", "154605.731000", "154605.734000", "154605.737000", "154605.740000", "154605.743000", "154605.746000", "154605.748000"],
      "InstanceNumber": [1, 2, 3, 4, 5, 6, 7, 8, 9, 10, 11, 12, 13, 14, 15, 16, 17, 18, 19, 20, 21, 22, 23, 24, 25, 26, 27, 28, 29, 30, 31, 32, 33, 34, 35, 36, 37, 38, 39, 40, 41, 42, 43, 44, 45, 46, 47, 48, 49, 50, 51, 52, 53, 54, 55, 56, 57, 58, 59, 60, 61, 62, 63, 64, 65, 66, 67, 68, 69, 70, 71, 72, 73, 74, 75, 76, 77, 78, 79, 80, 81, 82, 83, 84, 85, 86, 87, 88, 89, 90, 91, 92, 93, 94, 95, 96, 97, 98, 99, 100, 101, 102, 103, 104, 105, 106, 107, 108, 109, 110, 111, 112, 113, 114, 115, 116, 117, 118, 119, 120, 121, 122, 123, 124, 125, 126, 127, 128, 129, 130, 131, 132, 133, 134, 135, 136, 137, 138, 139, 140, 141, 142, 143, 144, 145, 146, 147, 148, 149, 150, 151, 152, 153, 154, 155, 156, 157, 158, 159, 160, 161, 162, 163, 164, 165, 166, 167, 168, 169, 170, 171, 172, 173, 174, 175, 176, 177, 178, 179, 180, 181, 182, 183, 184, 185, 186, 187, 188, 189, 190],
      "WindowCenter": [4786.0, 4784.0, 4782.0, 4786.0, 4786.0, 4800.0, 4788.0, 4782.0, 4788.0, 4786.0, 4788.0, 4784.0, 4790.0, 4788.0, 4786.0, 4788.0, 4786.0, 4784.0, 4786.0, 4786.0, 4786.0, 4784.0, 4784.0, 4786.0, 4784.0, 4790.0, 4794.0, 4788.0, 4790.0, 4788.0, 4788.0, 4788.0, 4786.0, 4784.0, 4786.0, 4788.0, 4792.0, 4786.0, 4812.0, 4784.0, 4794.0, 4832.0, 4790.0, 4786.0, 4804.0, 4808.0, 4786.0, 4786.0, 4794.0, 4794.0, 4792.0, 4794.0, 4792.0, 4788.0, 4790.0, 4780.0, 4784.0, 4788.0, 4786.0, 4784.0, 4788.0, 4792.0, 4812.0, 4810.0, 4786.0, 4788.0, 4788.0, 4790.0, 4786.0, 4786.0, 4782.0, 4786.0, 4782.0, 4786.0, 4816.0, 4794.0, 4788.0, 4808.0, 4786.0, 4788.0, 4784.0, 4786.0, 4784.0, 4784.0, 4786.0, 4788.0, 4790.0, 4792.0, 4818.0, 4814.0, 4782.0, 4786.0, 4784.0, 4784.0, 4784.0, 4784.0, 4790.0, 4792.0, 4788.0, 4788.0, 4786.0, 4784.0, 4784.0, 4784.0, 4786.0, 4788.0, 4792.0, 4784.0, 4790.0, 4788.0, 4782.0, 4788.0, 4788.0, 4784.0, 4788.0, 4788.0, 4786.0, 4786.0, 4794.0, 4790.0, 4784.0, 4788.0, 4784.0, 4784.0, 4786.0, 4786.0, 4790.0, 4784.0, 4784.0, 4790.0, 4790.0, 4788.0, 4792.0, 4786.0, 4786.0, 4784.0, 4784.0, 4786.0, 4784.0, 4788.0, 4792.0, 4784.0, 4790.0, 4786.0, 4788.0, 4820.0, 4784.0, 4806.0, 4782.0, 4806.0, 4786.0, 4788.0, 4792.0, 4792.0, 4794.0, 4814.0, 4784.0, 4790.0, 4784.0, 4808.0, 4784.0, 4784.0, 4788.0, 4790.0, 4810.0, 4788.0, 4790.0, 4790.0, 4786.0, 4786.0, 4782.0, 4808.0, 4812.0, 4820.0, 4790.0, 4788.0, 4786.0, 4784.0, 4788.0, 4822.0, 4798.0, 4782.0, 4808.0, 4806.0, 4780.0, 4782.0, 4790.0, 4814.0, 4818.0, 4816.0],
      "WindowWidth": [18570.0, 18566.0, 18564.0, 18568.0, 18554.0, 18554.0, 18556.0, 18568.0, 18580.0, 18574.0, 18580.0, 18562.0, 18550.0, 18560.0, 18560.0, 18550.0, 18560.0, 18570.0, 18562.0, 18564.0, 18564.0, 18562.0, 18566.0, 18570.0, 18566.0, 18562.0, 18558.0, 18560.0, 18566.0, 18568.0, 18562.0, 18564.0, 18566.0, 18570.0, 18572.0, 18562.0, 18550.0, 18560.0, 18602.0, 18554.0, 18546.0, 18588.0, 18562.0, 18576.0, 18622.0, 18610.0, 18580.0, 18566.0, 18556.0, 18562.0, 18560.0, 18562.0, 18566.0, 18556.0, 18564.0, 18568.0, 18576.0, 18574.0, 18576.0, 18564.0, 18554.0, 18562.0, 18594.0, 18598.0, 18564.0, 18562.0, 18566.0, 18558.0, 18564.0, 18572.0, 18558.0, 18570.0, 18566.0, 18564.0, 18592.0, 18564.0, 18566.0, 18598.0, 18560.0, 18562.0, 18572.0, 18570.0, 18574.0, 18570.0, 18570.0, 18566.0, 18568.0, 18566.0, 18596.0, 18596.0, 18566.0, 18564.0, 18570.0, 18576.0, 18564.0, 18574.0, 18562.0, 18568.0, 18568.0, 18574.0, 18564.0, 18564.0, 18570.0, 18566.0, 18576.0, 18568.0, 18566.0, 18562.0, 18570.0, 18560.0, 18568.0, 18570.0, 18570.0, 18568.0, 18562.0, 18568.0, 18572.0, 18566.0, 18566.0, 18564.0, 18572.0, 18562.0, 18566.0, 18574.0, 18566.0, 18572.0, 18564.0, 18566.0, 18572.0, 18564.0, 18568.0, 18568.0, 18562.0, 18562.0, 18572.0, 18560.0, 18574.0, 18562.0, 18574.0, 18564.0, 18562.0, 18560.0, 18558.0, 18564.0, 18560.0, 18582.0, 18558.0, 18608.0, 18574.0, 18608.0, 18572.0, 18560.0, 18570.0, 18568.0, 18568.0, 18600.0, 18564.0, 18566.0, 18562.0, 18604.0, 18570.0, 18572.0, 18562.0, 18566.0, 18604.0, 18558.0, 18566.0, 18564.0, 18566.0, 18568.0, 18570.0, 18602.0, 18598.0, 18584.0, 18564.0, 18568.0, 18560.0, 18568.0, 18566.0, 18586.0, 18550.0, 18562.0, 18612.0, 18610.0, 18578.0, 18568.0, 18572.0, 18600.0, 18604.0, 18600.0]
    },
    "slices": {}
  }
}