{
  "AcquisitionMatrixPE": 104,
  "AcquisitionNumber": 1,
  "AcquisitionTime": "13:30:47.740000",
  "BandwidthPerPixelPhaseEncode": 17.17,
  "BaseResolution": 104,
  "BodyPartExamined": "BRAIN",
  "CoilString": "HC1-7;NC1_2",
  "ConsistencyInfo": "N4_VE11C_LATEST_20160120",
  "ConversionSoftware": "dcm2niix",
  "ConversionSoftwareVersion": "v1.0.20190902",
  "DerivedVendorReportedEchoSpacing": 0.000560011,
  "DeviceSerialNumber": "167006",
  "DwellTime": 2.1e-06,
  "EchoTime": 0.037,
  "EchoTrainLength": 104,
  "EffectiveEchoSpacing": 0.000560011,
  "FlipAngle": 52,
  "ImageComments": "Unaliased_MB4_PE3_LB",
  "ImageOrientationPatientDICOM": [0.999702, 0.0113886, 0.0215943, 0.000872403, 0.867296, -0.497792],
  "ImageType": [
    "ORIGINAL",
    "PRIMARY",
    "P",
    "MB",
    "ND",
    "MOSAIC"
],
  "ImagingFrequency": 123.259,
  "InPlanePhaseEncodingDirectionDICOM": "COL",
  "InstitutionAddress": "Chemin_Queen-Mary_4565_Montreal_District_CA_H3W_1W5",
  "InstitutionName": "IUGM",
  "InstitutionalDepartmentName": "Department",
  "MRAcquisitionType": "2D",
  "MagneticFieldStrength": 3,
  "Manufacturer": "Siemens",
  "ManufacturersModelName": "Prisma_fit",
  "Modality": "MR",
  "MultibandAccelerationFactor": 4,
  "PartialFourier": 1,
  "PatientPosition": "HFS",
  "PercentPhaseFOV": 100,
  "PhaseEncodingDirection": "j",
  "PhaseEncodingSteps": 104,
  "PhaseResolution": 1,
  "PixelBandwidth": 2290,
  "ProcedureStepDescription": "memory_things",
  "ProtocolName": "func_task-things_run-3",
  "PulseSequenceDetails": "%CustomerSeq%_cmrr_mbep2d_bold",
  "ReceiveCoilActiveElements": "HC1-7;NC1,2",
  "ReceiveCoilName": "HeadNeck_64",
  "ReconMatrixPE": 104,
  "RepetitionTime": 1.49,
  "SAR": 0.0484367,
  "ScanOptions": "FS",
  "ScanningSequence": "EP",
  "SequenceName": "epfid2d1_104",
  "SequenceVariant": "SK_SS",
  "SeriesDescription": "func_task-things_run-3",
  "SeriesNumber": 20,
  "ShimSetting": [621, -7177, -8866, 318, 4, -103, -22, -15],
  "SliceThickness": 2,
  "SliceTiming": [0, 0.785, 0.1, 0.8825, 0.1975, 0.98, 0.295, 1.08, 0.3925, 1.1775, 0.49, 1.275, 0.59, 1.3725, 0.6875, 0, 0.785, 0.1, 0.8825, 0.1975, 0.98, 0.295, 1.08, 0.3925, 1.1775, 0.49, 1.275, 0.59, 1.3725, 0.6875, 0, 0.785, 0.1, 0.8825, 0.1975, 0.98, 0.295, 1.08, 0.3925, 1.1775, 0.49, 1.275, 0.59, 1.3725, 0.6875, 0, 0.785, 0.1, 0.8825, 0.1975, 0.98, 0.295, 1.08, 0.3925, 1.1775, 0.49, 1.275, 0.59, 1.3725, 0.6875],
  "SoftwareVersions": "syngo_MR_E11",
  "SpacingBetweenSlices": 2,
  "StationName": "MRC35049",
  "TaskName": "things",
  "TotalReadoutTime": 0.0576811,
  "TxRefAmp": 268.305,
  "WipMemBlock": "001c7f6d-e487-427f-8f0d-bd7dca278fd7||Sequence: R016 ve11c/master r/e634e98; Dec 19 2017 11:00:25 by eja",
  "dcmmeta_affine": [
    [-1.999403953552246, 0.001744806650094688, 0.04879569262266159, 106.24337768554688],
    [-0.022777298465371132, 1.734592318534851, -0.9953244924545288, -51.68868637084961],
    [0.04318863898515701, 0.9955835342407227, 1.7340553998947144, -97.64561462402344],
    [0.0, 0.0, 0.0, 1.0]
],
  "dcmmeta_reorient_transform": [
    [0.0, -1.0, 0.0, 103.0],
    [1.0, 0.0, 0.0, 0.0],
    [0.0, 0.0, 1.0, 0.0],
    [0.0, 0.0, 0.0, 1.0]
],
  "dcmmeta_shape": [104, 104, 60, 190],
  "dcmmeta_slice_dim": 2,
  "dcmmeta_version": 0.6,
  "global": {
    "const": {
      "AcquisitionMatrix": [104, 0, 0, 104],
      "AngioFlag": "N",
      "BitsAllocated": 16,
      "BitsStored": 16,
      "BodyPartExamined": "BRAIN",
      "Columns": 832,
      "EchoNumbers": 1,
      "EchoTime": 37.0,
      "EchoTrainLength": 104,
      "FlipAngle": 52.0,
      "HighBit": 15,
      "ImageOrientationPatient": [0.99970194758818, 0.01138864944828, 0.02159431990489, 0.00087240329868, 0.8672961339751, -0.4977917786629],
      "ImagePositionPatient": [-834.8412236807, -766.65683859365, 351.57123991027],
      "ImageType": [
        "ORIGINAL",
        "PRIMARY",
        "P",
        "MB",
        "ND",
        "MOSAIC"
],
      "ImagedNucleus": "1H",
      "ImagingFrequency": 123.25897,
      "InPlanePhaseEncodingDirection": "COL",
      "LargestImagePixelValue": 4095,
      "MRAcquisitionType": "2D",
      "MagneticFieldStrength": 3.0,
      "Manufacturer": "SIEMENS",
      "ManufacturerModelName": "Prisma_fit",
      "Modality": "MR",
      "NumberOfAverages": 1.0,
      "NumberOfPhaseEncodingSteps": 104,
      "PercentPhaseFieldOfView": 100.0,
      "PercentSampling": 100.0,
      "PerformedProcedureStepStartTime": "122706.523000",
      "PhotometricInterpretation": "MONOCHROME2",
      "PixelBandwidth": 2290.0,
      "PixelRepresentation": 0,
      "PixelSpacing": [2.0, 2.0],
      "ProtocolName": "func_task-things_run-3",
      "RepetitionTime": 1490.0,
      "RescaleIntercept": -4096.0,
      "RescaleSlope": 2.0,
      "RescaleType": "US",
      "Rows": 832,
      "SAR": 0.04843666512408,
      "SamplesPerPixel": 1,
      "ScanOptions": "FS",
      "ScanningSequence": "EP",
      "SequenceName": "epfid2d1_104",
      "SequenceVariant": [
        "SK",
        "SS"
],
      "SeriesDescription": "func_task-things_run-3",
      "SeriesNumber": 20,
      "SeriesTime": "133218.031000",
      "SliceLocation": -56.345836048545,
      "SliceThickness": 2.0,
      "SmallestImagePixelValue": 0,
      "SoftwareVersions": "syngo MR E11",
      "SpacingBetweenSlices": 1.9999999788026,
      "SpecificCharacterSet": "ISO_IR 100",
      "StudyID": "1",
      "StudyTime": "122706.434000",
      "TransmitCoilName": "Body",
      "VariableFlipAngleFlag": "N",
      "WindowCenterWidthExplanation": "Algo1",
      "dBdt": 0.0},
    "slices": {}
  },
  "time": {
    "samples": {
      "AcquisitionNumber": [1, 2, 3, 4, 5, 6, 7, 8, 9, 10, 11, 12, 13, 14, 15, 16, 17, 18, 19, 20, 21, 22, 23, 24, 25, 26, 27, 28, 29, 30, 31, 32, 33, 34, 35, 36, 37, 38, 39, 40, 41, 42, 43, 44, 45, 46, 47, 48, 49, 50, 51, 52, 53, 54, 55, 56, 57, 58, 59, 60, 61, 62, 63, 64, 65, 66, 67, 68, 69, 70, 71, 72, 73, 74, 75, 76, 77, 78, 79, 80, 81, 82, 83, 84, 85, 86, 87, 88, 89, 90, 91, 92, 93, 94, 95, 96, 97, 98, 99, 100, 101, 102, 103, 104, 105, 106, 107, 108, 109, 110, 111, 112, 113, 114, 115, 116, 117, 118, 119, 120, 121, 122, 123, 124, 125, 126, 127, 128, 129, 130, 131, 132, 133, 134, 135, 136, 137, 138, 139, 140, 141, 142, 143, 144, 145, 146, 147, 148, 149, 150, 151, 152, 153, 154, 155, 156, 157, 158, 159, 160, 161, 162, 163, 164, 165, 166, 167, 168, 169, 170, 171, 172, 173, 174, 175, 176, 177, 178, 179, 180, 181, 182, 183, 184, 185, 186, 187, 188, 189, 190],
      "AcquisitionTime": ["133047.740000", "133049.230000", "133050.720000", "133052.210000", "133053.700000", "133055.190000", "133056.680000", "133058.170000", "133059.660000", "133101.150000", "133102.640000", "133104.130000", "133105.620000", "133107.110000", "133108.600000", "133110.090000", "133111.580000", "133113.070000", "133114.560000", "133116.050000", "133117.540000", "133119.030000", "133120.520000", "133122.010000", "133123.500000", "133124.990000", "133126.480000", "133127.970000", "133129.460000", "133130.950000", "133132.440000", "133133.930000", "133135.420000", "133136.910000", "133138.400000", "133139.890000", "133141.380000", "133142.870000", "133144.360000", "133145.850000", "133147.340000", "133148.830000", "133150.320000", "133151.810000", "133153.300000", "133154.790000", "133156.280000", "133157.770000", "133159.260000", "133200.750000", "133202.240000", "133203.730000", "133205.220000", "133206.710000", "133208.200000", "133209.690000", "133211.180000", "133212.670000", "133214.160000", "133215.650000", "133217.140000", "133218.630000", "133220.120000", "133221.610000", "133223.100000", "133224.590000", "133226.080000", "133227.570000", "133229.060000", "133230.550000", "133232.040000", "133233.530000", "133235.020000", "133236.510000", "133238.000000", "133239.490000", "133240.980000", "133242.470000", "133243.960000", "133245.450000", "133246.940000", "133248.430000", "133249.920000", "133251.410000", "133252.900000", "133254.390000", "133255.880000", "133257.370000", "133258.860000", "133300.350000", "133301.840000", "133303.330000", "133304.820000", "133306.310000", "133307.800000", "133309.290000", "133310.780000", "133312.270000", "133313.760000", "133315.250000", "133316.740000", "133318.230000", "133319.720000", "133321.210000", "133322.700000", "133324.190000", "133325.680000", "133327.170000", "133328.660000", "133330.150000", "133331.640000", "133333.130000", "133334.620000", "133336.110000", "133337.600000", "133339.090000", "133340.580000", "133342.070000", "133343.560000", "133345.050000", "133346.540000", "133348.030000", "133349.520000", "133351.010000", "133352.500000", "133353.990000", "133355.480000", "133356.970000", "133358.460000", "133359.950000", "133401.440000", "133402.930000", "133404.420000", "133405.910000", "133407.400000", "133408.890000", "133410.380000", "133411.870000", "133413.360000", "133414.850000", "133416.340000", "133417.830000", "133419.320000", "133420.810000", "133422.300000", "133423.790000", "133425.280000", "133426.770000", "133428.260000", "133429.750000", "133431.240000", "133432.730000", "133434.220000", "133435.710000", "133437.200000", "133438.690000", "133440.180000", "133441.670000", "133443.160000", "133444.650000", "133446.140000", "133447.630000", "133449.120000", "133450.610000", "133452.100000", "133453.590000", "133455.080000", "133456.570000", "133458.060000", "133459.550000", "133501.040000", "133502.530000", "133504.020000", "133505.510000", "133507.000000", "133508.490000", "133509.980000", "133511.470000", "133512.960000", "133514.450000", "133515.940000", "133517.430000", "133518.920000", "133520.410000", "133521.900000", "133523.390000", "133524.880000", "133526.370000", "133527.860000", "133529.350000"],
      "ContentTime": ["133218.033000", "133218.036000", "133218.038000", "133218.041000", "133218.044000", "133218.046000", "133218.049000", "133218.051000", "133218.054000", "133218.056000", "133218.059000", "133218.061000", "133218.064000", "133218.070000", "133218.072000", "133218.075000", "133218.077000", "133218.080000", "133218.082000", "133218.085000", "133218.087000", "133218.090000", "133218.092000", "133218.095000", "133218.098000", "133218.100000", "133218.103000", "133218.105000", "133218.108000", "133218.110000", "133218.113000", "133218.115000", "133218.118000", "133218.120000", "133218.123000", "133237.910000", "133237.913000", "133237.916000", "133237.918000", "133237.921000", "133237.923000", "133237.926000", "133237.929000", "133237.936000", "133237.938000", "133237.941000", "133237.943000", "133237.946000", "133237.948000", "133237.951000", "133237.954000", "133237.956000", "133237.959000", "133237.961000", "133237.964000", "133237.966000", "133258.371000", "133258.374000", "133258.377000", "133258.380000", "133258.382000", "133258.385000", "133258.387000", "133258.390000", "133258.392000", "133258.395000", "133258.398000", "133258.400000", "133258.403000", "133258.405000", "133258.408000", "133258.410000", "133258.413000", "133258.415000", "133258.418000", "133258.420000", "133317.920000", "133317.922000", "133317.925000", "133317.928000", "133317.930000", "133317.933000", "133317.935000", "133317.938000", "133317.940000", "133317.943000", "133317.945000", "133317.949000", "133317.952000", "133317.954000", "133317.957000", "133317.959000", "133317.962000", "133317.964000", "133317.967000", "133317.970000", "133357.956000", "133357.959000", "133357.962000", "133357.964000", "133357.967000", "133357.969000", "133357.972000", "133357.975000", "133357.977000", "133357.980000", "133357.982000", "133357.985000", "133357.987000", "133357.990000", "133357.992000", "133357.995000", "133357.998000", "133358.001000", "133358.004000", "133358.006000", "133358.009000", "133358.012000", "133358.014000", "133358.017000", "133358.019000", "133358.022000", "133358.024000", "133358.027000", "133358.030000", "133358.032000", "133358.035000", "133437.947000", "133437.950000", "133437.962000", "133437.965000", "133437.967000", "133437.970000", "133437.972000", "133437.975000", "133437.977000", "133437.980000", "133437.982000", "133437.985000", "133437.987000", "133437.990000", "133437.993000", "133437.995000", "133437.998000", "133438.000000", "133438.003000", "133438.005000", "133438.008000", "133438.011000", "133438.013000", "133438.016000", "133438.018000", "133438.021000", "133517.932000", "133517.935000", "133517.938000", "133517.940000", "133517.943000", "133517.946000", "133517.948000", "133517.951000", "133517.953000", "133517.956000", "133517.959000", "133517.961000", "133517.964000", "133517.966000", "133517.969000", "133517.971000", "133517.974000", "133517.977000", "133517.979000", "133517.982000", "133517.984000", "133517.987000", "133517.990000", "133517.992000", "133517.995000", "133517.997000", "133518.001000", "133531.592000", "133531.595000", "133531.597000", "133531.600000", "133531.603000", "133531.605000", "133531.608000", "133531.610000", "133531.613000", "133531.616000"],
      "InstanceCreationTime": ["133218.033000", "133218.036000", "133218.038000", "133218.041000", "133218.044000", "133218.046000", "133218.049000", "133218.051000", "133218.054000", "133218.056000", "133218.059000", "133218.061000", "133218.064000", "133218.070000", "133218.072000", "133218.075000", "133218.077000", "133218.080000", "133218.082000", "133218.085000", "133218.087000", "133218.090000", "133218.092000", "133218.095000", "133218.098000", "133218.100000", "133218.103000", "133218.105000", "133218.108000", "133218.110000", "133218.113000", "133218.115000", "133218.118000", "133218.120000", "133218.123000", "133237.910000", "133237.913000", "133237.916000", "133237.918000", "133237.921000", "133237.923000", "133237.926000", "133237.929000", "133237.936000", "133237.938000", "133237.941000", "133237.943000", "133237.946000", "133237.948000", "133237.951000", "133237.954000", "133237.956000", "133237.959000", "133237.961000", "133237.964000", "133237.966000", "133258.371000", "133258.374000", "133258.377000", "133258.380000", "133258.382000", "133258.385000", "133258.387000", "133258.390000", "133258.392000", "133258.395000", "133258.398000", "133258.400000", "133258.403000", "133258.405000", "133258.408000", "133258.410000", "133258.413000", "133258.415000", "133258.418000", "133258.420000", "133317.920000", "133317.922000", "133317.925000", "133317.928000", "133317.930000", "133317.933000", "133317.935000", "133317.938000", "133317.940000", "133317.943000", "133317.945000", "133317.949000", "133317.952000", "133317.954000", "133317.957000", "133317.959000", "133317.962000", "133317.964000", "133317.967000", "133317.970000", "133357.956000", "133357.959000", "133357.962000", "133357.964000", "133357.967000", "133357.969000", "133357.972000", "133357.975000", "133357.977000", "133357.980000", "133357.982000", "133357.985000", "133357.987000", "133357.990000", "133357.992000", "133357.995000", "133357.998000", "133358.001000", "133358.004000", "133358.006000", "133358.009000", "133358.012000", "133358.014000", "133358.017000", "133358.019000", "133358.022000", "133358.024000", "133358.027000", "133358.030000", "133358.032000", "133358.035000", "133437.947000", "133437.950000", "133437.962000", "133437.965000", "133437.967000", "133437.970000", "133437.972000", "133437.975000", "133437.977000", "133437.980000", "133437.982000", "133437.985000", "133437.987000", "133437.990000", "133437.993000", "133437.995000", "133437.998000", "133438.000000", "133438.003000", "133438.005000", "133438.008000", "133438.011000", "133438.013000", "133438.016000", "133438.018000", "133438.021000", "133517.932000", "133517.935000", "133517.938000", "133517.940000", "133517.943000", "133517.946000", "133517.948000", "133517.951000", "133517.953000", "133517.956000", "133517.959000", "133517.961000", "133517.964000", "133517.966000", "133517.969000", "133517.971000", "133517.974000", "133517.977000", "133517.979000", "133517.982000", "133517.984000", "133517.987000", "133517.990000", "133517.992000", "133517.995000", "133517.997000", "133518.001000", "133531.592000", "133531.595000", "133531.597000", "133531.600000", "133531.603000", "133531.605000", "133531.608000", "133531.610000", "133531.613000", "133531.616000"],
      "InstanceNumber": [1, 2, 3, 4, 5, 6, 7, 8, 9, 10, 11, 12, 13, 14, 15, 16, 17, 18, 19, 20, 21, 22, 23, 24, 25, 26, 27, 28, 29, 30, 31, 32, 33, 34, 35, 36, 37, 38, 39, 40, 41, 42, 43, 44, 45, 46, 47, 48, 49, 50, 51, 52, 53, 54, 55, 56, 57, 58, 59, 60, 61, 62, 63, 64, 65, 66, 67, 68, 69, 70, 71, 72, 73, 74, 75, 76, 77, 78, 79, 80, 81, 82, 83, 84, 85, 86, 87, 88, 89, 90, 91, 92, 93, 94, 95, 96, 97, 98, 99, 100, 101, 102, 103, 104, 105, 106, 107, 108, 109, 110, 111, 112, 113, 114, 115, 116, 117, 118, 119, 120, 121, 122, 123, 124, 125, 126, 127, 128, 129, 130, 131, 132, 133, 134, 135, 136, 137, 138, 139, 140, 141, 142, 143, 144, 145, 146, 147, 148, 149, 150, 151, 152, 153, 154, 155, 156, 157, 158, 159, 160, 161, 162, 163, 164, 165, 166, 167, 168, 169, 170, 171, 172, 173, 174, 175, 176, 177, 178, 179, 180, 181, 182, 183, 184, 185, 186, 187, 188, 189, 190],
      "WindowCenter": [4856.0, 4858.0, 4884.0, 4854.0, 4858.0, 4852.0, 4848.0, 4858.0, 4850.0, 4856.0, 4858.0, 4856.0, 4854.0, 4854.0, 4858.0, 4854.0, 4856.0, 4852.0, 4852.0, 4856.0, 4852.0, 4854.0, 4858.0, 4856.0, 4852.0, 4880.0, 4856.0, 4858.0, 4854.0, 4854.0, 4852.0, 4852.0, 4854.0, 4852.0, 4882.0, 4852.0, 4856.0, 4856.0, 4852.0, 4852.0, 4854.0, 4860.0, 4858.0, 4856.0, 4852.0, 4856.0, 4852.0, 4858.0, 4854.0, 4882.0, 4854.0, 4850.0, 4856.0, 4852.0, 4858.0, 4852.0, 4854.0, 4854.0, 4856.0, 4856.0, 4852.0, 4856.0, 4852.0, 4858.0, 4830.0, 4828.0, 4854.0, 4854.0, 4852.0, 4854.0, 4856.0, 4854.0, 4856.0, 4856.0, 4826.0, 4854.0, 4826.0, 4856.0, 4852.0, 4858.0, 4854.0, 4854.0, 4852.0, 4854.0, 4852.0, 4852.0, 4854.0, 4856.0, 4858.0, 4848.0, 4860.0, 4856.0, 4852.0, 4852.0, 4850.0, 4856.0, 4854.0, 4858.0, 4828.0, 4856.0, 4858.0, 4828.0, 4850.0, 4854.0, 4854.0, 4828.0, 4854.0, 4854.0, 4856.0, 4854.0, 4854.0, 4850.0, 4828.0, 4854.0, 4856.0, 4858.0, 4854.0, 4858.0, 4858.0, 4848.0, 4854.0, 4854.0, 4852.0, 4856.0, 4856.0, 4856.0, 4854.0, 4858.0, 4852.0, 4854.0, 4858.0, 4850.0, 4854.0, 4850.0, 4858.0, 4852.0, 4858.0, 4858.0, 4854.0, 4852.0, 4854.0, 4852.0, 4856.0, 4856.0, 4850.0, 4856.0, 4852.0, 4854.0, 4852.0, 4850.0, 4850.0, 4882.0, 4850.0, 4882.0, 4854.0, 4854.0, 4854.0, 4854.0, 4850.0, 4854.0, 4856.0, 4852.0, 4856.0, 4852.0, 4854.0, 4850.0, 4856.0, 4850.0, 4850.0, 4856.0, 4854.0, 4858.0, 4850.0, 4852.0, 4854.0, 4858.0, 4856.0, 4852.0, 4854.0, 4856.0, 4852.0, 4850.0, 4856.0, 4854.0, 4894.0, 4890.0, 4882.0, 4852.0, 4834.0, 4832.0],
      "WindowWidth": [18604.0, 18610.0, 18648.0, 18598.0, 18608.0, 18594.0, 18588.0, 18598.0, 18594.0, 18610.0, 18604.0, 18604.0, 18606.0, 18606.0, 18610.0, 18604.0, 18614.0, 18602.0, 18600.0, 18602.0, 18594.0, 18600.0, 18604.0, 18604.0, 18600.0, 18644.0, 18608.0, 18606.0, 18606.0, 18602.0, 18604.0, 18602.0, 18604.0, 18596.0, 18648.0, 18602.0, 18612.0, 18606.0, 18606.0, 18596.0, 18598.0, 18600.0, 18606.0, 18610.0, 18600.0, 18606.0, 18600.0, 18602.0, 18600.0, 18642.0, 18602.0, 18600.0, 18608.0, 18598.0, 18606.0, 18596.0, 18608.0, 18600.0, 18610.0, 18606.0, 18604.0, 18606.0, 18600.0, 18606.0, 18564.0, 18568.0, 18612.0, 18608.0, 18610.0, 18608.0, 18620.0, 18612.0, 18606.0, 18608.0, 18566.0, 18596.0, 18568.0, 18604.0, 18602.0, 18614.0, 18610.0, 18606.0, 18604.0, 18606.0, 18604.0, 18608.0, 18602.0, 18606.0, 18614.0, 18598.0, 18610.0, 18600.0, 18604.0, 18602.0, 18600.0, 18608.0, 18602.0, 18612.0, 18570.0, 18606.0, 18608.0, 18570.0, 18602.0, 18608.0, 18604.0, 18574.0, 18612.0, 18602.0, 18608.0, 18606.0, 18604.0, 18596.0, 18574.0, 18606.0, 18606.0, 18614.0, 18604.0, 18610.0, 18610.0, 18596.0, 18600.0, 18598.0, 18602.0, 18600.0, 18606.0, 18612.0, 18604.0, 18614.0, 18598.0, 18608.0, 18606.0, 18596.0, 18596.0, 18602.0, 18604.0, 18600.0, 18616.0, 18608.0, 18604.0, 18598.0, 18604.0, 18604.0, 18610.0, 18608.0, 18598.0, 18612.0, 18596.0, 18608.0, 18598.0, 18596.0, 18598.0, 18642.0, 18602.0, 18646.0, 18610.0, 18602.0, 18600.0, 18602.0, 18600.0, 18610.0, 18608.0, 18606.0, 18610.0, 18598.0, 18606.0, 18602.0, 18608.0, 18594.0, 18602.0, 18604.0, 18602.0, 18614.0, 18600.0, 18604.0, 18602.0, 18610.0, 18602.0, 18602.0, 18604.0, 18604.0, 18602.0, 18602.0, 18606.0, 18612.0, 18730.0, 18722.0, 18650.0, 18590.0, 18594.0, 18598.0]
    },
    "slices": {}
  }
}