{
  "AcquisitionMatrixPE": 104,
  "AcquisitionNumber": 1,
  "AcquisitionTime": "13:36:55.752500",
  "BandwidthPerPixelPhaseEncode": 17.17,
  "BaseResolution": 104,
  "BodyPartExamined": "BRAIN",
  "CoilString": "HC1-7;NC1_2",
  "ConsistencyInfo": "N4_VE11C_LATEST_20160120",
  "ConversionSoftware": "dcm2niix",
  "ConversionSoftwareVersion": "v1.0.20190902",
  "DerivedVendorReportedEchoSpacing": 0.000560011,
  "DeviceSerialNumber": "167006",
  "DwellTime": 2.1e-06,
  "EchoTime": 0.037,
  "EchoTrainLength": 104,
  "EffectiveEchoSpacing": 0.000560011,
  "FlipAngle": 52,
  "ImageComments": "Unaliased_MB4_PE3_LB",
  "ImageOrientationPatientDICOM": [0.999702, 0.0113886, 0.0215943, 0.000872403, 0.867296, -0.497792],
  "ImageType": [
    "ORIGINAL",
    "PRIMARY",
    "M",
    "MB",
    "ND",
    "MOSAIC"
],
  "ImagingFrequency": 123.259,
  "InPlanePhaseEncodingDirectionDICOM": "COL",
  "InstitutionAddress": "Chemin_Queen-Mary_4565_Montreal_District_CA_H3W_1W5",
  "InstitutionName": "IUGM",
  "InstitutionalDepartmentName": "Department",
  "MRAcquisitionType": "2D",
  "MagneticFieldStrength": 3,
  "Manufacturer": "Siemens",
  "ManufacturersModelName": "Prisma_fit",
  "Modality": "MR",
  "MultibandAccelerationFactor": 4,
  "PartialFourier": 1,
  "PatientPosition": "HFS",
  "PercentPhaseFOV": 100,
  "PhaseEncodingDirection": "j",
  "PhaseEncodingSteps": 104,
  "PhaseResolution": 1,
  "PixelBandwidth": 2290,
  "ProcedureStepDescription": "memory_things",
  "ProtocolName": "func_task-things_run-4",
  "PulseSequenceDetails": "%CustomerSeq%_cmrr_mbep2d_bold",
  "ReceiveCoilActiveElements": "HC1-7;NC1,2",
  "ReceiveCoilName": "HeadNeck_64",
  "ReconMatrixPE": 104,
  "RepetitionTime": 1.49,
  "SAR": 0.0484367,
  "ScanOptions": "FS",
  "ScanningSequence": "EP",
  "SequenceName": "epfid2d1_104",
  "SequenceVariant": "SK_SS",
  "SeriesDescription": "func_task-things_run-4",
  "SeriesNumber": 22,
  "ShimSetting": [621, -7177, -8866, 318, 4, -103, -22, -15],
  "SliceThickness": 2,
  "SliceTiming": [0, 0.785, 0.0975, 0.8825, 0.1975, 0.98, 0.295, 1.0775, 0.3925, 1.1775, 0.49, 1.275, 0.5875, 1.3725, 0.6875, 0, 0.785, 0.0975, 0.8825, 0.1975, 0.98, 0.295, 1.0775, 0.3925, 1.1775, 0.49, 1.275, 0.5875, 1.3725, 0.6875, 0, 0.785, 0.0975, 0.8825, 0.1975, 0.98, 0.295, 1.0775, 0.3925, 1.1775, 0.49, 1.275, 0.5875, 1.3725, 0.6875, 0, 0.785, 0.0975, 0.8825, 0.1975, 0.98, 0.295, 1.0775, 0.3925, 1.1775, 0.49, 1.275, 0.5875, 1.3725, 0.6875],
  "SoftwareVersions": "syngo_MR_E11",
  "SpacingBetweenSlices": 2,
  "StationName": "MRC35049",
  "TaskName": "things",
  "TotalReadoutTime": 0.0576811,
  "TxRefAmp": 268.305,
  "WipMemBlock": "f8eb4092-4e75-49d8-b06e-f922c610b305||Sequence: R016 ve11c/master r/e634e98; Dec 19 2017 11:00:25 by eja",
  "dcmmeta_affine": [
    [-1.999403953552246, 0.001744806650094688, 0.04879569262266159, 106.24337768554688],
    [-0.022777298465371132, 1.734592318534851, -0.9953244924545288, -51.68868637084961],
    [0.04318863898515701, 0.9955835342407227, 1.7340553998947144, -97.64561462402344],
    [0.0, 0.0, 0.0, 1.0]
],
  "dcmmeta_reorient_transform": [
    [0.0, -1.0, 0.0, 103.0],
    [1.0, 0.0, 0.0, 0.0],
    [0.0, 0.0, 1.0, 0.0],
    [0.0, 0.0, 0.0, 1.0]
],
  "dcmmeta_shape": [104, 104, 60, 190],
  "dcmmeta_slice_dim": 2,
  "dcmmeta_version": 0.6,
  "global": {
    "const": {
      "AcquisitionMatrix": [104, 0, 0, 104],
      "AngioFlag": "N",
      "BitsAllocated": 16,
      "BitsStored": 16,
      "BodyPartExamined": "BRAIN",
      "Columns": 832,
      "EchoNumbers": 1,
      "EchoTime": 37.0,
      "EchoTrainLength": 104,
      "FlipAngle": 52.0,
      "HighBit": 15,
      "ImageOrientationPatient": [0.99970194758818, 0.01138864944828, 0.02159431990489, 0.00087240329868, 0.8672961339751, -0.4977917786629],
      "ImagePositionPatient": [-834.8412236807, -766.65683859365, 351.57123991027],
      "ImageType": [
        "ORIGINAL",
        "PRIMARY",
        "M",
        "MB",
        "ND",
        "MOSAIC"
],
      "ImagedNucleus": "1H",
      "ImagingFrequency": 123.258972,
      "InPlanePhaseEncodingDirection": "COL",
      "MRAcquisitionType": "2D",
      "MagneticFieldStrength": 3.0,
      "Manufacturer": "SIEMENS",
      "ManufacturerModelName": "Prisma_fit",
      "Modality": "MR",
      "NumberOfAverages": 1.0,
      "NumberOfPhaseEncodingSteps": 104,
      "PercentPhaseFieldOfView": 100.0,
      "PercentSampling": 100.0,
      "PerformedProcedureStepStartTime": "122706.523000",
      "PhotometricInterpretation": "MONOCHROME2",
      "PixelBandwidth": 2290.0,
      "PixelRepresentation": 0,
      "PixelSpacing": [2.0, 2.0],
      "ProtocolName": "func_task-things_run-4",
      "RepetitionTime": 1490.0,
      "Rows": 832,
      "SAR": 0.04843666512408,
      "SamplesPerPixel": 1,
      "ScanOptions": "FS",
      "ScanningSequence": "EP",
      "SequenceName": "epfid2d1_104",
      "SequenceVariant": [
        "SK",
        "SS"
],
      "SeriesDescription": "func_task-things_run-4",
      "SeriesNumber": 22,
      "SeriesTime": "133801.801000",
      "SliceLocation": -56.345836048545,
      "SliceThickness": 2.0,
      "SmallestImagePixelValue": 0,
      "SoftwareVersions": "syngo MR E11",
      "SpacingBetweenSlices": 1.9999999788026,
      "SpecificCharacterSet": "ISO_IR 100",
      "StudyID": "1",
      "StudyTime": "122706.434000",
      "TransmitCoilName": "Body",
      "VariableFlipAngleFlag": "N",
      "WindowCenterWidthExplanation": "Algo1",
      "dBdt": 0.0},
    "slices": {}
  },
  "time": {
    "samples": {
      "AcquisitionNumber": [1, 2, 3, 4, 5, 6, 7, 8, 9, 10, 11, 12, 13, 14, 15, 16, 17, 18, 19, 20, 21, 22, 23, 24, 25, 26, 27, 28, 29, 30, 31, 32, 33, 34, 35, 36, 37, 38, 39, 40, 41, 42, 43, 44, 45, 46, 47, 48, 49, 50, 51, 52, 53, 54, 55, 56, 57, 58, 59, 60, 61, 62, 63, 64, 65, 66, 67, 68, 69, 70, 71, 72, 73, 74, 75, 76, 77, 78, 79, 80, 81, 82, 83, 84, 85, 86, 87, 88, 89, 90, 91, 92, 93, 94, 95, 96, 97, 98, 99, 100, 101, 102, 103, 104, 105, 106, 107, 108, 109, 110, 111, 112, 113, 114, 115, 116, 117, 118, 119, 120, 121, 122, 123, 124, 125, 126, 127, 128, 129, 130, 131, 132, 133, 134, 135, 136, 137, 138, 139, 140, 141, 142, 143, 144, 145, 146, 147, 148, 149, 150, 151, 152, 153, 154, 155, 156, 157, 158, 159, 160, 161, 162, 163, 164, 165, 166, 167, 168, 169, 170, 171, 172, 173, 174, 175, 176, 177, 178, 179, 180, 181, 182, 183, 184, 185, 186, 187, 188, 189, 190],
      "AcquisitionTime": ["133655.752500", "133657.242500", "133658.732500", "133700.222500", "133701.712500", "133703.202500", "133704.692500", "133706.182500", "133707.672500", "133709.162500", "133710.652500", "133712.142500", "133713.632500", "133715.122500", "133716.612500", "133718.102500", "133719.592500", "133721.082500", "133722.572500", "133724.062500", "133725.552500", "133727.042500", "133728.532500", "133730.022500", "133731.512500", "133733.002500", "133734.492500", "133735.982500", "133737.472500", "133738.962500", "133740.452500", "133741.942500", "133743.432500", "133744.922500", "133746.412500", "133747.902500", "133749.392500", "133750.882500", "133752.372500", "133753.862500", "133755.352500", "133756.842500", "133758.332500", "133759.822500", "133801.312500", "133802.802500", "133804.292500", "133805.782500", "133807.272500", "133808.762500", "133810.252500", "133811.742500", "133813.232500", "133814.722500", "133816.212500", "133817.702500", "133819.192500", "133820.682500", "133822.172500", "133823.662500", "133825.152500", "133826.642500", "133828.132500", "133829.622500", "133831.112500", "133832.602500", "133834.092500", "133835.582500", "133837.072500", "133838.562500", "133840.052500", "133841.542500", "133843.032500", "133844.522500", "133846.012500", "133847.502500", "133848.992500", "133850.482500", "133851.972500", "133853.462500", "133854.952500", "133856.442500", "133857.932500", "133859.422500", "133900.912500", "133902.402500", "133903.892500", "133905.382500", "133906.872500", "133908.362500", "133909.852500", "133911.342500", "133912.832500", "133914.322500", "133915.812500", "133917.302500", "133918.792500", "133920.282500", "133921.772500", "133923.262500", "133924.752500", "133926.242500", "133927.732500", "133929.222500", "133930.712500", "133932.202500", "133933.692500", "133935.182500", "133936.672500", "133938.162500", "133939.652500", "133941.142500", "133942.632500", "133944.122500", "133945.612500", "133947.102500", "133948.592500", "133950.082500", "133951.572500", "133953.062500", "133954.552500", "133956.042500", "133957.532500", "133959.022500", "134000.512500", "134002.002500", "134003.492500", "134004.982500", "134006.472500", "134007.962500", "134009.452500", "134010.942500", "134012.432500", "134013.922500", "134015.412500", "134016.902500", "134018.392500", "134019.882500", "134021.372500", "134022.862500", "134024.352500", "134025.842500", "134027.332500", "134028.822500", "134030.312500", "134031.802500", "134033.292500", "134034.782500", "134036.272500", "134037.762500", "134039.252500", "134040.742500", "134042.232500", "134043.722500", "134045.212500", "134046.702500", "134048.192500", "134049.682500", "134051.172500", "134052.662500", "134054.152500", "134055.642500", "134057.132500", "134058.622500", "134100.112500", "134101.602500", "134103.092500", "134104.582500", "134106.072500", "134107.562500", "134109.052500", "134110.542500", "134112.032500", "134113.522500", "134115.012500", "134116.502500", "134117.992500", "134119.482500", "134120.972500", "134122.462500", "134123.952500", "134125.442500", "134126.932500", "134128.422500", "134129.912500", "134131.402500", "134132.892500", "134134.382500", "134135.872500", "134137.362500"],
      "ContentTime": ["133801.804000", "133801.808000", "133801.812000", "133801.815000", "133801.818000", "133801.822000", "133801.825000", "133801.829000", "133801.832000", "133801.835000", "133801.839000", "133801.842000", "133821.771000", "133821.775000", "133821.778000", "133821.782000", "133821.785000", "133821.789000", "133821.792000", "133821.795000", "133821.799000", "133821.802000", "133821.805000", "133821.809000", "133821.812000", "133821.816000", "133821.820000", "133821.823000", "133821.827000", "133821.830000", "133821.834000", "133821.837000", "133821.840000", "133841.771000", "133841.775000", "133841.778000", "133841.782000", "133841.785000", "133841.788000", "133841.792000", "133841.795000", "133841.799000", "133841.802000", "133841.805000", "133841.809000", "133841.812000", "133841.815000", "133841.819000", "133841.822000", "133841.826000", "133841.829000", "133841.833000", "133841.836000", "133901.770000", "133901.774000", "133901.777000", "133901.781000", "133901.784000", "133901.788000", "133901.791000", "133901.795000", "133901.798000", "133901.801000", "133901.805000", "133901.808000", "133901.812000", "133901.815000", "133901.818000", "133901.822000", "133901.825000", "133901.829000", "133901.832000", "133901.835000", "133921.770000", "133921.774000", "133921.777000", "133921.781000", "133921.784000", "133921.788000", "133921.791000", "133921.795000", "133921.798000", "133921.801000", "133921.805000", "133921.808000", "133921.811000", "133921.815000", "133921.818000", "133921.822000", "133921.825000", "133921.828000", "133921.832000", "133921.835000", "134001.771000", "134001.774000", "134001.778000", "134001.781000", "134001.784000", "134001.788000", "134001.791000", "134001.795000", "134001.798000", "134001.802000", "134001.805000", "134001.809000", "134001.812000", "134001.815000", "134001.819000", "134001.822000", "134001.826000", "134001.829000", "134001.833000", "134001.836000", "134001.839000", "134001.843000", "134001.846000", "134001.850000", "134001.853000", "134001.857000", "134001.860000", "134001.863000", "134001.867000", "134001.870000", "134001.874000", "134041.771000", "134041.775000", "134041.778000", "134041.782000", "134041.785000", "134041.789000", "134041.792000", "134041.796000", "134041.799000", "134041.803000", "134041.806000", "134041.809000", "134041.813000", "134041.816000", "134041.820000", "134041.823000", "134041.826000", "134041.843000", "134041.847000", "134041.850000", "134041.854000", "134041.857000", "134041.860000", "134041.864000", "134041.867000", "134041.871000", "134041.874000", "134121.771000", "134121.774000", "134121.778000", "134121.781000", "134121.785000", "134121.788000", "134121.792000", "134121.795000", "134121.798000", "134121.802000", "134121.805000", "134121.809000", "134121.812000", "134121.816000", "134121.819000", "134121.823000", "134121.826000", "134121.830000", "134121.833000", "134121.836000", "134121.840000", "134121.843000", "134121.847000", "134121.850000", "134121.853000", "134121.857000", "134139.835000", "134139.838000", "134139.842000", "134139.845000", "134139.849000", "134139.852000", "134139.855000", "134139.859000", "134139.862000", "134139.865000", "134139.869000", "134139.873000", "134139.876000"],
      "InstanceCreationTime": ["133801.804000", "133801.808000", "133801.812000", "133801.815000", "133801.818000", "133801.822000", "133801.825000", "133801.829000", "133801.832000", "133801.835000", "133801.839000", "133801.842000", "133821.771000", "133821.775000", "133821.778000", "133821.782000", "133821.785000", "133821.789000", "133821.792000", "133821.795000", "133821.799000", "133821.802000", "133821.805000", "133821.809000", "133821.812000", "133821.816000", "133821.820000", "133821.823000", "133821.827000", "133821.830000", "133821.834000", "133821.837000", "133821.840000", "133841.771000", "133841.775000", "133841.778000", "133841.782000", "133841.785000", "133841.788000", "133841.792000", "133841.795000", "133841.799000", "133841.802000", "133841.805000", "133841.809000", "133841.812000", "133841.815000", "133841.819000", "133841.822000", "133841.826000", "133841.829000", "133841.833000", "133841.836000", "133901.770000", "133901.774000", "133901.777000", "133901.781000", "133901.784000", "133901.788000", "133901.791000", "133901.795000", "133901.798000", "133901.801000", "133901.805000", "133901.808000", "133901.812000", "133901.815000", "133901.818000", "133901.822000", "133901.825000", "133901.829000", "133901.832000", "133901.835000", "133921.770000", "133921.774000", "133921.777000", "133921.781000", "133921.784000", "133921.788000", "133921.791000", "133921.795000", "133921.798000", "133921.801000", "133921.805000", "133921.808000", "133921.811000", "133921.815000", "133921.818000", "133921.822000", "133921.825000", "133921.828000", "133921.832000", "133921.835000", "134001.771000", "134001.774000", "134001.778000", "134001.781000", "134001.784000", "134001.788000", "134001.791000", "134001.795000", "134001.798000", "134001.802000", "134001.805000", "134001.809000", "134001.812000", "134001.815000", "134001.819000", "134001.822000", "134001.826000", "134001.829000", "134001.833000", "134001.836000", "134001.839000", "134001.843000", "134001.846000", "134001.850000", "134001.853000", "134001.857000", "134001.860000", "134001.863000", "134001.867000", "134001.870000", "134001.874000", "134041.771000", "134041.775000", "134041.778000", "134041.782000", "134041.785000", "134041.789000", "134041.792000", "134041.796000", "134041.799000", "134041.803000", "134041.806000", "134041.809000", "134041.813000", "134041.816000", "134041.820000", "134041.823000", "134041.826000", "134041.843000", "134041.847000", "134041.850000", "134041.854000", "134041.857000", "134041.860000", "134041.864000", "134041.867000", "134041.871000", "134041.874000", "134121.771000", "134121.774000", "134121.778000", "134121.781000", "134121.785000", "134121.788000", "134121.792000", "134121.795000", "134121.798000", "134121.802000", "134121.805000", "134121.809000", "134121.812000", "134121.816000", "134121.819000", "134121.823000", "134121.826000", "134121.830000", "134121.833000", "134121.836000", "134121.840000", "134121.843000", "134121.847000", "134121.850000", "134121.853000", "134121.857000", "134139.835000", "134139.838000", "134139.842000", "134139.845000", "134139.849000", "134139.852000", "134139.855000", "134139.859000", "134139.862000", "134139.865000", "134139.869000", "134139.873000", "134139.876000"],
      "InstanceNumber": [1, 2, 3, 4, 5, 6, 7, 8, 9, 10, 11, 12, 13, 14, 15, 16, 17, 18, 19, 20, 21, 22, 23, 24, 25, 26, 27, 28, 29, 30, 31, 32, 33, 34, 35, 36, 37, 38, 39, 40, 41, 42, 43, 44, 45, 46, 47, 48, 49, 50, 51, 52, 53, 54, 55, 56, 57, 58, 59, 60, 61, 62, 63, 64, 65, 66, 67, 68, 69, 70, 71, 72, 73, 74, 75, 76, 77, 78, 79, 80, 81, 82, 83, 84, 85, 86, 87, 88, 89, 90, 91, 92, 93, 94, 95, 96, 97, 98, 99, 100, 101, 102, 103, 104, 105, 106, 107, 108, 109, 110, 111, 112, 113, 114, 115, 116, 117, 118, 119, 120, 121, 122, 123, 124, 125, 126, 127, 128, 129, 130, 131, 132, 133, 134, 135, 136, 137, 138, 139, 140, 141, 142, 143, 144, 145, 146, 147, 148, 149, 150, 151, 152, 153, 154, 155, 156, 157, 158, 159, 160, 161, 162, 163, 164, 165, 166, 167, 168, 169, 170, 171, 172, 173, 174, 175, 176, 177, 178, 179, 180, 181, 182, 183, 184, 185, 186, 187, 188, 189, 190],
      "LargestImagePixelValue": [48275, 47289, 46881, 47094, 47754, 46037, 45138, 46031, 44986, 45043, 45994, 45282, 46198, 45646, 46438, 45726, 46100, 45965, 45031, 45770, 45388, 44994, 46001, 45045, 46104, 45672, 46031, 45735, 45844, 45962, 45532, 45869, 45063, 45947, 45262, 45951, 45045, 45969, 45087, 45993, 45802, 45784, 45613, 45547, 45782, 45631, 46301, 45131, 45988, 45972, 46167, 45771, 46284, 45770, 46068, 45944, 45303, 46171, 45270, 45611, 45643, 45859, 45463, 45586, 45627, 46186, 45736, 45828, 45753, 45713, 46034, 45400, 45732, 44830, 45704, 46228, 46088, 45706, 46453, 45537, 46475, 45413, 46075, 45847, 45191, 45500, 44901, 46536, 45499, 46107, 45650, 46104, 45219, 45749, 46266, 45226, 46571, 45634, 45492, 46067, 46435, 45946, 46469, 46004, 45166, 46175, 45923, 46401, 45612, 46141, 45871, 46039, 45993, 46046, 46134, 46844, 44412, 44906, 45218, 45740, 46091, 46032, 45731, 45759, 45769, 46035, 45479, 46248, 45191, 46054, 46101, 45968, 46639, 46359, 46028, 46037, 46308, 45825, 45749, 46004, 45849, 46289, 45513, 46305, 46211, 46216, 45630, 45344, 46230, 45601, 46081, 46624, 44863, 45747, 45974, 46023, 46367, 46027, 46251, 45906, 45964, 46085, 46160, 46503, 46480, 46311, 46341, 46247, 46372, 46080, 46936, 46189, 46261, 46061, 46108, 46199, 46006, 46303, 45584, 46589, 46255, 46281, 46363, 46111, 46440, 46172, 46175, 46349, 46002, 46574],
      "WindowCenter": [11068.0, 11011.0, 10973.0, 10996.0, 11008.0, 10997.0, 10976.0, 10975.0, 10958.0, 10966.0, 10975.0, 10971.0, 10995.0, 10992.0, 10995.0, 10974.0, 10961.0, 10958.0, 10943.0, 10954.0, 10952.0, 10952.0, 10965.0, 10952.0, 10969.0, 10961.0, 10963.0, 10973.0, 10963.0, 10968.0, 10956.0, 10951.0, 10940.0, 10959.0, 10947.0, 10966.0, 10959.0, 10969.0, 10947.0, 10942.0, 10931.0, 10933.0, 10941.0, 10934.0, 10939.0, 10939.0, 10944.0, 10929.0, 10939.0, 10922.0, 10920.0, 10916.0, 10934.0, 10922.0, 10930.0, 10923.0, 10924.0, 10938.0, 10929.0, 10942.0, 10944.0, 10944.0, 10928.0, 10920.0, 10917.0, 10928.0, 10925.0, 10926.0, 10931.0, 10928.0, 10934.0, 10935.0, 10943.0, 10933.0, 10933.0, 10931.0, 10924.0, 10917.0, 10916.0, 10893.0, 10915.0, 10921.0, 10941.0, 10952.0, 10950.0, 10933.0, 10916.0, 10934.0, 10926.0, 10943.0, 10942.0, 10938.0, 10926.0, 10929.0, 10927.0, 10913.0, 10931.0, 10921.0, 10929.0, 10943.0, 10932.0, 10934.0, 10940.0, 10934.0, 10926.0, 10936.0, 10928.0, 10933.0, 10922.0, 10927.0, 10927.0, 10926.0, 10918.0, 10926.0, 10937.0, 10967.0, 10957.0, 10932.0, 10907.0, 10918.0, 10929.0, 10928.0, 10921.0, 10908.0, 10894.0, 10894.0, 10888.0, 10895.0, 10879.0, 10907.0, 10914.0, 10917.0, 10931.0, 10926.0, 10928.0, 10934.0, 10939.0, 10934.0, 10941.0, 10933.0, 10931.0, 10943.0, 10926.0, 10946.0, 10949.0, 10950.0, 10952.0, 10941.0, 10943.0, 10935.0, 10936.0, 10946.0, 10934.0, 10934.0, 10922.0, 10928.0, 10930.0, 10922.0, 10931.0, 10910.0, 10904.0, 10906.0, 10906.0, 10904.0, 10901.0, 10908.0, 10903.0, 10918.0, 10921.0, 10913.0, 10940.0, 10916.0, 10930.0, 10924.0, 10922.0, 10911.0, 10902.0, 10910.0, 10904.0, 10926.0, 10935.0, 10932.0, 10932.0, 10926.0, 10904.0, 10912.0, 10931.0, 10939.0, 10935.0, 10912.0],
      "WindowWidth": [23917.0, 23746.0, 23638.0, 23683.0, 23712.0, 23679.0, 23631.0, 23621.0, 23588.0, 23605.0, 23622.0, 23615.0, 23667.0, 23660.0, 23665.0, 23616.0, 23585.0, 23578.0, 23551.0, 23573.0, 23569.0, 23574.0, 23598.0, 23572.0, 23608.0, 23586.0, 23587.0, 23611.0, 23592.0, 23598.0, 23577.0, 23563.0, 23541.0, 23584.0, 23560.0, 23596.0, 23586.0, 23609.0, 23555.0, 23542.0, 23516.0, 23522.0, 23539.0, 23524.0, 23534.0, 23532.0, 23541.0, 23511.0, 23532.0, 23495.0, 23488.0, 23480.0, 23519.0, 23496.0, 23513.0, 23501.0, 23499.0, 23532.0, 23515.0, 23542.0, 23552.0, 23551.0, 23511.0, 23495.0, 23486.0, 23505.0, 23502.0, 23508.0, 23515.0, 23515.0, 23526.0, 23527.0, 23546.0, 23529.0, 23522.0, 23514.0, 23498.0, 23483.0, 23480.0, 23432.0, 23473.0, 23500.0, 23539.0, 23565.0, 23565.0, 23527.0, 23486.0, 23522.0, 23505.0, 23543.0, 23539.0, 23533.0, 23507.0, 23512.0, 23509.0, 23478.0, 23514.0, 23499.0, 23512.0, 23541.0, 23516.0, 23520.0, 23533.0, 23523.0, 23508.0, 23528.0, 23507.0, 23519.0, 23497.0, 23506.0, 23506.0, 23505.0, 23487.0, 23502.0, 23528.0, 23597.0, 23581.0, 23526.0, 23464.0, 23483.0, 23511.0, 23502.0, 23483.0, 23454.0, 23421.0, 23421.0, 23414.0, 23425.0, 23392.0, 23453.0, 23468.0, 23475.0, 23507.0, 23497.0, 23502.0, 23520.0, 23528.0, 23517.0, 23533.0, 23517.0, 23509.0, 23533.0, 23502.0, 23543.0, 23553.0, 23556.0, 23561.0, 23538.0, 23541.0, 23521.0, 23521.0, 23545.0, 23523.0, 23520.0, 23491.0, 23502.0, 23506.0, 23486.0, 23504.0, 23461.0, 23444.0, 23450.0, 23450.0, 23443.0, 23434.0, 23451.0, 23441.0, 23474.0, 23485.0, 23466.0, 23522.0, 23474.0, 23503.0, 23488.0, 23483.0, 23461.0, 23439.0, 23458.0, 23449.0, 23497.0, 23514.0, 23512.0, 23512.0, 23499.0, 23449.0, 23466.0, 23509.0, 23528.0, 23522.0, 23461.0]
    },
    "slices": {}
  }
}