{
  "AcquisitionMatrixPE": 104,
  "AcquisitionNumber": 1,
  "AcquisitionTime": "13:24:34.902500",
  "BandwidthPerPixelPhaseEncode": 17.17,
  "BaseResolution": 104,
  "BodyPartExamined": "BRAIN",
  "CoilString": "HC1-7;NC1_2",
  "ConsistencyInfo": "N4_VE11C_LATEST_20160120",
  "ConversionSoftware": "dcm2niix",
  "ConversionSoftwareVersion": "v1.0.20190902",
  "DerivedVendorReportedEchoSpacing": 0.000560011,
  "DeviceSerialNumber": "167006",
  "DwellTime": 2.1e-06,
  "EchoTime": 0.037,
  "EchoTrainLength": 104,
  "EffectiveEchoSpacing": 0.000560011,
  "FlipAngle": 52,
  "ImageComments": "Unaliased_MB4_PE3_LB",
  "ImageOrientationPatientDICOM": [0.999702, 0.0113886, 0.0215943, 0.000872403, 0.867296, -0.497792],
  "ImageType": [
    "ORIGINAL",
    "PRIMARY",
    "P",
    "MB",
    "ND",
    "MOSAIC"
],
  "ImagingFrequency": 123.259,
  "InPlanePhaseEncodingDirectionDICOM": "COL",
  "InstitutionAddress": "Chemin_Queen-Mary_4565_Montreal_District_CA_H3W_1W5",
  "InstitutionName": "IUGM",
  "InstitutionalDepartmentName": "Department",
  "MRAcquisitionType": "2D",
  "MagneticFieldStrength": 3,
  "Manufacturer": "Siemens",
  "ManufacturersModelName": "Prisma_fit",
  "Modality": "MR",
  "MultibandAccelerationFactor": 4,
  "PartialFourier": 1,
  "PatientPosition": "HFS",
  "PercentPhaseFOV": 100,
  "PhaseEncodingDirection": "j",
  "PhaseEncodingSteps": 104,
  "PhaseResolution": 1,
  "PixelBandwidth": 2290,
  "ProcedureStepDescription": "memory_things",
  "ProtocolName": "func_task-things_run-2",
  "PulseSequenceDetails": "%CustomerSeq%_cmrr_mbep2d_bold",
  "ReceiveCoilActiveElements": "HC1-7;NC1,2",
  "ReceiveCoilName": "HeadNeck_64",
  "ReconMatrixPE": 104,
  "RepetitionTime": 1.49,
  "SAR": 0.0484367,
  "ScanOptions": "FS",
  "ScanningSequence": "EP",
  "SequenceName": "epfid2d1_104",
  "SequenceVariant": "SK_SS",
  "SeriesDescription": "func_task-things_run-2",
  "SeriesNumber": 17,
  "ShimSetting": [621, -7177, -8866, 318, 4, -103, -22, -15],
  "SliceThickness": 2,
  "SliceTiming": [0, 0.785, 0.1, 0.8825, 0.1975, 0.98, 0.295, 1.08, 0.3925, 1.1775, 0.49, 1.275, 0.59, 1.3725, 0.6875, 0, 0.785, 0.1, 0.8825, 0.1975, 0.98, 0.295, 1.08, 0.3925, 1.1775, 0.49, 1.275, 0.59, 1.3725, 0.6875, 0, 0.785, 0.1, 0.8825, 0.1975, 0.98, 0.295, 1.08, 0.3925, 1.1775, 0.49, 1.275, 0.59, 1.3725, 0.6875, 0, 0.785, 0.1, 0.8825, 0.1975, 0.98, 0.295, 1.08, 0.3925, 1.1775, 0.49, 1.275, 0.59, 1.3725, 0.6875],
  "SoftwareVersions": "syngo_MR_E11",
  "SpacingBetweenSlices": 2,
  "StationName": "MRC35049",
  "TaskName": "things",
  "TotalReadoutTime": 0.0576811,
  "TxRefAmp": 268.305,
  "WipMemBlock": "41e41a62-d90e-4b4a-ac2a-1c053492e677||Sequence: R016 ve11c/master r/e634e98; Dec 19 2017 11:00:25 by eja",
  "dcmmeta_affine": [
    [-1.999403953552246, 0.001744806650094688, 0.04879569262266159, 106.24337768554688],
    [-0.022777298465371132, 1.734592318534851, -0.9953244924545288, -51.68868637084961],
    [0.04318863898515701, 0.9955835342407227, 1.7340553998947144, -97.64561462402344],
    [0.0, 0.0, 0.0, 1.0]
],
  "dcmmeta_reorient_transform": [
    [0.0, -1.0, 0.0, 103.0],
    [1.0, 0.0, 0.0, 0.0],
    [0.0, 0.0, 1.0, 0.0],
    [0.0, 0.0, 0.0, 1.0]
],
  "dcmmeta_shape": [104, 104, 60, 190],
  "dcmmeta_slice_dim": 2,
  "dcmmeta_version": 0.6,
  "global": {
    "const": {
      "AcquisitionMatrix": [104, 0, 0, 104],
      "AngioFlag": "N",
      "BitsAllocated": 16,
      "BitsStored": 16,
      "BodyPartExamined": "BRAIN",
      "Columns": 832,
      "EchoNumbers": 1,
      "EchoTime": 37.0,
      "EchoTrainLength": 104,
      "FlipAngle": 52.0,
      "HighBit": 15,
      "ImageOrientationPatient": [0.99970194758818, 0.01138864944828, 0.02159431990489, 0.00087240329868, 0.8672961339751, -0.4977917786629],
      "ImagePositionPatient": [-834.8412236807, -766.65683859365, 351.57123991027],
      "ImageType": [
        "ORIGINAL",
        "PRIMARY",
        "P",
        "MB",
        "ND",
        "MOSAIC"
],
      "ImagedNucleus": "1H",
      "ImagingFrequency": 123.258969,
      "InPlanePhaseEncodingDirection": "COL",
      "LargestImagePixelValue": 4095,
      "MRAcquisitionType": "2D",
      "MagneticFieldStrength": 3.0,
      "Manufacturer": "SIEMENS",
      "ManufacturerModelName": "Prisma_fit",
      "Modality": "MR",
      "NumberOfAverages": 1.0,
      "NumberOfPhaseEncodingSteps": 104,
      "PercentPhaseFieldOfView": 100.0,
      "PercentSampling": 100.0,
      "PerformedProcedureStepStartTime": "122706.523000",
      "PhotometricInterpretation": "MONOCHROME2",
      "PixelBandwidth": 2290.0,
      "PixelRepresentation": 0,
      "PixelSpacing": [2.0, 2.0],
      "ProtocolName": "func_task-things_run-2",
      "RepetitionTime": 1490.0,
      "RescaleIntercept": -4096.0,
      "RescaleSlope": 2.0,
      "RescaleType": "US",
      "Rows": 832,
      "SAR": 0.04843666512408,
      "SamplesPerPixel": 1,
      "ScanOptions": "FS",
      "ScanningSequence": "EP",
      "SequenceName": "epfid2d1_104",
      "SequenceVariant": [
        "SK",
        "SS"
],
      "SeriesDescription": "func_task-things_run-2",
      "SeriesNumber": 17,
      "SeriesTime": "132607.483000",
      "SliceLocation": -56.345836048545,
      "SliceThickness": 2.0,
      "SmallestImagePixelValue": 0,
      "SoftwareVersions": "syngo MR E11",
      "SpacingBetweenSlices": 1.9999999788026,
      "SpecificCharacterSet": "ISO_IR 100",
      "StudyID": "1",
      "StudyTime": "122706.434000",
      "TransmitCoilName": "Body",
      "VariableFlipAngleFlag": "N",
      "WindowCenterWidthExplanation": "Algo1",
      "dBdt": 0.0},
    "slices": {}
  },
  "time": {
    "samples": {
      "AcquisitionNumber": [1, 2, 3, 4, 5, 6, 7, 8, 9, 10, 11, 12, 13, 14, 15, 16, 17, 18, 19, 20, 21, 22, 23, 24, 25, 26, 27, 28, 29, 30, 31, 32, 33, 34, 35, 36, 37, 38, 39, 40, 41, 42, 43, 44, 45, 46, 47, 48, 49, 50, 51, 52, 53, 54, 55, 56, 57, 58, 59, 60, 61, 62, 63, 64, 65, 66, 67, 68, 69, 70, 71, 72, 73, 74, 75, 76, 77, 78, 79, 80, 81, 82, 83, 84, 85, 86, 87, 88, 89, 90, 91, 92, 93, 94, 95, 96, 97, 98, 99, 100, 101, 102, 103, 104, 105, 106, 107, 108, 109, 110, 111, 112, 113, 114, 115, 116, 117, 118, 119, 120, 121, 122, 123, 124, 125, 126, 127, 128, 129, 130, 131, 132, 133, 134, 135, 136, 137, 138, 139, 140, 141, 142, 143, 144, 145, 146, 147, 148, 149, 150, 151, 152, 153, 154, 155, 156, 157, 158, 159, 160, 161, 162, 163, 164, 165, 166, 167, 168, 169, 170, 171, 172, 173, 174, 175, 176, 177, 178, 179, 180, 181, 182, 183, 184, 185, 186, 187, 188, 189, 190],
      "AcquisitionTime": ["132434.902500", "132436.392500", "132437.882500", "132439.372500", "132440.862500", "132442.352500", "132443.842500", "132445.332500", "132446.822500", "132448.312500", "132449.802500", "132451.292500", "132452.782500", "132454.272500", "132455.762500", "132457.252500", "132458.742500", "132500.232500", "132501.722500", "132503.212500", "132504.702500", "132506.192500", "132507.682500", "132509.172500", "132510.662500", "132512.152500", "132513.642500", "132515.132500", "132516.622500", "132518.112500", "132519.602500", "132521.092500", "132522.582500", "132524.072500", "132525.562500", "132527.052500", "132528.542500", "132530.032500", "132531.522500", "132533.012500", "132534.502500", "132535.992500", "132537.482500", "132538.972500", "132540.462500", "132541.952500", "132543.442500", "132544.932500", "132546.422500", "132547.912500", "132549.402500", "132550.892500", "132552.382500", "132553.872500", "132555.362500", "132556.852500", "132558.342500", "132559.832500", "132601.322500", "132602.812500", "132604.302500", "132605.792500", "132607.282500", "132608.772500", "132610.262500", "132611.752500", "132613.242500", "132614.732500", "132616.222500", "132617.712500", "132619.202500", "132620.692500", "132622.182500", "132623.672500", "132625.162500", "132626.652500", "132628.142500", "132629.632500", "132631.122500", "132632.612500", "132634.102500", "132635.592500", "132637.082500", "132638.572500", "132640.062500", "132641.552500", "132643.042500", "132644.532500", "132646.022500", "132647.512500", "132649.002500", "132650.492500", "132651.982500", "132653.472500", "132654.962500", "132656.452500", "132657.942500", "132659.432500", "132700.922500", "132702.412500", "132703.902500", "132705.392500", "132706.882500", "132708.372500", "132709.862500", "132711.352500", "132712.842500", "132714.332500", "132715.822500", "132717.312500", "132718.802500", "132720.292500", "132721.782500", "132723.272500", "132724.762500", "132726.252500", "132727.742500", "132729.232500", "132730.722500", "132732.212500", "132733.702500", "132735.192500", "132736.682500", "132738.172500", "132739.662500", "132741.152500", "132742.642500", "132744.132500", "132745.622500", "132747.112500", "132748.602500", "132750.092500", "132751.582500", "132753.072500", "132754.562500", "132756.052500", "132757.542500", "132759.032500", "132800.522500", "132802.012500", "132803.502500", "132804.992500", "132806.482500", "132807.972500", "132809.462500", "132810.952500", "132812.442500", "132813.932500", "132815.422500", "132816.912500", "132818.402500", "132819.892500", "132821.382500", "132822.872500", "132824.362500", "132825.852500", "132827.342500", "132828.832500", "132830.322500", "132831.812500", "132833.302500", "132834.792500", "132836.282500", "132837.772500", "132839.262500", "132840.752500", "132842.242500", "132843.732500", "132845.222500", "132846.712500", "132848.202500", "132849.692500", "132851.182500", "132852.672500", "132854.162500", "132855.652500", "132857.142500", "132858.632500", "132900.122500", "132901.612500", "132903.102500", "132904.592500", "132906.082500", "132907.572500", "132909.062500", "132910.552500", "132912.042500", "132913.532500", "132915.022500", "132916.512500"],
      "ContentTime": ["132607.485000", "132607.488000", "132607.491000", "132607.493000", "132607.496000", "132607.498000", "132607.501000", "132607.504000", "132607.506000", "132607.509000", "132607.511000", "132607.514000", "132607.516000", "132607.519000", "132607.522000", "132607.524000", "132607.527000", "132607.529000", "132607.532000", "132607.534000", "132607.537000", "132607.539000", "132607.542000", "132607.544000", "132607.547000", "132607.550000", "132607.556000", "132607.558000", "132607.561000", "132607.563000", "132607.566000", "132607.569000", "132607.571000", "132607.574000", "132607.576000", "132607.579000", "132627.391000", "132627.393000", "132627.396000", "132627.398000", "132627.404000", "132627.406000", "132627.409000", "132627.411000", "132627.414000", "132627.416000", "132627.419000", "132627.421000", "132627.424000", "132627.427000", "132627.429000", "132627.432000", "132627.434000", "132627.437000", "132627.439000", "132627.442000", "132647.378000", "132647.381000", "132647.383000", "132647.386000", "132647.395000", "132647.397000", "132647.400000", "132647.402000", "132647.405000", "132647.408000", "132647.410000", "132647.413000", "132647.415000", "132647.418000", "132647.420000", "132647.423000", "132647.426000", "132647.428000", "132647.431000", "132647.433000", "132707.383000", "132707.385000", "132707.388000", "132707.391000", "132707.393000", "132707.396000", "132707.398000", "132707.401000", "132707.404000", "132707.406000", "132707.409000", "132707.411000", "132707.414000", "132707.416000", "132707.419000", "132707.421000", "132707.424000", "132707.427000", "132707.429000", "132707.432000", "132707.434000", "132747.426000", "132747.428000", "132747.431000", "132747.434000", "132747.436000", "132747.439000", "132747.441000", "132747.444000", "132747.447000", "132747.449000", "132747.452000", "132747.454000", "132747.469000", "132747.471000", "132747.474000", "132747.476000", "132747.479000", "132747.481000", "132747.484000", "132747.486000", "132747.489000", "132747.492000", "132747.494000", "132747.497000", "132747.499000", "132747.502000", "132747.504000", "132747.514000", "132747.517000", "132747.519000", "132747.522000", "132827.416000", "132827.419000", "132827.422000", "132827.424000", "132827.427000", "132827.430000", "132827.432000", "132827.435000", "132827.437000", "132827.440000", "132827.443000", "132827.445000", "132827.448000", "132827.450000", "132827.453000", "132827.455000", "132827.458000", "132827.461000", "132827.463000", "132827.466000", "132827.468000", "132827.471000", "132827.473000", "132827.476000", "132827.478000", "132827.481000", "132827.484000", "132907.412000", "132907.415000", "132907.417000", "132907.420000", "132907.423000", "132907.425000", "132907.428000", "132907.430000", "132907.433000", "132907.436000", "132907.438000", "132907.441000", "132907.443000", "132907.446000", "132907.448000", "132907.451000", "132907.454000", "132907.456000", "132907.459000", "132907.461000", "132907.464000", "132907.466000", "132907.469000", "132907.471000", "132907.474000", "132907.477000", "132907.479000", "132918.415000", "132918.417000", "132918.420000", "132918.423000", "132918.432000", "132918.435000", "132918.437000", "132918.440000"],
      "InstanceCreationTime": ["132607.485000", "132607.488000", "132607.491000", "132607.493000", "132607.496000", "132607.498000", "132607.501000", "132607.504000", "132607.506000", "132607.509000", "132607.511000", "132607.514000", "132607.516000", "132607.519000", "132607.522000", "132607.524000", "132607.527000", "132607.529000", "132607.532000", "132607.534000", "132607.537000", "132607.539000", "132607.542000", "132607.544000", "132607.547000", "132607.550000", "132607.556000", "132607.558000", "132607.561000", "132607.563000", "132607.566000", "132607.569000", "132607.571000", "132607.574000", "132607.576000", "132607.579000", "132627.391000", "132627.393000", "132627.396000", "132627.398000", "132627.404000", "132627.406000", "132627.409000", "132627.411000", "132627.414000", "132627.416000", "132627.419000", "132627.421000", "132627.424000", "132627.427000", "132627.429000", "132627.432000", "132627.434000", "132627.437000", "132627.439000", "132627.442000", "132647.378000", "132647.381000", "132647.383000", "132647.386000", "132647.395000", "132647.397000", "132647.400000", "132647.402000", "132647.405000", "132647.408000", "132647.410000", "132647.413000", "132647.415000", "132647.418000", "132647.420000", "132647.423000", "132647.426000", "132647.428000", "132647.431000", "132647.433000", "132707.383000", "132707.385000", "132707.388000", "132707.391000", "132707.393000", "132707.396000", "132707.398000", "132707.401000", "132707.404000", "132707.406000", "132707.409000", "132707.411000", "132707.414000", "132707.416000", "132707.419000", "132707.421000", "132707.424000", "132707.427000", "132707.429000", "132707.432000", "132707.434000", "132747.426000", "132747.428000", "132747.431000", "132747.434000", "132747.436000", "132747.439000", "132747.441000", "132747.444000", "132747.447000", "132747.449000", "132747.452000", "132747.454000", "132747.469000", "132747.471000", "132747.474000", "132747.476000", "132747.479000", "132747.481000", "132747.484000", "132747.486000", "132747.489000", "132747.492000", "132747.494000", "132747.497000", "132747.499000", "132747.502000", "132747.504000", "132747.514000", "132747.517000", "132747.519000", "132747.522000", "132827.416000", "132827.419000", "132827.422000", "132827.424000", "132827.427000", "132827.430000", "132827.432000", "132827.435000", "132827.437000", "132827.440000", "132827.443000", "132827.445000", "132827.448000", "132827.450000", "132827.453000", "132827.455000", "132827.458000", "132827.461000", "132827.463000", "132827.466000", "132827.468000", "132827.471000", "132827.473000", "132827.476000", "132827.478000", "132827.481000", "132827.484000", "132907.412000", "132907.415000", "132907.417000", "132907.420000", "132907.423000", "132907.425000", "132907.428000", "132907.430000", "132907.433000", "132907.436000", "132907.438000", "132907.441000", "132907.443000", "132907.446000", "132907.448000", "132907.451000", "132907.454000", "132907.456000", "132907.459000", "132907.461000", "132907.464000", "132907.466000", "132907.469000", "132907.471000", "132907.474000", "132907.477000", "132907.479000", "132918.415000", "132918.417000", "132918.420000", "132918.423000", "132918.432000", "132918.435000", "132918.437000", "132918.440000"],
      "InstanceNumber": [1, 2, 3, 4, 5, 6, 7, 8, 9, 10, 11, 12, 13, 14, 15, 16, 17, 18, 19, 20, 21, 22, 23, 24, 25, 26, 27, 28, 29, 30, 31, 32, 33, 34, 35, 36, 37, 38, 39, 40, 41, 42, 43, 44, 45, 46, 47, 48, 49, 50, 51, 52, 53, 54, 55, 56, 57, 58, 59, 60, 61, 62, 63, 64, 65, 66, 67, 68, 69, 70, 71, 72, 73, 74, 75, 76, 77, 78, 79, 80, 81, 82, 83, 84, 85, 86, 87, 88, 89, 90, 91, 92, 93, 94, 95, 96, 97, 98, 99, 100, 101, 102, 103, 104, 105, 106, 107, 108, 109, 110, 111, 112, 113, 114, 115, 116, 117, 118, 119, 120, 121, 122, 123, 124, 125, 126, 127, 128, 129, 130, 131, 132, 133, 134, 135, 136, 137, 138, 139, 140, 141, 142, 143, 144, 145, 146, 147, 148, 149, 150, 151, 152, 153, 154, 155, 156, 157, 158, 159, 160, 161, 162, 163, 164, 165, 166, 167, 168, 169, 170, 171, 172, 173, 174, 175, 176, 177, 178, 179, 180, 181, 182, 183, 184, 185, 186, 187, 188, 189, 190],
      "WindowCenter": [4828.0, 4826.0, 4828.0, 4826.0, 4826.0, 4822.0, 4822.0, 4826.0, 4824.0, 4830.0, 4824.0, 4828.0, 4828.0, 4828.0, 4828.0, 4826.0, 4820.0, 4822.0, 4824.0, 4824.0, 4824.0, 4828.0, 4824.0, 4826.0, 4824.0, 4826.0, 4822.0, 4826.0, 4824.0, 4822.0, 4826.0, 4824.0, 4824.0, 4826.0, 4828.0, 4822.0, 4824.0, 4822.0, 4824.0, 4828.0, 4824.0, 4822.0, 4824.0, 4826.0, 4820.0, 4828.0, 4824.0, 4826.0, 4826.0, 4826.0, 4826.0, 4822.0, 4826.0, 4824.0, 4824.0, 4828.0, 4824.0, 4826.0, 4826.0, 4826.0, 4828.0, 4824.0, 4824.0, 4824.0, 4824.0, 4822.0, 4822.0, 4822.0, 4824.0, 4826.0, 4824.0, 4824.0, 4826.0, 4824.0, 4822.0, 4822.0, 4824.0, 4822.0, 4822.0, 4824.0, 4824.0, 4824.0, 4824.0, 4824.0, 4824.0, 4826.0, 4826.0, 4824.0, 4820.0, 4828.0, 4820.0, 4820.0, 4820.0, 4820.0, 4822.0, 4822.0, 4820.0, 4820.0, 4824.0, 4826.0, 4828.0, 4828.0, 4822.0, 4822.0, 4822.0, 4822.0, 4818.0, 4820.0, 4826.0, 4822.0, 4824.0, 4824.0, 4824.0, 4822.0, 4820.0, 4824.0, 4820.0, 4796.0, 4822.0, 4818.0, 4824.0, 4822.0, 4822.0, 4820.0, 4826.0, 4822.0, 4822.0, 4822.0, 4820.0, 4822.0, 4800.0, 4820.0, 4822.0, 4822.0, 4822.0, 4822.0, 4820.0, 4824.0, 4820.0, 4824.0, 4824.0, 4824.0, 4822.0, 4826.0, 4822.0, 4820.0, 4822.0, 4824.0, 4824.0, 4822.0, 4824.0, 4824.0, 4822.0, 4820.0, 4822.0, 4820.0, 4824.0, 4826.0, 4798.0, 4826.0, 4822.0, 4826.0, 4824.0, 4826.0, 4826.0, 4822.0, 4830.0, 4824.0, 4824.0, 4826.0, 4830.0, 4826.0, 4830.0, 4828.0, 4828.0, 4824.0, 4828.0, 4824.0, 4828.0, 4824.0, 4824.0, 4830.0, 4828.0, 4826.0, 4852.0, 4882.0, 4854.0, 4826.0, 4822.0, 4828.0],
      "WindowWidth": [18590.0, 18586.0, 18590.0, 18584.0, 18584.0, 18570.0, 18582.0, 18570.0, 18580.0, 18578.0, 18572.0, 18592.0, 18590.0, 18596.0, 18580.0, 18590.0, 18564.0, 18580.0, 18574.0, 18580.0, 18588.0, 18582.0, 18584.0, 18578.0, 18586.0, 18570.0, 18582.0, 18578.0, 18566.0, 18586.0, 18574.0, 18588.0, 18578.0, 18590.0, 18576.0, 18576.0, 18574.0, 18572.0, 18590.0, 18582.0, 18596.0, 18574.0, 18588.0, 18572.0, 18570.0, 18574.0, 18574.0, 18588.0, 18590.0, 18592.0, 18580.0, 18582.0, 18566.0, 18578.0, 18572.0, 18578.0, 18578.0, 18576.0, 18594.0, 18578.0, 18596.0, 18570.0, 18580.0, 18584.0, 18572.0, 18584.0, 18572.0, 18580.0, 18582.0, 18588.0, 18588.0, 18574.0, 18588.0, 18568.0, 18578.0, 18578.0, 18576.0, 18584.0, 18574.0, 18588.0, 18574.0, 18588.0, 18566.0, 18572.0, 18576.0, 18576.0, 18594.0, 18574.0, 18582.0, 18582.0, 18578.0, 18568.0, 18570.0, 18574.0, 18560.0, 18584.0, 18570.0, 18574.0, 18586.0, 18586.0, 18600.0, 18612.0, 18574.0, 18566.0, 18574.0, 18568.0, 18576.0, 18570.0, 18594.0, 18578.0, 18598.0, 18584.0, 18598.0, 18570.0, 18580.0, 18564.0, 18576.0, 18542.0, 18582.0, 18582.0, 18590.0, 18584.0, 18578.0, 18584.0, 18568.0, 18584.0, 18576.0, 18578.0, 18588.0, 18584.0, 18554.0, 18572.0, 18586.0, 18568.0, 18584.0, 18566.0, 18580.0, 18576.0, 18588.0, 18582.0, 18584.0, 18582.0, 18572.0, 18582.0, 18574.0, 18584.0, 18574.0, 18584.0, 18572.0, 18586.0, 18580.0, 18582.0, 18582.0, 18586.0, 18574.0, 18572.0, 18578.0, 18570.0, 18552.0, 18576.0, 18582.0, 18580.0, 18580.0, 18582.0, 18580.0, 18584.0, 18572.0, 18578.0, 18572.0, 18576.0, 18594.0, 18582.0, 18596.0, 18578.0, 18592.0, 18570.0, 18580.0, 18572.0, 18570.0, 18582.0, 18586.0, 18598.0, 18584.0, 18590.0, 18596.0, 18642.0, 18592.0, 18584.0, 18614.0, 18616.0]
    },
    "slices": {}
  }
}