{
  "AcquisitionMatrixPE": 104,
  "AcquisitionNumber": 1,
  "AcquisitionTime": "13:18:24.192500",
  "BandwidthPerPixelPhaseEncode": 17.17,
  "BaseResolution": 104,
  "BodyPartExamined": "BRAIN",
  "CoilString": "HC1-7;NC1_2",
  "ConsistencyInfo": "N4_VE11C_LATEST_20160120",
  "ConversionSoftware": "dcm2niix",
  "ConversionSoftwareVersion": "v1.0.20190902",
  "DerivedVendorReportedEchoSpacing": 0.000560011,
  "DeviceSerialNumber": "167006",
  "DwellTime": 2.1e-06,
  "EchoTime": 0.037,
  "EchoTrainLength": 104,
  "EffectiveEchoSpacing": 0.000560011,
  "FlipAngle": 52,
  "ImageComments": "Unaliased_MB4_PE3_LB",
  "ImageOrientationPatientDICOM": [0.999702, 0.0113886, 0.0215943, 0.000872403, 0.867296, -0.497792],
  "ImageType": [
    "ORIGINAL",
    "PRIMARY",
    "M",
    "MB",
    "ND",
    "MOSAIC"
],
  "ImagingFrequency": 123.259,
  "InPlanePhaseEncodingDirectionDICOM": "COL",
  "InstitutionAddress": "Chemin_Queen-Mary_4565_Montreal_District_CA_H3W_1W5",
  "InstitutionName": "IUGM",
  "InstitutionalDepartmentName": "Department",
  "MRAcquisitionType": "2D",
  "MagneticFieldStrength": 3,
  "Manufacturer": "Siemens",
  "ManufacturersModelName": "Prisma_fit",
  "Modality": "MR",
  "MultibandAccelerationFactor": 4,
  "PartialFourier": 1,
  "PatientPosition": "HFS",
  "PercentPhaseFOV": 100,
  "PhaseEncodingDirection": "j",
  "PhaseEncodingSteps": 104,
  "PhaseResolution": 1,
  "PixelBandwidth": 2290,
  "ProcedureStepDescription": "memory_things",
  "ProtocolName": "func_task-things_run-1",
  "PulseSequenceDetails": "%CustomerSeq%_cmrr_mbep2d_bold",
  "ReceiveCoilActiveElements": "HC1-7;NC1,2",
  "ReceiveCoilName": "HeadNeck_64",
  "ReconMatrixPE": 104,
  "RepetitionTime": 1.49,
  "SAR": 0.0484367,
  "ScanOptions": "FS",
  "ScanningSequence": "EP",
  "SequenceName": "epfid2d1_104",
  "SequenceVariant": "SK_SS",
  "SeriesDescription": "func_task-things_run-1",
  "SeriesNumber": 13,
  "ShimSetting": [621, -7177, -8866, 318, 4, -103, -22, -15],
  "SliceThickness": 2,
  "SliceTiming": [0, 0.7825, 0.0975, 0.8825, 0.195, 0.98, 0.2925, 1.0775, 0.3925, 1.175, 0.49, 1.2725, 0.5875, 1.3725, 0.685, 0, 0.7825, 0.0975, 0.8825, 0.195, 0.98, 0.2925, 1.0775, 0.3925, 1.175, 0.49, 1.2725, 0.5875, 1.3725, 0.685, 0, 0.7825, 0.0975, 0.8825, 0.195, 0.98, 0.2925, 1.0775, 0.3925, 1.175, 0.49, 1.2725, 0.5875, 1.3725, 0.685, 0, 0.7825, 0.0975, 0.8825, 0.195, 0.98, 0.2925, 1.0775, 0.3925, 1.175, 0.49, 1.2725, 0.5875, 1.3725, 0.685],
  "SoftwareVersions": "syngo_MR_E11",
  "SpacingBetweenSlices": 2,
  "StationName": "MRC35049",
  "TaskName": "things",
  "TotalReadoutTime": 0.0576811,
  "TxRefAmp": 268.305,
  "WipMemBlock": "9e05d07a-3d7c-411f-b640-9c4b5c43fbce||Sequence: R016 ve11c/master r/e634e98; Dec 19 2017 11:00:25 by eja",
  "dcmmeta_affine": [
    [-1.999403953552246, 0.001744806650094688, 0.04879569262266159, 106.24337768554688],
    [-0.022777298465371132, 1.734592318534851, -0.9953244924545288, -51.68868637084961],
    [0.04318863898515701, 0.9955835342407227, 1.7340553998947144, -97.64561462402344],
    [0.0, 0.0, 0.0, 1.0]
],
  "dcmmeta_reorient_transform": [
    [0.0, -1.0, 0.0, 103.0],
    [1.0, 0.0, 0.0, 0.0],
    [0.0, 0.0, 1.0, 0.0],
    [0.0, 0.0, 0.0, 1.0]
],
  "dcmmeta_shape": [104, 104, 60, 190],
  "dcmmeta_slice_dim": 2,
  "dcmmeta_version": 0.6,
  "global": {
    "const": {
      "AcquisitionMatrix": [104, 0, 0, 104],
      "AngioFlag": "N",
      "BitsAllocated": 16,
      "BitsStored": 16,
      "BodyPartExamined": "BRAIN",
      "Columns": 832,
      "EchoNumbers": 1,
      "EchoTime": 37.0,
      "EchoTrainLength": 104,
      "FlipAngle": 52.0,
      "HighBit": 15,
      "ImageOrientationPatient": [0.99970194758818, 0.01138864944828, 0.02159431990489, 0.00087240329868, 0.8672961339751, -0.4977917786629],
      "ImagePositionPatient": [-834.8412236807, -766.65683859365, 351.57123991027],
      "ImageType": [
        "ORIGINAL",
        "PRIMARY",
        "M",
        "MB",
        "ND",
        "MOSAIC"
],
      "ImagedNucleus": "1H",
      "ImagingFrequency": 123.258961,
      "InPlanePhaseEncodingDirection": "COL",
      "MRAcquisitionType": "2D",
      "MagneticFieldStrength": 3.0,
      "Manufacturer": "SIEMENS",
      "ManufacturerModelName": "Prisma_fit",
      "Modality": "MR",
      "NumberOfAverages": 1.0,
      "NumberOfPhaseEncodingSteps": 104,
      "PercentPhaseFieldOfView": 100.0,
      "PercentSampling": 100.0,
      "PerformedProcedureStepStartTime": "122706.523000",
      "PhotometricInterpretation": "MONOCHROME2",
      "PixelBandwidth": 2290.0,
      "PixelRepresentation": 0,
      "PixelSpacing": [2.0, 2.0],
      "ProtocolName": "func_task-things_run-1",
      "RepetitionTime": 1490.0,
      "Rows": 832,
      "SAR": 0.04843666512408,
      "SamplesPerPixel": 1,
      "ScanOptions": "FS",
      "ScanningSequence": "EP",
      "SequenceName": "epfid2d1_104",
      "SequenceVariant": [
        "SK",
        "SS"
],
      "SeriesDescription": "func_task-things_run-1",
      "SeriesNumber": 13,
      "SeriesTime": "131941.799000",
      "SliceLocation": -56.345836048545,
      "SliceThickness": 2.0,
      "SmallestImagePixelValue": 0,
      "SoftwareVersions": "syngo MR E11",
      "SpacingBetweenSlices": 1.9999999788026,
      "SpecificCharacterSet": "ISO_IR 100",
      "StudyID": "1",
      "StudyTime": "122706.434000",
      "TransmitCoilName": "Body",
      "VariableFlipAngleFlag": "N",
      "WindowCenterWidthExplanation": "Algo1",
      "dBdt": 0.0},
    "slices": {}
  },
  "time": {
    "samples": {
      "AcquisitionNumber": [1, 2, 3, 4, 5, 6, 7, 8, 9, 10, 11, 12, 13, 14, 15, 16, 17, 18, 19, 20, 21, 22, 23, 24, 25, 26, 27, 28, 29, 30, 31, 32, 33, 34, 35, 36, 37, 38, 39, 40, 41, 42, 43, 44, 45, 46, 47, 48, 49, 50, 51, 52, 53, 54, 55, 56, 57, 58, 59, 60, 61, 62, 63, 64, 65, 66, 67, 68, 69, 70, 71, 72, 73, 74, 75, 76, 77, 78, 79, 80, 81, 82, 83, 84, 85, 86, 87, 88, 89, 90, 91, 92, 93, 94, 95, 96, 97, 98, 99, 100, 101, 102, 103, 104, 105, 106, 107, 108, 109, 110, 111, 112, 113, 114, 115, 116, 117, 118, 119, 120, 121, 122, 123, 124, 125, 126, 127, 128, 129, 130, 131, 132, 133, 134, 135, 136, 137, 138, 139, 140, 141, 142, 143, 144, 145, 146, 147, 148, 149, 150, 151, 152, 153, 154, 155, 156, 157, 158, 159, 160, 161, 162, 163, 164, 165, 166, 167, 168, 169, 170, 171, 172, 173, 174, 175, 176, 177, 178, 179, 180, 181, 182, 183, 184, 185, 186, 187, 188, 189, 190],
      "AcquisitionTime": ["131824.192500", "131825.682500", "131827.172500", "131828.662500", "131830.152500", "131831.642500", "131833.132500", "131834.622500", "131836.112500", "131837.602500", "131839.092500", "131840.582500", "131842.072500", "131843.562500", "131845.052500", "131846.542500", "131848.032500", "131849.522500", "131851.012500", "131852.502500", "131853.992500", "131855.482500", "131856.972500", "131858.462500", "131859.952500", "131901.442500", "131902.932500", "131904.422500", "131905.912500", "131907.402500", "131908.892500", "131910.382500", "131911.872500", "131913.362500", "131914.852500", "131916.342500", "131917.832500", "131919.322500", "131920.812500", "131922.302500", "131923.792500", "131925.282500", "131926.772500", "131928.262500", "131929.752500", "131931.242500", "131932.732500", "131934.222500", "131935.712500", "131937.202500", "131938.692500", "131940.182500", "131941.672500", "131943.162500", "131944.652500", "131946.142500", "131947.632500", "131949.122500", "131950.612500", "131952.102500", "131953.592500", "131955.082500", "131956.572500", "131958.062500", "131959.552500", "132001.042500", "132002.532500", "132004.022500", "132005.512500", "132007.002500", "132008.492500", "132009.982500", "132011.472500", "132012.962500", "132014.452500", "132015.942500", "132017.432500", "132018.922500", "132020.412500", "132021.902500", "132023.392500", "132024.882500", "132026.372500", "132027.862500", "132029.352500", "132030.842500", "132032.332500", "132033.822500", "132035.312500", "132036.802500", "132038.292500", "132039.782500", "132041.272500", "132042.762500", "132044.252500", "132045.742500", "132047.232500", "132048.722500", "132050.212500", "132051.702500", "132053.192500", "132054.682500", "132056.172500", "132057.662500", "132059.152500", "132100.642500", "132102.132500", "132103.622500", "132105.112500", "132106.602500", "132108.092500", "132109.582500", "132111.072500", "132112.562500", "132114.052500", "132115.542500", "132117.032500", "132118.522500", "132120.012500", "132121.502500", "132122.992500", "132124.482500", "132125.972500", "132127.462500", "132128.952500", "132130.442500", "132131.932500", "132133.422500", "132134.912500", "132136.402500", "132137.892500", "132139.382500", "132140.872500", "132142.362500", "132143.852500", "132145.342500", "132146.832500", "132148.322500", "132149.812500", "132151.302500", "132152.792500", "132154.282500", "132155.772500", "132157.262500", "132158.752500", "132200.242500", "132201.732500", "132203.222500", "132204.712500", "132206.202500", "132207.692500", "132209.182500", "132210.672500", "132212.162500", "132213.652500", "132215.142500", "132216.632500", "132218.122500", "132219.612500", "132221.102500", "132222.592500", "132224.082500", "132225.572500", "132227.062500", "132228.552500", "132230.042500", "132231.532500", "132233.022500", "132234.512500", "132236.002500", "132237.492500", "132238.982500", "132240.472500", "132241.962500", "132243.452500", "132244.942500", "132246.432500", "132247.922500", "132249.412500", "132250.902500", "132252.392500", "132253.882500", "132255.372500", "132256.862500", "132258.352500", "132259.842500", "132301.332500", "132302.822500", "132304.312500", "132305.802500"],
      "ContentTime": ["131941.803000", "131941.806000", "131941.810000", "131941.813000", "131941.816000", "131941.820000", "131941.823000", "131941.827000", "131941.837000", "131941.840000", "131941.844000", "131941.847000", "131941.851000", "131941.868000", "131941.871000", "131941.874000", "131941.885000", "131941.889000", "131941.892000", "131941.895000", "132001.771000", "132001.775000", "132001.778000", "132001.782000", "132001.785000", "132001.788000", "132001.792000", "132001.795000", "132001.799000", "132001.802000", "132001.806000", "132001.809000", "132001.812000", "132001.816000", "132001.819000", "132001.823000", "132001.826000", "132001.829000", "132001.833000", "132001.836000", "132021.771000", "132021.775000", "132021.778000", "132021.782000", "132021.785000", "132021.788000", "132021.792000", "132021.795000", "132021.799000", "132021.802000", "132021.805000", "132021.809000", "132021.812000", "132021.816000", "132021.819000", "132021.823000", "132021.826000", "132021.829000", "132021.833000", "132021.836000", "132021.839000", "132041.770000", "132041.774000", "132041.777000", "132041.781000", "132041.784000", "132041.788000", "132041.791000", "132041.795000", "132041.798000", "132041.802000", "132041.805000", "132041.808000", "132041.812000", "132041.815000", "132041.819000", "132041.822000", "132041.826000", "132041.829000", "132041.832000", "132041.836000", "132101.770000", "132101.774000", "132101.777000", "132101.781000", "132101.784000", "132101.788000", "132101.791000", "132101.794000", "132101.798000", "132101.801000", "132101.805000", "132101.808000", "132101.812000", "132101.815000", "132101.819000", "132101.822000", "132101.825000", "132101.829000", "132101.832000", "132101.836000", "132141.770000", "132141.774000", "132141.777000", "132141.781000", "132141.784000", "132141.788000", "132141.791000", "132141.795000", "132141.798000", "132141.802000", "132141.805000", "132141.808000", "132141.825000", "132141.828000", "132141.832000", "132141.835000", "132141.838000", "132141.842000", "132141.845000", "132141.849000", "132141.852000", "132141.855000", "132141.859000", "132141.862000", "132141.866000", "132141.869000", "132141.872000", "132141.876000", "132141.879000", "132141.883000", "132141.886000", "132221.771000", "132221.775000", "132221.778000", "132221.782000", "132221.785000", "132221.789000", "132221.792000", "132221.796000", "132221.799000", "132221.803000", "132221.806000", "132221.809000", "132221.813000", "132221.816000", "132221.820000", "132221.823000", "132221.827000", "132221.830000", "132221.833000", "132221.837000", "132221.840000", "132221.843000", "132221.847000", "132221.850000", "132221.854000", "132221.857000", "132221.860000", "132301.771000", "132301.774000", "132301.778000", "132301.781000", "132301.785000", "132301.788000", "132301.791000", "132301.795000", "132301.798000", "132301.802000", "132301.805000", "132301.808000", "132301.812000", "132301.815000", "132301.819000", "132301.822000", "132301.826000", "132301.829000", "132301.833000", "132301.836000", "132301.840000", "132301.843000", "132301.846000", "132301.850000", "132301.853000", "132301.857000", "132307.940000", "132307.944000", "132307.948000", "132307.951000", "132307.955000"],
      "InstanceCreationTime": ["131941.803000", "131941.806000", "131941.810000", "131941.813000", "131941.816000", "131941.820000", "131941.823000", "131941.827000", "131941.837000", "131941.840000", "131941.844000", "131941.847000", "131941.851000", "131941.868000", "131941.871000", "131941.874000", "131941.885000", "131941.889000", "131941.892000", "131941.895000", "132001.771000", "132001.775000", "132001.778000", "132001.782000", "132001.785000", "132001.788000", "132001.792000", "132001.795000", "132001.799000", "132001.802000", "132001.806000", "132001.809000", "132001.812000", "132001.816000", "132001.819000", "132001.823000", "132001.826000", "132001.829000", "132001.833000", "132001.836000", "132021.771000", "132021.775000", "132021.778000", "132021.782000", "132021.785000", "132021.788000", "132021.792000", "132021.795000", "132021.799000", "132021.802000", "132021.805000", "132021.809000", "132021.812000", "132021.816000", "132021.819000", "132021.823000", "132021.826000", "132021.829000", "132021.833000", "132021.836000", "132021.839000", "132041.770000", "132041.774000", "132041.777000", "132041.781000", "132041.784000", "132041.788000", "132041.791000", "132041.795000", "132041.798000", "132041.802000", "132041.805000", "132041.808000", "132041.812000", "132041.815000", "132041.819000", "132041.822000", "132041.826000", "132041.829000", "132041.832000", "132041.836000", "132101.770000", "132101.774000", "132101.777000", "132101.781000", "132101.784000", "132101.788000", "132101.791000", "132101.794000", "132101.798000", "132101.801000", "132101.805000", "132101.808000", "132101.812000", "132101.815000", "132101.819000", "132101.822000", "132101.825000", "132101.829000", "132101.832000", "132101.836000", "132141.770000", "132141.774000", "132141.777000", "132141.781000", "132141.784000", "132141.788000", "132141.791000", "132141.795000", "132141.798000", "132141.802000", "132141.805000", "132141.808000", "132141.825000", "132141.828000", "132141.832000", "132141.835000", "132141.838000", "132141.842000", "132141.845000", "132141.849000", "132141.852000", "132141.855000", "132141.859000", "132141.862000", "132141.866000", "132141.869000", "132141.872000", "132141.876000", "132141.879000", "132141.883000", "132141.886000", "132221.771000", "132221.775000", "132221.778000", "132221.782000", "132221.785000", "132221.789000", "132221.792000", "132221.796000", "132221.799000", "132221.803000", "132221.806000", "132221.809000", "132221.813000", "132221.816000", "132221.820000", "132221.823000", "132221.827000", "132221.830000", "132221.833000", "132221.837000", "132221.840000", "132221.843000", "132221.847000", "132221.850000", "132221.854000", "132221.857000", "132221.860000", "132301.771000", "132301.774000", "132301.778000", "132301.781000", "132301.785000", "132301.788000", "132301.791000", "132301.795000", "132301.798000", "132301.802000", "132301.805000", "132301.808000", "132301.812000", "132301.815000", "132301.819000", "132301.822000", "132301.826000", "132301.829000", "132301.833000", "132301.836000", "132301.840000", "132301.843000", "132301.846000", "132301.850000", "132301.853000", "132301.857000", "132307.940000", "132307.944000", "132307.948000", "132307.951000", "132307.955000"],
      "InstanceNumber": [1, 2, 3, 4, 5, 6, 7, 8, 9, 10, 11, 12, 13, 14, 15, 16, 17, 18, 19, 20, 21, 22, 23, 24, 25, 26, 27, 28, 29, 30, 31, 32, 33, 34, 35, 36, 37, 38, 39, 40, 41, 42, 43, 44, 45, 46, 47, 48, 49, 50, 51, 52, 53, 54, 55, 56, 57, 58, 59, 60, 61, 62, 63, 64, 65, 66, 67, 68, 69, 70, 71, 72, 73, 74, 75, 76, 77, 78, 79, 80, 81, 82, 83, 84, 85, 86, 87, 88, 89, 90, 91, 92, 93, 94, 95, 96, 97, 98, 99, 100, 101, 102, 103, 104, 105, 106, 107, 108, 109, 110, 111, 112, 113, 114, 115, 116, 117, 118, 119, 120, 121, 122, 123, 124, 125, 126, 127, 128, 129, 130, 131, 132, 133, 134, 135, 136, 137, 138, 139, 140, 141, 142, 143, 144, 145, 146, 147, 148, 149, 150, 151, 152, 153, 154, 155, 156, 157, 158, 159, 160, 161, 162, 163, 164, 165, 166, 167, 168, 169, 170, 171, 172, 173, 174, 175, 176, 177, 178, 179, 180, 181, 182, 183, 184, 185, 186, 187, 188, 189, 190],
      "LargestImagePixelValue": [50805, 49224, 50137, 49240, 48900, 49324, 48507, 49263, 49071, 49193, 49233, 48519, 49859, 48636, 49713, 49157, 49490, 48533, 48393, 48687, 49737, 48657, 49927, 49383, 49097, 49175, 49510, 49014, 49941, 48911, 49494, 49305, 49361, 48786, 50169, 49375, 50265, 49039, 49386, 49380, 49790, 50064, 49276, 49995, 48749, 50061, 48840, 49240, 48960, 49639, 49744, 49240, 50119, 49072, 50288, 49201, 49431, 49491, 50513, 50348, 50151, 49887, 49500, 49729, 49848, 50216, 49951, 50355, 49563, 50246, 50195, 50446, 49833, 49800, 50081, 50341, 49943, 49647, 50042, 49613, 50200, 50069, 49641, 49448, 50391, 49844, 49223, 49689, 49626, 49653, 49588, 49358, 49420, 50089, 49601, 49919, 49454, 49291, 49344, 49369, 49378, 49412, 49454, 50303, 50107, 50112, 49684, 50080, 50098, 49824, 49821, 49357, 49547, 49571, 48948, 48601, 49578, 48394, 48761, 49003, 49075, 49098, 49747, 48955, 48753, 49176, 48945, 49112, 49275, 48846, 49154, 48641, 48879, 49375, 49380, 48858, 48810, 49210, 49028, 48742, 49191, 49200, 48874, 49609, 48863, 48740, 49088, 48983, 49174, 49239, 49006, 49243, 49691, 49147, 48807, 49325, 49137, 49177, 48943, 48819, 49147, 48892, 48745, 49075, 49079, 49381, 48451, 49221, 48980, 49424, 49309, 49138, 48856, 49244, 49577, 48956, 48696, 48913, 48925, 48899, 49416, 49131, 49474, 49368, 49205, 48950, 49053, 49500, 48843, 48497],
      "WindowCenter": [11228.0, 11171.0, 11149.0, 11131.0, 11122.0, 11118.0, 11113.0, 11125.0, 11128.0, 11134.0, 11128.0, 11114.0, 11125.0, 11122.0, 11142.0, 11152.0, 11167.0, 11158.0, 11145.0, 11134.0, 11132.0, 11122.0, 11141.0, 11144.0, 11147.0, 11138.0, 11142.0, 11138.0, 11150.0, 11140.0, 11137.0, 11128.0, 11134.0, 11124.0, 11137.0, 11142.0, 11163.0, 11143.0, 11132.0, 11120.0, 11120.0, 11131.0, 11151.0, 11175.0, 11168.0, 11169.0, 11145.0, 11139.0, 11123.0, 11126.0, 11131.0, 11131.0, 11142.0, 11130.0, 11138.0, 11128.0, 11136.0, 11136.0, 11139.0, 11139.0, 11145.0, 11141.0, 11122.0, 11113.0, 11122.0, 11131.0, 11134.0, 11139.0, 11127.0, 11124.0, 11123.0, 11135.0, 11134.0, 11141.0, 11149.0, 11152.0, 11152.0, 11140.0, 11129.0, 11113.0, 11123.0, 11116.0, 11112.0, 11105.0, 11118.0, 11125.0, 11121.0, 11114.0, 11114.0, 11114.0, 11130.0, 11125.0, 11116.0, 11109.0, 11108.0, 11112.0, 11112.0, 11115.0, 11104.0, 11109.0, 11121.0, 11125.0, 11124.0, 11128.0, 11121.0, 11119.0, 11101.0, 11101.0, 11100.0, 11096.0, 11101.0, 11100.0, 11116.0, 11116.0, 11122.0, 11098.0, 11089.0, 11089.0, 11121.0, 11116.0, 11099.0, 11080.0, 11088.0, 11079.0, 11091.0, 11105.0, 11114.0, 11109.0, 11107.0, 11097.0, 11089.0, 11091.0, 11091.0, 11104.0, 11104.0, 11099.0, 11095.0, 11097.0, 11091.0, 11092.0, 11098.0, 11100.0, 11101.0, 11102.0, 11099.0, 11106.0, 11108.0, 11106.0, 11100.0, 11095.0, 11082.0, 11089.0, 11100.0, 11098.0, 11098.0, 11105.0, 11105.0, 11106.0, 11098.0, 11093.0, 11097.0, 11091.0, 11094.0, 11099.0, 11091.0, 11091.0, 11088.0, 11097.0, 11097.0, 11096.0, 11095.0, 11090.0, 11075.0, 11072.0, 11069.0, 11072.0, 11072.0, 11072.0, 11067.0, 11063.0, 11067.0, 11077.0, 11086.0, 11080.0, 11073.0, 11065.0, 11077.0, 11101.0, 11084.0, 11050.0],
      "WindowWidth": [24299.0, 24129.0, 24053.0, 23999.0, 23971.0, 23957.0, 23945.0, 23971.0, 23976.0, 23990.0, 23976.0, 23944.0, 23970.0, 23962.0, 24008.0, 24032.0, 24066.0, 24049.0, 24021.0, 23992.0, 23984.0, 23965.0, 24007.0, 24014.0, 24022.0, 23999.0, 24005.0, 23998.0, 24025.0, 24006.0, 23997.0, 23975.0, 23989.0, 23967.0, 23993.0, 24008.0, 24057.0, 24013.0, 23988.0, 23958.0, 23952.0, 23981.0, 24030.0, 24084.0, 24072.0, 24072.0, 24018.0, 24001.0, 23965.0, 23968.0, 23980.0, 23983.0, 24005.0, 23978.0, 23994.0, 23973.0, 23993.0, 23991.0, 23996.0, 23996.0, 24009.0, 24002.0, 23959.0, 23940.0, 23956.0, 23977.0, 23985.0, 23997.0, 23967.0, 23960.0, 23959.0, 23982.0, 23983.0, 24000.0, 24017.0, 24027.0, 24027.0, 24000.0, 23974.0, 23937.0, 23956.0, 23942.0, 23935.0, 23920.0, 23947.0, 23964.0, 23957.0, 23942.0, 23941.0, 23938.0, 23976.0, 23967.0, 23946.0, 23923.0, 23924.0, 23934.0, 23934.0, 23945.0, 23917.0, 23931.0, 23955.0, 23966.0, 23964.0, 23969.0, 23951.0, 23945.0, 23908.0, 23903.0, 23903.0, 23894.0, 23906.0, 23904.0, 23943.0, 23940.0, 23956.0, 23906.0, 23877.0, 23885.0, 23956.0, 23947.0, 23907.0, 23861.0, 23876.0, 23861.0, 23892.0, 23922.0, 23942.0, 23929.0, 23920.0, 23898.0, 23882.0, 23886.0, 23888.0, 23917.0, 23918.0, 23908.0, 23901.0, 23901.0, 23887.0, 23892.0, 23904.0, 23912.0, 23911.0, 23909.0, 23905.0, 23922.0, 23930.0, 23922.0, 23913.0, 23899.0, 23872.0, 23887.0, 23909.0, 23907.0, 23906.0, 23921.0, 23921.0, 23926.0, 23905.0, 23895.0, 23903.0, 23893.0, 23902.0, 23908.0, 23887.0, 23886.0, 23882.0, 23900.0, 23899.0, 23899.0, 23895.0, 23886.0, 23854.0, 23844.0, 23833.0, 23842.0, 23842.0, 23841.0, 23828.0, 23821.0, 23830.0, 23855.0, 23874.0, 23862.0, 23843.0, 23827.0, 23857.0, 23909.0, 23872.0, 23796.0]
    },
    "slices": {}
  }
}