{
  "AcquisitionMatrixPE": 104,
  "AcquisitionNumber": 1,
  "AcquisitionTime": "13:18:24.192500",
  "BandwidthPerPixelPhaseEncode": 17.17,
  "BaseResolution": 104,
  "BodyPartExamined": "BRAIN",
  "CoilString": "HC1-7;NC1_2",
  "ConsistencyInfo": "N4_VE11C_LATEST_20160120",
  "ConversionSoftware": "dcm2niix",
  "ConversionSoftwareVersion": "v1.0.20190902",
  "DerivedVendorReportedEchoSpacing": 0.000560011,
  "DeviceSerialNumber": "167006",
  "DwellTime": 2.1e-06,
  "EchoTime": 0.037,
  "EchoTrainLength": 104,
  "EffectiveEchoSpacing": 0.000560011,
  "FlipAngle": 52,
  "ImageComments": "Unaliased_MB4_PE3_LB",
  "ImageOrientationPatientDICOM": [0.999702, 0.0113886, 0.0215943, 0.000872403, 0.867296, -0.497792],
  "ImageType": [
    "ORIGINAL",
    "PRIMARY",
    "P",
    "MB",
    "ND",
    "MOSAIC"
],
  "ImagingFrequency": 123.259,
  "InPlanePhaseEncodingDirectionDICOM": "COL",
  "InstitutionAddress": "Chemin_Queen-Mary_4565_Montreal_District_CA_H3W_1W5",
  "InstitutionName": "IUGM",
  "InstitutionalDepartmentName": "Department",
  "MRAcquisitionType": "2D",
  "MagneticFieldStrength": 3,
  "Manufacturer": "Siemens",
  "ManufacturersModelName": "Prisma_fit",
  "Modality": "MR",
  "MultibandAccelerationFactor": 4,
  "PartialFourier": 1,
  "PatientPosition": "HFS",
  "PercentPhaseFOV": 100,
  "PhaseEncodingDirection": "j",
  "PhaseEncodingSteps": 104,
  "PhaseResolution": 1,
  "PixelBandwidth": 2290,
  "ProcedureStepDescription": "memory_things",
  "ProtocolName": "func_task-things_run-1",
  "PulseSequenceDetails": "%CustomerSeq%_cmrr_mbep2d_bold",
  "ReceiveCoilActiveElements": "HC1-7;NC1,2",
  "ReceiveCoilName": "HeadNeck_64",
  "ReconMatrixPE": 104,
  "RepetitionTime": 1.49,
  "SAR": 0.0484367,
  "ScanOptions": "FS",
  "ScanningSequence": "EP",
  "SequenceName": "epfid2d1_104",
  "SequenceVariant": "SK_SS",
  "SeriesDescription": "func_task-things_run-1",
  "SeriesNumber": 14,
  "ShimSetting": [621, -7177, -8866, 318, 4, -103, -22, -15],
  "SliceThickness": 2,
  "SliceTiming": [0, 0.7825, 0.0975, 0.8825, 0.195, 0.98, 0.2925, 1.0775, 0.3925, 1.175, 0.49, 1.2725, 0.5875, 1.3725, 0.685, 0, 0.7825, 0.0975, 0.8825, 0.195, 0.98, 0.2925, 1.0775, 0.3925, 1.175, 0.49, 1.2725, 0.5875, 1.3725, 0.685, 0, 0.7825, 0.0975, 0.8825, 0.195, 0.98, 0.2925, 1.0775, 0.3925, 1.175, 0.49, 1.2725, 0.5875, 1.3725, 0.685, 0, 0.7825, 0.0975, 0.8825, 0.195, 0.98, 0.2925, 1.0775, 0.3925, 1.175, 0.49, 1.2725, 0.5875, 1.3725, 0.685],
  "SoftwareVersions": "syngo_MR_E11",
  "SpacingBetweenSlices": 2,
  "StationName": "MRC35049",
  "TaskName": "things",
  "TotalReadoutTime": 0.0576811,
  "TxRefAmp": 268.305,
  "WipMemBlock": "9e05d07a-3d7c-411f-b640-9c4b5c43fbce||Sequence: R016 ve11c/master r/e634e98; Dec 19 2017 11:00:25 by eja",
  "dcmmeta_affine": [
    [-1.999403953552246, 0.001744806650094688, 0.04879569262266159, 106.24337768554688],
    [-0.022777298465371132, 1.734592318534851, -0.9953244924545288, -51.68868637084961],
    [0.04318863898515701, 0.9955835342407227, 1.7340553998947144, -97.64561462402344],
    [0.0, 0.0, 0.0, 1.0]
],
  "dcmmeta_reorient_transform": [
    [0.0, -1.0, 0.0, 103.0],
    [1.0, 0.0, 0.0, 0.0],
    [0.0, 0.0, 1.0, 0.0],
    [0.0, 0.0, 0.0, 1.0]
],
  "dcmmeta_shape": [104, 104, 60, 190],
  "dcmmeta_slice_dim": 2,
  "dcmmeta_version": 0.6,
  "global": {
    "const": {
      "AcquisitionMatrix": [104, 0, 0, 104],
      "AngioFlag": "N",
      "BitsAllocated": 16,
      "BitsStored": 16,
      "BodyPartExamined": "BRAIN",
      "Columns": 832,
      "EchoNumbers": 1,
      "EchoTime": 37.0,
      "EchoTrainLength": 104,
      "FlipAngle": 52.0,
      "HighBit": 15,
      "ImageOrientationPatient": [0.99970194758818, 0.01138864944828, 0.02159431990489, 0.00087240329868, 0.8672961339751, -0.4977917786629],
      "ImagePositionPatient": [-834.8412236807, -766.65683859365, 351.57123991027],
      "ImageType": [
        "ORIGINAL",
        "PRIMARY",
        "P",
        "MB",
        "ND",
        "MOSAIC"
],
      "ImagedNucleus": "1H",
      "ImagingFrequency": 123.258961,
      "InPlanePhaseEncodingDirection": "COL",
      "LargestImagePixelValue": 4095,
      "MRAcquisitionType": "2D",
      "MagneticFieldStrength": 3.0,
      "Manufacturer": "SIEMENS",
      "ManufacturerModelName": "Prisma_fit",
      "Modality": "MR",
      "NumberOfAverages": 1.0,
      "NumberOfPhaseEncodingSteps": 104,
      "PercentPhaseFieldOfView": 100.0,
      "PercentSampling": 100.0,
      "PerformedProcedureStepStartTime": "122706.523000",
      "PhotometricInterpretation": "MONOCHROME2",
      "PixelBandwidth": 2290.0,
      "PixelRepresentation": 0,
      "PixelSpacing": [2.0, 2.0],
      "ProtocolName": "func_task-things_run-1",
      "RepetitionTime": 1490.0,
      "RescaleIntercept": -4096.0,
      "RescaleSlope": 2.0,
      "RescaleType": "US",
      "Rows": 832,
      "SAR": 0.04843666512408,
      "SamplesPerPixel": 1,
      "ScanOptions": "FS",
      "ScanningSequence": "EP",
      "SequenceName": "epfid2d1_104",
      "SequenceVariant": [
        "SK",
        "SS"
],
      "SeriesDescription": "func_task-things_run-1",
      "SeriesNumber": 14,
      "SeriesTime": "131941.927000",
      "SliceLocation": -56.345836048545,
      "SliceThickness": 2.0,
      "SmallestImagePixelValue": 0,
      "SoftwareVersions": "syngo MR E11",
      "SpacingBetweenSlices": 1.9999999788026,
      "SpecificCharacterSet": "ISO_IR 100",
      "StudyID": "1",
      "StudyTime": "122706.434000",
      "TransmitCoilName": "Body",
      "VariableFlipAngleFlag": "N",
      "WindowCenterWidthExplanation": "Algo1",
      "dBdt": 0.0},
    "slices": {}
  },
  "time": {
    "samples": {
      "AcquisitionNumber": [1, 2, 3, 4, 5, 6, 7, 8, 9, 10, 11, 12, 13, 14, 15, 16, 17, 18, 19, 20, 21, 22, 23, 24, 25, 26, 27, 28, 29, 30, 31, 32, 33, 34, 35, 36, 37, 38, 39, 40, 41, 42, 43, 44, 45, 46, 47, 48, 49, 50, 51, 52, 53, 54, 55, 56, 57, 58, 59, 60, 61, 62, 63, 64, 65, 66, 67, 68, 69, 70, 71, 72, 73, 74, 75, 76, 77, 78, 79, 80, 81, 82, 83, 84, 85, 86, 87, 88, 89, 90, 91, 92, 93, 94, 95, 96, 97, 98, 99, 100, 101, 102, 103, 104, 105, 106, 107, 108, 109, 110, 111, 112, 113, 114, 115, 116, 117, 118, 119, 120, 121, 122, 123, 124, 125, 126, 127, 128, 129, 130, 131, 132, 133, 134, 135, 136, 137, 138, 139, 140, 141, 142, 143, 144, 145, 146, 147, 148, 149, 150, 151, 152, 153, 154, 155, 156, 157, 158, 159, 160, 161, 162, 163, 164, 165, 166, 167, 168, 169, 170, 171, 172, 173, 174, 175, 176, 177, 178, 179, 180, 181, 182, 183, 184, 185, 186, 187, 188, 189, 190],
      "AcquisitionTime": ["131824.192500", "131825.682500", "131827.172500", "131828.662500", "131830.152500", "131831.642500", "131833.132500", "131834.622500", "131836.112500", "131837.602500", "131839.092500", "131840.582500", "131842.072500", "131843.562500", "131845.052500", "131846.542500", "131848.032500", "131849.522500", "131851.012500", "131852.502500", "131853.992500", "131855.482500", "131856.972500", "131858.462500", "131859.952500", "131901.442500", "131902.932500", "131904.422500", "131905.912500", "131907.402500", "131908.892500", "131910.382500", "131911.872500", "131913.362500", "131914.852500", "131916.342500", "131917.832500", "131919.322500", "131920.812500", "131922.302500", "131923.792500", "131925.282500", "131926.772500", "131928.262500", "131929.752500", "131931.242500", "131932.732500", "131934.222500", "131935.712500", "131937.202500", "131938.692500", "131940.182500", "131941.672500", "131943.162500", "131944.652500", "131946.142500", "131947.632500", "131949.122500", "131950.612500", "131952.102500", "131953.592500", "131955.082500", "131956.572500", "131958.062500", "131959.552500", "132001.042500", "132002.532500", "132004.022500", "132005.512500", "132007.002500", "132008.492500", "132009.982500", "132011.472500", "132012.962500", "132014.452500", "132015.942500", "132017.432500", "132018.922500", "132020.412500", "132021.902500", "132023.392500", "132024.882500", "132026.372500", "132027.862500", "132029.352500", "132030.842500", "132032.332500", "132033.822500", "132035.312500", "132036.802500", "132038.292500", "132039.782500", "132041.272500", "132042.762500", "132044.252500", "132045.742500", "132047.232500", "132048.722500", "132050.212500", "132051.702500", "132053.192500", "132054.682500", "132056.172500", "132057.662500", "132059.152500", "132100.642500", "132102.132500", "132103.622500", "132105.112500", "132106.602500", "132108.092500", "132109.582500", "132111.072500", "132112.562500", "132114.052500", "132115.542500", "132117.032500", "132118.522500", "132120.012500", "132121.502500", "132122.992500", "132124.482500", "132125.972500", "132127.462500", "132128.952500", "132130.442500", "132131.932500", "132133.422500", "132134.912500", "132136.402500", "132137.892500", "132139.382500", "132140.872500", "132142.362500", "132143.852500", "132145.342500", "132146.832500", "132148.322500", "132149.812500", "132151.302500", "132152.792500", "132154.282500", "132155.772500", "132157.262500", "132158.752500", "132200.242500", "132201.732500", "132203.222500", "132204.712500", "132206.202500", "132207.692500", "132209.182500", "132210.672500", "132212.162500", "132213.652500", "132215.142500", "132216.632500", "132218.122500", "132219.612500", "132221.102500", "132222.592500", "132224.082500", "132225.572500", "132227.062500", "132228.552500", "132230.042500", "132231.532500", "132233.022500", "132234.512500", "132236.002500", "132237.492500", "132238.982500", "132240.472500", "132241.962500", "132243.452500", "132244.942500", "132246.432500", "132247.922500", "132249.412500", "132250.902500", "132252.392500", "132253.882500", "132255.372500", "132256.862500", "132258.352500", "132259.842500", "132301.332500", "132302.822500", "132304.312500", "132305.802500"],
      "ContentTime": ["131941.929000", "131941.932000", "131941.935000", "131941.937000", "131941.940000", "131941.942000", "131941.945000", "131941.947000", "131941.950000", "131941.953000", "131941.955000", "131941.958000", "131941.965000", "131941.968000", "131941.970000", "131941.973000", "131941.976000", "131941.978000", "131941.980000", "131941.983000", "132001.904000", "132001.907000", "132001.909000", "132001.912000", "132001.914000", "132001.917000", "132001.920000", "132001.922000", "132001.924000", "132001.927000", "132001.930000", "132001.932000", "132001.935000", "132001.937000", "132001.940000", "132001.942000", "132001.945000", "132001.947000", "132001.950000", "132001.953000", "132021.880000", "132021.883000", "132021.885000", "132021.888000", "132021.890000", "132021.893000", "132021.895000", "132021.898000", "132021.901000", "132021.904000", "132021.906000", "132021.909000", "132021.911000", "132021.914000", "132021.916000", "132021.919000", "132021.921000", "132021.924000", "132021.927000", "132021.929000", "132021.932000", "132041.896000", "132041.898000", "132041.901000", "132041.903000", "132041.906000", "132041.909000", "132041.911000", "132041.914000", "132041.916000", "132041.919000", "132041.921000", "132041.924000", "132041.927000", "132041.929000", "132041.932000", "132041.934000", "132041.937000", "132041.939000", "132041.942000", "132041.944000", "132101.871000", "132101.874000", "132101.876000", "132101.879000", "132101.881000", "132101.884000", "132101.886000", "132101.889000", "132101.892000", "132101.894000", "132101.897000", "132101.899000", "132101.902000", "132101.904000", "132101.907000", "132101.909000", "132101.912000", "132101.915000", "132101.917000", "132101.920000", "132141.942000", "132141.944000", "132141.947000", "132141.949000", "132141.952000", "132141.955000", "132141.957000", "132141.960000", "132141.962000", "132141.965000", "132141.967000", "132141.970000", "132141.972000", "132141.975000", "132141.978000", "132141.980000", "132141.991000", "132141.993000", "132141.996000", "132141.998000", "132142.002000", "132142.005000", "132142.007000", "132142.011000", "132142.013000", "132142.016000", "132142.019000", "132142.021000", "132142.024000", "132142.026000", "132142.029000", "132221.916000", "132221.918000", "132221.921000", "132221.924000", "132221.926000", "132221.929000", "132221.931000", "132221.934000", "132221.936000", "132221.939000", "132221.941000", "132221.944000", "132221.947000", "132221.949000", "132221.952000", "132221.954000", "132221.957000", "132221.959000", "132221.962000", "132221.964000", "132221.967000", "132221.969000", "132221.972000", "132221.975000", "132221.977000", "132221.980000", "132221.982000", "132301.901000", "132301.904000", "132301.907000", "132301.909000", "132301.912000", "132301.915000", "132301.918000", "132301.921000", "132301.923000", "132301.926000", "132301.929000", "132301.931000", "132301.934000", "132301.936000", "132301.939000", "132301.941000", "132301.944000", "132301.946000", "132301.949000", "132301.952000", "132301.954000", "132301.957000", "132301.959000", "132301.962000", "132301.964000", "132301.967000", "132307.992000", "132307.995000", "132307.998000", "132308.007000", "132308.009000"],
      "InstanceCreationTime": ["131941.929000", "131941.932000", "131941.935000", "131941.937000", "131941.940000", "131941.942000", "131941.945000", "131941.947000", "131941.950000", "131941.953000", "131941.955000", "131941.958000", "131941.965000", "131941.968000", "131941.970000", "131941.973000", "131941.976000", "131941.978000", "131941.980000", "131941.983000", "132001.904000", "132001.907000", "132001.909000", "132001.912000", "132001.914000", "132001.917000", "132001.920000", "132001.922000", "132001.924000", "132001.927000", "132001.930000", "132001.932000", "132001.935000", "132001.937000", "132001.940000", "132001.942000", "132001.945000", "132001.947000", "132001.950000", "132001.953000", "132021.880000", "132021.883000", "132021.885000", "132021.888000", "132021.890000", "132021.893000", "132021.895000", "132021.898000", "132021.901000", "132021.904000", "132021.906000", "132021.909000", "132021.911000", "132021.914000", "132021.916000", "132021.919000", "132021.921000", "132021.924000", "132021.927000", "132021.929000", "132021.932000", "132041.896000", "132041.898000", "132041.901000", "132041.903000", "132041.906000", "132041.909000", "132041.911000", "132041.914000", "132041.916000", "132041.919000", "132041.921000", "132041.924000", "132041.927000", "132041.929000", "132041.932000", "132041.934000", "132041.937000", "132041.939000", "132041.942000", "132041.944000", "132101.871000", "132101.874000", "132101.876000", "132101.879000", "132101.881000", "132101.884000", "132101.886000", "132101.889000", "132101.892000", "132101.894000", "132101.897000", "132101.899000", "132101.902000", "132101.904000", "132101.907000", "132101.909000", "132101.912000", "132101.915000", "132101.917000", "132101.920000", "132141.942000", "132141.944000", "132141.947000", "132141.949000", "132141.952000", "132141.955000", "132141.957000", "132141.960000", "132141.962000", "132141.965000", "132141.967000", "132141.970000", "132141.972000", "132141.975000", "132141.978000", "132141.980000", "132141.991000", "132141.993000", "132141.996000", "132141.998000", "132142.002000", "132142.005000", "132142.007000", "132142.011000", "132142.013000", "132142.016000", "132142.019000", "132142.021000", "132142.024000", "132142.026000", "132142.029000", "132221.916000", "132221.918000", "132221.921000", "132221.924000", "132221.926000", "132221.929000", "132221.931000", "132221.934000", "132221.936000", "132221.939000", "132221.941000", "132221.944000", "132221.947000", "132221.949000", "132221.952000", "132221.954000", "132221.957000", "132221.959000", "132221.962000", "132221.964000", "132221.967000", "132221.969000", "132221.972000", "132221.975000", "132221.977000", "132221.980000", "132221.982000", "132301.901000", "132301.904000", "132301.907000", "132301.909000", "132301.912000", "132301.915000", "132301.918000", "132301.921000", "132301.923000", "132301.926000", "132301.929000", "132301.931000", "132301.934000", "132301.936000", "132301.939000", "132301.941000", "132301.944000", "132301.946000", "132301.949000", "132301.952000", "132301.954000", "132301.957000", "132301.959000", "132301.962000", "132301.964000", "132301.967000", "132307.992000", "132307.995000", "132307.998000", "132308.007000", "132308.009000"],
      "InstanceNumber": [1, 2, 3, 4, 5, 6, 7, 8, 9, 10, 11, 12, 13, 14, 15, 16, 17, 18, 19, 20, 21, 22, 23, 24, 25, 26, 27, 28, 29, 30, 31, 32, 33, 34, 35, 36, 37, 38, 39, 40, 41, 42, 43, 44, 45, 46, 47, 48, 49, 50, 51, 52, 53, 54, 55, 56, 57, 58, 59, 60, 61, 62, 63, 64, 65, 66, 67, 68, 69, 70, 71, 72, 73, 74, 75, 76, 77, 78, 79, 80, 81, 82, 83, 84, 85, 86, 87, 88, 89, 90, 91, 92, 93, 94, 95, 96, 97, 98, 99, 100, 101, 102, 103, 104, 105, 106, 107, 108, 109, 110, 111, 112, 113, 114, 115, 116, 117, 118, 119, 120, 121, 122, 123, 124, 125, 126, 127, 128, 129, 130, 131, 132, 133, 134, 135, 136, 137, 138, 139, 140, 141, 142, 143, 144, 145, 146, 147, 148, 149, 150, 151, 152, 153, 154, 155, 156, 157, 158, 159, 160, 161, 162, 163, 164, 165, 166, 167, 168, 169, 170, 171, 172, 173, 174, 175, 176, 177, 178, 179, 180, 181, 182, 183, 184, 185, 186, 187, 188, 189, 190],
      "WindowCenter": [4858.0, 4854.0, 4884.0, 4860.0, 4858.0, 4856.0, 4856.0, 4882.0, 4880.0, 4880.0, 4882.0, 4856.0, 4882.0, 4854.0, 4856.0, 4858.0, 4882.0, 4880.0, 4882.0, 4858.0, 4882.0, 4860.0, 4880.0, 4862.0, 4856.0, 4860.0, 4882.0, 4860.0, 4884.0, 4858.0, 4860.0, 4858.0, 4860.0, 4856.0, 4882.0, 4862.0, 4856.0, 4880.0, 4860.0, 4858.0, 4860.0, 4860.0, 4860.0, 4882.0, 4856.0, 4878.0, 4860.0, 4858.0, 4862.0, 4858.0, 4882.0, 4862.0, 4882.0, 4858.0, 4880.0, 4884.0, 4860.0, 4862.0, 4860.0, 4882.0, 4862.0, 4860.0, 4858.0, 4886.0, 4858.0, 4860.0, 4862.0, 4880.0, 4858.0, 4858.0, 4862.0, 4858.0, 4860.0, 4860.0, 4882.0, 4860.0, 4856.0, 4858.0, 4860.0, 4856.0, 4860.0, 4854.0, 4878.0, 4858.0, 4856.0, 4860.0, 4860.0, 4858.0, 4858.0, 4858.0, 4880.0, 4862.0, 4856.0, 4860.0, 4862.0, 4880.0, 4858.0, 4882.0, 4858.0, 4882.0, 4860.0, 4858.0, 4858.0, 4858.0, 4858.0, 4856.0, 4882.0, 4858.0, 4862.0, 4858.0, 4862.0, 4858.0, 4880.0, 4880.0, 4860.0, 4832.0, 4828.0, 4858.0, 4882.0, 4860.0, 4878.0, 4882.0, 4854.0, 4854.0, 4856.0, 4854.0, 4856.0, 4860.0, 4860.0, 4858.0, 4856.0, 4858.0, 4860.0, 4856.0, 4858.0, 4858.0, 4860.0, 4858.0, 4858.0, 4858.0, 4858.0, 4858.0, 4862.0, 4856.0, 4882.0, 4858.0, 4856.0, 4856.0, 4858.0, 4858.0, 4858.0, 4860.0, 4858.0, 4856.0, 4856.0, 4860.0, 4860.0, 4884.0, 4856.0, 4862.0, 4856.0, 4856.0, 4856.0, 4858.0, 4858.0, 4856.0, 4860.0, 4858.0, 4858.0, 4858.0, 4858.0, 4858.0, 4856.0, 4860.0, 4860.0, 4858.0, 4856.0, 4858.0, 4856.0, 4860.0, 4858.0, 4858.0, 4858.0, 4860.0, 4856.0, 4880.0, 4894.0, 4900.0, 4882.0, 4828.0],
      "WindowWidth": [18628.0, 18610.0, 18654.0, 18620.0, 18624.0, 18618.0, 18620.0, 18662.0, 18656.0, 18658.0, 18668.0, 18616.0, 18654.0, 18610.0, 18622.0, 18618.0, 18662.0, 18660.0, 18656.0, 18616.0, 18658.0, 18612.0, 18656.0, 18624.0, 18620.0, 18616.0, 18658.0, 18622.0, 18664.0, 18624.0, 18628.0, 18626.0, 18624.0, 18616.0, 18658.0, 18626.0, 18628.0, 18656.0, 18624.0, 18622.0, 18622.0, 18626.0, 18622.0, 18658.0, 18618.0, 18660.0, 18622.0, 18620.0, 18618.0, 18622.0, 18660.0, 18622.0, 18660.0, 18624.0, 18656.0, 18650.0, 18616.0, 18620.0, 18624.0, 18652.0, 18622.0, 18626.0, 18618.0, 18660.0, 18618.0, 18626.0, 18618.0, 18656.0, 18620.0, 18626.0, 18628.0, 18618.0, 18622.0, 18620.0, 18656.0, 18624.0, 18628.0, 18620.0, 18622.0, 18616.0, 18630.0, 18614.0, 18658.0, 18620.0, 18622.0, 18626.0, 18626.0, 18616.0, 18624.0, 18620.0, 18658.0, 18628.0, 18616.0, 18622.0, 18622.0, 18654.0, 18616.0, 18656.0, 18616.0, 18658.0, 18624.0, 18616.0, 18616.0, 18622.0, 18624.0, 18618.0, 18656.0, 18620.0, 18630.0, 18622.0, 18630.0, 18616.0, 18660.0, 18668.0, 18620.0, 18576.0, 18576.0, 18620.0, 18664.0, 18624.0, 18660.0, 18652.0, 18622.0, 18614.0, 18622.0, 18616.0, 18620.0, 18624.0, 18620.0, 18622.0, 18622.0, 18624.0, 18622.0, 18628.0, 18620.0, 18624.0, 18626.0, 18624.0, 18618.0, 18624.0, 18626.0, 18622.0, 18628.0, 18618.0, 18660.0, 18624.0, 18622.0, 18614.0, 18626.0, 18618.0, 18620.0, 18628.0, 18618.0, 18622.0, 18622.0, 18624.0, 18622.0, 18656.0, 18620.0, 18622.0, 18628.0, 18622.0, 18624.0, 18622.0, 18620.0, 18616.0, 18622.0, 18628.0, 18622.0, 18628.0, 18618.0, 18626.0, 18620.0, 18628.0, 18616.0, 18630.0, 18618.0, 18624.0, 18622.0, 18630.0, 18616.0, 18626.0, 18616.0, 18628.0, 18620.0, 18660.0, 18734.0, 18714.0, 18660.0, 18572.0]
    },
    "slices": {}
  }
}