{
  "AcquisitionMatrixPE": 104,
  "AcquisitionNumber": 1,
  "AcquisitionTime": "13:30:47.740000",
  "BandwidthPerPixelPhaseEncode": 17.17,
  "BaseResolution": 104,
  "BodyPartExamined": "BRAIN",
  "CoilString": "HC1-7;NC1_2",
  "ConsistencyInfo": "N4_VE11C_LATEST_20160120",
  "ConversionSoftware": "dcm2niix",
  "ConversionSoftwareVersion": "v1.0.20190902",
  "DerivedVendorReportedEchoSpacing": 0.000560011,
  "DeviceSerialNumber": "167006",
  "DwellTime": 2.1e-06,
  "EchoTime": 0.037,
  "EchoTrainLength": 104,
  "EffectiveEchoSpacing": 0.000560011,
  "FlipAngle": 52,
  "ImageComments": "Unaliased_MB4_PE3_LB",
  "ImageOrientationPatientDICOM": [0.999702, 0.0113886, 0.0215943, 0.000872403, 0.867296, -0.497792],
  "ImageType": [
    "ORIGINAL",
    "PRIMARY",
    "M",
    "MB",
    "ND",
    "MOSAIC"
],
  "ImagingFrequency": 123.259,
  "InPlanePhaseEncodingDirectionDICOM": "COL",
  "InstitutionAddress": "Chemin_Queen-Mary_4565_Montreal_District_CA_H3W_1W5",
  "InstitutionName": "IUGM",
  "InstitutionalDepartmentName": "Department",
  "MRAcquisitionType": "2D",
  "MagneticFieldStrength": 3,
  "Manufacturer": "Siemens",
  "ManufacturersModelName": "Prisma_fit",
  "Modality": "MR",
  "MultibandAccelerationFactor": 4,
  "PartialFourier": 1,
  "PatientPosition": "HFS",
  "PercentPhaseFOV": 100,
  "PhaseEncodingDirection": "j",
  "PhaseEncodingSteps": 104,
  "PhaseResolution": 1,
  "PixelBandwidth": 2290,
  "ProcedureStepDescription": "memory_things",
  "ProtocolName": "func_task-things_run-3",
  "PulseSequenceDetails": "%CustomerSeq%_cmrr_mbep2d_bold",
  "ReceiveCoilActiveElements": "HC1-7;NC1,2",
  "ReceiveCoilName": "HeadNeck_64",
  "ReconMatrixPE": 104,
  "RepetitionTime": 1.49,
  "SAR": 0.0484367,
  "ScanOptions": "FS",
  "ScanningSequence": "EP",
  "SequenceName": "epfid2d1_104",
  "SequenceVariant": "SK_SS",
  "SeriesDescription": "func_task-things_run-3",
  "SeriesNumber": 19,
  "ShimSetting": [621, -7177, -8866, 318, 4, -103, -22, -15],
  "SliceThickness": 2,
  "SliceTiming": [0, 0.785, 0.1, 0.8825, 0.1975, 0.98, 0.295, 1.08, 0.3925, 1.1775, 0.49, 1.275, 0.59, 1.3725, 0.6875, 0, 0.785, 0.1, 0.8825, 0.1975, 0.98, 0.295, 1.08, 0.3925, 1.1775, 0.49, 1.275, 0.59, 1.3725, 0.6875, 0, 0.785, 0.1, 0.8825, 0.1975, 0.98, 0.295, 1.08, 0.3925, 1.1775, 0.49, 1.275, 0.59, 1.3725, 0.6875, 0, 0.785, 0.1, 0.8825, 0.1975, 0.98, 0.295, 1.08, 0.3925, 1.1775, 0.49, 1.275, 0.59, 1.3725, 0.6875],
  "SoftwareVersions": "syngo_MR_E11",
  "SpacingBetweenSlices": 2,
  "StationName": "MRC35049",
  "TaskName": "things",
  "TotalReadoutTime": 0.0576811,
  "TxRefAmp": 268.305,
  "WipMemBlock": "001c7f6d-e487-427f-8f0d-bd7dca278fd7||Sequence: R016 ve11c/master r/e634e98; Dec 19 2017 11:00:25 by eja",
  "dcmmeta_affine": [
    [-1.999403953552246, 0.001744806650094688, 0.04879569262266159, 106.24337768554688],
    [-0.022777298465371132, 1.734592318534851, -0.9953244924545288, -51.68868637084961],
    [0.04318863898515701, 0.9955835342407227, 1.7340553998947144, -97.64561462402344],
    [0.0, 0.0, 0.0, 1.0]
],
  "dcmmeta_reorient_transform": [
    [0.0, -1.0, 0.0, 103.0],
    [1.0, 0.0, 0.0, 0.0],
    [0.0, 0.0, 1.0, 0.0],
    [0.0, 0.0, 0.0, 1.0]
],
  "dcmmeta_shape": [104, 104, 60, 190],
  "dcmmeta_slice_dim": 2,
  "dcmmeta_version": 0.6,
  "global": {
    "const": {
      "AcquisitionMatrix": [104, 0, 0, 104],
      "AngioFlag": "N",
      "BitsAllocated": 16,
      "BitsStored": 16,
      "BodyPartExamined": "BRAIN",
      "Columns": 832,
      "EchoNumbers": 1,
      "EchoTime": 37.0,
      "EchoTrainLength": 104,
      "FlipAngle": 52.0,
      "HighBit": 15,
      "ImageOrientationPatient": [0.99970194758818, 0.01138864944828, 0.02159431990489, 0.00087240329868, 0.8672961339751, -0.4977917786629],
      "ImagePositionPatient": [-834.8412236807, -766.65683859365, 351.57123991027],
      "ImageType": [
        "ORIGINAL",
        "PRIMARY",
        "M",
        "MB",
        "ND",
        "MOSAIC"
],
      "ImagedNucleus": "1H",
      "ImagingFrequency": 123.25897,
      "InPlanePhaseEncodingDirection": "COL",
      "MRAcquisitionType": "2D",
      "MagneticFieldStrength": 3.0,
      "Manufacturer": "SIEMENS",
      "ManufacturerModelName": "Prisma_fit",
      "Modality": "MR",
      "NumberOfAverages": 1.0,
      "NumberOfPhaseEncodingSteps": 104,
      "PercentPhaseFieldOfView": 100.0,
      "PercentSampling": 100.0,
      "PerformedProcedureStepStartTime": "122706.523000",
      "PhotometricInterpretation": "MONOCHROME2",
      "PixelBandwidth": 2290.0,
      "PixelRepresentation": 0,
      "PixelSpacing": [2.0, 2.0],
      "ProtocolName": "func_task-things_run-3",
      "RepetitionTime": 1490.0,
      "Rows": 832,
      "SAR": 0.04843666512408,
      "SamplesPerPixel": 1,
      "ScanOptions": "FS",
      "ScanningSequence": "EP",
      "SequenceName": "epfid2d1_104",
      "SequenceVariant": [
        "SK",
        "SS"
],
      "SeriesDescription": "func_task-things_run-3",
      "SeriesNumber": 19,
      "SeriesTime": "133217.832000",
      "SliceLocation": -56.345836048545,
      "SliceThickness": 2.0,
      "SmallestImagePixelValue": 0,
      "SoftwareVersions": "syngo MR E11",
      "SpacingBetweenSlices": 1.9999999788026,
      "SpecificCharacterSet": "ISO_IR 100",
      "StudyID": "1",
      "StudyTime": "122706.434000",
      "TransmitCoilName": "Body",
      "VariableFlipAngleFlag": "N",
      "WindowCenterWidthExplanation": "Algo1",
      "dBdt": 0.0},
    "slices": {}
  },
  "time": {
    "samples": {
      "AcquisitionNumber": [1, 2, 3, 4, 5, 6, 7, 8, 9, 10, 11, 12, 13, 14, 15, 16, 17, 18, 19, 20, 21, 22, 23, 24, 25, 26, 27, 28, 29, 30, 31, 32, 33, 34, 35, 36, 37, 38, 39, 40, 41, 42, 43, 44, 45, 46, 47, 48, 49, 50, 51, 52, 53, 54, 55, 56, 57, 58, 59, 60, 61, 62, 63, 64, 65, 66, 67, 68, 69, 70, 71, 72, 73, 74, 75, 76, 77, 78, 79, 80, 81, 82, 83, 84, 85, 86, 87, 88, 89, 90, 91, 92, 93, 94, 95, 96, 97, 98, 99, 100, 101, 102, 103, 104, 105, 106, 107, 108, 109, 110, 111, 112, 113, 114, 115, 116, 117, 118, 119, 120, 121, 122, 123, 124, 125, 126, 127, 128, 129, 130, 131, 132, 133, 134, 135, 136, 137, 138, 139, 140, 141, 142, 143, 144, 145, 146, 147, 148, 149, 150, 151, 152, 153, 154, 155, 156, 157, 158, 159, 160, 161, 162, 163, 164, 165, 166, 167, 168, 169, 170, 171, 172, 173, 174, 175, 176, 177, 178, 179, 180, 181, 182, 183, 184, 185, 186, 187, 188, 189, 190],
      "AcquisitionTime": ["133047.740000", "133049.230000", "133050.720000", "133052.210000", "133053.700000", "133055.190000", "133056.680000", "133058.170000", "133059.660000", "133101.150000", "133102.640000", "133104.130000", "133105.620000", "133107.110000", "133108.600000", "133110.090000", "133111.580000", "133113.070000", "133114.560000", "133116.050000", "133117.540000", "133119.030000", "133120.520000", "133122.010000", "133123.500000", "133124.990000", "133126.480000", "133127.970000", "133129.460000", "133130.950000", "133132.440000", "133133.930000", "133135.420000", "133136.910000", "133138.400000", "133139.890000", "133141.380000", "133142.870000", "133144.360000", "133145.850000", "133147.340000", "133148.830000", "133150.320000", "133151.810000", "133153.300000", "133154.790000", "133156.280000", "133157.770000", "133159.260000", "133200.750000", "133202.240000", "133203.730000", "133205.220000", "133206.710000", "133208.200000", "133209.690000", "133211.180000", "133212.670000", "133214.160000", "133215.650000", "133217.140000", "133218.630000", "133220.120000", "133221.610000", "133223.100000", "133224.590000", "133226.080000", "133227.570000", "133229.060000", "133230.550000", "133232.040000", "133233.530000", "133235.020000", "133236.510000", "133238.000000", "133239.490000", "133240.980000", "133242.470000", "133243.960000", "133245.450000", "133246.940000", "133248.430000", "133249.920000", "133251.410000", "133252.900000", "133254.390000", "133255.880000", "133257.370000", "133258.860000", "133300.350000", "133301.840000", "133303.330000", "133304.820000", "133306.310000", "133307.800000", "133309.290000", "133310.780000", "133312.270000", "133313.760000", "133315.250000", "133316.740000", "133318.230000", "133319.720000", "133321.210000", "133322.700000", "133324.190000", "133325.680000", "133327.170000", "133328.660000", "133330.150000", "133331.640000", "133333.130000", "133334.620000", "133336.110000", "133337.600000", "133339.090000", "133340.580000", "133342.070000", "133343.560000", "133345.050000", "133346.540000", "133348.030000", "133349.520000", "133351.010000", "133352.500000", "133353.990000", "133355.480000", "133356.970000", "133358.460000", "133359.950000", "133401.440000", "133402.930000", "133404.420000", "133405.910000", "133407.400000", "133408.890000", "133410.380000", "133411.870000", "133413.360000", "133414.850000", "133416.340000", "133417.830000", "133419.320000", "133420.810000", "133422.300000", "133423.790000", "133425.280000", "133426.770000", "133428.260000", "133429.750000", "133431.240000", "133432.730000", "133434.220000", "133435.710000", "133437.200000", "133438.690000", "133440.180000", "133441.670000", "133443.160000", "133444.650000", "133446.140000", "133447.630000", "133449.120000", "133450.610000", "133452.100000", "133453.590000", "133455.080000", "133456.570000", "133458.060000", "133459.550000", "133501.040000", "133502.530000", "133504.020000", "133505.510000", "133507.000000", "133508.490000", "133509.980000", "133511.470000", "133512.960000", "133514.450000", "133515.940000", "133517.430000", "133518.920000", "133520.410000", "133521.900000", "133523.390000", "133524.880000", "133526.370000", "133527.860000", "133529.350000"],
      "ContentTime": ["133217.835000", "133217.839000", "133217.843000", "133217.846000", "133217.850000", "133217.854000", "133217.858000", "133217.861000", "133217.865000", "133217.869000", "133217.873000", "133217.876000", "133217.879000", "133217.883000", "133217.886000", "133217.890000", "133217.901000", "133217.904000", "133217.908000", "133217.911000", "133217.915000", "133217.918000", "133217.921000", "133217.925000", "133217.928000", "133217.932000", "133217.935000", "133217.938000", "133217.942000", "133217.961000", "133217.965000", "133217.968000", "133217.976000", "133217.979000", "133217.983000", "133237.798000", "133237.802000", "133237.805000", "133237.809000", "133237.812000", "133237.816000", "133237.819000", "133237.822000", "133237.826000", "133237.829000", "133237.833000", "133237.836000", "133237.840000", "133237.843000", "133237.846000", "133237.850000", "133237.853000", "133237.857000", "133237.860000", "133237.863000", "133237.867000", "133257.798000", "133257.802000", "133257.806000", "133257.809000", "133257.812000", "133257.816000", "133257.819000", "133257.823000", "133257.826000", "133257.829000", "133257.833000", "133257.836000", "133257.840000", "133257.843000", "133257.847000", "133257.850000", "133257.853000", "133257.857000", "133257.860000", "133257.864000", "133317.798000", "133317.802000", "133317.806000", "133317.809000", "133317.812000", "133317.816000", "133317.819000", "133317.823000", "133317.826000", "133317.829000", "133317.833000", "133317.836000", "133317.840000", "133317.843000", "133317.847000", "133317.850000", "133317.853000", "133317.857000", "133317.860000", "133317.864000", "133357.798000", "133357.802000", "133357.806000", "133357.809000", "133357.813000", "133357.816000", "133357.820000", "133357.823000", "133357.826000", "133357.830000", "133357.833000", "133357.837000", "133357.840000", "133357.843000", "133357.847000", "133357.850000", "133357.854000", "133357.857000", "133357.861000", "133357.864000", "133357.867000", "133357.871000", "133357.874000", "133357.877000", "133357.881000", "133357.884000", "133357.888000", "133357.891000", "133357.895000", "133357.898000", "133357.901000", "133437.799000", "133437.803000", "133437.806000", "133437.810000", "133437.813000", "133437.817000", "133437.832000", "133437.836000", "133437.839000", "133437.843000", "133437.846000", "133437.851000", "133437.855000", "133437.859000", "133437.862000", "133437.866000", "133437.870000", "133437.874000", "133437.877000", "133437.880000", "133437.884000", "133437.887000", "133437.891000", "133437.894000", "133437.898000", "133437.901000", "133517.798000", "133517.802000", "133517.805000", "133517.809000", "133517.813000", "133517.816000", "133517.819000", "133517.823000", "133517.826000", "133517.830000", "133517.833000", "133517.836000", "133517.840000", "133517.843000", "133517.847000", "133517.850000", "133517.854000", "133517.857000", "133517.861000", "133517.864000", "133517.867000", "133517.871000", "133517.874000", "133517.878000", "133517.881000", "133517.884000", "133517.888000", "133531.534000", "133531.537000", "133531.541000", "133531.545000", "133531.548000", "133531.552000", "133531.555000", "133531.559000", "133531.562000", "133531.565000"],
      "InstanceCreationTime": ["133217.835000", "133217.839000", "133217.843000", "133217.846000", "133217.850000", "133217.854000", "133217.858000", "133217.861000", "133217.865000", "133217.869000", "133217.873000", "133217.876000", "133217.879000", "133217.883000", "133217.886000", "133217.890000", "133217.901000", "133217.904000", "133217.908000", "133217.911000", "133217.915000", "133217.918000", "133217.921000", "133217.925000", "133217.928000", "133217.932000", "133217.935000", "133217.938000", "133217.942000", "133217.961000", "133217.965000", "133217.968000", "133217.976000", "133217.979000", "133217.983000", "133237.798000", "133237.802000", "133237.805000", "133237.809000", "133237.812000", "133237.816000", "133237.819000", "133237.822000", "133237.826000", "133237.829000", "133237.833000", "133237.836000", "133237.840000", "133237.843000", "133237.846000", "133237.850000", "133237.853000", "133237.857000", "133237.860000", "133237.863000", "133237.867000", "133257.798000", "133257.802000", "133257.806000", "133257.809000", "133257.812000", "133257.816000", "133257.819000", "133257.823000", "133257.826000", "133257.829000", "133257.833000", "133257.836000", "133257.840000", "133257.843000", "133257.847000", "133257.850000", "133257.853000", "133257.857000", "133257.860000", "133257.864000", "133317.798000", "133317.802000", "133317.806000", "133317.809000", "133317.812000", "133317.816000", "133317.819000", "133317.823000", "133317.826000", "133317.829000", "133317.833000", "133317.836000", "133317.840000", "133317.843000", "133317.847000", "133317.850000", "133317.853000", "133317.857000", "133317.860000", "133317.864000", "133357.798000", "133357.802000", "133357.806000", "133357.809000", "133357.813000", "133357.816000", "133357.820000", "133357.823000", "133357.826000", "133357.830000", "133357.833000", "133357.837000", "133357.840000", "133357.843000", "133357.847000", "133357.850000", "133357.854000", "133357.857000", "133357.861000", "133357.864000", "133357.867000", "133357.871000", "133357.874000", "133357.877000", "133357.881000", "133357.884000", "133357.888000", "133357.891000", "133357.895000", "133357.898000", "133357.901000", "133437.799000", "133437.803000", "133437.806000", "133437.810000", "133437.813000", "133437.817000", "133437.832000", "133437.836000", "133437.839000", "133437.843000", "133437.846000", "133437.851000", "133437.855000", "133437.859000", "133437.862000", "133437.866000", "133437.870000", "133437.874000", "133437.877000", "133437.880000", "133437.884000", "133437.887000", "133437.891000", "133437.894000", "133437.898000", "133437.901000", "133517.798000", "133517.802000", "133517.805000", "133517.809000", "133517.813000", "133517.816000", "133517.819000", "133517.823000", "133517.826000", "133517.830000", "133517.833000", "133517.836000", "133517.840000", "133517.843000", "133517.847000", "133517.850000", "133517.854000", "133517.857000", "133517.861000", "133517.864000", "133517.867000", "133517.871000", "133517.874000", "133517.878000", "133517.881000", "133517.884000", "133517.888000", "133531.534000", "133531.537000", "133531.541000", "133531.545000", "133531.548000", "133531.552000", "133531.555000", "133531.559000", "133531.562000", "133531.565000"],
      "InstanceNumber": [1, 2, 3, 4, 5, 6, 7, 8, 9, 10, 11, 12, 13, 14, 15, 16, 17, 18, 19, 20, 21, 22, 23, 24, 25, 26, 27, 28, 29, 30, 31, 32, 33, 34, 35, 36, 37, 38, 39, 40, 41, 42, 43, 44, 45, 46, 47, 48, 49, 50, 51, 52, 53, 54, 55, 56, 57, 58, 59, 60, 61, 62, 63, 64, 65, 66, 67, 68, 69, 70, 71, 72, 73, 74, 75, 76, 77, 78, 79, 80, 81, 82, 83, 84, 85, 86, 87, 88, 89, 90, 91, 92, 93, 94, 95, 96, 97, 98, 99, 100, 101, 102, 103, 104, 105, 106, 107, 108, 109, 110, 111, 112, 113, 114, 115, 116, 117, 118, 119, 120, 121, 122, 123, 124, 125, 126, 127, 128, 129, 130, 131, 132, 133, 134, 135, 136, 137, 138, 139, 140, 141, 142, 143, 144, 145, 146, 147, 148, 149, 150, 151, 152, 153, 154, 155, 156, 157, 158, 159, 160, 161, 162, 163, 164, 165, 166, 167, 168, 169, 170, 171, 172, 173, 174, 175, 176, 177, 178, 179, 180, 181, 182, 183, 184, 185, 186, 187, 188, 189, 190],
      "LargestImagePixelValue": [47786, 46469, 45883, 45271, 45159, 45222, 45109, 45628, 44674, 45466, 45370, 44813, 45470, 45388, 45490, 45626, 45748, 44854, 45210, 44909, 45024, 45107, 44691, 44954, 45094, 45268, 44993, 45258, 45056, 45234, 45077, 44805, 45005, 44823, 44653, 44713, 45412, 44679, 45007, 45081, 45253, 45553, 45247, 45212, 44791, 45254, 45225, 45877, 45322, 45419, 44932, 45148, 45401, 45221, 45204, 45127, 45272, 45065, 45868, 45271, 45415, 45370, 45035, 45441, 44331, 45317, 44950, 45060, 45244, 45840, 45575, 45664, 45240, 45516, 45073, 46073, 45077, 45248, 45203, 45907, 45358, 45576, 45054, 45330, 45246, 45213, 45376, 45720, 45851, 45304, 46146, 45448, 45046, 45265, 45251, 45346, 44908, 45939, 45515, 45572, 45491, 45326, 45051, 45271, 44851, 45006, 45470, 45286, 45157, 45145, 45041, 45174, 45287, 45088, 45153, 45290, 45492, 44948, 45343, 44940, 44921, 45238, 45720, 45436, 45431, 45293, 45245, 45207, 45161, 45143, 44987, 45261, 45406, 45731, 45639, 45370, 45457, 45652, 45897, 45623, 45532, 45509, 45731, 45405, 45559, 45274, 44887, 45409, 45677, 45497, 45336, 45325, 45466, 45004, 45459, 45523, 45383, 45443, 45879, 45559, 45631, 45916, 45549, 45616, 45664, 45459, 45722, 45653, 45483, 44972, 45464, 45432, 46077, 45772, 45851, 45666, 45796, 45821, 45899, 46116, 45746, 46038, 45876, 45590, 45265, 44939, 44224, 44524, 43668, 45805],
      "WindowCenter": [11139.0, 11060.0, 11019.0, 11007.0, 11003.0, 11009.0, 11020.0, 11025.0, 11014.0, 11015.0, 11007.0, 10988.0, 10990.0, 10990.0, 10992.0, 11001.0, 10996.0, 10984.0, 10996.0, 10993.0, 11007.0, 11009.0, 11003.0, 11002.0, 11002.0, 11002.0, 10998.0, 11001.0, 11000.0, 11000.0, 11008.0, 11011.0, 11015.0, 11016.0, 11014.0, 11004.0, 10994.0, 10984.0, 10990.0, 10991.0, 10998.0, 11013.0, 11009.0, 10995.0, 10978.0, 10974.0, 10972.0, 10987.0, 10990.0, 10992.0, 10980.0, 10978.0, 10981.0, 10982.0, 10989.0, 10990.0, 10992.0, 10996.0, 10997.0, 10984.0, 10990.0, 10990.0, 10992.0, 11001.0, 10988.0, 10991.0, 10995.0, 10996.0, 10985.0, 10978.0, 10958.0, 10976.0, 10984.0, 10991.0, 10994.0, 11005.0, 10993.0, 10998.0, 10995.0, 10994.0, 10985.0, 10977.0, 10952.0, 10963.0, 10967.0, 10967.0, 10966.0, 10973.0, 10964.0, 10963.0, 10970.0, 10964.0, 10975.0, 10976.0, 10982.0, 10989.0, 10981.0, 10989.0, 10976.0, 10981.0, 10966.0, 10975.0, 10977.0, 10967.0, 10968.0, 10976.0, 10977.0, 10981.0, 10985.0, 10992.0, 10989.0, 10984.0, 10967.0, 10968.0, 10975.0, 10984.0, 10975.0, 10963.0, 10967.0, 10970.0, 10977.0, 10985.0, 10984.0, 10976.0, 10972.0, 10975.0, 10971.0, 10977.0, 10984.0, 10995.0, 10985.0, 10986.0, 10992.0, 10991.0, 10992.0, 10977.0, 10968.0, 10963.0, 10962.0, 10967.0, 10975.0, 10989.0, 10992.0, 10994.0, 10986.0, 10979.0, 10980.0, 10984.0, 10987.0, 10973.0, 10970.0, 10983.0, 10985.0, 10983.0, 10976.0, 10982.0, 10975.0, 10985.0, 10992.0, 10975.0, 10965.0, 10956.0, 10950.0, 10960.0, 10965.0, 10963.0, 10971.0, 10972.0, 10962.0, 10954.0, 10952.0, 10949.0, 10943.0, 10945.0, 10961.0, 10974.0, 10981.0, 10977.0, 10966.0, 10956.0, 10948.0, 10955.0, 10956.0, 10958.0, 10934.0, 10982.0, 10984.0, 10931.0, 10887.0, 10917.0],
      "WindowWidth": [24091.0, 23873.0, 23757.0, 23718.0, 23702.0, 23711.0, 23735.0, 23743.0, 23720.0, 23716.0, 23696.0, 23655.0, 23653.0, 23655.0, 23661.0, 23680.0, 23671.0, 23648.0, 23673.0, 23668.0, 23696.0, 23703.0, 23691.0, 23690.0, 23689.0, 23688.0, 23676.0, 23684.0, 23682.0, 23681.0, 23701.0, 23709.0, 23721.0, 23723.0, 23718.0, 23694.0, 23670.0, 23647.0, 23658.0, 23663.0, 23676.0, 23709.0, 23700.0, 23671.0, 23632.0, 23618.0, 23616.0, 23649.0, 23658.0, 23665.0, 23639.0, 23633.0, 23637.0, 23638.0, 23653.0, 23655.0, 23661.0, 23670.0, 23672.0, 23643.0, 23654.0, 23656.0, 23662.0, 23680.0, 23657.0, 23658.0, 23671.0, 23671.0, 23646.0, 23631.0, 23582.0, 23621.0, 23645.0, 23661.0, 23666.0, 23689.0, 23664.0, 23677.0, 23669.0, 23665.0, 23640.0, 23625.0, 23567.0, 23592.0, 23602.0, 23601.0, 23597.0, 23617.0, 23591.0, 23589.0, 23606.0, 23593.0, 23618.0, 23621.0, 23634.0, 23649.0, 23635.0, 23646.0, 23620.0, 23629.0, 23596.0, 23620.0, 23625.0, 23603.0, 23606.0, 23623.0, 23625.0, 23634.0, 23643.0, 23659.0, 23656.0, 23641.0, 23601.0, 23603.0, 23619.0, 23641.0, 23619.0, 23600.0, 23604.0, 23612.0, 23627.0, 23646.0, 23643.0, 23624.0, 23611.0, 23619.0, 23616.0, 23630.0, 23642.0, 23668.0, 23646.0, 23643.0, 23654.0, 23654.0, 23655.0, 23622.0, 23602.0, 23586.0, 23584.0, 23598.0, 23618.0, 23648.0, 23658.0, 23663.0, 23645.0, 23632.0, 23632.0, 23639.0, 23643.0, 23614.0, 23606.0, 23635.0, 23641.0, 23645.0, 23623.0, 23633.0, 23618.0, 23639.0, 23653.0, 23615.0, 23591.0, 23569.0, 23557.0, 23578.0, 23593.0, 23585.0, 23603.0, 23608.0, 23587.0, 23570.0, 23565.0, 23554.0, 23539.0, 23544.0, 23578.0, 23611.0, 23625.0, 23620.0, 23593.0, 23569.0, 23549.0, 23564.0, 23569.0, 23578.0, 23528.0, 23640.0, 23653.0, 23529.0, 23428.0, 23484.0]
    },
    "slices": {}
  }
}