{
  "AcquisitionMatrixPE": 104,
  "AcquisitionNumber": 1,
  "AcquisitionTime": "13:49:10.242500",
  "BandwidthPerPixelPhaseEncode": 17.17,
  "BaseResolution": 104,
  "BodyPartExamined": "BRAIN",
  "CoilString": "HC1-7;NC1_2",
  "ConsistencyInfo": "N4_VE11C_LATEST_20160120",
  "ConversionSoftware": "dcm2niix",
  "ConversionSoftwareVersion": "v1.0.20190902",
  "DerivedVendorReportedEchoSpacing": 0.000560011,
  "DeviceSerialNumber": "167006",
  "DwellTime": 2.1e-06,
  "EchoTime": 0.037,
  "EchoTrainLength": 104,
  "EffectiveEchoSpacing": 0.000560011,
  "FlipAngle": 52,
  "ImageComments": "Unaliased_MB4_PE3_LB",
  "ImageOrientationPatientDICOM": [0.999702, 0.0113886, 0.0215943, 0.000872403, 0.867296, -0.497792],
  "ImageType": [
    "ORIGINAL",
    "PRIMARY",
    "M",
    "MB",
    "ND",
    "MOSAIC"
],
  "ImagingFrequency": 123.259,
  "InPlanePhaseEncodingDirectionDICOM": "COL",
  "InstitutionAddress": "Chemin_Queen-Mary_4565_Montreal_District_CA_H3W_1W5",
  "InstitutionName": "IUGM",
  "InstitutionalDepartmentName": "Department",
  "MRAcquisitionType": "2D",
  "MagneticFieldStrength": 3,
  "Manufacturer": "Siemens",
  "ManufacturersModelName": "Prisma_fit",
  "Modality": "MR",
  "MultibandAccelerationFactor": 4,
  "PartialFourier": 1,
  "PatientPosition": "HFS",
  "PercentPhaseFOV": 100,
  "PhaseEncodingDirection": "j",
  "PhaseEncodingSteps": 104,
  "PhaseResolution": 1,
  "PixelBandwidth": 2290,
  "ProcedureStepDescription": "memory_things",
  "ProtocolName": "func_task-things_run-6",
  "PulseSequenceDetails": "%CustomerSeq%_cmrr_mbep2d_bold",
  "ReceiveCoilActiveElements": "HC1-7;NC1,2",
  "ReceiveCoilName": "HeadNeck_64",
  "ReconMatrixPE": 104,
  "RepetitionTime": 1.49,
  "SAR": 0.0484367,
  "ScanOptions": "FS",
  "ScanningSequence": "EP",
  "SequenceName": "epfid2d1_104",
  "SequenceVariant": "SK_SS",
  "SeriesDescription": "func_task-things_run-6",
  "SeriesNumber": 28,
  "ShimSetting": [621, -7177, -8866, 318, 4, -103, -22, -15],
  "SliceThickness": 2,
  "SliceTiming": [0, 0.785, 0.0975, 0.8825, 0.195, 0.98, 0.295, 1.0775, 0.3925, 1.175, 0.49, 1.275, 0.5875, 1.3725, 0.685, 0, 0.785, 0.0975, 0.8825, 0.195, 0.98, 0.295, 1.0775, 0.3925, 1.175, 0.49, 1.275, 0.5875, 1.3725, 0.685, 0, 0.785, 0.0975, 0.8825, 0.195, 0.98, 0.295, 1.0775, 0.3925, 1.175, 0.49, 1.275, 0.5875, 1.3725, 0.685, 0, 0.785, 0.0975, 0.8825, 0.195, 0.98, 0.295, 1.0775, 0.3925, 1.175, 0.49, 1.275, 0.5875, 1.3725, 0.685],
  "SoftwareVersions": "syngo_MR_E11",
  "SpacingBetweenSlices": 2,
  "StationName": "MRC35049",
  "TaskName": "things",
  "TotalReadoutTime": 0.0576811,
  "TxRefAmp": 268.305,
  "WipMemBlock": "c5806bf5-bfbb-4744-8058-b2276444d7c8||Sequence: R016 ve11c/master r/e634e98; Dec 19 2017 11:00:25 by eja",
  "dcmmeta_affine": [
    [-1.999403953552246, 0.001744806650094688, 0.04879569262266159, 106.24337768554688],
    [-0.022777298465371132, 1.734592318534851, -0.9953244924545288, -51.68868637084961],
    [0.04318863898515701, 0.9955835342407227, 1.7340553998947144, -97.64561462402344],
    [0.0, 0.0, 0.0, 1.0]
],
  "dcmmeta_reorient_transform": [
    [0.0, -1.0, 0.0, 103.0],
    [1.0, 0.0, 0.0, 0.0],
    [0.0, 0.0, 1.0, 0.0],
    [0.0, 0.0, 0.0, 1.0]
],
  "dcmmeta_shape": [104, 104, 60, 190],
  "dcmmeta_slice_dim": 2,
  "dcmmeta_version": 0.6,
  "global": {
    "const": {
      "AcquisitionMatrix": [104, 0, 0, 104],
      "AngioFlag": "N",
      "BitsAllocated": 16,
      "BitsStored": 16,
      "BodyPartExamined": "BRAIN",
      "Columns": 832,
      "EchoNumbers": 1,
      "EchoTime": 37.0,
      "EchoTrainLength": 104,
      "FlipAngle": 52.0,
      "HighBit": 15,
      "ImageOrientationPatient": [0.99970194758818, 0.01138864944828, 0.02159431990489, 0.00087240329868, 0.8672961339751, -0.4977917786629],
      "ImagePositionPatient": [-834.8412236807, -766.65683859365, 351.57123991027],
      "ImageType": [
        "ORIGINAL",
        "PRIMARY",
        "M",
        "MB",
        "ND",
        "MOSAIC"
],
      "ImagedNucleus": "1H",
      "ImagingFrequency": 123.258979,
      "InPlanePhaseEncodingDirection": "COL",
      "MRAcquisitionType": "2D",
      "MagneticFieldStrength": 3.0,
      "Manufacturer": "SIEMENS",
      "ManufacturerModelName": "Prisma_fit",
      "Modality": "MR",
      "NumberOfAverages": 1.0,
      "NumberOfPhaseEncodingSteps": 104,
      "PercentPhaseFieldOfView": 100.0,
      "PercentSampling": 100.0,
      "PerformedProcedureStepStartTime": "122706.523000",
      "PhotometricInterpretation": "MONOCHROME2",
      "PixelBandwidth": 2290.0,
      "PixelRepresentation": 0,
      "PixelSpacing": [2.0, 2.0],
      "ProtocolName": "func_task-things_run-6",
      "RepetitionTime": 1490.0,
      "Rows": 832,
      "SAR": 0.04843666512408,
      "SamplesPerPixel": 1,
      "ScanOptions": "FS",
      "ScanningSequence": "EP",
      "SequenceName": "epfid2d1_104",
      "SequenceVariant": [
        "SK",
        "SS"
],
      "SeriesDescription": "func_task-things_run-6",
      "SeriesNumber": 28,
      "SeriesTime": "135037.860000",
      "SliceLocation": -56.345836048545,
      "SliceThickness": 2.0,
      "SmallestImagePixelValue": 0,
      "SoftwareVersions": "syngo MR E11",
      "SpacingBetweenSlices": 1.9999999788026,
      "SpecificCharacterSet": "ISO_IR 100",
      "StudyID": "1",
      "StudyTime": "122706.434000",
      "TransmitCoilName": "Body",
      "VariableFlipAngleFlag": "N",
      "WindowCenterWidthExplanation": "Algo1",
      "dBdt": 0.0},
    "slices": {}
  },
  "time": {
    "samples": {
      "AcquisitionNumber": [1, 2, 3, 4, 5, 6, 7, 8, 9, 10, 11, 12, 13, 14, 15, 16, 17, 18, 19, 20, 21, 22, 23, 24, 25, 26, 27, 28, 29, 30, 31, 32, 33, 34, 35, 36, 37, 38, 39, 40, 41, 42, 43, 44, 45, 46, 47, 48, 49, 50, 51, 52, 53, 54, 55, 56, 57, 58, 59, 60, 61, 62, 63, 64, 65, 66, 67, 68, 69, 70, 71, 72, 73, 74, 75, 76, 77, 78, 79, 80, 81, 82, 83, 84, 85, 86, 87, 88, 89, 90, 91, 92, 93, 94, 95, 96, 97, 98, 99, 100, 101, 102, 103, 104, 105, 106, 107, 108, 109, 110, 111, 112, 113, 114, 115, 116, 117, 118, 119, 120, 121, 122, 123, 124, 125, 126, 127, 128, 129, 130, 131, 132, 133, 134, 135, 136, 137, 138, 139, 140, 141, 142, 143, 144, 145, 146, 147, 148, 149, 150, 151, 152, 153, 154, 155, 156, 157, 158, 159, 160, 161, 162, 163, 164, 165, 166, 167, 168, 169, 170, 171, 172, 173, 174, 175, 176, 177, 178, 179, 180, 181, 182, 183, 184, 185, 186, 187, 188, 189, 190],
      "AcquisitionTime": ["134910.242500", "134911.732500", "134913.222500", "134914.712500", "134916.202500", "134917.692500", "134919.182500", "134920.672500", "134922.162500", "134923.652500", "134925.142500", "134926.632500", "134928.122500", "134929.612500", "134931.102500", "134932.592500", "134934.082500", "134935.572500", "134937.062500", "134938.552500", "134940.042500", "134941.532500", "134943.022500", "134944.512500", "134946.002500", "134947.492500", "134948.982500", "134950.472500", "134951.962500", "134953.452500", "134954.942500", "134956.432500", "134957.922500", "134959.412500", "135000.902500", "135002.392500", "135003.882500", "135005.372500", "135006.862500", "135008.352500", "135009.842500", "135011.332500", "135012.822500", "135014.312500", "135015.802500", "135017.292500", "135018.782500", "135020.272500", "135021.762500", "135023.252500", "135024.742500", "135026.232500", "135027.722500", "135029.212500", "135030.702500", "135032.192500", "135033.682500", "135035.172500", "135036.662500", "135038.152500", "135039.642500", "135041.132500", "135042.622500", "135044.112500", "135045.602500", "135047.092500", "135048.582500", "135050.072500", "135051.562500", "135053.052500", "135054.542500", "135056.032500", "135057.522500", "135059.012500", "135100.502500", "135101.992500", "135103.482500", "135104.972500", "135106.462500", "135107.952500", "135109.442500", "135110.932500", "135112.422500", "135113.912500", "135115.402500", "135116.892500", "135118.382500", "135119.872500", "135121.362500", "135122.852500", "135124.342500", "135125.832500", "135127.322500", "135128.812500", "135130.302500", "135131.792500", "135133.282500", "135134.772500", "135136.262500", "135137.752500", "135139.242500", "135140.732500", "135142.222500", "135143.712500", "135145.202500", "135146.692500", "135148.182500", "135149.672500", "135151.162500", "135152.652500", "135154.142500", "135155.632500", "135157.122500", "135158.612500", "135200.102500", "135201.592500", "135203.082500", "135204.572500", "135206.062500", "135207.552500", "135209.042500", "135210.532500", "135212.022500", "135213.512500", "135215.002500", "135216.492500", "135217.982500", "135219.472500", "135220.962500", "135222.452500", "135223.942500", "135225.432500", "135226.922500", "135228.412500", "135229.902500", "135231.392500", "135232.882500", "135234.372500", "135235.862500", "135237.352500", "135238.842500", "135240.332500", "135241.822500", "135243.312500", "135244.802500", "135246.292500", "135247.782500", "135249.272500", "135250.762500", "135252.252500", "135253.742500", "135255.232500", "135256.722500", "135258.212500", "135259.702500", "135301.192500", "135302.682500", "135304.172500", "135305.662500", "135307.152500", "135308.642500", "135310.132500", "135311.622500", "135313.112500", "135314.602500", "135316.092500", "135317.582500", "135319.072500", "135320.562500", "135322.052500", "135323.542500", "135325.032500", "135326.522500", "135328.012500", "135329.502500", "135330.992500", "135332.482500", "135333.972500", "135335.462500", "135336.952500", "135338.442500", "135339.932500", "135341.422500", "135342.912500", "135344.402500", "135345.892500", "135347.382500", "135348.872500", "135350.362500", "135351.852500"],
      "ContentTime": ["135037.863000", "135037.867000", "135037.876000", "135037.880000", "135037.883000", "135037.886000", "135037.890000", "135037.893000", "135037.897000", "135037.900000", "135037.904000", "135037.907000", "135037.911000", "135037.914000", "135037.918000", "135037.921000", "135037.924000", "135037.928000", "135037.931000", "135037.935000", "135037.938000", "135037.941000", "135037.954000", "135037.958000", "135037.961000", "135037.964000", "135037.968000", "135037.971000", "135037.975000", "135037.978000", "135037.982000", "135037.985000", "135037.988000", "135037.992000", "135037.995000", "135057.799000", "135057.803000", "135057.806000", "135057.810000", "135057.814000", "135057.817000", "135057.820000", "135057.824000", "135057.827000", "135057.830000", "135057.834000", "135057.837000", "135057.841000", "135057.844000", "135057.847000", "135057.851000", "135057.854000", "135057.858000", "135057.861000", "135057.880000", "135117.798000", "135117.802000", "135117.806000", "135117.809000", "135117.813000", "135117.816000", "135117.820000", "135117.823000", "135117.826000", "135117.830000", "135117.833000", "135117.837000", "135117.840000", "135117.843000", "135117.847000", "135117.851000", "135117.854000", "135117.858000", "135117.861000", "135117.865000", "135137.798000", "135137.802000", "135137.806000", "135137.809000", "135137.812000", "135137.816000", "135137.819000", "135137.823000", "135137.826000", "135137.829000", "135137.833000", "135137.836000", "135137.840000", "135137.843000", "135137.846000", "135137.850000", "135137.853000", "135137.857000", "135137.860000", "135137.863000", "135217.798000", "135217.802000", "135217.806000", "135217.809000", "135217.812000", "135217.816000", "135217.819000", "135217.823000", "135217.826000", "135217.830000", "135217.833000", "135217.836000", "135217.840000", "135217.843000", "135217.847000", "135217.850000", "135217.854000", "135217.857000", "135217.860000", "135217.864000", "135217.867000", "135217.871000", "135217.874000", "135217.878000", "135217.881000", "135217.884000", "135217.888000", "135217.891000", "135217.895000", "135217.898000", "135257.799000", "135257.803000", "135257.807000", "135257.810000", "135257.814000", "135257.817000", "135257.820000", "135257.824000", "135257.827000", "135257.831000", "135257.834000", "135257.838000", "135257.841000", "135257.844000", "135257.848000", "135257.851000", "135257.855000", "135257.858000", "135257.862000", "135257.865000", "135257.869000", "135257.872000", "135257.875000", "135257.879000", "135257.882000", "135257.886000", "135257.889000", "135337.814000", "135337.818000", "135337.821000", "135337.824000", "135337.828000", "135337.832000", "135337.835000", "135337.838000", "135337.842000", "135337.845000", "135337.849000", "135337.852000", "135337.856000", "135337.859000", "135337.862000", "135337.866000", "135337.869000", "135337.873000", "135337.876000", "135337.879000", "135337.883000", "135337.886000", "135337.890000", "135337.893000", "135337.897000", "135337.900000", "135337.904000", "135353.730000", "135353.733000", "135353.737000", "135353.740000", "135353.744000", "135353.747000", "135353.751000", "135353.754000", "135353.757000", "135353.761000", "135353.764000"],
      "InstanceCreationTime": ["135037.863000", "135037.867000", "135037.876000", "135037.880000", "135037.883000", "135037.886000", "135037.890000", "135037.893000", "135037.897000", "135037.900000", "135037.904000", "135037.907000", "135037.911000", "135037.914000", "135037.918000", "135037.921000", "135037.924000", "135037.928000", "135037.931000", "135037.935000", "135037.938000", "135037.941000", "135037.954000", "135037.958000", "135037.961000", "135037.964000", "135037.968000", "135037.971000", "135037.975000", "135037.978000", "135037.982000", "135037.985000", "135037.988000", "135037.992000", "135037.995000", "135057.799000", "135057.803000", "135057.806000", "135057.810000", "135057.814000", "135057.817000", "135057.820000", "135057.824000", "135057.827000", "135057.830000", "135057.834000", "135057.837000", "135057.841000", "135057.844000", "135057.847000", "135057.851000", "135057.854000", "135057.858000", "135057.861000", "135057.880000", "135117.798000", "135117.802000", "135117.806000", "135117.809000", "135117.813000", "135117.816000", "135117.820000", "135117.823000", "135117.826000", "135117.830000", "135117.833000", "135117.837000", "135117.840000", "135117.843000", "135117.847000", "135117.851000", "135117.854000", "135117.858000", "135117.861000", "135117.865000", "135137.798000", "135137.802000", "135137.806000", "135137.809000", "135137.812000", "135137.816000", "135137.819000", "135137.823000", "135137.826000", "135137.829000", "135137.833000", "135137.836000", "135137.840000", "135137.843000", "135137.846000", "135137.850000", "135137.853000", "135137.857000", "135137.860000", "135137.863000", "135217.798000", "135217.802000", "135217.806000", "135217.809000", "135217.812000", "135217.816000", "135217.819000", "135217.823000", "135217.826000", "135217.830000", "135217.833000", "135217.836000", "135217.840000", "135217.843000", "135217.847000", "135217.850000", "135217.854000", "135217.857000", "135217.860000", "135217.864000", "135217.867000", "135217.871000", "135217.874000", "135217.878000", "135217.881000", "135217.884000", "135217.888000", "135217.891000", "135217.895000", "135217.898000", "135257.799000", "135257.803000", "135257.807000", "135257.810000", "135257.814000", "135257.817000", "135257.820000", "135257.824000", "135257.827000", "135257.831000", "135257.834000", "135257.838000", "135257.841000", "135257.844000", "135257.848000", "135257.851000", "135257.855000", "135257.858000", "135257.862000", "135257.865000", "135257.869000", "135257.872000", "135257.875000", "135257.879000", "135257.882000", "135257.886000", "135257.889000", "135337.814000", "135337.818000", "135337.821000", "135337.824000", "135337.828000", "135337.832000", "135337.835000", "135337.838000", "135337.842000", "135337.845000", "135337.849000", "135337.852000", "135337.856000", "135337.859000", "135337.862000", "135337.866000", "135337.869000", "135337.873000", "135337.876000", "135337.879000", "135337.883000", "135337.886000", "135337.890000", "135337.893000", "135337.897000", "135337.900000", "135337.904000", "135353.730000", "135353.733000", "135353.737000", "135353.740000", "135353.744000", "135353.747000", "135353.751000", "135353.754000", "135353.757000", "135353.761000", "135353.764000"],
      "InstanceNumber": [1, 2, 3, 4, 5, 6, 7, 8, 9, 10, 11, 12, 13, 14, 15, 16, 17, 18, 19, 20, 21, 22, 23, 24, 25, 26, 27, 28, 29, 30, 31, 32, 33, 34, 35, 36, 37, 38, 39, 40, 41, 42, 43, 44, 45, 46, 47, 48, 49, 50, 51, 52, 53, 54, 55, 56, 57, 58, 59, 60, 61, 62, 63, 64, 65, 66, 67, 68, 69, 70, 71, 72, 73, 74, 75, 76, 77, 78, 79, 80, 81, 82, 83, 84, 85, 86, 87, 88, 89, 90, 91, 92, 93, 94, 95, 96, 97, 98, 99, 100, 101, 102, 103, 104, 105, 106, 107, 108, 109, 110, 111, 112, 113, 114, 115, 116, 117, 118, 119, 120, 121, 122, 123, 124, 125, 126, 127, 128, 129, 130, 131, 132, 133, 134, 135, 136, 137, 138, 139, 140, 141, 142, 143, 144, 145, 146, 147, 148, 149, 150, 151, 152, 153, 154, 155, 156, 157, 158, 159, 160, 161, 162, 163, 164, 165, 166, 167, 168, 169, 170, 171, 172, 173, 174, 175, 176, 177, 178, 179, 180, 181, 182, 183, 184, 185, 186, 187, 188, 189, 190],
      "LargestImagePixelValue": [46657, 46728, 44525, 44659, 46156, 46520, 45642, 43389, 44151, 44632, 45187, 44494, 45654, 45005, 45738, 45250, 45599, 44711, 44677, 45649, 44595, 44818, 45817, 45701, 45076, 46047, 45275, 45689, 45931, 44866, 45494, 45724, 45412, 45983, 44995, 45867, 45845, 45852, 45468, 45474, 45729, 45024, 45309, 45115, 45788, 45392, 45448, 46072, 45422, 45296, 45646, 45084, 45633, 45455, 45147, 45717, 45494, 45002, 45595, 45537, 45834, 46207, 45383, 45242, 45046, 45231, 45473, 45049, 45429, 45727, 44568, 45525, 45278, 46458, 45256, 46342, 45143, 45193, 44987, 45206, 45268, 44940, 45270, 45028, 45579, 45730, 45646, 45181, 45390, 44930, 45775, 45115, 45661, 45021, 45694, 45905, 45102, 46032, 45479, 45942, 45804, 44671, 45586, 45550, 45487, 44996, 45464, 45247, 45354, 45724, 45594, 45574, 45568, 45207, 45050, 45598, 44827, 45811, 44816, 45621, 45189, 45113, 45459, 45996, 44956, 45747, 45767, 45408, 45729, 45650, 45570, 45351, 45850, 45455, 44918, 45668, 44865, 46252, 45216, 46508, 45903, 45220, 45847, 45516, 46016, 45517, 45655, 44800, 45777, 45709, 45855, 45614, 44779, 46108, 45777, 45716, 45799, 45998, 46083, 46352, 45628, 46248, 46298, 45632, 46076, 45964, 45884, 45011, 46036, 45988, 45812, 46302, 45235, 45949, 45657, 45734, 45380, 46338, 45590, 46286, 46168, 46232, 46493, 46101, 46850, 46104, 46846, 46338, 46331, 46845],
      "WindowCenter": [10974.0, 10932.0, 10893.0, 10895.0, 10954.0, 10966.0, 10970.0, 10951.0, 10936.0, 10931.0, 10948.0, 10959.0, 10970.0, 10949.0, 10954.0, 10940.0, 10938.0, 10931.0, 10923.0, 10922.0, 10915.0, 10936.0, 10940.0, 10948.0, 10945.0, 10946.0, 10944.0, 10943.0, 10928.0, 10918.0, 10918.0, 10928.0, 10931.0, 10946.0, 10936.0, 10934.0, 10937.0, 10935.0, 10927.0, 10924.0, 10924.0, 10927.0, 10936.0, 10937.0, 10941.0, 10943.0, 10935.0, 10929.0, 10928.0, 10919.0, 10908.0, 10910.0, 10914.0, 10922.0, 10920.0, 10926.0, 10931.0, 10922.0, 10899.0, 10896.0, 10909.0, 10902.0, 10912.0, 10911.0, 10907.0, 10907.0, 10907.0, 10910.0, 10910.0, 10923.0, 10893.0, 10887.0, 10898.0, 10933.0, 10927.0, 10941.0, 10910.0, 10903.0, 10892.0, 10897.0, 10904.0, 10910.0, 10918.0, 10927.0, 10917.0, 10907.0, 10917.0, 10915.0, 10902.0, 10893.0, 10888.0, 10872.0, 10894.0, 10882.0, 10887.0, 10901.0, 10893.0, 10886.0, 10872.0, 10886.0, 10885.0, 10885.0, 10889.0, 10885.0, 10877.0, 10872.0, 10877.0, 10873.0, 10888.0, 10897.0, 10895.0, 10900.0, 10907.0, 10916.0, 10901.0, 10884.0, 10870.0, 10891.0, 10881.0, 10902.0, 10912.0, 10916.0, 10915.0, 10922.0, 10885.0, 10886.0, 10879.0, 10872.0, 10876.0, 10887.0, 10886.0, 10889.0, 10893.0, 10880.0, 10883.0, 10892.0, 10877.0, 10907.0, 10894.0, 10912.0, 10900.0, 10891.0, 10898.0, 10863.0, 10886.0, 10877.0, 10887.0, 10880.0, 10894.0, 10890.0, 10880.0, 10879.0, 10876.0, 10887.0, 10886.0, 10890.0, 10898.0, 10895.0, 10895.0, 10886.0, 10878.0, 10891.0, 10886.0, 10885.0, 10888.0, 10903.0, 10880.0, 10875.0, 10885.0, 10874.0, 10887.0, 10892.0, 10885.0, 10904.0, 10899.0, 10890.0, 10880.0, 10892.0, 10865.0, 10882.0, 10876.0, 10875.0, 10881.0, 10885.0, 10892.0, 10886.0, 10884.0, 10878.0, 10885.0, 10874.0],
      "WindowWidth": [23691.0, 23553.0, 23452.0, 23449.0, 23576.0, 23597.0, 23603.0, 23566.0, 23529.0, 23511.0, 23548.0, 23573.0, 23594.0, 23547.0, 23557.0, 23531.0, 23527.0, 23509.0, 23491.0, 23486.0, 23476.0, 23521.0, 23527.0, 23543.0, 23537.0, 23534.0, 23533.0, 23531.0, 23494.0, 23476.0, 23475.0, 23495.0, 23502.0, 23535.0, 23514.0, 23509.0, 23518.0, 23512.0, 23495.0, 23488.0, 23488.0, 23495.0, 23518.0, 23522.0, 23526.0, 23529.0, 23512.0, 23490.0, 23495.0, 23478.0, 23449.0, 23456.0, 23460.0, 23480.0, 23479.0, 23488.0, 23500.0, 23485.0, 23430.0, 23420.0, 23447.0, 23433.0, 23455.0, 23457.0, 23447.0, 23447.0, 23449.0, 23458.0, 23456.0, 23485.0, 23421.0, 23401.0, 23427.0, 23501.0, 23493.0, 23525.0, 23459.0, 23444.0, 23419.0, 23428.0, 23444.0, 23462.0, 23478.0, 23499.0, 23475.0, 23452.0, 23474.0, 23474.0, 23441.0, 23421.0, 23409.0, 23374.0, 23420.0, 23394.0, 23404.0, 23432.0, 23418.0, 23398.0, 23365.0, 23403.0, 23393.0, 23403.0, 23406.0, 23395.0, 23378.0, 23370.0, 23380.0, 23374.0, 23404.0, 23426.0, 23421.0, 23431.0, 23448.0, 23467.0, 23437.0, 23399.0, 23370.0, 23407.0, 23392.0, 23436.0, 23462.0, 23467.0, 23462.0, 23479.0, 23399.0, 23398.0, 23382.0, 23368.0, 23373.0, 23399.0, 23395.0, 23404.0, 23413.0, 23387.0, 23392.0, 23416.0, 23378.0, 23441.0, 23421.0, 23456.0, 23430.0, 23411.0, 23425.0, 23345.0, 23396.0, 23375.0, 23397.0, 23386.0, 23412.0, 23404.0, 23383.0, 23384.0, 23381.0, 23398.0, 23395.0, 23405.0, 23426.0, 23412.0, 23413.0, 23391.0, 23373.0, 23404.0, 23394.0, 23390.0, 23395.0, 23435.0, 23382.0, 23373.0, 23393.0, 23369.0, 23400.0, 23408.0, 23399.0, 23436.0, 23427.0, 23408.0, 23384.0, 23406.0, 23352.0, 23383.0, 23373.0, 23368.0, 23379.0, 23389.0, 23404.0, 23395.0, 23388.0, 23376.0, 23394.0, 23365.0]
    },
    "slices": {}
  }
}