{
  "AcquisitionMatrixPE": 104,
  "AcquisitionNumber": 1,
  "AcquisitionTime": "13:41:22.435000",
  "BandwidthPerPixelPhaseEncode": 17.17,
  "BaseResolution": 104,
  "BodyPartExamined": "BRAIN",
  "CoilString": "HC1-7;NC1_2",
  "ConsistencyInfo": "N4_VE11C_LATEST_20160120",
  "ConversionSoftware": "dcm2niix",
  "ConversionSoftwareVersion": "v1.0.20190902",
  "DerivedVendorReportedEchoSpacing": 0.000560011,
  "DeviceSerialNumber": "167006",
  "DwellTime": 2.1e-06,
  "EchoTime": 0.037,
  "EchoTrainLength": 104,
  "EffectiveEchoSpacing": 0.000560011,
  "FlipAngle": 52,
  "ImageComments": "Unaliased_MB4_PE3_LB",
  "ImageOrientationPatientDICOM": [0.999202, 0.0282047, 0.028292, -0.0205813, 0.970419, -0.240546],
  "ImageType": [
    "ORIGINAL",
    "PRIMARY",
    "P",
    "MB",
    "ND",
    "MOSAIC"
],
  "ImagingFrequency": 123.259,
  "InPlanePhaseEncodingDirectionDICOM": "COL",
  "InstitutionAddress": "Chemin_Queen-Mary_4565_Montreal_District_CA_H3W_1W5",
  "InstitutionName": "IUGM",
  "InstitutionalDepartmentName": "Department",
  "MRAcquisitionType": "2D",
  "MagneticFieldStrength": 3,
  "Manufacturer": "Siemens",
  "ManufacturersModelName": "Prisma_fit",
  "Modality": "MR",
  "MultibandAccelerationFactor": 4,
  "PartialFourier": 1,
  "PatientPosition": "HFS",
  "PercentPhaseFOV": 100,
  "PhaseEncodingDirection": "j",
  "PhaseEncodingSteps": 104,
  "PhaseResolution": 1,
  "PixelBandwidth": 2290,
  "ProcedureStepDescription": "memory_things",
  "ProtocolName": "func_task-things_run-3",
  "PulseSequenceDetails": "%CustomerSeq%_cmrr_mbep2d_bold",
  "ReceiveCoilActiveElements": "HC1-7;NC1,2",
  "ReceiveCoilName": "HeadNeck_64",
  "ReconMatrixPE": 104,
  "RepetitionTime": 1.49,
  "SAR": 0.0410057,
  "ScanOptions": "FS",
  "ScanningSequence": "EP",
  "SequenceName": "epfid2d1_104",
  "SequenceVariant": "SK_SS",
  "SeriesDescription": "func_task-things_run-3",
  "SeriesNumber": 17,
  "ShimSetting": [640, -7213, -8781, 729, 64, 10, 105, -15],
  "SliceThickness": 2,
  "SliceTiming": [0, 0.7825, 0.0975, 0.88, 0.195, 0.98, 0.2925, 1.0775, 0.39, 1.175, 0.49, 1.2725, 0.5875, 1.37, 0.685, 0, 0.7825, 0.0975, 0.88, 0.195, 0.98, 0.2925, 1.0775, 0.39, 1.175, 0.49, 1.2725, 0.5875, 1.37, 0.685, 0, 0.7825, 0.0975, 0.88, 0.195, 0.98, 0.2925, 1.0775, 0.39, 1.175, 0.49, 1.2725, 0.5875, 1.37, 0.685, 0, 0.7825, 0.0975, 0.88, 0.195, 0.98, 0.2925, 1.0775, 0.39, 1.175, 0.49, 1.2725, 0.5875, 1.37, 0.685],
  "SoftwareVersions": "syngo_MR_E11",
  "SpacingBetweenSlices": 2,
  "StationName": "MRC35049",
  "TaskName": "things",
  "TotalReadoutTime": 0.0576811,
  "TxRefAmp": 217.264,
  "WipMemBlock": "7a50122d-b75c-42fe-b1a3-6b5b25757878||Sequence: R016 ve11c/master r/e634e98; Dec 19 2017 11:00:25 by eja",
  "dcmmeta_affine": [
    [-1.9984034299850464, -0.041162602603435516, 0.06847932934761047, 109.32850646972656],
    [-0.05640944838523865, 1.9408388137817383, -0.4795440435409546, -72.38069915771484],
    [0.056584034115076065, 0.4810926616191864, 1.9404504299163818, -62.11087417602539],
    [0.0, 0.0, 0.0, 1.0]
],
  "dcmmeta_reorient_transform": [
    [0.0, -1.0, 0.0, 103.0],
    [1.0, 0.0, 0.0, 0.0],
    [0.0, 0.0, 1.0, 0.0],
    [0.0, 0.0, 0.0, 1.0]
],
  "dcmmeta_shape": [104, 104, 60, 190],
  "dcmmeta_slice_dim": 2,
  "dcmmeta_version": 0.6,
  "global": {
    "const": {
      "AcquisitionMatrix": [104, 0, 0, 104],
      "AngioFlag": "N",
      "BitsAllocated": 16,
      "BitsStored": 16,
      "BodyPartExamined": "BRAIN",
      "Columns": 832,
      "EchoNumbers": 1,
      "EchoTime": 37.0,
      "EchoTrainLength": 104,
      "FlipAngle": 52.0,
      "HighBit": 15,
      "ImageOrientationPatient": [0.99920170901789, 0.02820472492444, 0.02829201632392, -0.0205813020719, 0.97041942993997, -0.2405463364926],
      "ImagePositionPatient": [-817.52441345758, -854.52408766445, 141.9628162126],
      "ImageType": [
        "ORIGINAL",
        "PRIMARY",
        "P",
        "MB",
        "ND",
        "MOSAIC"
],
      "ImagedNucleus": "1H",
      "ImagingFrequency": 123.258958,
      "InPlanePhaseEncodingDirection": "COL",
      "LargestImagePixelValue": 4095,
      "MRAcquisitionType": "2D",
      "MagneticFieldStrength": 3.0,
      "Manufacturer": "SIEMENS",
      "ManufacturerModelName": "Prisma_fit",
      "Modality": "MR",
      "NumberOfAverages": 1.0,
      "NumberOfPhaseEncodingSteps": 104,
      "PercentPhaseFieldOfView": 100.0,
      "PercentSampling": 100.0,
      "PerformedProcedureStepStartTime": "120819.282000",
      "PhotometricInterpretation": "MONOCHROME2",
      "PixelBandwidth": 2290.0,
      "PixelRepresentation": 0,
      "PixelSpacing": [2.0, 2.0],
      "ProtocolName": "func_task-things_run-3",
      "RepetitionTime": 1490.0,
      "RescaleIntercept": -4096.0,
      "RescaleSlope": 2.0,
      "RescaleType": "US",
      "Rows": 832,
      "SAR": 0.04100566438721,
      "SamplesPerPixel": 1,
      "ScanOptions": "FS",
      "ScanningSequence": "EP",
      "SequenceName": "epfid2d1_104",
      "SequenceVariant": [
        "SK",
        "SS"
],
      "SeriesDescription": "func_task-things_run-3",
      "SeriesNumber": 17,
      "SeriesTime": "134235.252000",
      "SliceLocation": -39.163299672377,
      "SliceThickness": 2.0,
      "SmallestImagePixelValue": 0,
      "SoftwareVersions": "syngo MR E11",
      "SpacingBetweenSlices": 1.9999999551963,
      "SpecificCharacterSet": "ISO_IR 100",
      "StudyID": "1",
      "StudyTime": "120819.165000",
      "TransmitCoilName": "Body",
      "VariableFlipAngleFlag": "N",
      "WindowCenterWidthExplanation": "Algo1",
      "dBdt": 0.0},
    "slices": {}
  },
  "time": {
    "samples": {
      "AcquisitionNumber": [1, 2, 3, 4, 5, 6, 7, 8, 9, 10, 11, 12, 13, 14, 15, 16, 17, 18, 19, 20, 21, 22, 23, 24, 25, 26, 27, 28, 29, 30, 31, 32, 33, 34, 35, 36, 37, 38, 39, 40, 41, 42, 43, 44, 45, 46, 47, 48, 49, 50, 51, 52, 53, 54, 55, 56, 57, 58, 59, 60, 61, 62, 63, 64, 65, 66, 67, 68, 69, 70, 71, 72, 73, 74, 75, 76, 77, 78, 79, 80, 81, 82, 83, 84, 85, 86, 87, 88, 89, 90, 91, 92, 93, 94, 95, 96, 97, 98, 99, 100, 101, 102, 103, 104, 105, 106, 107, 108, 109, 110, 111, 112, 113, 114, 115, 116, 117, 118, 119, 120, 121, 122, 123, 124, 125, 126, 127, 128, 129, 130, 131, 132, 133, 134, 135, 136, 137, 138, 139, 140, 141, 142, 143, 144, 145, 146, 147, 148, 149, 150, 151, 152, 153, 154, 155, 156, 157, 158, 159, 160, 161, 162, 163, 164, 165, 166, 167, 168, 169, 170, 171, 172, 173, 174, 175, 176, 177, 178, 179, 180, 181, 182, 183, 184, 185, 186, 187, 188, 189, 190],
      "AcquisitionTime": ["134122.435000", "134123.925000", "134125.415000", "134126.905000", "134128.395000", "134129.885000", "134131.375000", "134132.865000", "134134.355000", "134135.845000", "134137.335000", "134138.825000", "134140.315000", "134141.805000", "134143.295000", "134144.785000", "134146.275000", "134147.765000", "134149.255000", "134150.745000", "134152.235000", "134153.725000", "134155.215000", "134156.705000", "134158.195000", "134159.685000", "134201.175000", "134202.665000", "134204.155000", "134205.645000", "134207.135000", "134208.625000", "134210.115000", "134211.605000", "134213.095000", "134214.585000", "134216.075000", "134217.565000", "134219.055000", "134220.545000", "134222.035000", "134223.525000", "134225.015000", "134226.505000", "134227.995000", "134229.485000", "134230.975000", "134232.465000", "134233.955000", "134235.445000", "134236.935000", "134238.425000", "134239.915000", "134241.405000", "134242.895000", "134244.385000", "134245.875000", "134247.365000", "134248.855000", "134250.345000", "134251.835000", "134253.325000", "134254.815000", "134256.305000", "134257.795000", "134259.285000", "134300.775000", "134302.265000", "134303.755000", "134305.245000", "134306.735000", "134308.225000", "134309.715000", "134311.205000", "134312.695000", "134314.185000", "134315.675000", "134317.165000", "134318.655000", "134320.145000", "134321.635000", "134323.125000", "134324.615000", "134326.105000", "134327.595000", "134329.085000", "134330.575000", "134332.065000", "134333.555000", "134335.045000", "134336.535000", "134338.025000", "134339.515000", "134341.005000", "134342.495000", "134343.985000", "134345.475000", "134346.965000", "134348.455000", "134349.945000", "134351.435000", "134352.925000", "134354.415000", "134355.905000", "134357.395000", "134358.885000", "134400.375000", "134401.865000", "134403.355000", "134404.845000", "134406.335000", "134407.825000", "134409.315000", "134410.805000", "134412.295000", "134413.785000", "134415.275000", "134416.765000", "134418.255000", "134419.745000", "134421.235000", "134422.725000", "134424.215000", "134425.705000", "134427.195000", "134428.685000", "134430.175000", "134431.665000", "134433.155000", "134434.645000", "134436.135000", "134437.625000", "134439.115000", "134440.605000", "134442.095000", "134443.585000", "134445.075000", "134446.565000", "134448.055000", "134449.545000", "134451.035000", "134452.525000", "134454.015000", "134455.505000", "134456.995000", "134458.485000", "134459.975000", "134501.465000", "134502.955000", "134504.445000", "134505.935000", "134507.425000", "134508.915000", "134510.405000", "134511.895000", "134513.385000", "134514.875000", "134516.365000", "134517.855000", "134519.345000", "134520.835000", "134522.325000", "134523.815000", "134525.305000", "134526.795000", "134528.285000", "134529.775000", "134531.265000", "134532.755000", "134534.245000", "134535.735000", "134537.225000", "134538.715000", "134540.205000", "134541.695000", "134543.185000", "134544.675000", "134546.165000", "134547.655000", "134549.145000", "134550.635000", "134552.125000", "134553.615000", "134555.105000", "134556.595000", "134558.085000", "134559.575000", "134601.065000", "134602.555000", "134604.045000"],
      "ContentTime": ["134235.254000", "134235.257000", "134235.259000", "134235.262000", "134235.264000", "134235.267000", "134235.269000", "134235.272000", "134235.274000", "134235.277000", "134235.279000", "134235.282000", "134235.284000", "134235.286000", "134235.289000", "134235.291000", "134255.217000", "134255.220000", "134255.225000", "134255.228000", "134255.230000", "134255.233000", "134255.235000", "134255.238000", "134255.240000", "134255.243000", "134255.245000", "134255.247000", "134255.250000", "134255.252000", "134255.255000", "134255.257000", "134255.260000", "134255.262000", "134255.264000", "134255.267000", "134315.240000", "134315.243000", "134315.245000", "134315.248000", "134315.250000", "134315.253000", "134315.262000", "134315.264000", "134315.267000", "134315.269000", "134315.272000", "134315.274000", "134315.276000", "134315.279000", "134315.282000", "134315.284000", "134315.287000", "134315.289000", "134315.291000", "134315.294000", "134315.296000", "134335.176000", "134335.179000", "134335.181000", "134335.184000", "134335.186000", "134335.189000", "134335.191000", "134335.193000", "134335.196000", "134335.198000", "134335.201000", "134335.203000", "134335.206000", "134335.208000", "134335.211000", "134335.213000", "134335.216000", "134335.218000", "134335.221000", "134335.223000", "134355.226000", "134355.229000", "134355.232000", "134355.234000", "134355.237000", "134355.245000", "134355.247000", "134355.250000", "134355.252000", "134355.255000", "134355.257000", "134355.260000", "134355.262000", "134355.265000", "134355.267000", "134355.270000", "134355.272000", "134355.275000", "134355.277000", "134355.280000", "134435.252000", "134435.255000", "134435.257000", "134435.260000", "134435.263000", "134435.265000", "134435.269000", "134435.271000", "134435.274000", "134435.277000", "134435.279000", "134435.282000", "134435.290000", "134435.292000", "134435.295000", "134435.297000", "134435.300000", "134435.303000", "134435.305000", "134435.308000", "134435.310000", "134435.313000", "134435.315000", "134435.318000", "134435.320000", "134435.323000", "134435.325000", "134435.328000", "134435.330000", "134435.333000", "134435.335000", "134515.225000", "134515.227000", "134515.230000", "134515.232000", "134515.235000", "134515.237000", "134515.240000", "134515.242000", "134515.245000", "134515.247000", "134515.250000", "134515.252000", "134515.255000", "134515.257000", "134515.260000", "134515.262000", "134515.265000", "134515.267000", "134515.270000", "134515.272000", "134515.275000", "134515.277000", "134515.280000", "134515.282000", "134515.285000", "134515.287000", "134515.290000", "134555.216000", "134555.219000", "134555.221000", "134555.224000", "134555.226000", "134555.228000", "134555.231000", "134555.233000", "134555.236000", "134555.238000", "134555.241000", "134555.243000", "134555.246000", "134555.248000", "134555.251000", "134555.253000", "134555.256000", "134555.258000", "134555.261000", "134555.263000", "134555.266000", "134555.268000", "134555.271000", "134555.273000", "134555.276000", "134555.278000", "134555.280000", "134606.441000", "134606.443000", "134606.446000", "134606.448000", "134606.451000", "134606.454000", "134606.456000", "134606.459000"],
      "InstanceCreationTime": ["134235.254000", "134235.257000", "134235.259000", "134235.262000", "134235.264000", "134235.267000", "134235.269000", "134235.272000", "134235.274000", "134235.277000", "134235.279000", "134235.282000", "134235.284000", "134235.286000", "134235.289000", "134235.291000", "134255.217000", "134255.220000", "134255.225000", "134255.228000", "134255.230000", "134255.233000", "134255.235000", "134255.238000", "134255.240000", "134255.243000", "134255.245000", "134255.247000", "134255.250000", "134255.252000", "134255.255000", "134255.257000", "134255.260000", "134255.262000", "134255.264000", "134255.267000", "134315.240000", "134315.243000", "134315.245000", "134315.248000", "134315.250000", "134315.253000", "134315.262000", "134315.264000", "134315.267000", "134315.269000", "134315.272000", "134315.274000", "134315.276000", "134315.279000", "134315.282000", "134315.284000", "134315.287000", "134315.289000", "134315.291000", "134315.294000", "134315.296000", "134335.176000", "134335.179000", "134335.181000", "134335.184000", "134335.186000", "134335.189000", "134335.191000", "134335.193000", "134335.196000", "134335.198000", "134335.201000", "134335.203000", "134335.206000", "134335.208000", "134335.211000", "134335.213000", "134335.216000", "134335.218000", "134335.221000", "134335.223000", "134355.226000", "134355.229000", "134355.232000", "134355.234000", "134355.237000", "134355.245000", "134355.247000", "134355.250000", "134355.252000", "134355.255000", "134355.257000", "134355.260000", "134355.262000", "134355.265000", "134355.267000", "134355.270000", "134355.272000", "134355.275000", "134355.277000", "134355.280000", "134435.252000", "134435.255000", "134435.257000", "134435.260000", "134435.263000", "134435.265000", "134435.269000", "134435.271000", "134435.274000", "134435.277000", "134435.279000", "134435.282000", "134435.290000", "134435.292000", "134435.295000", "134435.297000", "134435.300000", "134435.303000", "134435.305000", "134435.308000", "134435.310000", "134435.313000", "134435.315000", "134435.318000", "134435.320000", "134435.323000", "134435.325000", "134435.328000", "134435.330000", "134435.333000", "134435.335000", "134515.225000", "134515.227000", "134515.230000", "134515.232000", "134515.235000", "134515.237000", "134515.240000", "134515.242000", "134515.245000", "134515.247000", "134515.250000", "134515.252000", "134515.255000", "134515.257000", "134515.260000", "134515.262000", "134515.265000", "134515.267000", "134515.270000", "134515.272000", "134515.275000", "134515.277000", "134515.280000", "134515.282000", "134515.285000", "134515.287000", "134515.290000", "134555.216000", "134555.219000", "134555.221000", "134555.224000", "134555.226000", "134555.228000", "134555.231000", "134555.233000", "134555.236000", "134555.238000", "134555.241000", "134555.243000", "134555.246000", "134555.248000", "134555.251000", "134555.253000", "134555.256000", "134555.258000", "134555.261000", "134555.263000", "134555.266000", "134555.268000", "134555.271000", "134555.273000", "134555.276000", "134555.278000", "134555.280000", "134606.441000", "134606.443000", "134606.446000", "134606.448000", "134606.451000", "134606.454000", "134606.456000", "134606.459000"],
      "InstanceNumber": [1, 2, 3, 4, 5, 6, 7, 8, 9, 10, 11, 12, 13, 14, 15, 16, 17, 18, 19, 20, 21, 22, 23, 24, 25, 26, 27, 28, 29, 30, 31, 32, 33, 34, 35, 36, 37, 38, 39, 40, 41, 42, 43, 44, 45, 46, 47, 48, 49, 50, 51, 52, 53, 54, 55, 56, 57, 58, 59, 60, 61, 62, 63, 64, 65, 66, 67, 68, 69, 70, 71, 72, 73, 74, 75, 76, 77, 78, 79, 80, 81, 82, 83, 84, 85, 86, 87, 88, 89, 90, 91, 92, 93, 94, 95, 96, 97, 98, 99, 100, 101, 102, 103, 104, 105, 106, 107, 108, 109, 110, 111, 112, 113, 114, 115, 116, 117, 118, 119, 120, 121, 122, 123, 124, 125, 126, 127, 128, 129, 130, 131, 132, 133, 134, 135, 136, 137, 138, 139, 140, 141, 142, 143, 144, 145, 146, 147, 148, 149, 150, 151, 152, 153, 154, 155, 156, 157, 158, 159, 160, 161, 162, 163, 164, 165, 166, 167, 168, 169, 170, 171, 172, 173, 174, 175, 176, 177, 178, 179, 180, 181, 182, 183, 184, 185, 186, 187, 188, 189, 190],
      "WindowCenter": [4758.0, 4782.0, 4762.0, 4756.0, 4782.0, 4780.0, 4758.0, 4780.0, 4780.0, 4784.0, 4784.0, 4756.0, 4760.0, 4780.0, 4780.0, 4756.0, 4784.0, 4756.0, 4758.0, 4784.0, 4780.0, 4782.0, 4786.0, 4760.0, 4756.0, 4760.0, 4758.0, 4758.0, 4758.0, 4782.0, 4758.0, 4758.0, 4780.0, 4762.0, 4760.0, 4760.0, 4782.0, 4760.0, 4784.0, 4784.0, 4784.0, 4760.0, 4758.0, 4782.0, 4760.0, 4758.0, 4784.0, 4758.0, 4760.0, 4758.0, 4780.0, 4784.0, 4758.0, 4758.0, 4760.0, 4780.0, 4782.0, 4758.0, 4760.0, 4782.0, 4762.0, 4760.0, 4756.0, 4760.0, 4760.0, 4782.0, 4758.0, 4780.0, 4760.0, 4756.0, 4758.0, 4782.0, 4780.0, 4760.0, 4758.0, 4760.0, 4782.0, 4760.0, 4758.0, 4758.0, 4758.0, 4782.0, 4760.0, 4756.0, 4780.0, 4760.0, 4782.0, 4782.0, 4780.0, 4784.0, 4760.0, 4758.0, 4782.0, 4782.0, 4782.0, 4762.0, 4782.0, 4758.0, 4758.0, 4758.0, 4782.0, 4758.0, 4780.0, 4760.0, 4758.0, 4786.0, 4764.0, 4762.0, 4760.0, 4758.0, 4778.0, 4782.0, 4766.0, 4764.0, 4782.0, 4756.0, 4754.0, 4756.0, 4760.0, 4784.0, 4762.0, 4762.0, 4764.0, 4786.0, 4786.0, 4756.0, 4782.0, 4760.0, 4782.0, 4782.0, 4760.0, 4762.0, 4760.0, 4760.0, 4760.0, 4758.0, 4782.0, 4760.0, 4758.0, 4784.0, 4760.0, 4784.0, 4786.0, 4762.0, 4784.0, 4782.0, 4760.0, 4760.0, 4784.0, 4760.0, 4784.0, 4758.0, 4760.0, 4760.0, 4760.0, 4782.0, 4760.0, 4786.0, 4782.0, 4762.0, 4756.0, 4784.0, 4760.0, 4760.0, 4762.0, 4760.0, 4760.0, 4760.0, 4784.0, 4784.0, 4780.0, 4784.0, 4758.0, 4764.0, 4758.0, 4758.0, 4758.0, 4782.0, 4762.0, 4784.0, 4758.0, 4760.0, 4762.0, 4784.0, 4784.0, 4760.0, 4782.0, 4758.0, 4762.0, 4784.0],
      "WindowWidth": [18544.0, 18570.0, 18542.0, 18544.0, 18572.0, 18570.0, 18538.0, 18570.0, 18574.0, 18572.0, 18566.0, 18536.0, 18542.0, 18568.0, 18568.0, 18538.0, 18574.0, 18540.0, 18542.0, 18570.0, 18570.0, 18568.0, 18576.0, 18542.0, 18538.0, 18542.0, 18540.0, 18542.0, 18542.0, 18572.0, 18542.0, 18540.0, 18570.0, 18544.0, 18542.0, 18542.0, 18572.0, 18540.0, 18568.0, 18572.0, 18574.0, 18540.0, 18540.0, 18568.0, 18542.0, 18538.0, 18570.0, 18542.0, 18542.0, 18534.0, 18570.0, 18572.0, 18538.0, 18540.0, 18540.0, 18570.0, 18572.0, 18538.0, 18538.0, 18572.0, 18536.0, 18540.0, 18542.0, 18540.0, 18540.0, 18566.0, 18540.0, 18570.0, 18542.0, 18532.0, 18538.0, 18570.0, 18568.0, 18538.0, 18538.0, 18540.0, 18570.0, 18538.0, 18536.0, 18536.0, 18538.0, 18572.0, 18540.0, 18538.0, 18572.0, 18536.0, 18572.0, 18574.0, 18570.0, 18572.0, 18544.0, 18538.0, 18566.0, 18570.0, 18568.0, 18538.0, 18570.0, 18538.0, 18542.0, 18534.0, 18570.0, 18538.0, 18570.0, 18538.0, 18536.0, 18570.0, 18538.0, 18540.0, 18538.0, 18538.0, 18568.0, 18568.0, 18536.0, 18540.0, 18568.0, 18544.0, 18540.0, 18540.0, 18542.0, 18564.0, 18538.0, 18540.0, 18536.0, 18570.0, 18568.0, 18534.0, 18572.0, 18544.0, 18568.0, 18570.0, 18540.0, 18536.0, 18538.0, 18538.0, 18536.0, 18536.0, 18570.0, 18542.0, 18536.0, 18574.0, 18534.0, 18570.0, 18570.0, 18536.0, 18572.0, 18572.0, 18540.0, 18540.0, 18574.0, 18536.0, 18568.0, 18540.0, 18540.0, 18538.0, 18538.0, 18568.0, 18540.0, 18570.0, 18570.0, 18540.0, 18538.0, 18570.0, 18538.0, 18538.0, 18542.0, 18544.0, 18544.0, 18538.0, 18570.0, 18570.0, 18568.0, 18568.0, 18542.0, 18542.0, 18542.0, 18540.0, 18540.0, 18570.0, 18538.0, 18570.0, 18538.0, 18538.0, 18540.0, 18572.0, 18570.0, 18540.0, 18568.0, 18534.0, 18538.0, 18572.0]
    },
    "slices": {}
  }
}