{
  "AcquisitionMatrixPE": 104,
  "AcquisitionNumber": 1,
  "AcquisitionTime": "13:54:13.037500",
  "BandwidthPerPixelPhaseEncode": 17.17,
  "BaseResolution": 104,
  "BodyPartExamined": "BRAIN",
  "CoilString": "HC1-7;NC1_2",
  "ConsistencyInfo": "N4_VE11C_LATEST_20160120",
  "ConversionSoftware": "dcm2niix",
  "ConversionSoftwareVersion": "v1.0.20190902",
  "DerivedVendorReportedEchoSpacing": 0.000560011,
  "DeviceSerialNumber": "167006",
  "DwellTime": 2.1e-06,
  "EchoTime": 0.037,
  "EchoTrainLength": 104,
  "EffectiveEchoSpacing": 0.000560011,
  "FlipAngle": 52,
  "ImageComments": "Unaliased_MB4_PE3_LB",
  "ImageOrientationPatientDICOM": [0.999202, 0.0282047, 0.028292, -0.0205813, 0.970419, -0.240546],
  "ImageType": [
    "ORIGINAL",
    "PRIMARY",
    "P",
    "MB",
    "ND",
    "MOSAIC"
],
  "ImagingFrequency": 123.259,
  "InPlanePhaseEncodingDirectionDICOM": "COL",
  "InstitutionAddress": "Chemin_Queen-Mary_4565_Montreal_District_CA_H3W_1W5",
  "InstitutionName": "IUGM",
  "InstitutionalDepartmentName": "Department",
  "MRAcquisitionType": "2D",
  "MagneticFieldStrength": 3,
  "Manufacturer": "Siemens",
  "ManufacturersModelName": "Prisma_fit",
  "Modality": "MR",
  "MultibandAccelerationFactor": 4,
  "PartialFourier": 1,
  "PatientPosition": "HFS",
  "PercentPhaseFOV": 100,
  "PhaseEncodingDirection": "j",
  "PhaseEncodingSteps": 104,
  "PhaseResolution": 1,
  "PixelBandwidth": 2290,
  "ProcedureStepDescription": "memory_things",
  "ProtocolName": "func_task-things_run-5",
  "PulseSequenceDetails": "%CustomerSeq%_cmrr_mbep2d_bold",
  "ReceiveCoilActiveElements": "HC1-7;NC1,2",
  "ReceiveCoilName": "HeadNeck_64",
  "ReconMatrixPE": 104,
  "RepetitionTime": 1.49,
  "SAR": 0.0410057,
  "ScanOptions": "FS",
  "ScanningSequence": "EP",
  "SequenceName": "epfid2d1_104",
  "SequenceVariant": "SK_SS",
  "SeriesDescription": "func_task-things_run-5",
  "SeriesNumber": 23,
  "ShimSetting": [640, -7213, -8781, 729, 64, 10, 105, -15],
  "SliceThickness": 2,
  "SliceTiming": [0, 0.785, 0.1, 0.8825, 0.1975, 0.98, 0.295, 1.08, 0.3925, 1.1775, 0.49, 1.275, 0.59, 1.3725, 0.6875, 0, 0.785, 0.1, 0.8825, 0.1975, 0.98, 0.295, 1.08, 0.3925, 1.1775, 0.49, 1.275, 0.59, 1.3725, 0.6875, 0, 0.785, 0.1, 0.8825, 0.1975, 0.98, 0.295, 1.08, 0.3925, 1.1775, 0.49, 1.275, 0.59, 1.3725, 0.6875, 0, 0.785, 0.1, 0.8825, 0.1975, 0.98, 0.295, 1.08, 0.3925, 1.1775, 0.49, 1.275, 0.59, 1.3725, 0.6875],
  "SoftwareVersions": "syngo_MR_E11",
  "SpacingBetweenSlices": 2,
  "StationName": "MRC35049",
  "TaskName": "things",
  "TotalReadoutTime": 0.0576811,
  "TxRefAmp": 217.264,
  "WipMemBlock": "fd48124f-15cc-4c8d-89e2-3c00244981ee||Sequence: R016 ve11c/master r/e634e98; Dec 19 2017 11:00:25 by eja",
  "dcmmeta_affine": [
    [-1.9984034299850464, -0.041162602603435516, 0.06847932934761047, 109.32850646972656],
    [-0.05640944838523865, 1.9408388137817383, -0.4795440435409546, -72.38069915771484],
    [0.056584034115076065, 0.4810926616191864, 1.9404504299163818, -62.11087417602539],
    [0.0, 0.0, 0.0, 1.0]
],
  "dcmmeta_reorient_transform": [
    [0.0, -1.0, 0.0, 103.0],
    [1.0, 0.0, 0.0, 0.0],
    [0.0, 0.0, 1.0, 0.0],
    [0.0, 0.0, 0.0, 1.0]
],
  "dcmmeta_shape": [104, 104, 60, 190],
  "dcmmeta_slice_dim": 2,
  "dcmmeta_version": 0.6,
  "global": {
    "const": {
      "AcquisitionMatrix": [104, 0, 0, 104],
      "AngioFlag": "N",
      "BitsAllocated": 16,
      "BitsStored": 16,
      "BodyPartExamined": "BRAIN",
      "Columns": 832,
      "EchoNumbers": 1,
      "EchoTime": 37.0,
      "EchoTrainLength": 104,
      "FlipAngle": 52.0,
      "HighBit": 15,
      "ImageOrientationPatient": [0.99920170901789, 0.02820472492444, 0.02829201632392, -0.0205813020719, 0.97041942993997, -0.2405463364926],
      "ImagePositionPatient": [-817.52441345758, -854.52408766445, 141.9628162126],
      "ImageType": [
        "ORIGINAL",
        "PRIMARY",
        "P",
        "MB",
        "ND",
        "MOSAIC"
],
      "ImagedNucleus": "1H",
      "ImagingFrequency": 123.258964,
      "InPlanePhaseEncodingDirection": "COL",
      "LargestImagePixelValue": 4095,
      "MRAcquisitionType": "2D",
      "MagneticFieldStrength": 3.0,
      "Manufacturer": "SIEMENS",
      "ManufacturerModelName": "Prisma_fit",
      "Modality": "MR",
      "NumberOfAverages": 1.0,
      "NumberOfPhaseEncodingSteps": 104,
      "PercentPhaseFieldOfView": 100.0,
      "PercentSampling": 100.0,
      "PerformedProcedureStepStartTime": "120819.282000",
      "PhotometricInterpretation": "MONOCHROME2",
      "PixelBandwidth": 2290.0,
      "PixelRepresentation": 0,
      "PixelSpacing": [2.0, 2.0],
      "ProtocolName": "func_task-things_run-5",
      "RepetitionTime": 1490.0,
      "RescaleIntercept": -4096.0,
      "RescaleSlope": 2.0,
      "RescaleType": "US",
      "Rows": 832,
      "SAR": 0.04100566438721,
      "SamplesPerPixel": 1,
      "ScanOptions": "FS",
      "ScanningSequence": "EP",
      "SequenceName": "epfid2d1_104",
      "SequenceVariant": [
        "SK",
        "SS"
],
      "SeriesDescription": "func_task-things_run-5",
      "SeriesNumber": 23,
      "SeriesTime": "135532.173000",
      "SliceLocation": -39.163299672377,
      "SliceThickness": 2.0,
      "SmallestImagePixelValue": 0,
      "SoftwareVersions": "syngo MR E11",
      "SpacingBetweenSlices": 1.9999999551963,
      "SpecificCharacterSet": "ISO_IR 100",
      "StudyID": "1",
      "StudyTime": "120819.165000",
      "TransmitCoilName": "Body",
      "VariableFlipAngleFlag": "N",
      "WindowCenterWidthExplanation": "Algo1",
      "dBdt": 0.0},
    "slices": {}
  },
  "time": {
    "samples": {
      "AcquisitionNumber": [1, 2, 3, 4, 5, 6, 7, 8, 9, 10, 11, 12, 13, 14, 15, 16, 17, 18, 19, 20, 21, 22, 23, 24, 25, 26, 27, 28, 29, 30, 31, 32, 33, 34, 35, 36, 37, 38, 39, 40, 41, 42, 43, 44, 45, 46, 47, 48, 49, 50, 51, 52, 53, 54, 55, 56, 57, 58, 59, 60, 61, 62, 63, 64, 65, 66, 67, 68, 69, 70, 71, 72, 73, 74, 75, 76, 77, 78, 79, 80, 81, 82, 83, 84, 85, 86, 87, 88, 89, 90, 91, 92, 93, 94, 95, 96, 97, 98, 99, 100, 101, 102, 103, 104, 105, 106, 107, 108, 109, 110, 111, 112, 113, 114, 115, 116, 117, 118, 119, 120, 121, 122, 123, 124, 125, 126, 127, 128, 129, 130, 131, 132, 133, 134, 135, 136, 137, 138, 139, 140, 141, 142, 143, 144, 145, 146, 147, 148, 149, 150, 151, 152, 153, 154, 155, 156, 157, 158, 159, 160, 161, 162, 163, 164, 165, 166, 167, 168, 169, 170, 171, 172, 173, 174, 175, 176, 177, 178, 179, 180, 181, 182, 183, 184, 185, 186, 187, 188, 189, 190],
      "AcquisitionTime": ["135413.037500", "135414.527500", "135416.017500", "135417.507500", "135418.997500", "135420.487500", "135421.977500", "135423.467500", "135424.957500", "135426.447500", "135427.937500", "135429.427500", "135430.917500", "135432.407500", "135433.897500", "135435.387500", "135436.877500", "135438.367500", "135439.857500", "135441.347500", "135442.837500", "135444.327500", "135445.817500", "135447.307500", "135448.797500", "135450.287500", "135451.777500", "135453.267500", "135454.757500", "135456.247500", "135457.737500", "135459.227500", "135500.717500", "135502.207500", "135503.697500", "135505.187500", "135506.677500", "135508.167500", "135509.657500", "135511.147500", "135512.637500", "135514.127500", "135515.617500", "135517.107500", "135518.597500", "135520.087500", "135521.577500", "135523.067500", "135524.557500", "135526.047500", "135527.537500", "135529.027500", "135530.517500", "135532.007500", "135533.497500", "135534.987500", "135536.477500", "135537.967500", "135539.457500", "135540.947500", "135542.437500", "135543.927500", "135545.417500", "135546.907500", "135548.397500", "135549.887500", "135551.377500", "135552.867500", "135554.357500", "135555.847500", "135557.337500", "135558.827500", "135600.317500", "135601.807500", "135603.297500", "135604.787500", "135606.277500", "135607.767500", "135609.257500", "135610.747500", "135612.237500", "135613.727500", "135615.217500", "135616.707500", "135618.197500", "135619.687500", "135621.177500", "135622.667500", "135624.157500", "135625.647500", "135627.137500", "135628.627500", "135630.117500", "135631.607500", "135633.097500", "135634.587500", "135636.077500", "135637.567500", "135639.057500", "135640.547500", "135642.037500", "135643.527500", "135645.017500", "135646.507500", "135647.997500", "135649.487500", "135650.977500", "135652.467500", "135653.957500", "135655.447500", "135656.937500", "135658.427500", "135659.917500", "135701.407500", "135702.897500", "135704.387500", "135705.877500", "135707.367500", "135708.857500", "135710.347500", "135711.837500", "135713.327500", "135714.817500", "135716.307500", "135717.797500", "135719.287500", "135720.777500", "135722.267500", "135723.757500", "135725.247500", "135726.737500", "135728.227500", "135729.717500", "135731.207500", "135732.697500", "135734.187500", "135735.677500", "135737.167500", "135738.657500", "135740.147500", "135741.637500", "135743.127500", "135744.617500", "135746.107500", "135747.597500", "135749.087500", "135750.577500", "135752.067500", "135753.557500", "135755.047500", "135756.537500", "135758.027500", "135759.517500", "135801.007500", "135802.497500", "135803.987500", "135805.477500", "135806.967500", "135808.457500", "135809.947500", "135811.437500", "135812.927500", "135814.417500", "135815.907500", "135817.397500", "135818.887500", "135820.377500", "135821.867500", "135823.357500", "135824.847500", "135826.337500", "135827.827500", "135829.317500", "135830.807500", "135832.297500", "135833.787500", "135835.277500", "135836.767500", "135838.257500", "135839.747500", "135841.237500", "135842.727500", "135844.217500", "135845.707500", "135847.197500", "135848.687500", "135850.177500", "135851.667500", "135853.157500", "135854.647500"],
      "ContentTime": ["135532.175000", "135532.178000", "135532.180000", "135532.182000", "135532.185000", "135532.187000", "135532.190000", "135532.192000", "135532.195000", "135532.197000", "135532.200000", "135532.202000", "135532.205000", "135532.207000", "135532.210000", "135532.212000", "135532.215000", "135532.217000", "135532.220000", "135532.222000", "135532.225000", "135532.227000", "135532.229000", "135552.155000", "135552.158000", "135552.160000", "135552.163000", "135552.165000", "135552.167000", "135552.170000", "135552.173000", "135552.175000", "135552.177000", "135552.180000", "135552.182000", "135552.185000", "135552.187000", "135552.190000", "135552.192000", "135552.195000", "135552.197000", "135552.200000", "135552.202000", "135612.159000", "135612.162000", "135612.165000", "135612.167000", "135612.170000", "135612.172000", "135612.174000", "135612.177000", "135612.179000", "135612.182000", "135612.184000", "135612.187000", "135612.189000", "135612.192000", "135612.194000", "135612.197000", "135612.199000", "135612.201000", "135612.204000", "135612.206000", "135632.604000", "135632.607000", "135632.609000", "135632.612000", "135632.614000", "135632.617000", "135632.619000", "135632.622000", "135632.624000", "135632.627000", "135632.630000", "135632.633000", "135632.635000", "135632.638000", "135632.640000", "135632.643000", "135632.645000", "135632.648000", "135632.650000", "135632.653000", "135632.655000", "135652.118000", "135652.120000", "135652.123000", "135652.125000", "135652.128000", "135652.130000", "135652.133000", "135652.135000", "135652.138000", "135652.140000", "135652.142000", "135652.145000", "135652.147000", "135652.150000", "135652.152000", "135652.155000", "135652.157000", "135652.160000", "135652.162000", "135652.165000", "135732.150000", "135732.152000", "135732.155000", "135732.157000", "135732.160000", "135732.162000", "135732.164000", "135732.167000", "135732.169000", "135732.172000", "135732.187000", "135732.190000", "135732.192000", "135732.195000", "135732.197000", "135732.200000", "135732.202000", "135732.205000", "135732.207000", "135732.209000", "135732.212000", "135732.214000", "135732.217000", "135732.219000", "135732.222000", "135732.224000", "135732.227000", "135732.229000", "135812.157000", "135812.160000", "135812.162000", "135812.165000", "135812.167000", "135812.170000", "135812.172000", "135812.175000", "135812.177000", "135812.179000", "135812.182000", "135812.184000", "135812.187000", "135812.189000", "135812.192000", "135812.194000", "135812.197000", "135812.199000", "135812.202000", "135812.204000", "135812.206000", "135812.209000", "135812.211000", "135812.214000", "135812.216000", "135812.219000", "135812.221000", "135852.153000", "135852.155000", "135852.158000", "135852.160000", "135852.163000", "135852.165000", "135852.168000", "135852.170000", "135852.173000", "135852.175000", "135852.178000", "135852.180000", "135852.182000", "135852.185000", "135852.187000", "135852.190000", "135852.192000", "135852.195000", "135852.197000", "135852.200000", "135852.203000", "135852.205000", "135852.208000", "135852.210000", "135852.212000", "135852.215000", "135852.236000", "135857.337000", "135857.340000", "135857.343000", "135857.345000"],
      "InstanceCreationTime": ["135532.175000", "135532.178000", "135532.180000", "135532.182000", "135532.185000", "135532.187000", "135532.190000", "135532.192000", "135532.195000", "135532.197000", "135532.200000", "135532.202000", "135532.205000", "135532.207000", "135532.210000", "135532.212000", "135532.215000", "135532.217000", "135532.220000", "135532.222000", "135532.225000", "135532.227000", "135532.229000", "135552.155000", "135552.158000", "135552.160000", "135552.163000", "135552.165000", "135552.167000", "135552.170000", "135552.173000", "135552.175000", "135552.177000", "135552.180000", "135552.182000", "135552.185000", "135552.187000", "135552.190000", "135552.192000", "135552.195000", "135552.197000", "135552.200000", "135552.202000", "135612.159000", "135612.162000", "135612.165000", "135612.167000", "135612.170000", "135612.172000", "135612.174000", "135612.177000", "135612.179000", "135612.182000", "135612.184000", "135612.187000", "135612.189000", "135612.192000", "135612.194000", "135612.197000", "135612.199000", "135612.201000", "135612.204000", "135612.206000", "135632.604000", "135632.607000", "135632.609000", "135632.612000", "135632.614000", "135632.617000", "135632.619000", "135632.622000", "135632.624000", "135632.627000", "135632.630000", "135632.633000", "135632.635000", "135632.638000", "135632.640000", "135632.643000", "135632.645000", "135632.648000", "135632.650000", "135632.653000", "135632.655000", "135652.118000", "135652.120000", "135652.123000", "135652.125000", "135652.128000", "135652.130000", "135652.133000", "135652.135000", "135652.138000", "135652.140000", "135652.142000", "135652.145000", "135652.147000", "135652.150000", "135652.152000", "135652.155000", "135652.157000", "135652.160000", "135652.162000", "135652.165000", "135732.150000", "135732.152000", "135732.155000", "135732.157000", "135732.160000", "135732.162000", "135732.164000", "135732.167000", "135732.169000", "135732.172000", "135732.187000", "135732.190000", "135732.192000", "135732.195000", "135732.197000", "135732.200000", "135732.202000", "135732.205000", "135732.207000", "135732.209000", "135732.212000", "135732.214000", "135732.217000", "135732.219000", "135732.222000", "135732.224000", "135732.227000", "135732.229000", "135812.157000", "135812.160000", "135812.162000", "135812.165000", "135812.167000", "135812.170000", "135812.172000", "135812.175000", "135812.177000", "135812.179000", "135812.182000", "135812.184000", "135812.187000", "135812.189000", "135812.192000", "135812.194000", "135812.197000", "135812.199000", "135812.202000", "135812.204000", "135812.206000", "135812.209000", "135812.211000", "135812.214000", "135812.216000", "135812.219000", "135812.221000", "135852.153000", "135852.155000", "135852.158000", "135852.160000", "135852.163000", "135852.165000", "135852.168000", "135852.170000", "135852.173000", "135852.175000", "135852.178000", "135852.180000", "135852.182000", "135852.185000", "135852.187000", "135852.190000", "135852.192000", "135852.195000", "135852.197000", "135852.200000", "135852.203000", "135852.205000", "135852.208000", "135852.210000", "135852.212000", "135852.215000", "135852.236000", "135857.337000", "135857.340000", "135857.343000", "135857.345000"],
      "InstanceNumber": [1, 2, 3, 4, 5, 6, 7, 8, 9, 10, 11, 12, 13, 14, 15, 16, 17, 18, 19, 20, 21, 22, 23, 24, 25, 26, 27, 28, 29, 30, 31, 32, 33, 34, 35, 36, 37, 38, 39, 40, 41, 42, 43, 44, 45, 46, 47, 48, 49, 50, 51, 52, 53, 54, 55, 56, 57, 58, 59, 60, 61, 62, 63, 64, 65, 66, 67, 68, 69, 70, 71, 72, 73, 74, 75, 76, 77, 78, 79, 80, 81, 82, 83, 84, 85, 86, 87, 88, 89, 90, 91, 92, 93, 94, 95, 96, 97, 98, 99, 100, 101, 102, 103, 104, 105, 106, 107, 108, 109, 110, 111, 112, 113, 114, 115, 116, 117, 118, 119, 120, 121, 122, 123, 124, 125, 126, 127, 128, 129, 130, 131, 132, 133, 134, 135, 136, 137, 138, 139, 140, 141, 142, 143, 144, 145, 146, 147, 148, 149, 150, 151, 152, 153, 154, 155, 156, 157, 158, 159, 160, 161, 162, 163, 164, 165, 166, 167, 168, 169, 170, 171, 172, 173, 174, 175, 176, 177, 178, 179, 180, 181, 182, 183, 184, 185, 186, 187, 188, 189, 190],
      "WindowCenter": [4776.0, 4752.0, 4752.0, 4754.0, 4776.0, 4774.0, 4756.0, 4754.0, 4778.0, 4756.0, 4754.0, 4754.0, 4752.0, 4752.0, 4752.0, 4780.0, 4776.0, 4756.0, 4756.0, 4780.0, 4764.0, 4756.0, 4756.0, 4772.0, 4752.0, 4774.0, 4752.0, 4778.0, 4780.0, 4758.0, 4756.0, 4758.0, 4754.0, 4754.0, 4776.0, 4752.0, 4754.0, 4754.0, 4752.0, 4778.0, 4758.0, 4758.0, 4756.0, 4758.0, 4780.0, 4756.0, 4752.0, 4776.0, 4756.0, 4776.0, 4780.0, 4754.0, 4780.0, 4776.0, 4754.0, 4756.0, 4756.0, 4756.0, 4752.0, 4752.0, 4780.0, 4778.0, 4754.0, 4754.0, 4754.0, 4754.0, 4752.0, 4756.0, 4756.0, 4754.0, 4756.0, 4776.0, 4756.0, 4752.0, 4756.0, 4756.0, 4754.0, 4756.0, 4754.0, 4758.0, 4778.0, 4756.0, 4758.0, 4754.0, 4752.0, 4756.0, 4754.0, 4754.0, 4754.0, 4758.0, 4756.0, 4754.0, 4758.0, 4756.0, 4756.0, 4758.0, 4756.0, 4754.0, 4778.0, 4756.0, 4754.0, 4756.0, 4776.0, 4754.0, 4756.0, 4778.0, 4758.0, 4776.0, 4758.0, 4756.0, 4756.0, 4778.0, 4756.0, 4754.0, 4780.0, 4756.0, 4756.0, 4754.0, 4754.0, 4778.0, 4756.0, 4776.0, 4782.0, 4754.0, 4756.0, 4758.0, 4782.0, 4752.0, 4778.0, 4778.0, 4758.0, 4754.0, 4754.0, 4780.0, 4754.0, 4756.0, 4750.0, 4778.0, 4756.0, 4780.0, 4752.0, 4756.0, 4758.0, 4754.0, 4752.0, 4756.0, 4756.0, 4756.0, 4756.0, 4760.0, 4754.0, 4756.0, 4758.0, 4756.0, 4780.0, 4778.0, 4778.0, 4778.0, 4774.0, 4758.0, 4756.0, 4756.0, 4754.0, 4778.0, 4756.0, 4758.0, 4758.0, 4758.0, 4752.0, 4780.0, 4754.0, 4778.0, 4756.0, 4756.0, 4758.0, 4776.0, 4756.0, 4756.0, 4758.0, 4756.0, 4756.0, 4756.0, 4754.0, 4776.0, 4756.0, 4782.0, 4754.0, 4782.0, 4756.0, 4780.0],
      "WindowWidth": [18570.0, 18534.0, 18534.0, 18542.0, 18572.0, 18568.0, 18538.0, 18540.0, 18568.0, 18540.0, 18538.0, 18542.0, 18538.0, 18536.0, 18536.0, 18576.0, 18574.0, 18546.0, 18544.0, 18568.0, 18540.0, 18538.0, 18544.0, 18574.0, 18548.0, 18572.0, 18538.0, 18572.0, 18572.0, 18538.0, 18540.0, 18540.0, 18536.0, 18540.0, 18568.0, 18538.0, 18540.0, 18542.0, 18534.0, 18572.0, 18542.0, 18540.0, 18540.0, 18540.0, 18574.0, 18542.0, 18536.0, 18570.0, 18540.0, 18570.0, 18572.0, 18540.0, 18570.0, 18570.0, 18540.0, 18542.0, 18542.0, 18538.0, 18536.0, 18538.0, 18572.0, 18570.0, 18538.0, 18542.0, 18542.0, 18538.0, 18534.0, 18542.0, 18542.0, 18538.0, 18536.0, 18566.0, 18534.0, 18542.0, 18542.0, 18540.0, 18540.0, 18538.0, 18536.0, 18540.0, 18570.0, 18538.0, 18536.0, 18538.0, 18540.0, 18540.0, 18540.0, 18538.0, 18540.0, 18540.0, 18542.0, 18538.0, 18544.0, 18538.0, 18540.0, 18534.0, 18534.0, 18536.0, 18568.0, 18536.0, 18538.0, 18540.0, 18572.0, 18534.0, 18540.0, 18570.0, 18538.0, 18568.0, 18542.0, 18546.0, 18536.0, 18566.0, 18534.0, 18542.0, 18574.0, 18542.0, 18534.0, 18540.0, 18540.0, 18572.0, 18538.0, 18568.0, 18574.0, 18542.0, 18540.0, 18542.0, 18572.0, 18540.0, 18568.0, 18566.0, 18544.0, 18538.0, 18540.0, 18568.0, 18540.0, 18540.0, 18536.0, 18568.0, 18538.0, 18566.0, 18536.0, 18540.0, 18540.0, 18542.0, 18534.0, 18540.0, 18544.0, 18532.0, 18540.0, 18544.0, 18540.0, 18542.0, 18542.0, 18540.0, 18570.0, 18572.0, 18572.0, 18570.0, 18566.0, 18542.0, 18542.0, 18538.0, 18534.0, 18572.0, 18542.0, 18538.0, 18538.0, 18540.0, 18536.0, 18574.0, 18532.0, 18574.0, 18538.0, 18538.0, 18540.0, 18568.0, 18538.0, 18536.0, 18538.0, 18542.0, 18542.0, 18540.0, 18538.0, 18572.0, 18540.0, 18574.0, 18530.0, 18570.0, 18538.0, 18568.0]
    },
    "slices": {}
  }
}