{
  "AcquisitionMatrixPE": 104,
  "AcquisitionNumber": 1,
  "AcquisitionTime": "14:00:55.327500",
  "BandwidthPerPixelPhaseEncode": 17.17,
  "BaseResolution": 104,
  "BodyPartExamined": "BRAIN",
  "CoilString": "HC1-7;NC1_2",
  "ConsistencyInfo": "N4_VE11C_LATEST_20160120",
  "ConversionSoftware": "dcm2niix",
  "ConversionSoftwareVersion": "v1.0.20190902",
  "DerivedVendorReportedEchoSpacing": 0.000560011,
  "DeviceSerialNumber": "167006",
  "DwellTime": 2.1e-06,
  "EchoTime": 0.037,
  "EchoTrainLength": 104,
  "EffectiveEchoSpacing": 0.000560011,
  "FlipAngle": 52,
  "ImageComments": "Unaliased_MB4_PE3_LB",
  "ImageOrientationPatientDICOM": [0.999202, 0.0282047, 0.028292, -0.0205813, 0.970419, -0.240546],
  "ImageType": [
    "ORIGINAL",
    "PRIMARY",
    "P",
    "MB",
    "ND",
    "MOSAIC"
],
  "ImagingFrequency": 123.259,
  "InPlanePhaseEncodingDirectionDICOM": "COL",
  "InstitutionAddress": "Chemin_Queen-Mary_4565_Montreal_District_CA_H3W_1W5",
  "InstitutionName": "IUGM",
  "InstitutionalDepartmentName": "Department",
  "MRAcquisitionType": "2D",
  "MagneticFieldStrength": 3,
  "Manufacturer": "Siemens",
  "ManufacturersModelName": "Prisma_fit",
  "Modality": "MR",
  "MultibandAccelerationFactor": 4,
  "PartialFourier": 1,
  "PatientPosition": "HFS",
  "PercentPhaseFOV": 100,
  "PhaseEncodingDirection": "j",
  "PhaseEncodingSteps": 104,
  "PhaseResolution": 1,
  "PixelBandwidth": 2290,
  "ProcedureStepDescription": "memory_things",
  "ProtocolName": "func_task-things_run-6",
  "PulseSequenceDetails": "%CustomerSeq%_cmrr_mbep2d_bold",
  "ReceiveCoilActiveElements": "HC1-7;NC1,2",
  "ReceiveCoilName": "HeadNeck_64",
  "ReconMatrixPE": 104,
  "RepetitionTime": 1.49,
  "SAR": 0.0410057,
  "ScanOptions": "FS",
  "ScanningSequence": "EP",
  "SequenceName": "epfid2d1_104",
  "SequenceVariant": "SK_SS",
  "SeriesDescription": "func_task-things_run-6",
  "SeriesNumber": 26,
  "ShimSetting": [640, -7213, -8781, 729, 64, 10, 105, -15],
  "SliceThickness": 2,
  "SliceTiming": [0, 0.7825, 0.0975, 0.88, 0.195, 0.98, 0.2925, 1.0775, 0.39, 1.175, 0.49, 1.2725, 0.5875, 1.37, 0.685, 0, 0.7825, 0.0975, 0.88, 0.195, 0.98, 0.2925, 1.0775, 0.39, 1.175, 0.49, 1.2725, 0.5875, 1.37, 0.685, 0, 0.7825, 0.0975, 0.88, 0.195, 0.98, 0.2925, 1.0775, 0.39, 1.175, 0.49, 1.2725, 0.5875, 1.37, 0.685, 0, 0.7825, 0.0975, 0.88, 0.195, 0.98, 0.2925, 1.0775, 0.39, 1.175, 0.49, 1.2725, 0.5875, 1.37, 0.685],
  "SoftwareVersions": "syngo_MR_E11",
  "SpacingBetweenSlices": 2,
  "StationName": "MRC35049",
  "TaskName": "things",
  "TotalReadoutTime": 0.0576811,
  "TxRefAmp": 217.264,
  "WipMemBlock": "9dbc9efe-d6de-4de3-9aa2-b188cb65dba8||Sequence: R016 ve11c/master r/e634e98; Dec 19 2017 11:00:25 by eja",
  "dcmmeta_affine": [
    [-1.9984034299850464, -0.041162602603435516, 0.06847932934761047, 109.32850646972656],
    [-0.05640944838523865, 1.9408388137817383, -0.4795440435409546, -72.38069915771484],
    [0.056584034115076065, 0.4810926616191864, 1.9404504299163818, -62.11087417602539],
    [0.0, 0.0, 0.0, 1.0]
],
  "dcmmeta_reorient_transform": [
    [0.0, -1.0, 0.0, 103.0],
    [1.0, 0.0, 0.0, 0.0],
    [0.0, 0.0, 1.0, 0.0],
    [0.0, 0.0, 0.0, 1.0]
],
  "dcmmeta_shape": [104, 104, 60, 190],
  "dcmmeta_slice_dim": 2,
  "dcmmeta_version": 0.6,
  "global": {
    "const": {
      "AcquisitionMatrix": [104, 0, 0, 104],
      "AngioFlag": "N",
      "BitsAllocated": 16,
      "BitsStored": 16,
      "BodyPartExamined": "BRAIN",
      "Columns": 832,
      "EchoNumbers": 1,
      "EchoTime": 37.0,
      "EchoTrainLength": 104,
      "FlipAngle": 52.0,
      "HighBit": 15,
      "ImageOrientationPatient": [0.99920170901789, 0.02820472492444, 0.02829201632392, -0.0205813020719, 0.97041942993997, -0.2405463364926],
      "ImagePositionPatient": [-817.52441345758, -854.52408766445, 141.9628162126],
      "ImageType": [
        "ORIGINAL",
        "PRIMARY",
        "P",
        "MB",
        "ND",
        "MOSAIC"
],
      "ImagedNucleus": "1H",
      "ImagingFrequency": 123.258966,
      "InPlanePhaseEncodingDirection": "COL",
      "LargestImagePixelValue": 4095,
      "MRAcquisitionType": "2D",
      "MagneticFieldStrength": 3.0,
      "Manufacturer": "SIEMENS",
      "ManufacturerModelName": "Prisma_fit",
      "Modality": "MR",
      "NumberOfAverages": 1.0,
      "NumberOfPhaseEncodingSteps": 104,
      "PercentPhaseFieldOfView": 100.0,
      "PercentSampling": 100.0,
      "PerformedProcedureStepStartTime": "120819.282000",
      "PhotometricInterpretation": "MONOCHROME2",
      "PixelBandwidth": 2290.0,
      "PixelRepresentation": 0,
      "PixelSpacing": [2.0, 2.0],
      "ProtocolName": "func_task-things_run-6",
      "RepetitionTime": 1490.0,
      "RescaleIntercept": -4096.0,
      "RescaleSlope": 2.0,
      "RescaleType": "US",
      "Rows": 832,
      "SAR": 0.04100566438721,
      "SamplesPerPixel": 1,
      "ScanOptions": "FS",
      "ScanningSequence": "EP",
      "SequenceName": "epfid2d1_104",
      "SequenceVariant": [
        "SK",
        "SS"
],
      "SeriesDescription": "func_task-things_run-6",
      "SeriesNumber": 26,
      "SeriesTime": "140215.263000",
      "SliceLocation": -39.163299672377,
      "SliceThickness": 2.0,
      "SmallestImagePixelValue": 0,
      "SoftwareVersions": "syngo MR E11",
      "SpacingBetweenSlices": 1.9999999551963,
      "SpecificCharacterSet": "ISO_IR 100",
      "StudyID": "1",
      "StudyTime": "120819.165000",
      "TransmitCoilName": "Body",
      "VariableFlipAngleFlag": "N",
      "WindowCenterWidthExplanation": "Algo1",
      "dBdt": 0.0},
    "slices": {}
  },
  "time": {
    "samples": {
      "AcquisitionNumber": [1, 2, 3, 4, 5, 6, 7, 8, 9, 10, 11, 12, 13, 14, 15, 16, 17, 18, 19, 20, 21, 22, 23, 24, 25, 26, 27, 28, 29, 30, 31, 32, 33, 34, 35, 36, 37, 38, 39, 40, 41, 42, 43, 44, 45, 46, 47, 48, 49, 50, 51, 52, 53, 54, 55, 56, 57, 58, 59, 60, 61, 62, 63, 64, 65, 66, 67, 68, 69, 70, 71, 72, 73, 74, 75, 76, 77, 78, 79, 80, 81, 82, 83, 84, 85, 86, 87, 88, 89, 90, 91, 92, 93, 94, 95, 96, 97, 98, 99, 100, 101, 102, 103, 104, 105, 106, 107, 108, 109, 110, 111, 112, 113, 114, 115, 116, 117, 118, 119, 120, 121, 122, 123, 124, 125, 126, 127, 128, 129, 130, 131, 132, 133, 134, 135, 136, 137, 138, 139, 140, 141, 142, 143, 144, 145, 146, 147, 148, 149, 150, 151, 152, 153, 154, 155, 156, 157, 158, 159, 160, 161, 162, 163, 164, 165, 166, 167, 168, 169, 170, 171, 172, 173, 174, 175, 176, 177, 178, 179, 180, 181, 182, 183, 184, 185, 186, 187, 188, 189, 190],
      "AcquisitionTime": ["140055.327500", "140056.817500", "140058.307500", "140059.797500", "140101.287500", "140102.777500", "140104.267500", "140105.757500", "140107.247500", "140108.737500", "140110.227500", "140111.717500", "140113.207500", "140114.697500", "140116.187500", "140117.677500", "140119.167500", "140120.657500", "140122.147500", "140123.637500", "140125.127500", "140126.617500", "140128.107500", "140129.597500", "140131.087500", "140132.577500", "140134.067500", "140135.557500", "140137.047500", "140138.537500", "140140.027500", "140141.517500", "140143.007500", "140144.497500", "140145.987500", "140147.477500", "140148.967500", "140150.457500", "140151.947500", "140153.437500", "140154.927500", "140156.417500", "140157.907500", "140159.397500", "140200.887500", "140202.377500", "140203.867500", "140205.357500", "140206.847500", "140208.337500", "140209.827500", "140211.317500", "140212.807500", "140214.297500", "140215.787500", "140217.277500", "140218.767500", "140220.257500", "140221.747500", "140223.237500", "140224.727500", "140226.217500", "140227.707500", "140229.197500", "140230.687500", "140232.177500", "140233.667500", "140235.157500", "140236.647500", "140238.137500", "140239.627500", "140241.117500", "140242.607500", "140244.097500", "140245.587500", "140247.077500", "140248.567500", "140250.057500", "140251.547500", "140253.037500", "140254.527500", "140256.017500", "140257.507500", "140258.997500", "140300.487500", "140301.977500", "140303.467500", "140304.957500", "140306.447500", "140307.937500", "140309.427500", "140310.917500", "140312.407500", "140313.897500", "140315.387500", "140316.877500", "140318.367500", "140319.857500", "140321.347500", "140322.837500", "140324.327500", "140325.817500", "140327.307500", "140328.797500", "140330.287500", "140331.777500", "140333.267500", "140334.757500", "140336.247500", "140337.737500", "140339.227500", "140340.717500", "140342.207500", "140343.697500", "140345.187500", "140346.677500", "140348.167500", "140349.657500", "140351.147500", "140352.637500", "140354.127500", "140355.617500", "140357.107500", "140358.597500", "140400.087500", "140401.577500", "140403.067500", "140404.557500", "140406.047500", "140407.537500", "140409.027500", "140410.517500", "140412.007500", "140413.497500", "140414.987500", "140416.477500", "140417.967500", "140419.457500", "140420.947500", "140422.437500", "140423.927500", "140425.417500", "140426.907500", "140428.397500", "140429.887500", "140431.377500", "140432.867500", "140434.357500", "140435.847500", "140437.337500", "140438.827500", "140440.317500", "140441.807500", "140443.297500", "140444.787500", "140446.277500", "140447.767500", "140449.257500", "140450.747500", "140452.237500", "140453.727500", "140455.217500", "140456.707500", "140458.197500", "140459.687500", "140501.177500", "140502.667500", "140504.157500", "140505.647500", "140507.137500", "140508.627500", "140510.117500", "140511.607500", "140513.097500", "140514.587500", "140516.077500", "140517.567500", "140519.057500", "140520.547500", "140522.037500", "140523.527500", "140525.017500", "140526.507500", "140527.997500", "140529.487500", "140530.977500", "140532.467500", "140533.957500", "140535.447500", "140536.937500"],
      "ContentTime": ["140215.265000", "140215.268000", "140215.271000", "140215.274000", "140215.277000", "140215.279000", "140215.282000", "140215.285000", "140215.288000", "140215.291000", "140215.293000", "140215.296000", "140215.300000", "140215.303000", "140215.377000", "140215.379000", "140215.382000", "140215.385000", "140215.387000", "140215.390000", "140215.392000", "140215.395000", "140215.397000", "140215.400000", "140215.403000", "140235.208000", "140235.210000", "140235.213000", "140235.215000", "140235.218000", "140235.220000", "140235.223000", "140235.226000", "140235.228000", "140235.231000", "140235.233000", "140235.235000", "140235.238000", "140235.240000", "140235.243000", "140235.245000", "140235.248000", "140235.250000", "140235.253000", "140235.255000", "140235.257000", "140255.184000", "140255.186000", "140255.189000", "140255.191000", "140255.194000", "140255.196000", "140255.199000", "140255.201000", "140255.204000", "140255.206000", "140255.209000", "140255.211000", "140255.213000", "140255.216000", "140255.218000", "140255.221000", "140255.223000", "140255.226000", "140255.229000", "140255.231000", "140315.183000", "140315.185000", "140315.188000", "140315.190000", "140315.193000", "140315.195000", "140315.198000", "140315.200000", "140315.203000", "140315.209000", "140315.211000", "140315.214000", "140315.216000", "140315.218000", "140315.221000", "140315.223000", "140315.226000", "140315.228000", "140315.231000", "140315.233000", "140335.216000", "140335.218000", "140335.221000", "140335.223000", "140335.226000", "140335.228000", "140335.231000", "140335.233000", "140335.236000", "140335.238000", "140335.241000", "140335.243000", "140335.246000", "140335.248000", "140335.251000", "140335.253000", "140335.257000", "140335.260000", "140335.262000", "140335.265000", "140415.223000", "140415.226000", "140415.229000", "140415.231000", "140415.234000", "140415.236000", "140415.238000", "140415.241000", "140415.243000", "140415.246000", "140415.248000", "140415.251000", "140415.253000", "140415.256000", "140415.258000", "140415.261000", "140415.263000", "140415.265000", "140415.268000", "140415.270000", "140415.273000", "140415.275000", "140415.278000", "140415.280000", "140415.283000", "140415.285000", "140415.288000", "140455.225000", "140455.227000", "140455.230000", "140455.232000", "140455.235000", "140455.237000", "140455.240000", "140455.242000", "140455.245000", "140455.247000", "140455.250000", "140455.252000", "140455.255000", "140455.257000", "140455.259000", "140455.262000", "140455.264000", "140455.267000", "140455.269000", "140455.272000", "140455.274000", "140455.277000", "140455.279000", "140455.282000", "140455.284000", "140455.287000", "140455.289000", "140535.221000", "140535.223000", "140535.226000", "140535.228000", "140535.231000", "140535.233000", "140535.236000", "140535.238000", "140535.241000", "140535.243000", "140535.246000", "140535.248000", "140535.251000", "140535.253000", "140535.256000", "140535.258000", "140535.260000", "140535.263000", "140535.265000", "140535.268000", "140535.270000", "140535.273000", "140535.275000", "140535.278000", "140535.280000", "140535.283000", "140535.285000", "140539.147000", "140539.150000", "140539.152000"],
      "InstanceCreationTime": ["140215.265000", "140215.268000", "140215.271000", "140215.274000", "140215.277000", "140215.279000", "140215.282000", "140215.285000", "140215.288000", "140215.291000", "140215.293000", "140215.296000", "140215.300000", "140215.303000", "140215.377000", "140215.379000", "140215.382000", "140215.385000", "140215.387000", "140215.390000", "140215.392000", "140215.395000", "140215.397000", "140215.400000", "140215.403000", "140235.208000", "140235.210000", "140235.213000", "140235.215000", "140235.218000", "140235.220000", "140235.223000", "140235.226000", "140235.228000", "140235.231000", "140235.233000", "140235.235000", "140235.238000", "140235.240000", "140235.243000", "140235.245000", "140235.248000", "140235.250000", "140235.253000", "140235.255000", "140235.257000", "140255.184000", "140255.186000", "140255.189000", "140255.191000", "140255.194000", "140255.196000", "140255.199000", "140255.201000", "140255.204000", "140255.206000", "140255.209000", "140255.211000", "140255.213000", "140255.216000", "140255.218000", "140255.221000", "140255.223000", "140255.226000", "140255.229000", "140255.231000", "140315.183000", "140315.185000", "140315.188000", "140315.190000", "140315.193000", "140315.195000", "140315.198000", "140315.200000", "140315.203000", "140315.209000", "140315.211000", "140315.214000", "140315.216000", "140315.218000", "140315.221000", "140315.223000", "140315.226000", "140315.228000", "140315.231000", "140315.233000", "140335.216000", "140335.218000", "140335.221000", "140335.223000", "140335.226000", "140335.228000", "140335.231000", "140335.233000", "140335.236000", "140335.238000", "140335.241000", "140335.243000", "140335.246000", "140335.248000", "140335.251000", "140335.253000", "140335.257000", "140335.260000", "140335.262000", "140335.265000", "140415.223000", "140415.226000", "140415.229000", "140415.231000", "140415.234000", "140415.236000", "140415.238000", "140415.241000", "140415.243000", "140415.246000", "140415.248000", "140415.251000", "140415.253000", "140415.256000", "140415.258000", "140415.261000", "140415.263000", "140415.265000", "140415.268000", "140415.270000", "140415.273000", "140415.275000", "140415.278000", "140415.280000", "140415.283000", "140415.285000", "140415.288000", "140455.225000", "140455.227000", "140455.230000", "140455.232000", "140455.235000", "140455.237000", "140455.240000", "140455.242000", "140455.245000", "140455.247000", "140455.250000", "140455.252000", "140455.255000", "140455.257000", "140455.259000", "140455.262000", "140455.264000", "140455.267000", "140455.269000", "140455.272000", "140455.274000", "140455.277000", "140455.279000", "140455.282000", "140455.284000", "140455.287000", "140455.289000", "140535.221000", "140535.223000", "140535.226000", "140535.228000", "140535.231000", "140535.233000", "140535.236000", "140535.238000", "140535.241000", "140535.243000", "140535.246000", "140535.248000", "140535.251000", "140535.253000", "140535.256000", "140535.258000", "140535.260000", "140535.263000", "140535.265000", "140535.268000", "140535.270000", "140535.273000", "140535.275000", "140535.278000", "140535.280000", "140535.283000", "140535.285000", "140539.147000", "140539.150000", "140539.152000"],
      "InstanceNumber": [1, 2, 3, 4, 5, 6, 7, 8, 9, 10, 11, 12, 13, 14, 15, 16, 17, 18, 19, 20, 21, 22, 23, 24, 25, 26, 27, 28, 29, 30, 31, 32, 33, 34, 35, 36, 37, 38, 39, 40, 41, 42, 43, 44, 45, 46, 47, 48, 49, 50, 51, 52, 53, 54, 55, 56, 57, 58, 59, 60, 61, 62, 63, 64, 65, 66, 67, 68, 69, 70, 71, 72, 73, 74, 75, 76, 77, 78, 79, 80, 81, 82, 83, 84, 85, 86, 87, 88, 89, 90, 91, 92, 93, 94, 95, 96, 97, 98, 99, 100, 101, 102, 103, 104, 105, 106, 107, 108, 109, 110, 111, 112, 113, 114, 115, 116, 117, 118, 119, 120, 121, 122, 123, 124, 125, 126, 127, 128, 129, 130, 131, 132, 133, 134, 135, 136, 137, 138, 139, 140, 141, 142, 143, 144, 145, 146, 147, 148, 149, 150, 151, 152, 153, 154, 155, 156, 157, 158, 159, 160, 161, 162, 163, 164, 165, 166, 167, 168, 169, 170, 171, 172, 173, 174, 175, 176, 177, 178, 179, 180, 181, 182, 183, 184, 185, 186, 187, 188, 189, 190],
      "WindowCenter": [4756.0, 4778.0, 4754.0, 4754.0, 4752.0, 4756.0, 4756.0, 4754.0, 4752.0, 4756.0, 4776.0, 4756.0, 4754.0, 4756.0, 4754.0, 4754.0, 4756.0, 4754.0, 4756.0, 4756.0, 4756.0, 4754.0, 4758.0, 4754.0, 4752.0, 4756.0, 4782.0, 4756.0, 4756.0, 4754.0, 4756.0, 4756.0, 4756.0, 4758.0, 4758.0, 4754.0, 4754.0, 4756.0, 4756.0, 4756.0, 4752.0, 4756.0, 4756.0, 4756.0, 4754.0, 4756.0, 4758.0, 4754.0, 4758.0, 4754.0, 4756.0, 4752.0, 4756.0, 4756.0, 4756.0, 4756.0, 4756.0, 4756.0, 4756.0, 4752.0, 4754.0, 4756.0, 4756.0, 4754.0, 4756.0, 4752.0, 4756.0, 4752.0, 4754.0, 4778.0, 4756.0, 4778.0, 4756.0, 4754.0, 4758.0, 4754.0, 4756.0, 4756.0, 4780.0, 4778.0, 4754.0, 4756.0, 4780.0, 4782.0, 4754.0, 4758.0, 4754.0, 4754.0, 4754.0, 4756.0, 4756.0, 4752.0, 4754.0, 4758.0, 4756.0, 4756.0, 4756.0, 4754.0, 4760.0, 4756.0, 4758.0, 4752.0, 4756.0, 4756.0, 4758.0, 4752.0, 4756.0, 4756.0, 4756.0, 4756.0, 4756.0, 4758.0, 4756.0, 4756.0, 4758.0, 4758.0, 4756.0, 4752.0, 4756.0, 4780.0, 4758.0, 4756.0, 4752.0, 4758.0, 4760.0, 4756.0, 4756.0, 4758.0, 4756.0, 4756.0, 4782.0, 4758.0, 4780.0, 4758.0, 4754.0, 4758.0, 4758.0, 4778.0, 4754.0, 4780.0, 4756.0, 4782.0, 4780.0, 4756.0, 4758.0, 4756.0, 4760.0, 4778.0, 4780.0, 4756.0, 4756.0, 4754.0, 4756.0, 4758.0, 4782.0, 4778.0, 4758.0, 4754.0, 4758.0, 4780.0, 4756.0, 4782.0, 4756.0, 4758.0, 4758.0, 4754.0, 4756.0, 4758.0, 4756.0, 4758.0, 4758.0, 4750.0, 4756.0, 4756.0, 4756.0, 4754.0, 4756.0, 4780.0, 4756.0, 4778.0, 4758.0, 4754.0, 4754.0, 4754.0, 4756.0, 4780.0, 4756.0, 4762.0, 4758.0, 4764.0],
      "WindowWidth": [18540.0, 18568.0, 18538.0, 18544.0, 18540.0, 18538.0, 18536.0, 18536.0, 18540.0, 18536.0, 18570.0, 18542.0, 18538.0, 18542.0, 18536.0, 18540.0, 18540.0, 18538.0, 18540.0, 18538.0, 18542.0, 18540.0, 18542.0, 18534.0, 18534.0, 18538.0, 18572.0, 18542.0, 18540.0, 18536.0, 18540.0, 18538.0, 18540.0, 18542.0, 18540.0, 18536.0, 18538.0, 18540.0, 18536.0, 18542.0, 18538.0, 18538.0, 18540.0, 18542.0, 18542.0, 18542.0, 18536.0, 18536.0, 18538.0, 18536.0, 18542.0, 18536.0, 18536.0, 18540.0, 18534.0, 18540.0, 18534.0, 18540.0, 18538.0, 18536.0, 18536.0, 18540.0, 18538.0, 18538.0, 18536.0, 18540.0, 18542.0, 18536.0, 18536.0, 18568.0, 18534.0, 18568.0, 18540.0, 18540.0, 18538.0, 18538.0, 18534.0, 18536.0, 18570.0, 18568.0, 18540.0, 18536.0, 18570.0, 18574.0, 18534.0, 18534.0, 18536.0, 18532.0, 18536.0, 18536.0, 18536.0, 18534.0, 18538.0, 18536.0, 18534.0, 18540.0, 18534.0, 18534.0, 18538.0, 18540.0, 18538.0, 18536.0, 18542.0, 18540.0, 18542.0, 18532.0, 18540.0, 18532.0, 18542.0, 18538.0, 18538.0, 18536.0, 18540.0, 18540.0, 18540.0, 18544.0, 18534.0, 18538.0, 18542.0, 18574.0, 18538.0, 18540.0, 18534.0, 18540.0, 18542.0, 18544.0, 18536.0, 18538.0, 18534.0, 18538.0, 18570.0, 18538.0, 18574.0, 18542.0, 18536.0, 18542.0, 18536.0, 18568.0, 18538.0, 18568.0, 18536.0, 18570.0, 18566.0, 18534.0, 18546.0, 18538.0, 18538.0, 18570.0, 18570.0, 18538.0, 18536.0, 18538.0, 18534.0, 18538.0, 18572.0, 18570.0, 18538.0, 18534.0, 18534.0, 18572.0, 18540.0, 18572.0, 18532.0, 18544.0, 18540.0, 18540.0, 18536.0, 18538.0, 18536.0, 18540.0, 18536.0, 18530.0, 18536.0, 18536.0, 18536.0, 18534.0, 18538.0, 18568.0, 18536.0, 18568.0, 18538.0, 18542.0, 18538.0, 18534.0, 18538.0, 18570.0, 18536.0, 18538.0, 18542.0, 18536.0]
    },
    "slices": {}
  }
}