{
  "AcquisitionMatrixPE": 104,
  "AcquisitionNumber": 1,
  "AcquisitionTime": "13:35:4.245000",
  "BandwidthPerPixelPhaseEncode": 17.17,
  "BaseResolution": 104,
  "BodyPartExamined": "BRAIN",
  "CoilString": "HC1-7;NC1_2",
  "ConsistencyInfo": "N4_VE11C_LATEST_20160120",
  "ConversionSoftware": "dcm2niix",
  "ConversionSoftwareVersion": "v1.0.20190902",
  "DerivedVendorReportedEchoSpacing": 0.000560011,
  "DeviceSerialNumber": "167006",
  "DwellTime": 2.1e-06,
  "EchoTime": 0.037,
  "EchoTrainLength": 104,
  "EffectiveEchoSpacing": 0.000560011,
  "FlipAngle": 52,
  "ImageComments": "Unaliased_MB4_PE3_LB",
  "ImageOrientationPatientDICOM": [0.999202, 0.0282047, 0.028292, -0.0205813, 0.970419, -0.240546],
  "ImageType": [
    "ORIGINAL",
    "PRIMARY",
    "P",
    "MB",
    "ND",
    "MOSAIC"
],
  "ImagingFrequency": 123.259,
  "InPlanePhaseEncodingDirectionDICOM": "COL",
  "InstitutionAddress": "Chemin_Queen-Mary_4565_Montreal_District_CA_H3W_1W5",
  "InstitutionName": "IUGM",
  "InstitutionalDepartmentName": "Department",
  "MRAcquisitionType": "2D",
  "MagneticFieldStrength": 3,
  "Manufacturer": "Siemens",
  "ManufacturersModelName": "Prisma_fit",
  "Modality": "MR",
  "MultibandAccelerationFactor": 4,
  "PartialFourier": 1,
  "PatientPosition": "HFS",
  "PercentPhaseFOV": 100,
  "PhaseEncodingDirection": "j",
  "PhaseEncodingSteps": 104,
  "PhaseResolution": 1,
  "PixelBandwidth": 2290,
  "ProcedureStepDescription": "memory_things",
  "ProtocolName": "func_task-things_run-2",
  "PulseSequenceDetails": "%CustomerSeq%_cmrr_mbep2d_bold",
  "ReceiveCoilActiveElements": "HC1-7;NC1,2",
  "ReceiveCoilName": "HeadNeck_64",
  "ReconMatrixPE": 104,
  "RepetitionTime": 1.49,
  "SAR": 0.0410057,
  "ScanOptions": "FS",
  "ScanningSequence": "EP",
  "SequenceName": "epfid2d1_104",
  "SequenceVariant": "SK_SS",
  "SeriesDescription": "func_task-things_run-2",
  "SeriesNumber": 14,
  "ShimSetting": [640, -7213, -8781, 729, 64, 10, 105, -15],
  "SliceThickness": 2,
  "SliceTiming": [0, 0.785, 0.0975, 0.8825, 0.195, 0.98, 0.295, 1.0775, 0.3925, 1.175, 0.49, 1.275, 0.5875, 1.3725, 0.685, 0, 0.785, 0.0975, 0.8825, 0.195, 0.98, 0.295, 1.0775, 0.3925, 1.175, 0.49, 1.275, 0.5875, 1.3725, 0.685, 0, 0.785, 0.0975, 0.8825, 0.195, 0.98, 0.295, 1.0775, 0.3925, 1.175, 0.49, 1.275, 0.5875, 1.3725, 0.685, 0, 0.785, 0.0975, 0.8825, 0.195, 0.98, 0.295, 1.0775, 0.3925, 1.175, 0.49, 1.275, 0.5875, 1.3725, 0.685],
  "SoftwareVersions": "syngo_MR_E11",
  "SpacingBetweenSlices": 2,
  "StationName": "MRC35049",
  "TaskName": "things",
  "TotalReadoutTime": 0.0576811,
  "TxRefAmp": 217.264,
  "WipMemBlock": "cc2e294b-3b17-4a77-8a6d-dc5b50a51e64||Sequence: R016 ve11c/master r/e634e98; Dec 19 2017 11:00:25 by eja",
  "dcmmeta_affine": [
    [-1.9984034299850464, -0.041162602603435516, 0.06847932934761047, 109.32850646972656],
    [-0.05640944838523865, 1.9408388137817383, -0.4795440435409546, -72.38069915771484],
    [0.056584034115076065, 0.4810926616191864, 1.9404504299163818, -62.11087417602539],
    [0.0, 0.0, 0.0, 1.0]
],
  "dcmmeta_reorient_transform": [
    [0.0, -1.0, 0.0, 103.0],
    [1.0, 0.0, 0.0, 0.0],
    [0.0, 0.0, 1.0, 0.0],
    [0.0, 0.0, 0.0, 1.0]
],
  "dcmmeta_shape": [104, 104, 60, 190],
  "dcmmeta_slice_dim": 2,
  "dcmmeta_version": 0.6,
  "global": {
    "const": {
      "AcquisitionMatrix": [104, 0, 0, 104],
      "AngioFlag": "N",
      "BitsAllocated": 16,
      "BitsStored": 16,
      "BodyPartExamined": "BRAIN",
      "Columns": 832,
      "EchoNumbers": 1,
      "EchoTime": 37.0,
      "EchoTrainLength": 104,
      "FlipAngle": 52.0,
      "HighBit": 15,
      "ImageOrientationPatient": [0.99920170901789, 0.02820472492444, 0.02829201632392, -0.0205813020719, 0.97041942993997, -0.2405463364926],
      "ImagePositionPatient": [-817.52441345758, -854.52408766445, 141.9628162126],
      "ImageType": [
        "ORIGINAL",
        "PRIMARY",
        "P",
        "MB",
        "ND",
        "MOSAIC"
],
      "ImagedNucleus": "1H",
      "ImagingFrequency": 123.258954,
      "InPlanePhaseEncodingDirection": "COL",
      "LargestImagePixelValue": 4095,
      "MRAcquisitionType": "2D",
      "MagneticFieldStrength": 3.0,
      "Manufacturer": "SIEMENS",
      "ManufacturerModelName": "Prisma_fit",
      "Modality": "MR",
      "NumberOfAverages": 1.0,
      "NumberOfPhaseEncodingSteps": 104,
      "PercentPhaseFieldOfView": 100.0,
      "PercentSampling": 100.0,
      "PerformedProcedureStepStartTime": "120819.282000",
      "PhotometricInterpretation": "MONOCHROME2",
      "PixelBandwidth": 2290.0,
      "PixelRepresentation": 0,
      "PixelSpacing": [2.0, 2.0],
      "ProtocolName": "func_task-things_run-2",
      "RepetitionTime": 1490.0,
      "RescaleIntercept": -4096.0,
      "RescaleSlope": 2.0,
      "RescaleType": "US",
      "Rows": 832,
      "SAR": 0.04100566438721,
      "SamplesPerPixel": 1,
      "ScanOptions": "FS",
      "ScanningSequence": "EP",
      "SequenceName": "epfid2d1_104",
      "SequenceVariant": [
        "SK",
        "SS"
],
      "SeriesDescription": "func_task-things_run-2",
      "SeriesNumber": 14,
      "SeriesTime": "133632.224000",
      "SliceLocation": -39.163299672377,
      "SliceThickness": 2.0,
      "SmallestImagePixelValue": 0,
      "SoftwareVersions": "syngo MR E11",
      "SpacingBetweenSlices": 1.9999999551963,
      "SpecificCharacterSet": "ISO_IR 100",
      "StudyID": "1",
      "StudyTime": "120819.165000",
      "TransmitCoilName": "Body",
      "VariableFlipAngleFlag": "N",
      "WindowCenterWidthExplanation": "Algo1",
      "dBdt": 0.0},
    "slices": {}
  },
  "time": {
    "samples": {
      "AcquisitionNumber": [1, 2, 3, 4, 5, 6, 7, 8, 9, 10, 11, 12, 13, 14, 15, 16, 17, 18, 19, 20, 21, 22, 23, 24, 25, 26, 27, 28, 29, 30, 31, 32, 33, 34, 35, 36, 37, 38, 39, 40, 41, 42, 43, 44, 45, 46, 47, 48, 49, 50, 51, 52, 53, 54, 55, 56, 57, 58, 59, 60, 61, 62, 63, 64, 65, 66, 67, 68, 69, 70, 71, 72, 73, 74, 75, 76, 77, 78, 79, 80, 81, 82, 83, 84, 85, 86, 87, 88, 89, 90, 91, 92, 93, 94, 95, 96, 97, 98, 99, 100, 101, 102, 103, 104, 105, 106, 107, 108, 109, 110, 111, 112, 113, 114, 115, 116, 117, 118, 119, 120, 121, 122, 123, 124, 125, 126, 127, 128, 129, 130, 131, 132, 133, 134, 135, 136, 137, 138, 139, 140, 141, 142, 143, 144, 145, 146, 147, 148, 149, 150, 151, 152, 153, 154, 155, 156, 157, 158, 159, 160, 161, 162, 163, 164, 165, 166, 167, 168, 169, 170, 171, 172, 173, 174, 175, 176, 177, 178, 179, 180, 181, 182, 183, 184, 185, 186, 187, 188, 189, 190],
      "AcquisitionTime": ["133504.245000", "133505.735000", "133507.225000", "133508.715000", "133510.205000", "133511.695000", "133513.185000", "133514.675000", "133516.165000", "133517.655000", "133519.145000", "133520.635000", "133522.125000", "133523.615000", "133525.105000", "133526.595000", "133528.085000", "133529.575000", "133531.065000", "133532.555000", "133534.045000", "133535.535000", "133537.025000", "133538.515000", "133540.005000", "133541.495000", "133542.985000", "133544.475000", "133545.965000", "133547.455000", "133548.945000", "133550.435000", "133551.925000", "133553.415000", "133554.905000", "133556.395000", "133557.885000", "133559.375000", "133600.865000", "133602.355000", "133603.845000", "133605.335000", "133606.825000", "133608.315000", "133609.805000", "133611.295000", "133612.785000", "133614.275000", "133615.765000", "133617.255000", "133618.745000", "133620.235000", "133621.725000", "133623.215000", "133624.705000", "133626.195000", "133627.685000", "133629.175000", "133630.665000", "133632.155000", "133633.645000", "133635.135000", "133636.625000", "133638.115000", "133639.605000", "133641.095000", "133642.585000", "133644.075000", "133645.565000", "133647.055000", "133648.545000", "133650.035000", "133651.525000", "133653.015000", "133654.505000", "133655.995000", "133657.485000", "133658.975000", "133700.465000", "133701.955000", "133703.445000", "133704.935000", "133706.425000", "133707.915000", "133709.405000", "133710.895000", "133712.385000", "133713.875000", "133715.365000", "133716.855000", "133718.345000", "133719.835000", "133721.325000", "133722.815000", "133724.305000", "133725.795000", "133727.285000", "133728.775000", "133730.265000", "133731.755000", "133733.245000", "133734.735000", "133736.225000", "133737.715000", "133739.205000", "133740.695000", "133742.185000", "133743.675000", "133745.165000", "133746.655000", "133748.145000", "133749.635000", "133751.125000", "133752.615000", "133754.105000", "133755.595000", "133757.085000", "133758.575000", "133800.065000", "133801.555000", "133803.045000", "133804.535000", "133806.025000", "133807.515000", "133809.005000", "133810.495000", "133811.985000", "133813.475000", "133814.965000", "133816.455000", "133817.945000", "133819.435000", "133820.925000", "133822.415000", "133823.905000", "133825.395000", "133826.885000", "133828.375000", "133829.865000", "133831.355000", "133832.845000", "133834.335000", "133835.825000", "133837.315000", "133838.805000", "133840.295000", "133841.785000", "133843.275000", "133844.765000", "133846.255000", "133847.745000", "133849.235000", "133850.725000", "133852.215000", "133853.705000", "133855.195000", "133856.685000", "133858.175000", "133859.665000", "133901.155000", "133902.645000", "133904.135000", "133905.625000", "133907.115000", "133908.605000", "133910.095000", "133911.585000", "133913.075000", "133914.565000", "133916.055000", "133917.545000", "133919.035000", "133920.525000", "133922.015000", "133923.505000", "133924.995000", "133926.485000", "133927.975000", "133929.465000", "133930.955000", "133932.445000", "133933.935000", "133935.425000", "133936.915000", "133938.405000", "133939.895000", "133941.385000", "133942.875000", "133944.365000", "133945.855000"],
      "ContentTime": ["133632.226000", "133632.229000", "133632.232000", "133632.234000", "133632.237000", "133632.239000", "133632.241000", "133632.251000", "133632.253000", "133632.256000", "133632.258000", "133632.261000", "133632.263000", "133632.266000", "133632.268000", "133632.271000", "133632.273000", "133632.276000", "133632.278000", "133632.280000", "133632.283000", "133632.285000", "133632.288000", "133632.290000", "133632.293000", "133632.295000", "133632.298000", "133632.300000", "133632.303000", "133632.305000", "133632.308000", "133632.310000", "133632.312000", "133632.315000", "133632.317000", "133632.320000", "133652.132000", "133652.135000", "133652.137000", "133652.140000", "133652.142000", "133652.145000", "133652.147000", "133652.150000", "133652.152000", "133652.155000", "133652.157000", "133652.159000", "133652.162000", "133652.164000", "133652.167000", "133652.169000", "133652.172000", "133652.174000", "133652.177000", "133652.179000", "133712.154000", "133712.156000", "133712.159000", "133712.161000", "133712.169000", "133712.171000", "133712.174000", "133712.176000", "133712.179000", "133712.181000", "133712.184000", "133712.186000", "133712.189000", "133712.191000", "133712.194000", "133712.196000", "133712.199000", "133712.201000", "133712.204000", "133712.206000", "133732.147000", "133732.150000", "133732.152000", "133732.155000", "133732.157000", "133732.160000", "133732.163000", "133732.165000", "133732.168000", "133732.170000", "133732.173000", "133732.175000", "133732.177000", "133732.180000", "133732.182000", "133732.185000", "133732.187000", "133732.190000", "133732.192000", "133732.195000", "133732.197000", "133812.155000", "133812.157000", "133812.160000", "133812.162000", "133812.165000", "133812.167000", "133812.170000", "133812.172000", "133812.175000", "133812.177000", "133812.180000", "133812.182000", "133812.185000", "133812.187000", "133812.189000", "133812.192000", "133812.194000", "133812.197000", "133812.199000", "133812.202000", "133812.204000", "133812.207000", "133812.209000", "133812.212000", "133812.214000", "133812.216000", "133812.219000", "133812.221000", "133852.169000", "133852.172000", "133852.174000", "133852.177000", "133852.179000", "133852.182000", "133852.184000", "133852.187000", "133852.189000", "133852.192000", "133852.194000", "133852.197000", "133852.199000", "133852.202000", "133852.204000", "133852.207000", "133852.209000", "133852.212000", "133852.214000", "133852.217000", "133852.219000", "133852.222000", "133852.224000", "133852.227000", "133852.229000", "133852.232000", "133852.234000", "133932.159000", "133932.162000", "133932.165000", "133932.167000", "133932.169000", "133932.172000", "133932.174000", "133932.177000", "133932.179000", "133932.182000", "133932.184000", "133932.187000", "133932.189000", "133932.192000", "133932.194000", "133932.197000", "133932.199000", "133932.202000", "133932.204000", "133932.207000", "133932.210000", "133932.212000", "133932.214000", "133932.217000", "133932.220000", "133932.222000", "133932.225000", "133948.929000", "133948.932000", "133948.935000", "133948.938000", "133948.941000", "133948.943000", "133948.946000", "133948.948000", "133948.951000", "133948.953000", "133948.956000"],
      "InstanceCreationTime": ["133632.226000", "133632.229000", "133632.232000", "133632.234000", "133632.237000", "133632.239000", "133632.241000", "133632.251000", "133632.253000", "133632.256000", "133632.258000", "133632.261000", "133632.263000", "133632.266000", "133632.268000", "133632.271000", "133632.273000", "133632.276000", "133632.278000", "133632.280000", "133632.283000", "133632.285000", "133632.288000", "133632.290000", "133632.293000", "133632.295000", "133632.298000", "133632.300000", "133632.303000", "133632.305000", "133632.308000", "133632.310000", "133632.312000", "133632.315000", "133632.317000", "133632.320000", "133652.132000", "133652.135000", "133652.137000", "133652.140000", "133652.142000", "133652.145000", "133652.147000", "133652.150000", "133652.152000", "133652.155000", "133652.157000", "133652.159000", "133652.162000", "133652.164000", "133652.167000", "133652.169000", "133652.172000", "133652.174000", "133652.177000", "133652.179000", "133712.154000", "133712.156000", "133712.159000", "133712.161000", "133712.169000", "133712.171000", "133712.174000", "133712.176000", "133712.179000", "133712.181000", "133712.184000", "133712.186000", "133712.189000", "133712.191000", "133712.194000", "133712.196000", "133712.199000", "133712.201000", "133712.204000", "133712.206000", "133732.147000", "133732.150000", "133732.152000", "133732.155000", "133732.157000", "133732.160000", "133732.163000", "133732.165000", "133732.168000", "133732.170000", "133732.173000", "133732.175000", "133732.177000", "133732.180000", "133732.182000", "133732.185000", "133732.187000", "133732.190000", "133732.192000", "133732.195000", "133732.197000", "133812.155000", "133812.157000", "133812.160000", "133812.162000", "133812.165000", "133812.167000", "133812.170000", "133812.172000", "133812.175000", "133812.177000", "133812.180000", "133812.182000", "133812.185000", "133812.187000", "133812.189000", "133812.192000", "133812.194000", "133812.197000", "133812.199000", "133812.202000", "133812.204000", "133812.207000", "133812.209000", "133812.212000", "133812.214000", "133812.216000", "133812.219000", "133812.221000", "133852.169000", "133852.172000", "133852.174000", "133852.177000", "133852.179000", "133852.182000", "133852.184000", "133852.187000", "133852.189000", "133852.192000", "133852.194000", "133852.197000", "133852.199000", "133852.202000", "133852.204000", "133852.207000", "133852.209000", "133852.212000", "133852.214000", "133852.217000", "133852.219000", "133852.222000", "133852.224000", "133852.227000", "133852.229000", "133852.232000", "133852.234000", "133932.159000", "133932.162000", "133932.165000", "133932.167000", "133932.169000", "133932.172000", "133932.174000", "133932.177000", "133932.179000", "133932.182000", "133932.184000", "133932.187000", "133932.189000", "133932.192000", "133932.194000", "133932.197000", "133932.199000", "133932.202000", "133932.204000", "133932.207000", "133932.210000", "133932.212000", "133932.214000", "133932.217000", "133932.220000", "133932.222000", "133932.225000", "133948.929000", "133948.932000", "133948.935000", "133948.938000", "133948.941000", "133948.943000", "133948.946000", "133948.948000", "133948.951000", "133948.953000", "133948.956000"],
      "InstanceNumber": [1, 2, 3, 4, 5, 6, 7, 8, 9, 10, 11, 12, 13, 14, 15, 16, 17, 18, 19, 20, 21, 22, 23, 24, 25, 26, 27, 28, 29, 30, 31, 32, 33, 34, 35, 36, 37, 38, 39, 40, 41, 42, 43, 44, 45, 46, 47, 48, 49, 50, 51, 52, 53, 54, 55, 56, 57, 58, 59, 60, 61, 62, 63, 64, 65, 66, 67, 68, 69, 70, 71, 72, 73, 74, 75, 76, 77, 78, 79, 80, 81, 82, 83, 84, 85, 86, 87, 88, 89, 90, 91, 92, 93, 94, 95, 96, 97, 98, 99, 100, 101, 102, 103, 104, 105, 106, 107, 108, 109, 110, 111, 112, 113, 114, 115, 116, 117, 118, 119, 120, 121, 122, 123, 124, 125, 126, 127, 128, 129, 130, 131, 132, 133, 134, 135, 136, 137, 138, 139, 140, 141, 142, 143, 144, 145, 146, 147, 148, 149, 150, 151, 152, 153, 154, 155, 156, 157, 158, 159, 160, 161, 162, 163, 164, 165, 166, 167, 168, 169, 170, 171, 172, 173, 174, 175, 176, 177, 178, 179, 180, 181, 182, 183, 184, 185, 186, 187, 188, 189, 190],
      "WindowCenter": [4758.0, 4760.0, 4758.0, 4756.0, 4780.0, 4760.0, 4782.0, 4782.0, 4756.0, 4778.0, 4758.0, 4760.0, 4760.0, 4780.0, 4760.0, 4760.0, 4756.0, 4778.0, 4756.0, 4778.0, 4758.0, 4760.0, 4756.0, 4784.0, 4760.0, 4780.0, 4758.0, 4756.0, 4760.0, 4756.0, 4756.0, 4756.0, 4760.0, 4752.0, 4758.0, 4756.0, 4756.0, 4756.0, 4758.0, 4758.0, 4780.0, 4756.0, 4754.0, 4780.0, 4758.0, 4758.0, 4758.0, 4782.0, 4758.0, 4756.0, 4782.0, 4780.0, 4758.0, 4758.0, 4756.0, 4762.0, 4756.0, 4784.0, 4758.0, 4758.0, 4758.0, 4760.0, 4756.0, 4760.0, 4760.0, 4758.0, 4756.0, 4762.0, 4780.0, 4778.0, 4760.0, 4756.0, 4782.0, 4758.0, 4760.0, 4760.0, 4760.0, 4760.0, 4782.0, 4760.0, 4758.0, 4754.0, 4780.0, 4760.0, 4782.0, 4760.0, 4758.0, 4764.0, 4758.0, 4758.0, 4782.0, 4780.0, 4782.0, 4758.0, 4758.0, 4780.0, 4762.0, 4760.0, 4760.0, 4786.0, 4760.0, 4780.0, 4760.0, 4758.0, 4756.0, 4782.0, 4784.0, 4760.0, 4784.0, 4758.0, 4758.0, 4758.0, 4782.0, 4760.0, 4780.0, 4782.0, 4760.0, 4782.0, 4784.0, 4756.0, 4780.0, 4758.0, 4784.0, 4760.0, 4784.0, 4760.0, 4760.0, 4780.0, 4782.0, 4786.0, 4758.0, 4760.0, 4758.0, 4764.0, 4760.0, 4758.0, 4760.0, 4784.0, 4762.0, 4760.0, 4758.0, 4758.0, 4782.0, 4758.0, 4760.0, 4762.0, 4760.0, 4756.0, 4758.0, 4782.0, 4782.0, 4760.0, 4760.0, 4762.0, 4782.0, 4758.0, 4758.0, 4762.0, 4784.0, 4758.0, 4784.0, 4762.0, 4758.0, 4760.0, 4764.0, 4786.0, 4784.0, 4758.0, 4756.0, 4758.0, 4760.0, 4760.0, 4782.0, 4786.0, 4760.0, 4758.0, 4758.0, 4762.0, 4760.0, 4760.0, 4758.0, 4760.0, 4782.0, 4758.0, 4760.0, 4762.0, 4758.0, 4784.0, 4784.0, 4786.0],
      "WindowWidth": [18536.0, 18538.0, 18536.0, 18532.0, 18570.0, 18542.0, 18572.0, 18572.0, 18538.0, 18566.0, 18538.0, 18540.0, 18540.0, 18574.0, 18542.0, 18542.0, 18542.0, 18568.0, 18536.0, 18568.0, 18540.0, 18544.0, 18540.0, 18574.0, 18542.0, 18570.0, 18538.0, 18540.0, 18540.0, 18540.0, 18536.0, 18536.0, 18538.0, 18540.0, 18536.0, 18538.0, 18538.0, 18544.0, 18540.0, 18540.0, 18572.0, 18542.0, 18536.0, 18570.0, 18538.0, 18538.0, 18538.0, 18570.0, 18540.0, 18540.0, 18572.0, 18568.0, 18538.0, 18538.0, 18540.0, 18544.0, 18542.0, 18570.0, 18538.0, 18536.0, 18540.0, 18538.0, 18536.0, 18542.0, 18542.0, 18540.0, 18540.0, 18538.0, 18568.0, 18568.0, 18544.0, 18538.0, 18570.0, 18540.0, 18542.0, 18546.0, 18540.0, 18536.0, 18568.0, 18542.0, 18538.0, 18536.0, 18572.0, 18540.0, 18570.0, 18538.0, 18536.0, 18544.0, 18538.0, 18540.0, 18568.0, 18568.0, 18572.0, 18542.0, 18538.0, 18566.0, 18540.0, 18540.0, 18536.0, 18574.0, 18540.0, 18570.0, 18540.0, 18538.0, 18536.0, 18566.0, 18568.0, 18540.0, 18568.0, 18540.0, 18538.0, 18540.0, 18572.0, 18540.0, 18566.0, 18574.0, 18538.0, 18574.0, 18574.0, 18540.0, 18572.0, 18540.0, 18570.0, 18540.0, 18572.0, 18536.0, 18538.0, 18570.0, 18570.0, 18568.0, 18536.0, 18538.0, 18542.0, 18538.0, 18540.0, 18536.0, 18538.0, 18572.0, 18544.0, 18540.0, 18540.0, 18540.0, 18570.0, 18536.0, 18538.0, 18542.0, 18534.0, 18538.0, 18542.0, 18568.0, 18570.0, 18540.0, 18540.0, 18542.0, 18570.0, 18538.0, 18536.0, 18542.0, 18572.0, 18540.0, 18574.0, 18540.0, 18532.0, 18540.0, 18536.0, 18574.0, 18572.0, 18540.0, 18536.0, 18544.0, 18542.0, 18534.0, 18568.0, 18570.0, 18538.0, 18540.0, 18536.0, 18542.0, 18540.0, 18540.0, 18538.0, 18544.0, 18570.0, 18538.0, 18540.0, 18540.0, 18536.0, 18570.0, 18572.0, 18570.0]
    },
    "slices": {}
  }
}