{
  "AcquisitionMatrixPE": 104,
  "AcquisitionNumber": 1,
  "AcquisitionTime": "13:35:4.245000",
  "BandwidthPerPixelPhaseEncode": 17.17,
  "BaseResolution": 104,
  "BodyPartExamined": "BRAIN",
  "CoilString": "HC1-7;NC1_2",
  "ConsistencyInfo": "N4_VE11C_LATEST_20160120",
  "ConversionSoftware": "dcm2niix",
  "ConversionSoftwareVersion": "v1.0.20190902",
  "DerivedVendorReportedEchoSpacing": 0.000560011,
  "DeviceSerialNumber": "167006",
  "DwellTime": 2.1e-06,
  "EchoTime": 0.037,
  "EchoTrainLength": 104,
  "EffectiveEchoSpacing": 0.000560011,
  "FlipAngle": 52,
  "ImageComments": "Unaliased_MB4_PE3_LB",
  "ImageOrientationPatientDICOM": [0.999202, 0.0282047, 0.028292, -0.0205813, 0.970419, -0.240546],
  "ImageType": [
    "ORIGINAL",
    "PRIMARY",
    "M",
    "MB",
    "ND",
    "MOSAIC"
],
  "ImagingFrequency": 123.259,
  "InPlanePhaseEncodingDirectionDICOM": "COL",
  "InstitutionAddress": "Chemin_Queen-Mary_4565_Montreal_District_CA_H3W_1W5",
  "InstitutionName": "IUGM",
  "InstitutionalDepartmentName": "Department",
  "MRAcquisitionType": "2D",
  "MagneticFieldStrength": 3,
  "Manufacturer": "Siemens",
  "ManufacturersModelName": "Prisma_fit",
  "Modality": "MR",
  "MultibandAccelerationFactor": 4,
  "PartialFourier": 1,
  "PatientPosition": "HFS",
  "PercentPhaseFOV": 100,
  "PhaseEncodingDirection": "j",
  "PhaseEncodingSteps": 104,
  "PhaseResolution": 1,
  "PixelBandwidth": 2290,
  "ProcedureStepDescription": "memory_things",
  "ProtocolName": "func_task-things_run-2",
  "PulseSequenceDetails": "%CustomerSeq%_cmrr_mbep2d_bold",
  "ReceiveCoilActiveElements": "HC1-7;NC1,2",
  "ReceiveCoilName": "HeadNeck_64",
  "ReconMatrixPE": 104,
  "RepetitionTime": 1.49,
  "SAR": 0.0410057,
  "ScanOptions": "FS",
  "ScanningSequence": "EP",
  "SequenceName": "epfid2d1_104",
  "SequenceVariant": "SK_SS",
  "SeriesDescription": "func_task-things_run-2",
  "SeriesNumber": 13,
  "ShimSetting": [640, -7213, -8781, 729, 64, 10, 105, -15],
  "SliceThickness": 2,
  "SliceTiming": [0, 0.785, 0.0975, 0.8825, 0.195, 0.98, 0.295, 1.0775, 0.3925, 1.175, 0.49, 1.275, 0.5875, 1.3725, 0.685, 0, 0.785, 0.0975, 0.8825, 0.195, 0.98, 0.295, 1.0775, 0.3925, 1.175, 0.49, 1.275, 0.5875, 1.3725, 0.685, 0, 0.785, 0.0975, 0.8825, 0.195, 0.98, 0.295, 1.0775, 0.3925, 1.175, 0.49, 1.275, 0.5875, 1.3725, 0.685, 0, 0.785, 0.0975, 0.8825, 0.195, 0.98, 0.295, 1.0775, 0.3925, 1.175, 0.49, 1.275, 0.5875, 1.3725, 0.685],
  "SoftwareVersions": "syngo_MR_E11",
  "SpacingBetweenSlices": 2,
  "StationName": "MRC35049",
  "TaskName": "things",
  "TotalReadoutTime": 0.0576811,
  "TxRefAmp": 217.264,
  "WipMemBlock": "cc2e294b-3b17-4a77-8a6d-dc5b50a51e64||Sequence: R016 ve11c/master r/e634e98; Dec 19 2017 11:00:25 by eja",
  "dcmmeta_affine": [
    [-1.9984034299850464, -0.041162602603435516, 0.06847932934761047, 109.32850646972656],
    [-0.05640944838523865, 1.9408388137817383, -0.4795440435409546, -72.38069915771484],
    [0.056584034115076065, 0.4810926616191864, 1.9404504299163818, -62.11087417602539],
    [0.0, 0.0, 0.0, 1.0]
],
  "dcmmeta_reorient_transform": [
    [0.0, -1.0, 0.0, 103.0],
    [1.0, 0.0, 0.0, 0.0],
    [0.0, 0.0, 1.0, 0.0],
    [0.0, 0.0, 0.0, 1.0]
],
  "dcmmeta_shape": [104, 104, 60, 190],
  "dcmmeta_slice_dim": 2,
  "dcmmeta_version": 0.6,
  "global": {
    "const": {
      "AcquisitionMatrix": [104, 0, 0, 104],
      "AngioFlag": "N",
      "BitsAllocated": 16,
      "BitsStored": 16,
      "BodyPartExamined": "BRAIN",
      "Columns": 832,
      "EchoNumbers": 1,
      "EchoTime": 37.0,
      "EchoTrainLength": 104,
      "FlipAngle": 52.0,
      "HighBit": 15,
      "ImageOrientationPatient": [0.99920170901789, 0.02820472492444, 0.02829201632392, -0.0205813020719, 0.97041942993997, -0.2405463364926],
      "ImagePositionPatient": [-817.52441345758, -854.52408766445, 141.9628162126],
      "ImageType": [
        "ORIGINAL",
        "PRIMARY",
        "M",
        "MB",
        "ND",
        "MOSAIC"
],
      "ImagedNucleus": "1H",
      "ImagingFrequency": 123.258954,
      "InPlanePhaseEncodingDirection": "COL",
      "MRAcquisitionType": "2D",
      "MagneticFieldStrength": 3.0,
      "Manufacturer": "SIEMENS",
      "ManufacturerModelName": "Prisma_fit",
      "Modality": "MR",
      "NumberOfAverages": 1.0,
      "NumberOfPhaseEncodingSteps": 104,
      "PercentPhaseFieldOfView": 100.0,
      "PercentSampling": 100.0,
      "PerformedProcedureStepStartTime": "120819.282000",
      "PhotometricInterpretation": "MONOCHROME2",
      "PixelBandwidth": 2290.0,
      "PixelRepresentation": 0,
      "PixelSpacing": [2.0, 2.0],
      "ProtocolName": "func_task-things_run-2",
      "RepetitionTime": 1490.0,
      "Rows": 832,
      "SAR": 0.04100566438721,
      "SamplesPerPixel": 1,
      "ScanOptions": "FS",
      "ScanningSequence": "EP",
      "SequenceName": "epfid2d1_104",
      "SequenceVariant": [
        "SK",
        "SS"
],
      "SeriesDescription": "func_task-things_run-2",
      "SeriesNumber": 13,
      "SeriesTime": "133632.048000",
      "SliceLocation": -39.163299672377,
      "SliceThickness": 2.0,
      "SmallestImagePixelValue": 0,
      "SoftwareVersions": "syngo MR E11",
      "SpacingBetweenSlices": 1.9999999551963,
      "SpecificCharacterSet": "ISO_IR 100",
      "StudyID": "1",
      "StudyTime": "120819.165000",
      "TransmitCoilName": "Body",
      "VariableFlipAngleFlag": "N",
      "WindowCenterWidthExplanation": "Algo1",
      "dBdt": 0.0},
    "slices": {}
  },
  "time": {
    "samples": {
      "AcquisitionNumber": [1, 2, 3, 4, 5, 6, 7, 8, 9, 10, 11, 12, 13, 14, 15, 16, 17, 18, 19, 20, 21, 22, 23, 24, 25, 26, 27, 28, 29, 30, 31, 32, 33, 34, 35, 36, 37, 38, 39, 40, 41, 42, 43, 44, 45, 46, 47, 48, 49, 50, 51, 52, 53, 54, 55, 56, 57, 58, 59, 60, 61, 62, 63, 64, 65, 66, 67, 68, 69, 70, 71, 72, 73, 74, 75, 76, 77, 78, 79, 80, 81, 82, 83, 84, 85, 86, 87, 88, 89, 90, 91, 92, 93, 94, 95, 96, 97, 98, 99, 100, 101, 102, 103, 104, 105, 106, 107, 108, 109, 110, 111, 112, 113, 114, 115, 116, 117, 118, 119, 120, 121, 122, 123, 124, 125, 126, 127, 128, 129, 130, 131, 132, 133, 134, 135, 136, 137, 138, 139, 140, 141, 142, 143, 144, 145, 146, 147, 148, 149, 150, 151, 152, 153, 154, 155, 156, 157, 158, 159, 160, 161, 162, 163, 164, 165, 166, 167, 168, 169, 170, 171, 172, 173, 174, 175, 176, 177, 178, 179, 180, 181, 182, 183, 184, 185, 186, 187, 188, 189, 190],
      "AcquisitionTime": ["133504.245000", "133505.735000", "133507.225000", "133508.715000", "133510.205000", "133511.695000", "133513.185000", "133514.675000", "133516.165000", "133517.655000", "133519.145000", "133520.635000", "133522.125000", "133523.615000", "133525.105000", "133526.595000", "133528.085000", "133529.575000", "133531.065000", "133532.555000", "133534.045000", "133535.535000", "133537.025000", "133538.515000", "133540.005000", "133541.495000", "133542.985000", "133544.475000", "133545.965000", "133547.455000", "133548.945000", "133550.435000", "133551.925000", "133553.415000", "133554.905000", "133556.395000", "133557.885000", "133559.375000", "133600.865000", "133602.355000", "133603.845000", "133605.335000", "133606.825000", "133608.315000", "133609.805000", "133611.295000", "133612.785000", "133614.275000", "133615.765000", "133617.255000", "133618.745000", "133620.235000", "133621.725000", "133623.215000", "133624.705000", "133626.195000", "133627.685000", "133629.175000", "133630.665000", "133632.155000", "133633.645000", "133635.135000", "133636.625000", "133638.115000", "133639.605000", "133641.095000", "133642.585000", "133644.075000", "133645.565000", "133647.055000", "133648.545000", "133650.035000", "133651.525000", "133653.015000", "133654.505000", "133655.995000", "133657.485000", "133658.975000", "133700.465000", "133701.955000", "133703.445000", "133704.935000", "133706.425000", "133707.915000", "133709.405000", "133710.895000", "133712.385000", "133713.875000", "133715.365000", "133716.855000", "133718.345000", "133719.835000", "133721.325000", "133722.815000", "133724.305000", "133725.795000", "133727.285000", "133728.775000", "133730.265000", "133731.755000", "133733.245000", "133734.735000", "133736.225000", "133737.715000", "133739.205000", "133740.695000", "133742.185000", "133743.675000", "133745.165000", "133746.655000", "133748.145000", "133749.635000", "133751.125000", "133752.615000", "133754.105000", "133755.595000", "133757.085000", "133758.575000", "133800.065000", "133801.555000", "133803.045000", "133804.535000", "133806.025000", "133807.515000", "133809.005000", "133810.495000", "133811.985000", "133813.475000", "133814.965000", "133816.455000", "133817.945000", "133819.435000", "133820.925000", "133822.415000", "133823.905000", "133825.395000", "133826.885000", "133828.375000", "133829.865000", "133831.355000", "133832.845000", "133834.335000", "133835.825000", "133837.315000", "133838.805000", "133840.295000", "133841.785000", "133843.275000", "133844.765000", "133846.255000", "133847.745000", "133849.235000", "133850.725000", "133852.215000", "133853.705000", "133855.195000", "133856.685000", "133858.175000", "133859.665000", "133901.155000", "133902.645000", "133904.135000", "133905.625000", "133907.115000", "133908.605000", "133910.095000", "133911.585000", "133913.075000", "133914.565000", "133916.055000", "133917.545000", "133919.035000", "133920.525000", "133922.015000", "133923.505000", "133924.995000", "133926.485000", "133927.975000", "133929.465000", "133930.955000", "133932.445000", "133933.935000", "133935.425000", "133936.915000", "133938.405000", "133939.895000", "133941.385000", "133942.875000", "133944.365000", "133945.855000"],
      "ContentTime": ["133632.051000", "133632.055000", "133632.058000", "133632.061000", "133632.064000", "133632.068000", "133632.071000", "133632.074000", "133632.078000", "133632.081000", "133632.084000", "133632.087000", "133632.090000", "133632.094000", "133632.097000", "133632.100000", "133632.103000", "133632.106000", "133632.110000", "133632.113000", "133632.116000", "133632.119000", "133632.123000", "133632.126000", "133632.129000", "133632.132000", "133632.144000", "133632.147000", "133632.151000", "133632.154000", "133632.157000", "133632.160000", "133632.164000", "133632.167000", "133632.170000", "133632.173000", "133652.017000", "133652.021000", "133652.031000", "133652.034000", "133652.038000", "133652.041000", "133652.044000", "133652.047000", "133652.051000", "133652.054000", "133652.057000", "133652.060000", "133652.063000", "133652.067000", "133652.070000", "133652.073000", "133652.076000", "133652.080000", "133652.083000", "133652.086000", "133712.017000", "133712.021000", "133712.024000", "133712.027000", "133712.038000", "133712.042000", "133712.045000", "133712.048000", "133712.052000", "133712.055000", "133712.059000", "133712.062000", "133712.065000", "133712.069000", "133712.072000", "133712.075000", "133712.079000", "133712.082000", "133712.097000", "133712.103000", "133732.017000", "133732.021000", "133732.024000", "133732.027000", "133732.030000", "133732.034000", "133732.037000", "133732.040000", "133732.043000", "133732.046000", "133732.050000", "133732.053000", "133732.056000", "133732.060000", "133732.063000", "133732.066000", "133732.069000", "133732.073000", "133732.076000", "133732.079000", "133732.082000", "133812.016000", "133812.020000", "133812.023000", "133812.026000", "133812.029000", "133812.033000", "133812.036000", "133812.039000", "133812.043000", "133812.046000", "133812.049000", "133812.053000", "133812.056000", "133812.059000", "133812.062000", "133812.066000", "133812.069000", "133812.072000", "133812.075000", "133812.079000", "133812.082000", "133812.085000", "133812.088000", "133812.092000", "133812.095000", "133812.098000", "133812.101000", "133812.105000", "133852.017000", "133852.021000", "133852.024000", "133852.027000", "133852.031000", "133852.034000", "133852.037000", "133852.041000", "133852.044000", "133852.047000", "133852.051000", "133852.054000", "133852.057000", "133852.060000", "133852.064000", "133852.067000", "133852.070000", "133852.074000", "133852.077000", "133852.080000", "133852.083000", "133852.087000", "133852.090000", "133852.093000", "133852.097000", "133852.100000", "133852.103000", "133932.017000", "133932.021000", "133932.024000", "133932.027000", "133932.031000", "133932.034000", "133932.037000", "133932.040000", "133932.044000", "133932.047000", "133932.050000", "133932.053000", "133932.057000", "133932.060000", "133932.063000", "133932.066000", "133932.070000", "133932.073000", "133932.076000", "133932.080000", "133932.083000", "133932.086000", "133932.089000", "133932.093000", "133932.096000", "133932.099000", "133932.102000", "133948.382000", "133948.386000", "133948.389000", "133948.393000", "133948.396000", "133948.399000", "133948.402000", "133948.406000", "133948.409000", "133948.413000", "133948.416000"],
      "InstanceCreationTime": ["133632.051000", "133632.055000", "133632.058000", "133632.061000", "133632.064000", "133632.068000", "133632.071000", "133632.074000", "133632.078000", "133632.081000", "133632.084000", "133632.087000", "133632.090000", "133632.094000", "133632.097000", "133632.100000", "133632.103000", "133632.106000", "133632.110000", "133632.113000", "133632.116000", "133632.119000", "133632.123000", "133632.126000", "133632.129000", "133632.132000", "133632.144000", "133632.147000", "133632.151000", "133632.154000", "133632.157000", "133632.160000", "133632.164000", "133632.167000", "133632.170000", "133632.173000", "133652.017000", "133652.021000", "133652.031000", "133652.034000", "133652.038000", "133652.041000", "133652.044000", "133652.047000", "133652.051000", "133652.054000", "133652.057000", "133652.060000", "133652.063000", "133652.067000", "133652.070000", "133652.073000", "133652.076000", "133652.080000", "133652.083000", "133652.086000", "133712.017000", "133712.021000", "133712.024000", "133712.027000", "133712.038000", "133712.042000", "133712.045000", "133712.048000", "133712.052000", "133712.055000", "133712.059000", "133712.062000", "133712.065000", "133712.069000", "133712.072000", "133712.075000", "133712.079000", "133712.082000", "133712.097000", "133712.103000", "133732.017000", "133732.021000", "133732.024000", "133732.027000", "133732.030000", "133732.034000", "133732.037000", "133732.040000", "133732.043000", "133732.046000", "133732.050000", "133732.053000", "133732.056000", "133732.060000", "133732.063000", "133732.066000", "133732.069000", "133732.073000", "133732.076000", "133732.079000", "133732.082000", "133812.016000", "133812.020000", "133812.023000", "133812.026000", "133812.029000", "133812.033000", "133812.036000", "133812.039000", "133812.043000", "133812.046000", "133812.049000", "133812.053000", "133812.056000", "133812.059000", "133812.062000", "133812.066000", "133812.069000", "133812.072000", "133812.075000", "133812.079000", "133812.082000", "133812.085000", "133812.088000", "133812.092000", "133812.095000", "133812.098000", "133812.101000", "133812.105000", "133852.017000", "133852.021000", "133852.024000", "133852.027000", "133852.031000", "133852.034000", "133852.037000", "133852.041000", "133852.044000", "133852.047000", "133852.051000", "133852.054000", "133852.057000", "133852.060000", "133852.064000", "133852.067000", "133852.070000", "133852.074000", "133852.077000", "133852.080000", "133852.083000", "133852.087000", "133852.090000", "133852.093000", "133852.097000", "133852.100000", "133852.103000", "133932.017000", "133932.021000", "133932.024000", "133932.027000", "133932.031000", "133932.034000", "133932.037000", "133932.040000", "133932.044000", "133932.047000", "133932.050000", "133932.053000", "133932.057000", "133932.060000", "133932.063000", "133932.066000", "133932.070000", "133932.073000", "133932.076000", "133932.080000", "133932.083000", "133932.086000", "133932.089000", "133932.093000", "133932.096000", "133932.099000", "133932.102000", "133948.382000", "133948.386000", "133948.389000", "133948.393000", "133948.396000", "133948.399000", "133948.402000", "133948.406000", "133948.409000", "133948.413000", "133948.416000"],
      "InstanceNumber": [1, 2, 3, 4, 5, 6, 7, 8, 9, 10, 11, 12, 13, 14, 15, 16, 17, 18, 19, 20, 21, 22, 23, 24, 25, 26, 27, 28, 29, 30, 31, 32, 33, 34, 35, 36, 37, 38, 39, 40, 41, 42, 43, 44, 45, 46, 47, 48, 49, 50, 51, 52, 53, 54, 55, 56, 57, 58, 59, 60, 61, 62, 63, 64, 65, 66, 67, 68, 69, 70, 71, 72, 73, 74, 75, 76, 77, 78, 79, 80, 81, 82, 83, 84, 85, 86, 87, 88, 89, 90, 91, 92, 93, 94, 95, 96, 97, 98, 99, 100, 101, 102, 103, 104, 105, 106, 107, 108, 109, 110, 111, 112, 113, 114, 115, 116, 117, 118, 119, 120, 121, 122, 123, 124, 125, 126, 127, 128, 129, 130, 131, 132, 133, 134, 135, 136, 137, 138, 139, 140, 141, 142, 143, 144, 145, 146, 147, 148, 149, 150, 151, 152, 153, 154, 155, 156, 157, 158, 159, 160, 161, 162, 163, 164, 165, 166, 167, 168, 169, 170, 171, 172, 173, 174, 175, 176, 177, 178, 179, 180, 181, 182, 183, 184, 185, 186, 187, 188, 189, 190],
      "LargestImagePixelValue": [40999, 40107, 39200, 38803, 38279, 38323, 38459, 38432, 38431, 38368, 38394, 38647, 38479, 38430, 38156, 38244, 38055, 38453, 37781, 37936, 37996, 38154, 38430, 38143, 38172, 38292, 38096, 38251, 37929, 37985, 37864, 38097, 37787, 37925, 38128, 38206, 37867, 38238, 37625, 38406, 38142, 38270, 38534, 38017, 38495, 38218, 37881, 37758, 38206, 37987, 37824, 37539, 38073, 37748, 38170, 37475, 37636, 37344, 37368, 37389, 37582, 37298, 37317, 37515, 37131, 37208, 37307, 37326, 37165, 37219, 37637, 37490, 37368, 37271, 37226, 37234, 37411, 37227, 37500, 37239, 37379, 37460, 37188, 37294, 37845, 37355, 37346, 37131, 37184, 37628, 37601, 37259, 37457, 37165, 37950, 37256, 37441, 37271, 37304, 37354, 37430, 37103, 37301, 37824, 37610, 37352, 37396, 37540, 37316, 37328, 37370, 37526, 37492, 37534, 37281, 37328, 36993, 37823, 37489, 37464, 37754, 37493, 37540, 37320, 37613, 37654, 37669, 37861, 37703, 37441, 37403, 37462, 37687, 37283, 37551, 37427, 37591, 37514, 37005, 37411, 38086, 37721, 37546, 37727, 37719, 37494, 37504, 37758, 37372, 37488, 37253, 37614, 37811, 37564, 37501, 37663, 37847, 37776, 37366, 37457, 37449, 37585, 37737, 37660, 37575, 37786, 37612, 37680, 38082, 37973, 37845, 37797, 37965, 37653, 37614, 37526, 37874, 37904, 37745, 37978, 37932, 37424, 37743, 38039, 37897, 37848, 38141, 37443, 37674, 37876],
      "WindowCenter": [10088.0, 10061.0, 10041.0, 10018.0, 10017.0, 10014.0, 10005.0, 10006.0, 10021.0, 10023.0, 10025.0, 10025.0, 10023.0, 10032.0, 10034.0, 10034.0, 10035.0, 10034.0, 10035.0, 10034.0, 10034.0, 10026.0, 10030.0, 10025.0, 10033.0, 10042.0, 10035.0, 10017.0, 9997.0, 9987.0, 9996.0, 10007.0, 10011.0, 10008.0, 10007.0, 9999.0, 10001.0, 10013.0, 10008.0, 9996.0, 9988.0, 10002.0, 10021.0, 10024.0, 10019.0, 10016.0, 10017.0, 10027.0, 10042.0, 10046.0, 10037.0, 10015.0, 10010.0, 10017.0, 10035.0, 10038.0, 10037.0, 10030.0, 10015.0, 9998.0, 9986.0, 9991.0, 10001.0, 10012.0, 10022.0, 10024.0, 10022.0, 10013.0, 10005.0, 9998.0, 10003.0, 10021.0, 10029.0, 10017.0, 10016.0, 10015.0, 10021.0, 10022.0, 10030.0, 10025.0, 10006.0, 9985.0, 9971.0, 9983.0, 9998.0, 10010.0, 10005.0, 10006.0, 10011.0, 10009.0, 9994.0, 9987.0, 9985.0, 9969.0, 9966.0, 9960.0, 9974.0, 9978.0, 9978.0, 9990.0, 10001.0, 10005.0, 10003.0, 9995.0, 9992.0, 9999.0, 10020.0, 10037.0, 10022.0, 10003.0, 9985.0, 9976.0, 9991.0, 10007.0, 10019.0, 10036.0, 10042.0, 10047.0, 10031.0, 10022.0, 10021.0, 10026.0, 10028.0, 10029.0, 10030.0, 10028.0, 10012.0, 10008.0, 10010.0, 10019.0, 10029.0, 10029.0, 10021.0, 10019.0, 10026.0, 10042.0, 10046.0, 10055.0, 10056.0, 10040.0, 10019.0, 10000.0, 9993.0, 10007.0, 10025.0, 10031.0, 10029.0, 10003.0, 9995.0, 10009.0, 10013.0, 10027.0, 10028.0, 10024.0, 10005.0, 9994.0, 9992.0, 10000.0, 10012.0, 10020.0, 10015.0, 10006.0, 9995.0, 9993.0, 10001.0, 10010.0, 10010.0, 10000.0, 9998.0, 9992.0, 9984.0, 9992.0, 10000.0, 10008.0, 10010.0, 10012.0, 10013.0, 9996.0, 9994.0, 10008.0, 10017.0, 10016.0, 10020.0, 10012.0, 10007.0, 10002.0, 10005.0, 9995.0, 9993.0, 9992.0],
      "WindowWidth": [21453.0, 21372.0, 21312.0, 21256.0, 21249.0, 21239.0, 21217.0, 21222.0, 21253.0, 21259.0, 21263.0, 21263.0, 21259.0, 21278.0, 21285.0, 21285.0, 21288.0, 21286.0, 21287.0, 21286.0, 21286.0, 21268.0, 21272.0, 21265.0, 21281.0, 21302.0, 21285.0, 21242.0, 21196.0, 21173.0, 21196.0, 21223.0, 21234.0, 21227.0, 21221.0, 21203.0, 21208.0, 21234.0, 21224.0, 21194.0, 21176.0, 21205.0, 21251.0, 21262.0, 21253.0, 21243.0, 21246.0, 21268.0, 21302.0, 21312.0, 21289.0, 21242.0, 21228.0, 21245.0, 21289.0, 21297.0, 21294.0, 21277.0, 21241.0, 21202.0, 21177.0, 21186.0, 21211.0, 21238.0, 21262.0, 21267.0, 21259.0, 21237.0, 21219.0, 21204.0, 21217.0, 21257.0, 21276.0, 21252.0, 21246.0, 21244.0, 21257.0, 21259.0, 21277.0, 21266.0, 21220.0, 21172.0, 21143.0, 21166.0, 21199.0, 21230.0, 21221.0, 21224.0, 21236.0, 21228.0, 21192.0, 21177.0, 21173.0, 21140.0, 21129.0, 21122.0, 21150.0, 21162.0, 21162.0, 21187.0, 21210.0, 21223.0, 21218.0, 21198.0, 21189.0, 21206.0, 21256.0, 21292.0, 21261.0, 21214.0, 21173.0, 21156.0, 21188.0, 21225.0, 21254.0, 21292.0, 21310.0, 21317.0, 21281.0, 21262.0, 21258.0, 21269.0, 21273.0, 21278.0, 21279.0, 21272.0, 21236.0, 21226.0, 21231.0, 21253.0, 21274.0, 21275.0, 21254.0, 21248.0, 21266.0, 21303.0, 21314.0, 21334.0, 21336.0, 21299.0, 21248.0, 21203.0, 21191.0, 21222.0, 21265.0, 21280.0, 21274.0, 21214.0, 21196.0, 21229.0, 21240.0, 21269.0, 21272.0, 21264.0, 21220.0, 21192.0, 21187.0, 21205.0, 21234.0, 21253.0, 21242.0, 21222.0, 21194.0, 21189.0, 21210.0, 21228.0, 21227.0, 21204.0, 21199.0, 21187.0, 21171.0, 21188.0, 21206.0, 21225.0, 21231.0, 21238.0, 21238.0, 21201.0, 21193.0, 21226.0, 21247.0, 21248.0, 21253.0, 21233.0, 21219.0, 21211.0, 21214.0, 21193.0, 21189.0, 21187.0]
    },
    "slices": {}
  }
}