{
  "AcquisitionMatrixPE": 104,
  "AcquisitionNumber": 1,
  "AcquisitionTime": "13:29:1.690000",
  "BandwidthPerPixelPhaseEncode": 17.17,
  "BaseResolution": 104,
  "BodyPartExamined": "BRAIN",
  "CoilString": "HC1-7;NC1_2",
  "ConsistencyInfo": "N4_VE11C_LATEST_20160120",
  "ConversionSoftware": "dcm2niix",
  "ConversionSoftwareVersion": "v1.0.20190902",
  "DerivedVendorReportedEchoSpacing": 0.000560011,
  "DeviceSerialNumber": "167006",
  "DwellTime": 2.1e-06,
  "EchoTime": 0.037,
  "EchoTrainLength": 104,
  "EffectiveEchoSpacing": 0.000560011,
  "FlipAngle": 52,
  "ImageComments": "Unaliased_MB4_PE3_LB",
  "ImageOrientationPatientDICOM": [0.999202, 0.0282047, 0.028292, -0.0205813, 0.970419, -0.240546],
  "ImageType": [
    "ORIGINAL",
    "PRIMARY",
    "M",
    "MB",
    "ND",
    "MOSAIC"
],
  "ImagingFrequency": 123.259,
  "InPlanePhaseEncodingDirectionDICOM": "COL",
  "InstitutionAddress": "Chemin_Queen-Mary_4565_Montreal_District_CA_H3W_1W5",
  "InstitutionName": "IUGM",
  "InstitutionalDepartmentName": "Department",
  "MRAcquisitionType": "2D",
  "MagneticFieldStrength": 3,
  "Manufacturer": "Siemens",
  "ManufacturersModelName": "Prisma_fit",
  "Modality": "MR",
  "MultibandAccelerationFactor": 4,
  "PartialFourier": 1,
  "PatientPosition": "HFS",
  "PercentPhaseFOV": 100,
  "PhaseEncodingDirection": "j",
  "PhaseEncodingSteps": 104,
  "PhaseResolution": 1,
  "PixelBandwidth": 2290,
  "ProcedureStepDescription": "memory_things",
  "ProtocolName": "func_task-things_run-1",
  "PulseSequenceDetails": "%CustomerSeq%_cmrr_mbep2d_bold",
  "ReceiveCoilActiveElements": "HC1-7;NC1,2",
  "ReceiveCoilName": "HeadNeck_64",
  "ReconMatrixPE": 104,
  "RepetitionTime": 1.49,
  "SAR": 0.0410057,
  "ScanOptions": "FS",
  "ScanningSequence": "EP",
  "SequenceName": "epfid2d1_104",
  "SequenceVariant": "SK_SS",
  "SeriesDescription": "func_task-things_run-1",
  "SeriesNumber": 10,
  "ShimSetting": [640, -7213, -8781, 729, 64, 10, 105, -15],
  "SliceThickness": 2,
  "SliceTiming": [0, 0.7825, 0.0975, 0.8825, 0.195, 0.98, 0.295, 1.0775, 0.3925, 1.175, 0.49, 1.2725, 0.5875, 1.3725, 0.685, 0, 0.7825, 0.0975, 0.8825, 0.195, 0.98, 0.295, 1.0775, 0.3925, 1.175, 0.49, 1.2725, 0.5875, 1.3725, 0.685, 0, 0.7825, 0.0975, 0.8825, 0.195, 0.98, 0.295, 1.0775, 0.3925, 1.175, 0.49, 1.2725, 0.5875, 1.3725, 0.685, 0, 0.7825, 0.0975, 0.8825, 0.195, 0.98, 0.295, 1.0775, 0.3925, 1.175, 0.49, 1.2725, 0.5875, 1.3725, 0.685],
  "SoftwareVersions": "syngo_MR_E11",
  "SpacingBetweenSlices": 2,
  "StationName": "MRC35049",
  "TaskName": "things",
  "TotalReadoutTime": 0.0576811,
  "TxRefAmp": 217.264,
  "WipMemBlock": "b29c8d91-cce3-4275-b03a-5b16dc992cea||Sequence: R016 ve11c/master r/e634e98; Dec 19 2017 11:00:25 by eja",
  "dcmmeta_affine": [
    [-1.9984034299850464, -0.041162602603435516, 0.06847932934761047, 109.32850646972656],
    [-0.05640944838523865, 1.9408388137817383, -0.4795440435409546, -72.38069915771484],
    [0.056584034115076065, 0.4810926616191864, 1.9404504299163818, -62.11087417602539],
    [0.0, 0.0, 0.0, 1.0]
],
  "dcmmeta_reorient_transform": [
    [0.0, -1.0, 0.0, 103.0],
    [1.0, 0.0, 0.0, 0.0],
    [0.0, 0.0, 1.0, 0.0],
    [0.0, 0.0, 0.0, 1.0]
],
  "dcmmeta_shape": [104, 104, 60, 190],
  "dcmmeta_slice_dim": 2,
  "dcmmeta_version": 0.6,
  "global": {
    "const": {
      "AcquisitionMatrix": [104, 0, 0, 104],
      "AngioFlag": "N",
      "BitsAllocated": 16,
      "BitsStored": 16,
      "BodyPartExamined": "BRAIN",
      "Columns": 832,
      "EchoNumbers": 1,
      "EchoTime": 37.0,
      "EchoTrainLength": 104,
      "FlipAngle": 52.0,
      "HighBit": 15,
      "ImageOrientationPatient": [0.99920170901789, 0.02820472492444, 0.02829201632392, -0.0205813020719, 0.97041942993997, -0.2405463364926],
      "ImagePositionPatient": [-817.52441345758, -854.52408766445, 141.9628162126],
      "ImageType": [
        "ORIGINAL",
        "PRIMARY",
        "M",
        "MB",
        "ND",
        "MOSAIC"
],
      "ImagedNucleus": "1H",
      "ImagingFrequency": 123.258948,
      "InPlanePhaseEncodingDirection": "COL",
      "MRAcquisitionType": "2D",
      "MagneticFieldStrength": 3.0,
      "Manufacturer": "SIEMENS",
      "ManufacturerModelName": "Prisma_fit",
      "Modality": "MR",
      "NumberOfAverages": 1.0,
      "NumberOfPhaseEncodingSteps": 104,
      "PercentPhaseFieldOfView": 100.0,
      "PercentSampling": 100.0,
      "PerformedProcedureStepStartTime": "120819.282000",
      "PhotometricInterpretation": "MONOCHROME2",
      "PixelBandwidth": 2290.0,
      "PixelRepresentation": 0,
      "PixelSpacing": [2.0, 2.0],
      "ProtocolName": "func_task-things_run-1",
      "RepetitionTime": 1490.0,
      "Rows": 832,
      "SAR": 0.04100566438721,
      "SamplesPerPixel": 1,
      "ScanOptions": "FS",
      "ScanningSequence": "EP",
      "SequenceName": "epfid2d1_104",
      "SequenceVariant": [
        "SK",
        "SS"
],
      "SeriesDescription": "func_task-things_run-1",
      "SeriesNumber": 10,
      "SeriesTime": "133022.293000",
      "SliceLocation": -39.163299672377,
      "SliceThickness": 2.0,
      "SmallestImagePixelValue": 0,
      "SoftwareVersions": "syngo MR E11",
      "SpacingBetweenSlices": 1.9999999551963,
      "SpecificCharacterSet": "ISO_IR 100",
      "StudyID": "1",
      "StudyTime": "120819.165000",
      "TransmitCoilName": "Body",
      "VariableFlipAngleFlag": "N",
      "WindowCenterWidthExplanation": "Algo1",
      "dBdt": 0.0},
    "slices": {}
  },
  "time": {
    "samples": {
      "AcquisitionNumber": [1, 2, 3, 4, 5, 6, 7, 8, 9, 10, 11, 12, 13, 14, 15, 16, 17, 18, 19, 20, 21, 22, 23, 24, 25, 26, 27, 28, 29, 30, 31, 32, 33, 34, 35, 36, 37, 38, 39, 40, 41, 42, 43, 44, 45, 46, 47, 48, 49, 50, 51, 52, 53, 54, 55, 56, 57, 58, 59, 60, 61, 62, 63, 64, 65, 66, 67, 68, 69, 70, 71, 72, 73, 74, 75, 76, 77, 78, 79, 80, 81, 82, 83, 84, 85, 86, 87, 88, 89, 90, 91, 92, 93, 94, 95, 96, 97, 98, 99, 100, 101, 102, 103, 104, 105, 106, 107, 108, 109, 110, 111, 112, 113, 114, 115, 116, 117, 118, 119, 120, 121, 122, 123, 124, 125, 126, 127, 128, 129, 130, 131, 132, 133, 134, 135, 136, 137, 138, 139, 140, 141, 142, 143, 144, 145, 146, 147, 148, 149, 150, 151, 152, 153, 154, 155, 156, 157, 158, 159, 160, 161, 162, 163, 164, 165, 166, 167, 168, 169, 170, 171, 172, 173, 174, 175, 176, 177, 178, 179, 180, 181, 182, 183, 184, 185, 186, 187, 188, 189, 190],
      "AcquisitionTime": ["132901.690000", "132903.180000", "132904.670000", "132906.160000", "132907.650000", "132909.140000", "132910.630000", "132912.120000", "132913.610000", "132915.100000", "132916.590000", "132918.080000", "132919.570000", "132921.060000", "132922.550000", "132924.040000", "132925.530000", "132927.020000", "132928.510000", "132930.000000", "132931.490000", "132932.980000", "132934.470000", "132935.960000", "132937.450000", "132938.940000", "132940.430000", "132941.920000", "132943.410000", "132944.900000", "132946.390000", "132947.880000", "132949.370000", "132950.860000", "132952.350000", "132953.840000", "132955.330000", "132956.820000", "132958.310000", "132959.800000", "133001.290000", "133002.780000", "133004.270000", "133005.760000", "133007.250000", "133008.740000", "133010.230000", "133011.720000", "133013.210000", "133014.700000", "133016.190000", "133017.680000", "133019.170000", "133020.660000", "133022.150000", "133023.640000", "133025.130000", "133026.620000", "133028.110000", "133029.600000", "133031.090000", "133032.580000", "133034.070000", "133035.560000", "133037.050000", "133038.540000", "133040.030000", "133041.520000", "133043.010000", "133044.500000", "133045.990000", "133047.480000", "133048.970000", "133050.460000", "133051.950000", "133053.440000", "133054.930000", "133056.420000", "133057.910000", "133059.400000", "133100.890000", "133102.380000", "133103.870000", "133105.360000", "133106.850000", "133108.340000", "133109.830000", "133111.320000", "133112.810000", "133114.300000", "133115.790000", "133117.280000", "133118.770000", "133120.260000", "133121.750000", "133123.240000", "133124.730000", "133126.220000", "133127.710000", "133129.200000", "133130.690000", "133132.180000", "133133.670000", "133135.160000", "133136.650000", "133138.140000", "133139.630000", "133141.120000", "133142.610000", "133144.100000", "133145.590000", "133147.080000", "133148.570000", "133150.060000", "133151.550000", "133153.040000", "133154.530000", "133156.020000", "133157.510000", "133159.000000", "133200.490000", "133201.980000", "133203.470000", "133204.960000", "133206.450000", "133207.940000", "133209.430000", "133210.920000", "133212.410000", "133213.900000", "133215.390000", "133216.880000", "133218.370000", "133219.860000", "133221.350000", "133222.840000", "133224.330000", "133225.820000", "133227.310000", "133228.800000", "133230.290000", "133231.780000", "133233.270000", "133234.760000", "133236.250000", "133237.740000", "133239.230000", "133240.720000", "133242.210000", "133243.700000", "133245.190000", "133246.680000", "133248.170000", "133249.660000", "133251.150000", "133252.640000", "133254.130000", "133255.620000", "133257.110000", "133258.600000", "133300.090000", "133301.580000", "133303.070000", "133304.560000", "133306.050000", "133307.540000", "133309.030000", "133310.520000", "133312.010000", "133313.500000", "133314.990000", "133316.480000", "133317.970000", "133319.460000", "133320.950000", "133322.440000", "133323.930000", "133325.420000", "133326.910000", "133328.400000", "133329.890000", "133331.380000", "133332.870000", "133334.360000", "133335.850000", "133337.340000", "133338.830000", "133340.320000", "133341.810000", "133343.300000"],
      "ContentTime": ["133022.296000", "133022.299000", "133022.302000", "133022.306000", "133022.309000", "133022.312000", "133022.316000", "133022.319000", "133022.322000", "133022.325000", "133022.329000", "133022.332000", "133022.335000", "133022.338000", "133022.342000", "133022.345000", "133022.348000", "133022.351000", "133022.354000", "133022.358000", "133022.361000", "133022.368000", "133022.372000", "133022.375000", "133022.382000", "133022.385000", "133022.389000", "133042.255000", "133042.259000", "133042.262000", "133042.265000", "133042.269000", "133042.272000", "133042.275000", "133042.279000", "133042.282000", "133042.285000", "133042.288000", "133042.292000", "133042.309000", "133042.312000", "133042.315000", "133042.319000", "133042.322000", "133042.325000", "133042.328000", "133042.331000", "133102.255000", "133102.259000", "133102.262000", "133102.265000", "133102.268000", "133102.272000", "133102.275000", "133102.278000", "133102.281000", "133102.284000", "133102.288000", "133102.291000", "133102.294000", "133102.298000", "133102.301000", "133102.304000", "133102.308000", "133102.311000", "133102.314000", "133102.318000", "133102.328000", "133122.255000", "133122.259000", "133122.262000", "133122.265000", "133122.269000", "133122.272000", "133122.275000", "133122.278000", "133122.282000", "133122.286000", "133122.289000", "133122.292000", "133122.296000", "133122.299000", "133122.302000", "133122.306000", "133122.309000", "133122.312000", "133122.315000", "133122.319000", "133202.254000", "133202.258000", "133202.261000", "133202.264000", "133202.268000", "133202.271000", "133202.282000", "133202.285000", "133202.288000", "133202.292000", "133202.295000", "133202.298000", "133202.301000", "133202.305000", "133202.308000", "133202.311000", "133202.314000", "133202.318000", "133202.321000", "133202.324000", "133202.327000", "133202.331000", "133202.334000", "133202.337000", "133202.340000", "133202.344000", "133202.347000", "133202.350000", "133202.353000", "133202.357000", "133202.360000", "133202.363000", "133222.254000", "133222.258000", "133222.261000", "133222.264000", "133222.267000", "133222.271000", "133222.274000", "133222.277000", "133222.280000", "133222.284000", "133222.287000", "133222.294000", "133222.297000", "133222.301000", "133302.255000", "133302.259000", "133302.262000", "133302.266000", "133302.269000", "133302.272000", "133302.275000", "133302.279000", "133302.282000", "133302.285000", "133302.289000", "133302.292000", "133302.295000", "133302.299000", "133302.302000", "133302.305000", "133302.309000", "133302.312000", "133302.315000", "133302.318000", "133302.322000", "133302.328000", "133302.331000", "133302.335000", "133302.338000", "133302.341000", "133302.344000", "133342.255000", "133342.259000", "133342.262000", "133342.265000", "133342.268000", "133342.279000", "133342.282000", "133342.286000", "133342.289000", "133342.292000", "133342.295000", "133342.299000", "133342.302000", "133342.305000", "133342.309000", "133342.312000", "133342.315000", "133342.318000", "133342.322000", "133342.325000", "133342.328000", "133342.331000", "133342.334000", "133342.338000", "133342.341000", "133342.346000", "133345.520000", "133345.524000", "133345.527000"],
      "InstanceCreationTime": ["133022.296000", "133022.299000", "133022.302000", "133022.306000", "133022.309000", "133022.312000", "133022.316000", "133022.319000", "133022.322000", "133022.325000", "133022.329000", "133022.332000", "133022.335000", "133022.338000", "133022.342000", "133022.345000", "133022.348000", "133022.351000", "133022.354000", "133022.358000", "133022.361000", "133022.368000", "133022.372000", "133022.375000", "133022.382000", "133022.385000", "133022.389000", "133042.255000", "133042.259000", "133042.262000", "133042.265000", "133042.269000", "133042.272000", "133042.275000", "133042.279000", "133042.282000", "133042.285000", "133042.288000", "133042.292000", "133042.309000", "133042.312000", "133042.315000", "133042.319000", "133042.322000", "133042.325000", "133042.328000", "133042.331000", "133102.255000", "133102.259000", "133102.262000", "133102.265000", "133102.268000", "133102.272000", "133102.275000", "133102.278000", "133102.281000", "133102.284000", "133102.288000", "133102.291000", "133102.294000", "133102.298000", "133102.301000", "133102.304000", "133102.308000", "133102.311000", "133102.314000", "133102.318000", "133102.328000", "133122.255000", "133122.259000", "133122.262000", "133122.265000", "133122.269000", "133122.272000", "133122.275000", "133122.278000", "133122.282000", "133122.286000", "133122.289000", "133122.292000", "133122.296000", "133122.299000", "133122.302000", "133122.306000", "133122.309000", "133122.312000", "133122.315000", "133122.319000", "133202.254000", "133202.258000", "133202.261000", "133202.264000", "133202.268000", "133202.271000", "133202.282000", "133202.285000", "133202.288000", "133202.292000", "133202.295000", "133202.298000", "133202.301000", "133202.305000", "133202.308000", "133202.311000", "133202.314000", "133202.318000", "133202.321000", "133202.324000", "133202.327000", "133202.331000", "133202.334000", "133202.337000", "133202.340000", "133202.344000", "133202.347000", "133202.350000", "133202.353000", "133202.357000", "133202.360000", "133202.363000", "133222.254000", "133222.258000", "133222.261000", "133222.264000", "133222.267000", "133222.271000", "133222.274000", "133222.277000", "133222.280000", "133222.284000", "133222.287000", "133222.294000", "133222.297000", "133222.301000", "133302.255000", "133302.259000", "133302.262000", "133302.266000", "133302.269000", "133302.272000", "133302.275000", "133302.279000", "133302.282000", "133302.285000", "133302.289000", "133302.292000", "133302.295000", "133302.299000", "133302.302000", "133302.305000", "133302.309000", "133302.312000", "133302.315000", "133302.318000", "133302.322000", "133302.328000", "133302.331000", "133302.335000", "133302.338000", "133302.341000", "133302.344000", "133342.255000", "133342.259000", "133342.262000", "133342.265000", "133342.268000", "133342.279000", "133342.282000", "133342.286000", "133342.289000", "133342.292000", "133342.295000", "133342.299000", "133342.302000", "133342.305000", "133342.309000", "133342.312000", "133342.315000", "133342.318000", "133342.322000", "133342.325000", "133342.328000", "133342.331000", "133342.334000", "133342.338000", "133342.341000", "133342.346000", "133345.520000", "133345.524000", "133345.527000"],
      "InstanceNumber": [1, 2, 3, 4, 5, 6, 7, 8, 9, 10, 11, 12, 13, 14, 15, 16, 17, 18, 19, 20, 21, 22, 23, 24, 25, 26, 27, 28, 29, 30, 31, 32, 33, 34, 35, 36, 37, 38, 39, 40, 41, 42, 43, 44, 45, 46, 47, 48, 49, 50, 51, 52, 53, 54, 55, 56, 57, 58, 59, 60, 61, 62, 63, 64, 65, 66, 67, 68, 69, 70, 71, 72, 73, 74, 75, 76, 77, 78, 79, 80, 81, 82, 83, 84, 85, 86, 87, 88, 89, 90, 91, 92, 93, 94, 95, 96, 97, 98, 99, 100, 101, 102, 103, 104, 105, 106, 107, 108, 109, 110, 111, 112, 113, 114, 115, 116, 117, 118, 119, 120, 121, 122, 123, 124, 125, 126, 127, 128, 129, 130, 131, 132, 133, 134, 135, 136, 137, 138, 139, 140, 141, 142, 143, 144, 145, 146, 147, 148, 149, 150, 151, 152, 153, 154, 155, 156, 157, 158, 159, 160, 161, 162, 163, 164, 165, 166, 167, 168, 169, 170, 171, 172, 173, 174, 175, 176, 177, 178, 179, 180, 181, 182, 183, 184, 185, 186, 187, 188, 189, 190],
      "LargestImagePixelValue": [41552, 40005, 39636, 38705, 39500, 39455, 39258, 38950, 38904, 39047, 38978, 38872, 38917, 38569, 38552, 38568, 39148, 38808, 38793, 39028, 38985, 39051, 39130, 38953, 39397, 39168, 38848, 39076, 38926, 38842, 38703, 39113, 39022, 38658, 38819, 38758, 39177, 38901, 38984, 38876, 38731, 39187, 39272, 38980, 39130, 38531, 39005, 38696, 39261, 39083, 39202, 38748, 38992, 39104, 39168, 38948, 38911, 38906, 38953, 38863, 38837, 39271, 38661, 39186, 39142, 39024, 39129, 39051, 39051, 38847, 39048, 38869, 39292, 39054, 38987, 39008, 39321, 39020, 39391, 39107, 39215, 38845, 39140, 39098, 39243, 39460, 38919, 39363, 39014, 39135, 38823, 38909, 39117, 39187, 38936, 39169, 38611, 39242, 38611, 39038, 38965, 39021, 39137, 39070, 39530, 38586, 38663, 38977, 39095, 38745, 39443, 39130, 38795, 38547, 39149, 38599, 39037, 38569, 39088, 38622, 39127, 38669, 39027, 38799, 38712, 38633, 38685, 38590, 38739, 38895, 38733, 39117, 38670, 38868, 38422, 38906, 38728, 38249, 38491, 38853, 38325, 38203, 38406, 38169, 38940, 38655, 38598, 38385, 38471, 38357, 38523, 38073, 38372, 38117, 38330, 37983, 37945, 38462, 37985, 37958, 38431, 38140, 37784, 38187, 37876, 38157, 38221, 38147, 38668, 38253, 38656, 38388, 38175, 38213, 38201, 38524, 37799, 38455, 38234, 38193, 38087, 38122, 38104, 38373, 37539, 38145, 38856, 37491, 37498, 37910],
      "WindowCenter": [10123.0, 10063.0, 10041.0, 10007.0, 10040.0, 10032.0, 10033.0, 10039.0, 10042.0, 10047.0, 10039.0, 10025.0, 10015.0, 10007.0, 10005.0, 10011.0, 10019.0, 10023.0, 10030.0, 10036.0, 10030.0, 10029.0, 10040.0, 10047.0, 10039.0, 10028.0, 10014.0, 10012.0, 10012.0, 10012.0, 10020.0, 10027.0, 10021.0, 10014.0, 10013.0, 10012.0, 10017.0, 10019.0, 10028.0, 10024.0, 10025.0, 10029.0, 10034.0, 10023.0, 10021.0, 10015.0, 10029.0, 10030.0, 10031.0, 10031.0, 10031.0, 10022.0, 10022.0, 10028.0, 10037.0, 10037.0, 10038.0, 10031.0, 10038.0, 10042.0, 10044.0, 10054.0, 10049.0, 10049.0, 10041.0, 10033.0, 10029.0, 10024.0, 10030.0, 10030.0, 10029.0, 10022.0, 10021.0, 10021.0, 10014.0, 10013.0, 10020.0, 10021.0, 10030.0, 10031.0, 10029.0, 10017.0, 10007.0, 10002.0, 9994.0, 10002.0, 10011.0, 10020.0, 10031.0, 10033.0, 10024.0, 10023.0, 10021.0, 10032.0, 10048.0, 10049.0, 10026.0, 10006.0, 9995.0, 10008.0, 10021.0, 10037.0, 10033.0, 10039.0, 10048.0, 10042.0, 10042.0, 10040.0, 10033.0, 10031.0, 10038.0, 10040.0, 10036.0, 10028.0, 10017.0, 10007.0, 10012.0, 10020.0, 10031.0, 10025.0, 10030.0, 10026.0, 10033.0, 10034.0, 10041.0, 10028.0, 10018.0, 10024.0, 10023.0, 10031.0, 10019.0, 10004.0, 9986.0, 9993.0, 10005.0, 10016.0, 10026.0, 10018.0, 10003.0, 9993.0, 9991.0, 9992.0, 10006.0, 10008.0, 10019.0, 10014.0, 10015.0, 10009.0, 10009.0, 10026.0, 10044.0, 10040.0, 10037.0, 10022.0, 10019.0, 10019.0, 10027.0, 10029.0, 10014.0, 10014.0, 10017.0, 10001.0, 9995.0, 10001.0, 9995.0, 9992.0, 9990.0, 9991.0, 9996.0, 9990.0, 9996.0, 9990.0, 9990.0, 9999.0, 10009.0, 10018.0, 10011.0, 10009.0, 10009.0, 10018.0, 10018.0, 10018.0, 10026.0, 10033.0, 10030.0, 10045.0, 10052.0, 10038.0, 10012.0, 9983.0],
      "WindowWidth": [21532.0, 21377.0, 21315.0, 21234.0, 21306.0, 21288.0, 21287.0, 21300.0, 21306.0, 21314.0, 21296.0, 21269.0, 21246.0, 21227.0, 21223.0, 21234.0, 21251.0, 21263.0, 21276.0, 21289.0, 21278.0, 21275.0, 21301.0, 21315.0, 21299.0, 21272.0, 21242.0, 21235.0, 21236.0, 21236.0, 21256.0, 21268.0, 21256.0, 21241.0, 21240.0, 21236.0, 21245.0, 21249.0, 21271.0, 21266.0, 21267.0, 21272.0, 21281.0, 21261.0, 21256.0, 21246.0, 21276.0, 21277.0, 21279.0, 21280.0, 21276.0, 21258.0, 21257.0, 21271.0, 21290.0, 21292.0, 21293.0, 21280.0, 21295.0, 21307.0, 21312.0, 21331.0, 21320.0, 21320.0, 21302.0, 21282.0, 21273.0, 21262.0, 21276.0, 21275.0, 21272.0, 21254.0, 21252.0, 21253.0, 21241.0, 21239.0, 21253.0, 21255.0, 21274.0, 21275.0, 21271.0, 21246.0, 21222.0, 21208.0, 21191.0, 21208.0, 21229.0, 21253.0, 21278.0, 21284.0, 21263.0, 21258.0, 21254.0, 21279.0, 21315.0, 21316.0, 21266.0, 21216.0, 21192.0, 21219.0, 21253.0, 21289.0, 21283.0, 21296.0, 21316.0, 21302.0, 21300.0, 21294.0, 21280.0, 21274.0, 21290.0, 21295.0, 21289.0, 21271.0, 21246.0, 21223.0, 21232.0, 21251.0, 21275.0, 21266.0, 21272.0, 21266.0, 21281.0, 21284.0, 21299.0, 21270.0, 21249.0, 21260.0, 21258.0, 21274.0, 21251.0, 21209.0, 21170.0, 21187.0, 21218.0, 21246.0, 21266.0, 21250.0, 21213.0, 21188.0, 21186.0, 21188.0, 21220.0, 21224.0, 21244.0, 21236.0, 21237.0, 21225.0, 21229.0, 21266.0, 21308.0, 21304.0, 21292.0, 21259.0, 21250.0, 21252.0, 21270.0, 21275.0, 21246.0, 21242.0, 21243.0, 21208.0, 21199.0, 21210.0, 21199.0, 21192.0, 21186.0, 21188.0, 21194.0, 21184.0, 21195.0, 21182.0, 21183.0, 21207.0, 21228.0, 21250.0, 21234.0, 21228.0, 21230.0, 21248.0, 21249.0, 21251.0, 21268.0, 21283.0, 21280.0, 21309.0, 21323.0, 21294.0, 21234.0, 21166.0]
    },
    "slices": {}
  }
}