{
  "AcquisitionMatrixPE": 104,
  "AcquisitionNumber": 1,
  "AcquisitionTime": "17:54:38.972500",
  "BandwidthPerPixelPhaseEncode": 17.17,
  "BaseResolution": 104,
  "BodyPartExamined": "BRAIN",
  "CoilString": "HC1-7;NC1_2",
  "ConsistencyInfo": "N4_VE11C_LATEST_20160120",
  "ConversionSoftware": "dcm2niix",
  "ConversionSoftwareVersion": "v1.0.20190902",
  "DerivedVendorReportedEchoSpacing": 0.000560011,
  "DeviceSerialNumber": "167006",
  "DwellTime": 2.1e-06,
  "EchoTime": 0.037,
  "EchoTrainLength": 104,
  "EffectiveEchoSpacing": 0.000560011,
  "FlipAngle": 52,
  "HeudiconvVersion": "0.10.0",
  "ImageComments": "Unaliased_MB4_PE3_LB",
  "ImageOrientationPatientDICOM": [0.997877, 0.0568559, 0.0317723, -0.0442662, 0.949869, -0.309497],
  "ImageType": [
    "ORIGINAL",
    "PRIMARY",
    "M",
    "MB",
    "ND",
    "MOSAIC"
],
  "ImagingFrequency": 123.259,
  "InPlanePhaseEncodingDirectionDICOM": "COL",
  "InstitutionAddress": "Chemin_Queen-Mary_4565_Montreal_District_CA_H3W_1W5",
  "InstitutionName": "IUGM",
  "InstitutionalDepartmentName": "Department",
  "MRAcquisitionType": "2D",
  "MagneticFieldStrength": 3,
  "Manufacturer": "Siemens",
  "ManufacturersModelName": "Prisma_fit",
  "Modality": "MR",
  "MultibandAccelerationFactor": 4,
  "PartialFourier": 1,
  "PatientPosition": "HFS",
  "PercentPhaseFOV": 100,
  "PhaseEncodingDirection": "j",
  "PhaseEncodingSteps": 104,
  "PhaseResolution": 1,
  "PixelBandwidth": 2290,
  "ProcedureStepDescription": "memory_things",
  "ProtocolName": "func_task-things_run-5",
  "PulseSequenceDetails": "%CustomerSeq%_cmrr_mbep2d_bold",
  "ReceiveCoilActiveElements": "HC1-7;NC1,2",
  "ReceiveCoilName": "HeadNeck_64",
  "ReconMatrixPE": 104,
  "RepetitionTime": 1.49,
  "SAR": 0.0418901,
  "ScanOptions": "FS",
  "ScanningSequence": "EP",
  "SequenceName": "epfid2d1_104",
  "SequenceVariant": "SK_SS",
  "SeriesDescription": "func_task-things_run-5",
  "SeriesNumber": 22,
  "ShimSetting": [632, -7182, -8817, 628, 73, 20, -46, -3],
  "SliceThickness": 2,
  "SliceTiming": [0, 0.7825, 0.0975, 0.8825, 0.195, 0.98, 0.2925, 1.0775, 0.3925, 1.175, 0.49, 1.2725, 0.5875, 1.37, 0.685, 0, 0.7825, 0.0975, 0.8825, 0.195, 0.98, 0.2925, 1.0775, 0.3925, 1.175, 0.49, 1.2725, 0.5875, 1.37, 0.685, 0, 0.7825, 0.0975, 0.8825, 0.195, 0.98, 0.2925, 1.0775, 0.3925, 1.175, 0.49, 1.2725, 0.5875, 1.37, 0.685, 0, 0.7825, 0.0975, 0.8825, 0.195, 0.98, 0.2925, 1.0775, 0.3925, 1.175, 0.49, 1.2725, 0.5875, 1.37, 0.685],
  "SoftwareVersions": "syngo_MR_E11",
  "SpacingBetweenSlices": 2,
  "StationName": "MRC35049",
  "TaskName": "things",
  "TotalReadoutTime": 0.0576811,
  "TxRefAmp": 254.519,
  "WipMemBlock": "b5cfef6a-f549-4721-8b6d-1a1e9402038f||Sequence: R016 ve11c/master r/e634e98; Dec 19 2017 11:00:25 by eja",
  "dcmmeta_affine": [
    [-1.9957534074783325, -0.08853240311145782, 0.09555254131555557, 108.661376953125],
    [-0.11371173709630966, 1.8997389078140259, -0.6148671507835388, -57.116119384765625],
    [0.0635446086525917, 0.6189943552017212, 1.9007388353347778, -58.187015533447266],
    [0.0, 0.0, 0.0, 1.0]
],
  "dcmmeta_reorient_transform": [
    [0.0, -1.0, 0.0, 103.0],
    [1.0, 0.0, 0.0, 0.0],
    [0.0, 0.0, 1.0, 0.0],
    [0.0, 0.0, 0.0, 1.0]
],
  "dcmmeta_shape": [104, 104, 60, 190],
  "dcmmeta_slice_dim": 2,
  "dcmmeta_version": 0.6,
  "global": {
    "const": {
      "AcquisitionMatrix": [104, 0, 0, 104],
      "AngioFlag": "N",
      "BitsAllocated": 16,
      "BitsStored": 16,
      "BodyPartExamined": "BRAIN",
      "Columns": 832,
      "EchoNumbers": 1,
      "EchoTime": 37.0,
      "EchoTrainLength": 104,
      "FlipAngle": 52.0,
      "HighBit": 15,
      "ImageOrientationPatient": [0.99787671135317, 0.05685586684609, 0.03177230467175, -0.0442662026476, 0.9498694618353, -0.3094971870242],
      "ImagePositionPatient": [-793.77098834753, -871.45302885232, 207.75312010734],
      "ImageType": [
        "ORIGINAL",
        "PRIMARY",
        "M",
        "MB",
        "ND",
        "MOSAIC"
],
      "ImagedNucleus": "1H",
      "ImagingFrequency": 123.258908,
      "InPlanePhaseEncodingDirection": "COL",
      "MRAcquisitionType": "2D",
      "MagneticFieldStrength": 3.0,
      "Manufacturer": "SIEMENS",
      "ManufacturerModelName": "Prisma_fit",
      "Modality": "MR",
      "NumberOfAverages": 1.0,
      "NumberOfPhaseEncodingSteps": 104,
      "PercentPhaseFieldOfView": 100.0,
      "PercentSampling": 100.0,
      "PerformedProcedureStepStartTime": "170608.146000",
      "PhotometricInterpretation": "MONOCHROME2",
      "PixelBandwidth": 2290.0,
      "PixelRepresentation": 0,
      "PixelSpacing": [2.0, 2.0],
      "ProtocolName": "func_task-things_run-5",
      "RepetitionTime": 1490.0,
      "Rows": 832,
      "SAR": 0.04189006528386,
      "SamplesPerPixel": 1,
      "ScanOptions": "FS",
      "ScanningSequence": "EP",
      "SequenceName": "epfid2d1_104",
      "SequenceVariant": [
        "SK",
        "SS"
],
      "SeriesDescription": "func_task-things_run-5",
      "SeriesNumber": 22,
      "SeriesTime": "175541.950000",
      "SliceLocation": -32.548309237681,
      "SliceThickness": 2.0,
      "SmallestImagePixelValue": 0,
      "SoftwareVersions": "syngo MR E11",
      "SpacingBetweenSlices": 1.9999999620733,
      "SpecificCharacterSet": "ISO_IR 100",
      "StudyID": "1",
      "StudyTime": "170608.076000",
      "TransmitCoilName": "Body",
      "VariableFlipAngleFlag": "N",
      "WindowCenterWidthExplanation": "Algo1",
      "dBdt": 0.0},
    "slices": {}
  },
  "time": {
    "samples": {
      "AcquisitionNumber": [1, 2, 3, 4, 5, 6, 7, 8, 9, 10, 11, 12, 13, 14, 15, 16, 17, 18, 19, 20, 21, 22, 23, 24, 25, 26, 27, 28, 29, 30, 31, 32, 33, 34, 35, 36, 37, 38, 39, 40, 41, 42, 43, 44, 45, 46, 47, 48, 49, 50, 51, 52, 53, 54, 55, 56, 57, 58, 59, 60, 61, 62, 63, 64, 65, 66, 67, 68, 69, 70, 71, 72, 73, 74, 75, 76, 77, 78, 79, 80, 81, 82, 83, 84, 85, 86, 87, 88, 89, 90, 91, 92, 93, 94, 95, 96, 97, 98, 99, 100, 101, 102, 103, 104, 105, 106, 107, 108, 109, 110, 111, 112, 113, 114, 115, 116, 117, 118, 119, 120, 121, 122, 123, 124, 125, 126, 127, 128, 129, 130, 131, 132, 133, 134, 135, 136, 137, 138, 139, 140, 141, 142, 143, 144, 145, 146, 147, 148, 149, 150, 151, 152, 153, 154, 155, 156, 157, 158, 159, 160, 161, 162, 163, 164, 165, 166, 167, 168, 169, 170, 171, 172, 173, 174, 175, 176, 177, 178, 179, 180, 181, 182, 183, 184, 185, 186, 187, 188, 189, 190],
      "AcquisitionTime": ["175438.972500", "175440.462500", "175441.952500", "175443.442500", "175444.932500", "175446.422500", "175447.912500", "175449.402500", "175450.892500", "175452.382500", "175453.872500", "175455.362500", "175456.852500", "175458.342500", "175459.832500", "175501.322500", "175502.812500", "175504.302500", "175505.792500", "175507.282500", "175508.772500", "175510.262500", "175511.752500", "175513.242500", "175514.732500", "175516.222500", "175517.712500", "175519.202500", "175520.692500", "175522.182500", "175523.672500", "175525.162500", "175526.652500", "175528.142500", "175529.632500", "175531.122500", "175532.612500", "175534.102500", "175535.592500", "175537.082500", "175538.572500", "175540.062500", "175541.552500", "175543.042500", "175544.532500", "175546.022500", "175547.512500", "175549.002500", "175550.492500", "175551.982500", "175553.472500", "175554.962500", "175556.452500", "175557.942500", "175559.432500", "175600.922500", "175602.412500", "175603.902500", "175605.392500", "175606.882500", "175608.372500", "175609.862500", "175611.352500", "175612.842500", "175614.332500", "175615.822500", "175617.312500", "175618.802500", "175620.292500", "175621.782500", "175623.272500", "175624.762500", "175626.252500", "175627.742500", "175629.232500", "175630.722500", "175632.212500", "175633.702500", "175635.192500", "175636.682500", "175638.172500", "175639.662500", "175641.152500", "175642.642500", "175644.132500", "175645.622500", "175647.112500", "175648.602500", "175650.092500", "175651.582500", "175653.072500", "175654.562500", "175656.052500", "175657.542500", "175659.032500", "175700.522500", "175702.012500", "175703.502500", "175704.992500", "175706.482500", "175707.972500", "175709.462500", "175710.952500", "175712.442500", "175713.932500", "175715.422500", "175716.912500", "175718.402500", "175719.892500", "175721.382500", "175722.872500", "175724.362500", "175725.852500", "175727.342500", "175728.832500", "175730.322500", "175731.812500", "175733.302500", "175734.792500", "175736.282500", "175737.772500", "175739.262500", "175740.752500", "175742.242500", "175743.732500", "175745.222500", "175746.712500", "175748.202500", "175749.692500", "175751.182500", "175752.672500", "175754.162500", "175755.652500", "175757.142500", "175758.632500", "175800.122500", "175801.612500", "175803.102500", "175804.592500", "175806.082500", "175807.572500", "175809.062500", "175810.552500", "175812.042500", "175813.532500", "175815.022500", "175816.512500", "175818.002500", "175819.492500", "175820.982500", "175822.472500", "175823.962500", "175825.452500", "175826.942500", "175828.432500", "175829.922500", "175831.412500", "175832.902500", "175834.392500", "175835.882500", "175837.372500", "175838.862500", "175840.352500", "175841.842500", "175843.332500", "175844.822500", "175846.312500", "175847.802500", "175849.292500", "175850.782500", "175852.272500", "175853.762500", "175855.252500", "175856.742500", "175858.232500", "175859.722500", "175901.212500", "175902.702500", "175904.192500", "175905.682500", "175907.172500", "175908.662500", "175910.152500", "175911.642500", "175913.132500", "175914.622500", "175916.112500", "175917.602500", "175919.092500", "175920.582500"],
      "ContentTime": ["175541.953000", "175541.957000", "175541.961000", "175541.964000", "175541.972000", "175541.975000", "175541.978000", "175541.982000", "175541.986000", "175601.917000", "175601.921000", "175601.924000", "175601.930000", "175601.933000", "175601.936000", "175601.939000", "175601.943000", "175601.946000", "175601.949000", "175601.952000", "175601.956000", "175601.959000", "175601.962000", "175601.965000", "175601.969000", "175601.972000", "175601.975000", "175601.979000", "175601.982000", "175621.916000", "175621.920000", "175621.923000", "175621.926000", "175621.929000", "175621.938000", "175621.942000", "175621.945000", "175621.948000", "175621.951000", "175621.955000", "175621.958000", "175621.961000", "175621.964000", "175621.967000", "175621.971000", "175621.974000", "175621.977000", "175621.980000", "175621.984000", "175641.917000", "175641.921000", "175641.924000", "175641.927000", "175641.930000", "175641.934000", "175641.937000", "175641.940000", "175641.944000", "175641.947000", "175641.950000", "175641.953000", "175641.956000", "175641.960000", "175641.963000", "175641.966000", "175641.970000", "175641.973000", "175641.988000", "175641.991000", "175701.917000", "175701.921000", "175701.925000", "175701.928000", "175701.931000", "175701.935000", "175701.938000", "175701.941000", "175701.944000", "175701.948000", "175701.951000", "175701.954000", "175701.957000", "175701.961000", "175701.964000", "175701.967000", "175701.971000", "175701.974000", "175701.977000", "175701.980000", "175721.917000", "175721.921000", "175721.924000", "175721.927000", "175721.930000", "175721.934000", "175721.937000", "175721.940000", "175721.943000", "175721.947000", "175721.950000", "175721.953000", "175721.957000", "175721.960000", "175721.963000", "175721.967000", "175721.970000", "175721.973000", "175721.976000", "175721.980000", "175801.917000", "175801.921000", "175801.924000", "175801.927000", "175801.930000", "175801.934000", "175801.937000", "175801.940000", "175801.943000", "175801.947000", "175801.950000", "175801.954000", "175801.958000", "175801.961000", "175801.964000", "175801.967000", "175801.971000", "175801.974000", "175801.977000", "175801.981000", "175801.984000", "175801.987000", "175801.990000", "175801.994000", "175801.997000", "175802.001000", "175841.916000", "175841.920000", "175841.923000", "175841.926000", "175841.930000", "175841.933000", "175841.936000", "175841.939000", "175841.943000", "175841.946000", "175841.949000", "175841.952000", "175841.956000", "175841.959000", "175841.962000", "175841.965000", "175841.969000", "175841.972000", "175841.975000", "175841.979000", "175841.982000", "175841.985000", "175841.988000", "175841.992000", "175841.995000", "175841.998000", "175842.002000", "175921.917000", "175921.921000", "175921.924000", "175921.927000", "175921.945000", "175921.949000", "175921.952000", "175921.955000", "175921.958000", "175921.961000", "175921.965000", "175921.968000", "175921.971000", "175921.975000", "175921.978000", "175921.982000", "175921.985000", "175921.988000", "175921.991000", "175921.995000", "175921.998000", "175922.002000", "175922.006000", "175922.009000", "175922.012000", "175922.015000", "175922.019000", "175922.608000"],
      "InstanceCreationTime": ["175541.953000", "175541.957000", "175541.961000", "175541.964000", "175541.972000", "175541.975000", "175541.978000", "175541.982000", "175541.986000", "175601.917000", "175601.921000", "175601.924000", "175601.930000", "175601.933000", "175601.936000", "175601.939000", "175601.943000", "175601.946000", "175601.949000", "175601.952000", "175601.956000", "175601.959000", "175601.962000", "175601.965000", "175601.969000", "175601.972000", "175601.975000", "175601.979000", "175601.982000", "175621.916000", "175621.920000", "175621.923000", "175621.926000", "175621.929000", "175621.938000", "175621.942000", "175621.945000", "175621.948000", "175621.951000", "175621.955000", "175621.958000", "175621.961000", "175621.964000", "175621.967000", "175621.971000", "175621.974000", "175621.977000", "175621.980000", "175621.984000", "175641.917000", "175641.921000", "175641.924000", "175641.927000", "175641.930000", "175641.934000", "175641.937000", "175641.940000", "175641.944000", "175641.947000", "175641.950000", "175641.953000", "175641.956000", "175641.960000", "175641.963000", "175641.966000", "175641.970000", "175641.973000", "175641.988000", "175641.991000", "175701.917000", "175701.921000", "175701.925000", "175701.928000", "175701.931000", "175701.935000", "175701.938000", "175701.941000", "175701.944000", "175701.948000", "175701.951000", "175701.954000", "175701.957000", "175701.961000", "175701.964000", "175701.967000", "175701.971000", "175701.974000", "175701.977000", "175701.980000", "175721.917000", "175721.921000", "175721.924000", "175721.927000", "175721.930000", "175721.934000", "175721.937000", "175721.940000", "175721.943000", "175721.947000", "175721.950000", "175721.953000", "175721.957000", "175721.960000", "175721.963000", "175721.967000", "175721.970000", "175721.973000", "175721.976000", "175721.980000", "175801.917000", "175801.921000", "175801.924000", "175801.927000", "175801.930000", "175801.934000", "175801.937000", "175801.940000", "175801.943000", "175801.947000", "175801.950000", "175801.954000", "175801.958000", "175801.961000", "175801.964000", "175801.967000", "175801.971000", "175801.974000", "175801.977000", "175801.981000", "175801.984000", "175801.987000", "175801.990000", "175801.994000", "175801.997000", "175802.001000", "175841.916000", "175841.920000", "175841.923000", "175841.926000", "175841.930000", "175841.933000", "175841.936000", "175841.939000", "175841.943000", "175841.946000", "175841.949000", "175841.952000", "175841.956000", "175841.959000", "175841.962000", "175841.965000", "175841.969000", "175841.972000", "175841.975000", "175841.979000", "175841.982000", "175841.985000", "175841.988000", "175841.992000", "175841.995000", "175841.998000", "175842.002000", "175921.917000", "175921.921000", "175921.924000", "175921.927000", "175921.945000", "175921.949000", "175921.952000", "175921.955000", "175921.958000", "175921.961000", "175921.965000", "175921.968000", "175921.971000", "175921.975000", "175921.978000", "175921.982000", "175921.985000", "175921.988000", "175921.991000", "175921.995000", "175921.998000", "175922.002000", "175922.006000", "175922.009000", "175922.012000", "175922.015000", "175922.019000", "175922.608000"],
      "InstanceNumber": [1, 2, 3, 4, 5, 6, 7, 8, 9, 10, 11, 12, 13, 14, 15, 16, 17, 18, 19, 20, 21, 22, 23, 24, 25, 26, 27, 28, 29, 30, 31, 32, 33, 34, 35, 36, 37, 38, 39, 40, 41, 42, 43, 44, 45, 46, 47, 48, 49, 50, 51, 52, 53, 54, 55, 56, 57, 58, 59, 60, 61, 62, 63, 64, 65, 66, 67, 68, 69, 70, 71, 72, 73, 74, 75, 76, 77, 78, 79, 80, 81, 82, 83, 84, 85, 86, 87, 88, 89, 90, 91, 92, 93, 94, 95, 96, 97, 98, 99, 100, 101, 102, 103, 104, 105, 106, 107, 108, 109, 110, 111, 112, 113, 114, 115, 116, 117, 118, 119, 120, 121, 122, 123, 124, 125, 126, 127, 128, 129, 130, 131, 132, 133, 134, 135, 136, 137, 138, 139, 140, 141, 142, 143, 144, 145, 146, 147, 148, 149, 150, 151, 152, 153, 154, 155, 156, 157, 158, 159, 160, 161, 162, 163, 164, 165, 166, 167, 168, 169, 170, 171, 172, 173, 174, 175, 176, 177, 178, 179, 180, 181, 182, 183, 184, 185, 186, 187, 188, 189, 190],
      "LargestImagePixelValue": [42367, 40949, 39924, 39535, 39021, 39681, 39988, 39435, 39107, 38804, 38954, 39181, 38931, 38895, 39086, 39138, 38968, 39556, 38977, 39353, 39144, 39526, 39331, 38743, 39325, 39922, 39059, 38882, 39709, 39065, 39029, 38613, 39249, 38954, 39178, 38463, 38635, 38569, 39398, 39633, 39756, 39746, 39844, 39670, 39394, 38907, 38969, 38673, 38987, 39070, 39318, 39116, 39121, 38809, 39320, 39661, 39895, 39642, 38908, 39074, 39156, 39300, 39756, 39058, 39873, 39474, 39622, 40027, 40027, 39960, 39704, 39696, 40522, 40484, 39725, 39466, 39542, 39933, 40375, 39805, 40402, 40343, 40284, 40086, 39407, 39437, 39386, 39823, 39356, 39195, 39631, 39521, 39492, 39154, 39629, 40029, 39722, 39530, 39651, 40508, 39874, 39893, 40533, 39893, 39857, 39455, 39973, 40378, 39471, 39807, 40133, 40402, 39562, 39677, 39336, 39858, 39434, 39006, 39353, 39896, 39165, 39335, 39315, 39236, 39687, 39882, 39530, 38927, 39031, 39638, 39430, 39273, 39337, 39413, 39186, 39572, 39205, 39330, 39257, 39493, 39713, 39527, 39449, 38953, 38733, 39331, 39353, 39050, 39302, 38863, 39047, 39260, 39014, 39380, 39210, 39428, 39789, 39442, 39567, 39190, 39184, 38846, 39083, 39229, 39288, 39123, 39301, 39347, 38574, 39337, 39184, 39454, 38626, 38816, 39155, 39099, 38902, 38800, 39039, 39299, 38712, 38661, 38347, 39232, 38899, 38808, 38281, 38725, 38931, 39426],
      "WindowCenter": [10343.0, 10296.0, 10262.0, 10254.0, 10256.0, 10286.0, 10313.0, 10311.0, 10297.0, 10279.0, 10284.0, 10301.0, 10312.0, 10304.0, 10302.0, 10297.0, 10313.0, 10325.0, 10296.0, 10284.0, 10275.0, 10285.0, 10306.0, 10319.0, 10329.0, 10339.0, 10306.0, 10294.0, 10296.0, 10299.0, 10303.0, 10304.0, 10304.0, 10301.0, 10292.0, 10272.0, 10271.0, 10295.0, 10319.0, 10312.0, 10299.0, 10303.0, 10305.0, 10310.0, 10303.0, 10280.0, 10266.0, 10266.0, 10308.0, 10330.0, 10322.0, 10295.0, 10266.0, 10258.0, 10279.0, 10298.0, 10297.0, 10290.0, 10275.0, 10281.0, 10294.0, 10301.0, 10305.0, 10300.0, 10304.0, 10283.0, 10273.0, 10278.0, 10294.0, 10317.0, 10325.0, 10316.0, 10326.0, 10325.0, 10320.0, 10313.0, 10308.0, 10306.0, 10313.0, 10334.0, 10359.0, 10337.0, 10308.0, 10292.0, 10298.0, 10298.0, 10300.0, 10291.0, 10281.0, 10289.0, 10288.0, 10279.0, 10280.0, 10307.0, 10316.0, 10305.0, 10290.0, 10303.0, 10314.0, 10313.0, 10311.0, 10303.0, 10300.0, 10293.0, 10301.0, 10301.0, 10314.0, 10295.0, 10274.0, 10293.0, 10316.0, 10330.0, 10316.0, 10308.0, 10290.0, 10285.0, 10277.0, 10290.0, 10319.0, 10334.0, 10316.0, 10318.0, 10294.0, 10280.0, 10269.0, 10275.0, 10286.0, 10309.0, 10312.0, 10286.0, 10257.0, 10253.0, 10259.0, 10278.0, 10284.0, 10280.0, 10256.0, 10252.0, 10254.0, 10281.0, 10290.0, 10279.0, 10262.0, 10256.0, 10267.0, 10282.0, 10280.0, 10281.0, 10299.0, 10285.0, 10282.0, 10290.0, 10294.0, 10278.0, 10274.0, 10281.0, 10278.0, 10272.0, 10280.0, 10267.0, 10257.0, 10249.0, 10273.0, 10287.0, 10283.0, 10277.0, 10281.0, 10260.0, 10249.0, 10276.0, 10292.0, 10292.0, 10276.0, 10266.0, 10270.0, 10267.0, 10262.0, 10257.0, 10272.0, 10289.0, 10268.0, 10248.0, 10233.0, 10250.0, 10246.0, 10243.0, 10241.0, 10258.0, 10265.0, 10249.0],
      "WindowWidth": [21946.0, 21826.0, 21743.0, 21720.0, 21727.0, 21786.0, 21848.0, 21846.0, 21816.0, 21775.0, 21784.0, 21828.0, 21858.0, 21837.0, 21829.0, 21820.0, 21859.0, 21880.0, 21815.0, 21784.0, 21764.0, 21785.0, 21834.0, 21866.0, 21890.0, 21907.0, 21840.0, 21810.0, 21813.0, 21822.0, 21834.0, 21838.0, 21832.0, 21822.0, 21797.0, 21756.0, 21753.0, 21808.0, 21862.0, 21848.0, 21816.0, 21827.0, 21833.0, 21844.0, 21828.0, 21775.0, 21741.0, 21741.0, 21837.0, 21891.0, 21869.0, 21809.0, 21741.0, 21722.0, 21771.0, 21815.0, 21809.0, 21800.0, 21761.0, 21775.0, 21810.0, 21823.0, 21827.0, 21816.0, 21825.0, 21781.0, 21757.0, 21766.0, 21804.0, 21860.0, 21875.0, 21853.0, 21876.0, 21874.0, 21866.0, 21855.0, 21839.0, 21832.0, 21848.0, 21901.0, 21953.0, 21902.0, 21834.0, 21797.0, 21814.0, 21814.0, 21817.0, 21797.0, 21773.0, 21794.0, 21791.0, 21771.0, 21773.0, 21837.0, 21858.0, 21828.0, 21794.0, 21825.0, 21851.0, 21848.0, 21840.0, 21825.0, 21813.0, 21799.0, 21818.0, 21825.0, 21851.0, 21804.0, 21767.0, 21803.0, 21860.0, 21887.0, 21855.0, 21837.0, 21795.0, 21777.0, 21764.0, 21798.0, 21866.0, 21895.0, 21857.0, 21858.0, 21810.0, 21777.0, 21749.0, 21758.0, 21781.0, 21839.0, 21851.0, 21788.0, 21719.0, 21709.0, 21723.0, 21773.0, 21788.0, 21770.0, 21716.0, 21704.0, 21711.0, 21774.0, 21796.0, 21764.0, 21727.0, 21717.0, 21746.0, 21777.0, 21769.0, 21777.0, 21816.0, 21785.0, 21774.0, 21793.0, 21805.0, 21768.0, 21754.0, 21774.0, 21764.0, 21753.0, 21770.0, 21746.0, 21719.0, 21701.0, 21755.0, 21786.0, 21778.0, 21767.0, 21776.0, 21722.0, 21700.0, 21759.0, 21802.0, 21799.0, 21761.0, 21736.0, 21746.0, 21746.0, 21729.0, 21717.0, 21753.0, 21792.0, 21746.0, 21697.0, 21665.0, 21700.0, 21695.0, 21686.0, 21685.0, 21724.0, 21740.0, 21706.0]
    },
    "slices": {}
  }
}