{
  "AcquisitionMatrixPE": 104,
  "AcquisitionNumber": 1,
  "AcquisitionTime": "17:48:28.532500",
  "BandwidthPerPixelPhaseEncode": 17.17,
  "BaseResolution": 104,
  "BodyPartExamined": "BRAIN",
  "CoilString": "HC1-7;NC1_2",
  "ConsistencyInfo": "N4_VE11C_LATEST_20160120",
  "ConversionSoftware": "dcm2niix",
  "ConversionSoftwareVersion": "v1.0.20190902",
  "DerivedVendorReportedEchoSpacing": 0.000560011,
  "DeviceSerialNumber": "167006",
  "DwellTime": 2.1e-06,
  "EchoTime": 0.037,
  "EchoTrainLength": 104,
  "EffectiveEchoSpacing": 0.000560011,
  "FlipAngle": 52,
  "HeudiconvVersion": "0.10.0",
  "ImageComments": "Unaliased_MB4_PE3_LB",
  "ImageOrientationPatientDICOM": [0.997877, 0.0568559, 0.0317723, -0.0442662, 0.949869, -0.309497],
  "ImageType": [
    "ORIGINAL",
    "PRIMARY",
    "P",
    "MB",
    "ND",
    "MOSAIC"
],
  "ImagingFrequency": 123.259,
  "InPlanePhaseEncodingDirectionDICOM": "COL",
  "InstitutionAddress": "Chemin_Queen-Mary_4565_Montreal_District_CA_H3W_1W5",
  "InstitutionName": "IUGM",
  "InstitutionalDepartmentName": "Department",
  "MRAcquisitionType": "2D",
  "MagneticFieldStrength": 3,
  "Manufacturer": "Siemens",
  "ManufacturersModelName": "Prisma_fit",
  "Modality": "MR",
  "MultibandAccelerationFactor": 4,
  "PartialFourier": 1,
  "PatientPosition": "HFS",
  "PercentPhaseFOV": 100,
  "PhaseEncodingDirection": "j",
  "PhaseEncodingSteps": 104,
  "PhaseResolution": 1,
  "PixelBandwidth": 2290,
  "ProcedureStepDescription": "memory_things",
  "ProtocolName": "func_task-things_run-4",
  "PulseSequenceDetails": "%CustomerSeq%_cmrr_mbep2d_bold",
  "ReceiveCoilActiveElements": "HC1-7;NC1,2",
  "ReceiveCoilName": "HeadNeck_64",
  "ReconMatrixPE": 104,
  "RepetitionTime": 1.49,
  "SAR": 0.0418901,
  "ScanOptions": "FS",
  "ScanningSequence": "EP",
  "SequenceName": "epfid2d1_104",
  "SequenceVariant": "SK_SS",
  "SeriesDescription": "func_task-things_run-4",
  "SeriesNumber": 20,
  "ShimSetting": [632, -7182, -8817, 628, 73, 20, -46, -3],
  "SliceThickness": 2,
  "SliceTiming": [0, 0.7825, 0.0975, 0.8825, 0.195, 0.98, 0.2925, 1.0775, 0.3925, 1.175, 0.49, 1.2725, 0.5875, 1.3725, 0.685, 0, 0.7825, 0.0975, 0.8825, 0.195, 0.98, 0.2925, 1.0775, 0.3925, 1.175, 0.49, 1.2725, 0.5875, 1.3725, 0.685, 0, 0.7825, 0.0975, 0.8825, 0.195, 0.98, 0.2925, 1.0775, 0.3925, 1.175, 0.49, 1.2725, 0.5875, 1.3725, 0.685, 0, 0.7825, 0.0975, 0.8825, 0.195, 0.98, 0.2925, 1.0775, 0.3925, 1.175, 0.49, 1.2725, 0.5875, 1.3725, 0.685],
  "SoftwareVersions": "syngo_MR_E11",
  "SpacingBetweenSlices": 2,
  "StationName": "MRC35049",
  "TaskName": "things",
  "TotalReadoutTime": 0.0576811,
  "TxRefAmp": 254.519,
  "WipMemBlock": "d651b44c-ef20-48c1-9401-cb998a034fc8||Sequence: R016 ve11c/master r/e634e98; Dec 19 2017 11:00:25 by eja",
  "dcmmeta_affine": [
    [-1.9957534074783325, -0.08853240311145782, 0.09555254131555557, 108.661376953125],
    [-0.11371173709630966, 1.8997389078140259, -0.6148671507835388, -57.116119384765625],
    [0.0635446086525917, 0.6189943552017212, 1.9007388353347778, -58.187015533447266],
    [0.0, 0.0, 0.0, 1.0]
],
  "dcmmeta_reorient_transform": [
    [0.0, -1.0, 0.0, 103.0],
    [1.0, 0.0, 0.0, 0.0],
    [0.0, 0.0, 1.0, 0.0],
    [0.0, 0.0, 0.0, 1.0]
],
  "dcmmeta_shape": [104, 104, 60, 190],
  "dcmmeta_slice_dim": 2,
  "dcmmeta_version": 0.6,
  "global": {
    "const": {
      "AcquisitionMatrix": [104, 0, 0, 104],
      "AngioFlag": "N",
      "BitsAllocated": 16,
      "BitsStored": 16,
      "BodyPartExamined": "BRAIN",
      "Columns": 832,
      "EchoNumbers": 1,
      "EchoTime": 37.0,
      "EchoTrainLength": 104,
      "FlipAngle": 52.0,
      "HighBit": 15,
      "ImageOrientationPatient": [0.99787671135317, 0.05685586684609, 0.03177230467175, -0.0442662026476, 0.9498694618353, -0.3094971870242],
      "ImagePositionPatient": [-793.77098834753, -871.45302885232, 207.75312010734],
      "ImageType": [
        "ORIGINAL",
        "PRIMARY",
        "P",
        "MB",
        "ND",
        "MOSAIC"
],
      "ImagedNucleus": "1H",
      "ImagingFrequency": 123.258906,
      "InPlanePhaseEncodingDirection": "COL",
      "LargestImagePixelValue": 4095,
      "MRAcquisitionType": "2D",
      "MagneticFieldStrength": 3.0,
      "Manufacturer": "SIEMENS",
      "ManufacturerModelName": "Prisma_fit",
      "Modality": "MR",
      "NumberOfAverages": 1.0,
      "NumberOfPhaseEncodingSteps": 104,
      "PercentPhaseFieldOfView": 100.0,
      "PercentSampling": 100.0,
      "PerformedProcedureStepStartTime": "170608.146000",
      "PhotometricInterpretation": "MONOCHROME2",
      "PixelBandwidth": 2290.0,
      "PixelRepresentation": 0,
      "PixelSpacing": [2.0, 2.0],
      "ProtocolName": "func_task-things_run-4",
      "RepetitionTime": 1490.0,
      "RescaleIntercept": -4096.0,
      "RescaleSlope": 2.0,
      "RescaleType": "US",
      "Rows": 832,
      "SAR": 0.04189006528386,
      "SamplesPerPixel": 1,
      "ScanOptions": "FS",
      "ScanningSequence": "EP",
      "SequenceName": "epfid2d1_104",
      "SequenceVariant": [
        "SK",
        "SS"
],
      "SeriesDescription": "func_task-things_run-4",
      "SeriesNumber": 20,
      "SeriesTime": "174958.733000",
      "SliceLocation": -32.548309237681,
      "SliceThickness": 2.0,
      "SmallestImagePixelValue": 0,
      "SoftwareVersions": "syngo MR E11",
      "SpacingBetweenSlices": 1.9999999620733,
      "SpecificCharacterSet": "ISO_IR 100",
      "StudyID": "1",
      "StudyTime": "170608.076000",
      "TransmitCoilName": "Body",
      "VariableFlipAngleFlag": "N",
      "WindowCenterWidthExplanation": "Algo1",
      "dBdt": 0.0},
    "slices": {}
  },
  "time": {
    "samples": {
      "AcquisitionNumber": [1, 2, 3, 4, 5, 6, 7, 8, 9, 10, 11, 12, 13, 14, 15, 16, 17, 18, 19, 20, 21, 22, 23, 24, 25, 26, 27, 28, 29, 30, 31, 32, 33, 34, 35, 36, 37, 38, 39, 40, 41, 42, 43, 44, 45, 46, 47, 48, 49, 50, 51, 52, 53, 54, 55, 56, 57, 58, 59, 60, 61, 62, 63, 64, 65, 66, 67, 68, 69, 70, 71, 72, 73, 74, 75, 76, 77, 78, 79, 80, 81, 82, 83, 84, 85, 86, 87, 88, 89, 90, 91, 92, 93, 94, 95, 96, 97, 98, 99, 100, 101, 102, 103, 104, 105, 106, 107, 108, 109, 110, 111, 112, 113, 114, 115, 116, 117, 118, 119, 120, 121, 122, 123, 124, 125, 126, 127, 128, 129, 130, 131, 132, 133, 134, 135, 136, 137, 138, 139, 140, 141, 142, 143, 144, 145, 146, 147, 148, 149, 150, 151, 152, 153, 154, 155, 156, 157, 158, 159, 160, 161, 162, 163, 164, 165, 166, 167, 168, 169, 170, 171, 172, 173, 174, 175, 176, 177, 178, 179, 180, 181, 182, 183, 184, 185, 186, 187, 188, 189, 190],
      "AcquisitionTime": ["174828.532500", "174830.022500", "174831.512500", "174833.002500", "174834.492500", "174835.982500", "174837.472500", "174838.962500", "174840.452500", "174841.942500", "174843.432500", "174844.922500", "174846.412500", "174847.902500", "174849.392500", "174850.882500", "174852.372500", "174853.862500", "174855.352500", "174856.842500", "174858.332500", "174859.822500", "174901.312500", "174902.802500", "174904.292500", "174905.782500", "174907.272500", "174908.762500", "174910.252500", "174911.742500", "174913.232500", "174914.722500", "174916.212500", "174917.702500", "174919.192500", "174920.682500", "174922.172500", "174923.662500", "174925.152500", "174926.642500", "174928.132500", "174929.622500", "174931.112500", "174932.602500", "174934.092500", "174935.582500", "174937.072500", "174938.562500", "174940.052500", "174941.542500", "174943.032500", "174944.522500", "174946.012500", "174947.502500", "174948.992500", "174950.482500", "174951.972500", "174953.462500", "174954.952500", "174956.442500", "174957.932500", "174959.422500", "175000.912500", "175002.402500", "175003.892500", "175005.382500", "175006.872500", "175008.362500", "175009.852500", "175011.342500", "175012.832500", "175014.322500", "175015.812500", "175017.302500", "175018.792500", "175020.282500", "175021.772500", "175023.262500", "175024.752500", "175026.242500", "175027.732500", "175029.222500", "175030.712500", "175032.202500", "175033.692500", "175035.182500", "175036.672500", "175038.162500", "175039.652500", "175041.142500", "175042.632500", "175044.122500", "175045.612500", "175047.102500", "175048.592500", "175050.082500", "175051.572500", "175053.062500", "175054.552500", "175056.042500", "175057.532500", "175059.022500", "175100.512500", "175102.002500", "175103.492500", "175104.982500", "175106.472500", "175107.962500", "175109.452500", "175110.942500", "175112.432500", "175113.922500", "175115.412500", "175116.902500", "175118.392500", "175119.882500", "175121.372500", "175122.862500", "175124.352500", "175125.842500", "175127.332500", "175128.822500", "175130.312500", "175131.802500", "175133.292500", "175134.782500", "175136.272500", "175137.762500", "175139.252500", "175140.742500", "175142.232500", "175143.722500", "175145.212500", "175146.702500", "175148.192500", "175149.682500", "175151.172500", "175152.662500", "175154.152500", "175155.642500", "175157.132500", "175158.622500", "175200.112500", "175201.602500", "175203.092500", "175204.582500", "175206.072500", "175207.562500", "175209.052500", "175210.542500", "175212.032500", "175213.522500", "175215.012500", "175216.502500", "175217.992500", "175219.482500", "175220.972500", "175222.462500", "175223.952500", "175225.442500", "175226.932500", "175228.422500", "175229.912500", "175231.402500", "175232.892500", "175234.382500", "175235.872500", "175237.362500", "175238.852500", "175240.342500", "175241.832500", "175243.322500", "175244.812500", "175246.302500", "175247.792500", "175249.282500", "175250.772500", "175252.262500", "175253.752500", "175255.242500", "175256.732500", "175258.222500", "175259.712500", "175301.202500", "175302.692500", "175304.182500", "175305.672500", "175307.162500", "175308.652500", "175310.142500"],
      "ContentTime": ["174958.735000", "174958.738000", "174958.740000", "174958.743000", "174958.745000", "174958.748000", "174958.750000", "174958.753000", "174958.755000", "174958.757000", "174958.760000", "174958.762000", "174958.765000", "174958.767000", "174958.770000", "174958.772000", "174958.774000", "174958.777000", "174958.779000", "174958.782000", "174958.784000", "174958.787000", "174958.789000", "174958.791000", "174958.794000", "174958.799000", "174958.801000", "174958.803000", "174958.806000", "174958.809000", "174958.811000", "174958.813000", "174958.816000", "174958.818000", "174958.821000", "174958.823000", "174958.826000", "175018.629000", "175018.632000", "175018.634000", "175018.637000", "175018.639000", "175018.642000", "175018.644000", "175018.646000", "175018.649000", "175018.651000", "175018.654000", "175018.656000", "175018.659000", "175018.661000", "175018.663000", "175018.666000", "175018.668000", "175018.671000", "175018.673000", "175018.676000", "175038.628000", "175038.631000", "175038.633000", "175038.636000", "175038.638000", "175038.641000", "175038.643000", "175038.645000", "175038.648000", "175038.650000", "175038.653000", "175038.655000", "175038.658000", "175038.660000", "175038.663000", "175038.665000", "175038.668000", "175038.670000", "175038.672000", "175038.675000", "175058.627000", "175058.630000", "175058.632000", "175058.635000", "175058.637000", "175058.639000", "175058.642000", "175058.644000", "175058.647000", "175058.649000", "175058.652000", "175058.654000", "175058.657000", "175058.659000", "175058.662000", "175058.664000", "175058.667000", "175058.669000", "175058.671000", "175058.674000", "175138.664000", "175138.667000", "175138.669000", "175138.671000", "175138.674000", "175138.676000", "175138.679000", "175138.681000", "175138.684000", "175138.686000", "175138.689000", "175138.691000", "175138.694000", "175138.696000", "175138.698000", "175138.701000", "175138.703000", "175138.706000", "175138.708000", "175138.715000", "175138.718000", "175138.720000", "175138.723000", "175138.725000", "175138.727000", "175138.730000", "175138.732000", "175138.735000", "175138.737000", "175138.740000", "175218.659000", "175218.661000", "175218.664000", "175218.666000", "175218.669000", "175218.671000", "175218.674000", "175218.676000", "175218.679000", "175218.681000", "175218.683000", "175218.686000", "175218.688000", "175218.691000", "175218.693000", "175218.696000", "175218.698000", "175218.701000", "175218.703000", "175218.706000", "175218.708000", "175218.711000", "175218.713000", "175218.716000", "175218.718000", "175218.720000", "175218.723000", "175258.672000", "175258.675000", "175258.677000", "175258.680000", "175258.682000", "175258.684000", "175258.687000", "175258.689000", "175258.692000", "175258.694000", "175258.697000", "175258.699000", "175258.702000", "175258.704000", "175258.706000", "175258.709000", "175258.711000", "175258.714000", "175258.716000", "175258.719000", "175258.721000", "175258.724000", "175258.726000", "175258.729000", "175258.731000", "175258.733000", "175312.128000", "175312.131000", "175312.134000", "175312.137000", "175312.139000", "175312.142000", "175312.145000", "175312.147000", "175312.149000", "175312.152000"],
      "InstanceCreationTime": ["174958.735000", "174958.738000", "174958.740000", "174958.743000", "174958.745000", "174958.748000", "174958.750000", "174958.753000", "174958.755000", "174958.757000", "174958.760000", "174958.762000", "174958.765000", "174958.767000", "174958.770000", "174958.772000", "174958.774000", "174958.777000", "174958.779000", "174958.782000", "174958.784000", "174958.787000", "174958.789000", "174958.791000", "174958.794000", "174958.799000", "174958.801000", "174958.803000", "174958.806000", "174958.809000", "174958.811000", "174958.813000", "174958.816000", "174958.818000", "174958.821000", "174958.823000", "174958.826000", "175018.629000", "175018.632000", "175018.634000", "175018.637000", "175018.639000", "175018.642000", "175018.644000", "175018.646000", "175018.649000", "175018.651000", "175018.654000", "175018.656000", "175018.659000", "175018.661000", "175018.663000", "175018.666000", "175018.668000", "175018.671000", "175018.673000", "175018.676000", "175038.628000", "175038.631000", "175038.633000", "175038.636000", "175038.638000", "175038.641000", "175038.643000", "175038.645000", "175038.648000", "175038.650000", "175038.653000", "175038.655000", "175038.658000", "175038.660000", "175038.663000", "175038.665000", "175038.668000", "175038.670000", "175038.672000", "175038.675000", "175058.627000", "175058.630000", "175058.632000", "175058.635000", "175058.637000", "175058.639000", "175058.642000", "175058.644000", "175058.647000", "175058.649000", "175058.652000", "175058.654000", "175058.657000", "175058.659000", "175058.662000", "175058.664000", "175058.667000", "175058.669000", "175058.671000", "175058.674000", "175138.664000", "175138.667000", "175138.669000", "175138.671000", "175138.674000", "175138.676000", "175138.679000", "175138.681000", "175138.684000", "175138.686000", "175138.689000", "175138.691000", "175138.694000", "175138.696000", "175138.698000", "175138.701000", "175138.703000", "175138.706000", "175138.708000", "175138.715000", "175138.718000", "175138.720000", "175138.723000", "175138.725000", "175138.727000", "175138.730000", "175138.732000", "175138.735000", "175138.737000", "175138.740000", "175218.659000", "175218.661000", "175218.664000", "175218.666000", "175218.669000", "175218.671000", "175218.674000", "175218.676000", "175218.679000", "175218.681000", "175218.683000", "175218.686000", "175218.688000", "175218.691000", "175218.693000", "175218.696000", "175218.698000", "175218.701000", "175218.703000", "175218.706000", "175218.708000", "175218.711000", "175218.713000", "175218.716000", "175218.718000", "175218.720000", "175218.723000", "175258.672000", "175258.675000", "175258.677000", "175258.680000", "175258.682000", "175258.684000", "175258.687000", "175258.689000", "175258.692000", "175258.694000", "175258.697000", "175258.699000", "175258.702000", "175258.704000", "175258.706000", "175258.709000", "175258.711000", "175258.714000", "175258.716000", "175258.719000", "175258.721000", "175258.724000", "175258.726000", "175258.729000", "175258.731000", "175258.733000", "175312.128000", "175312.131000", "175312.134000", "175312.137000", "175312.139000", "175312.142000", "175312.145000", "175312.147000", "175312.149000", "175312.152000"],
      "InstanceNumber": [1, 2, 3, 4, 5, 6, 7, 8, 9, 10, 11, 12, 13, 14, 15, 16, 17, 18, 19, 20, 21, 22, 23, 24, 25, 26, 27, 28, 29, 30, 31, 32, 33, 34, 35, 36, 37, 38, 39, 40, 41, 42, 43, 44, 45, 46, 47, 48, 49, 50, 51, 52, 53, 54, 55, 56, 57, 58, 59, 60, 61, 62, 63, 64, 65, 66, 67, 68, 69, 70, 71, 72, 73, 74, 75, 76, 77, 78, 79, 80, 81, 82, 83, 84, 85, 86, 87, 88, 89, 90, 91, 92, 93, 94, 95, 96, 97, 98, 99, 100, 101, 102, 103, 104, 105, 106, 107, 108, 109, 110, 111, 112, 113, 114, 115, 116, 117, 118, 119, 120, 121, 122, 123, 124, 125, 126, 127, 128, 129, 130, 131, 132, 133, 134, 135, 136, 137, 138, 139, 140, 141, 142, 143, 144, 145, 146, 147, 148, 149, 150, 151, 152, 153, 154, 155, 156, 157, 158, 159, 160, 161, 162, 163, 164, 165, 166, 167, 168, 169, 170, 171, 172, 173, 174, 175, 176, 177, 178, 179, 180, 181, 182, 183, 184, 185, 186, 187, 188, 189, 190],
      "WindowCenter": [4862.0, 4862.0, 4860.0, 4862.0, 4862.0, 4862.0, 4860.0, 4886.0, 4862.0, 4862.0, 4884.0, 4884.0, 4860.0, 4858.0, 4860.0, 4884.0, 4884.0, 4864.0, 4882.0, 4884.0, 4882.0, 4860.0, 4858.0, 4860.0, 4860.0, 4834.0, 4858.0, 4860.0, 4884.0, 4886.0, 4884.0, 4862.0, 4884.0, 4858.0, 4860.0, 4858.0, 4858.0, 4860.0, 4884.0, 4886.0, 4884.0, 4860.0, 4858.0, 4860.0, 4860.0, 4860.0, 4860.0, 4858.0, 4858.0, 4862.0, 4884.0, 4884.0, 4860.0, 4862.0, 4882.0, 4860.0, 4862.0, 4862.0, 4858.0, 4884.0, 4860.0, 4862.0, 4886.0, 4884.0, 4884.0, 4862.0, 4862.0, 4864.0, 4862.0, 4862.0, 4862.0, 4882.0, 4884.0, 4862.0, 4860.0, 4880.0, 4874.0, 4874.0, 4880.0, 4860.0, 4836.0, 4832.0, 4834.0, 4862.0, 4884.0, 4884.0, 4878.0, 4882.0, 4884.0, 4860.0, 4858.0, 4860.0, 4862.0, 4860.0, 4860.0, 4864.0, 4882.0, 4860.0, 4882.0, 4882.0, 4882.0, 4880.0, 4858.0, 4860.0, 4860.0, 4860.0, 4858.0, 4860.0, 4858.0, 4880.0, 4882.0, 4882.0, 4860.0, 4860.0, 4860.0, 4858.0, 4884.0, 4884.0, 4862.0, 4860.0, 4882.0, 4884.0, 4858.0, 4858.0, 4884.0, 4860.0, 4862.0, 4858.0, 4860.0, 4858.0, 4862.0, 4858.0, 4858.0, 4862.0, 4860.0, 4882.0, 4884.0, 4860.0, 4862.0, 4882.0, 4882.0, 4858.0, 4882.0, 4882.0, 4860.0, 4864.0, 4884.0, 4880.0, 4884.0, 4860.0, 4882.0, 4884.0, 4860.0, 4882.0, 4860.0, 4860.0, 4860.0, 4864.0, 4856.0, 4858.0, 4860.0, 4884.0, 4882.0, 4860.0, 4860.0, 4882.0, 4882.0, 4862.0, 4884.0, 4858.0, 4860.0, 4880.0, 4882.0, 4858.0, 4862.0, 4882.0, 4884.0, 4860.0, 4860.0, 4886.0, 4878.0, 4878.0, 4858.0, 4858.0, 4858.0, 4856.0, 4858.0, 4862.0, 4882.0, 4882.0],
      "WindowWidth": [18606.0, 18608.0, 18608.0, 18610.0, 18616.0, 18612.0, 18614.0, 18642.0, 18604.0, 18608.0, 18642.0, 18652.0, 18606.0, 18606.0, 18614.0, 18638.0, 18636.0, 18612.0, 18642.0, 18650.0, 18648.0, 18606.0, 18610.0, 18606.0, 18606.0, 18580.0, 18606.0, 18608.0, 18656.0, 18654.0, 18644.0, 18612.0, 18642.0, 18614.0, 18602.0, 18604.0, 18602.0, 18608.0, 18652.0, 18656.0, 18642.0, 18608.0, 18608.0, 18612.0, 18606.0, 18604.0, 18608.0, 18614.0, 18608.0, 18610.0, 18644.0, 18652.0, 18610.0, 18610.0, 18642.0, 18614.0, 18608.0, 18610.0, 18612.0, 18644.0, 18606.0, 18610.0, 18650.0, 18660.0, 18642.0, 18608.0, 18604.0, 18618.0, 18612.0, 18612.0, 18614.0, 18646.0, 18644.0, 18614.0, 18616.0, 18652.0, 18660.0, 18660.0, 18650.0, 18616.0, 18578.0, 18582.0, 18574.0, 18608.0, 18644.0, 18658.0, 18658.0, 18654.0, 18646.0, 18610.0, 18610.0, 18614.0, 18610.0, 18608.0, 18606.0, 18612.0, 18646.0, 18616.0, 18644.0, 18644.0, 18654.0, 18650.0, 18612.0, 18606.0, 18608.0, 18608.0, 18612.0, 18604.0, 18600.0, 18646.0, 18654.0, 18650.0, 18614.0, 18618.0, 18614.0, 18612.0, 18642.0, 18642.0, 18612.0, 18610.0, 18642.0, 18642.0, 18614.0, 18616.0, 18648.0, 18616.0, 18612.0, 18612.0, 18612.0, 18612.0, 18612.0, 18612.0, 18612.0, 18616.0, 18612.0, 18648.0, 18644.0, 18614.0, 18614.0, 18642.0, 18640.0, 18610.0, 18642.0, 18648.0, 18614.0, 18616.0, 18642.0, 18646.0, 18648.0, 18614.0, 18644.0, 18644.0, 18614.0, 18648.0, 18620.0, 18616.0, 18610.0, 18616.0, 18614.0, 18612.0, 18608.0, 18646.0, 18652.0, 18612.0, 18606.0, 18650.0, 18642.0, 18614.0, 18644.0, 18610.0, 18616.0, 18650.0, 18646.0, 18608.0, 18614.0, 18644.0, 18652.0, 18614.0, 18612.0, 18656.0, 18654.0, 18652.0, 18612.0, 18610.0, 18604.0, 18608.0, 18616.0, 18618.0, 18646.0, 18646.0]
    },
    "slices": {}
  }
}