{
  "AcquisitionMatrixPE": 104,
  "AcquisitionNumber": 1,
  "AcquisitionTime": "17:29:52.502500",
  "BandwidthPerPixelPhaseEncode": 17.17,
  "BaseResolution": 104,
  "BodyPartExamined": "BRAIN",
  "CoilString": "HC1-7;NC1_2",
  "ConsistencyInfo": "N4_VE11C_LATEST_20160120",
  "ConversionSoftware": "dcm2niix",
  "ConversionSoftwareVersion": "v1.0.20190902",
  "DerivedVendorReportedEchoSpacing": 0.000560011,
  "DeviceSerialNumber": "167006",
  "DwellTime": 2.1e-06,
  "EchoTime": 0.037,
  "EchoTrainLength": 104,
  "EffectiveEchoSpacing": 0.000560011,
  "FlipAngle": 52,
  "HeudiconvVersion": "0.10.0",
  "ImageComments": "Unaliased_MB4_PE3_LB",
  "ImageOrientationPatientDICOM": [0.997877, 0.0568559, 0.0317723, -0.0442662, 0.949869, -0.309497],
  "ImageType": [
    "ORIGINAL",
    "PRIMARY",
    "M",
    "MB",
    "ND",
    "MOSAIC"
],
  "ImagingFrequency": 123.259,
  "InPlanePhaseEncodingDirectionDICOM": "COL",
  "InstitutionAddress": "Chemin_Queen-Mary_4565_Montreal_District_CA_H3W_1W5",
  "InstitutionName": "IUGM",
  "InstitutionalDepartmentName": "Department",
  "MRAcquisitionType": "2D",
  "MagneticFieldStrength": 3,
  "Manufacturer": "Siemens",
  "ManufacturersModelName": "Prisma_fit",
  "Modality": "MR",
  "MultibandAccelerationFactor": 4,
  "PartialFourier": 1,
  "PatientPosition": "HFS",
  "PercentPhaseFOV": 100,
  "PhaseEncodingDirection": "j",
  "PhaseEncodingSteps": 104,
  "PhaseResolution": 1,
  "PixelBandwidth": 2290,
  "ProcedureStepDescription": "memory_things",
  "ProtocolName": "func_task-things_run-1",
  "PulseSequenceDetails": "%CustomerSeq%_cmrr_mbep2d_bold",
  "ReceiveCoilActiveElements": "HC1-7;NC1,2",
  "ReceiveCoilName": "HeadNeck_64",
  "ReconMatrixPE": 104,
  "RepetitionTime": 1.49,
  "SAR": 0.0418901,
  "ScanOptions": "FS",
  "ScanningSequence": "EP",
  "SequenceName": "epfid2d1_104",
  "SequenceVariant": "SK_SS",
  "SeriesDescription": "func_task-things_run-1",
  "SeriesNumber": 10,
  "ShimSetting": [632, -7182, -8817, 628, 73, 20, -46, -3],
  "SliceThickness": 2,
  "SliceTiming": [0, 0.785, 0.1, 0.8825, 0.1975, 0.98, 0.295, 1.08, 0.3925, 1.1775, 0.49, 1.275, 0.59, 1.3725, 0.6875, 0, 0.785, 0.1, 0.8825, 0.1975, 0.98, 0.295, 1.08, 0.3925, 1.1775, 0.49, 1.275, 0.59, 1.3725, 0.6875, 0, 0.785, 0.1, 0.8825, 0.1975, 0.98, 0.295, 1.08, 0.3925, 1.1775, 0.49, 1.275, 0.59, 1.3725, 0.6875, 0, 0.785, 0.1, 0.8825, 0.1975, 0.98, 0.295, 1.08, 0.3925, 1.1775, 0.49, 1.275, 0.59, 1.3725, 0.6875],
  "SoftwareVersions": "syngo_MR_E11",
  "SpacingBetweenSlices": 2,
  "StationName": "MRC35049",
  "TaskName": "things",
  "TotalReadoutTime": 0.0576811,
  "TxRefAmp": 254.519,
  "WipMemBlock": "9237064a-c6fe-432b-aa57-d0bb42256b28||Sequence: R016 ve11c/master r/e634e98; Dec 19 2017 11:00:25 by eja",
  "dcmmeta_affine": [
    [-1.9957534074783325, -0.08853240311145782, 0.09555254131555557, 108.661376953125],
    [-0.11371173709630966, 1.8997389078140259, -0.6148671507835388, -57.116119384765625],
    [0.0635446086525917, 0.6189943552017212, 1.9007388353347778, -58.187015533447266],
    [0.0, 0.0, 0.0, 1.0]
],
  "dcmmeta_reorient_transform": [
    [0.0, -1.0, 0.0, 103.0],
    [1.0, 0.0, 0.0, 0.0],
    [0.0, 0.0, 1.0, 0.0],
    [0.0, 0.0, 0.0, 1.0]
],
  "dcmmeta_shape": [104, 104, 60, 190],
  "dcmmeta_slice_dim": 2,
  "dcmmeta_version": 0.6,
  "global": {
    "const": {
      "AcquisitionMatrix": [104, 0, 0, 104],
      "AngioFlag": "N",
      "BitsAllocated": 16,
      "BitsStored": 16,
      "BodyPartExamined": "BRAIN",
      "Columns": 832,
      "EchoNumbers": 1,
      "EchoTime": 37.0,
      "EchoTrainLength": 104,
      "FlipAngle": 52.0,
      "HighBit": 15,
      "ImageOrientationPatient": [0.99787671135317, 0.05685586684609, 0.03177230467175, -0.0442662026476, 0.9498694618353, -0.3094971870242],
      "ImagePositionPatient": [-793.77098834753, -871.45302885232, 207.75312010734],
      "ImageType": [
        "ORIGINAL",
        "PRIMARY",
        "M",
        "MB",
        "ND",
        "MOSAIC"
],
      "ImagedNucleus": "1H",
      "ImagingFrequency": 123.258894,
      "InPlanePhaseEncodingDirection": "COL",
      "MRAcquisitionType": "2D",
      "MagneticFieldStrength": 3.0,
      "Manufacturer": "SIEMENS",
      "ManufacturerModelName": "Prisma_fit",
      "Modality": "MR",
      "NumberOfAverages": 1.0,
      "NumberOfPhaseEncodingSteps": 104,
      "PercentPhaseFieldOfView": 100.0,
      "PercentSampling": 100.0,
      "PerformedProcedureStepStartTime": "170608.146000",
      "PhotometricInterpretation": "MONOCHROME2",
      "PixelBandwidth": 2290.0,
      "PixelRepresentation": 0,
      "PixelSpacing": [2.0, 2.0],
      "ProtocolName": "func_task-things_run-1",
      "RepetitionTime": 1490.0,
      "Rows": 832,
      "SAR": 0.04189006528386,
      "SamplesPerPixel": 1,
      "ScanOptions": "FS",
      "ScanningSequence": "EP",
      "SequenceName": "epfid2d1_104",
      "SequenceVariant": [
        "SK",
        "SS"
],
      "SeriesDescription": "func_task-things_run-1",
      "SeriesNumber": 10,
      "SeriesTime": "173118.555000",
      "SliceLocation": -32.548309237681,
      "SliceThickness": 2.0,
      "SmallestImagePixelValue": 0,
      "SoftwareVersions": "syngo MR E11",
      "SpacingBetweenSlices": 1.9999999620733,
      "SpecificCharacterSet": "ISO_IR 100",
      "StudyID": "1",
      "StudyTime": "170608.076000",
      "TransmitCoilName": "Body",
      "VariableFlipAngleFlag": "N",
      "WindowCenterWidthExplanation": "Algo1",
      "dBdt": 0.0},
    "slices": {}
  },
  "time": {
    "samples": {
      "AcquisitionNumber": [1, 2, 3, 4, 5, 6, 7, 8, 9, 10, 11, 12, 13, 14, 15, 16, 17, 18, 19, 20, 21, 22, 23, 24, 25, 26, 27, 28, 29, 30, 31, 32, 33, 34, 35, 36, 37, 38, 39, 40, 41, 42, 43, 44, 45, 46, 47, 48, 49, 50, 51, 52, 53, 54, 55, 56, 57, 58, 59, 60, 61, 62, 63, 64, 65, 66, 67, 68, 69, 70, 71, 72, 73, 74, 75, 76, 77, 78, 79, 80, 81, 82, 83, 84, 85, 86, 87, 88, 89, 90, 91, 92, 93, 94, 95, 96, 97, 98, 99, 100, 101, 102, 103, 104, 105, 106, 107, 108, 109, 110, 111, 112, 113, 114, 115, 116, 117, 118, 119, 120, 121, 122, 123, 124, 125, 126, 127, 128, 129, 130, 131, 132, 133, 134, 135, 136, 137, 138, 139, 140, 141, 142, 143, 144, 145, 146, 147, 148, 149, 150, 151, 152, 153, 154, 155, 156, 157, 158, 159, 160, 161, 162, 163, 164, 165, 166, 167, 168, 169, 170, 171, 172, 173, 174, 175, 176, 177, 178, 179, 180, 181, 182, 183, 184, 185, 186, 187, 188, 189, 190],
      "AcquisitionTime": ["172952.502500", "172953.992500", "172955.482500", "172956.972500", "172958.462500", "172959.952500", "173001.442500", "173002.932500", "173004.422500", "173005.912500", "173007.402500", "173008.892500", "173010.382500", "173011.872500", "173013.362500", "173014.852500", "173016.342500", "173017.832500", "173019.322500", "173020.812500", "173022.302500", "173023.792500", "173025.282500", "173026.772500", "173028.262500", "173029.752500", "173031.242500", "173032.732500", "173034.222500", "173035.712500", "173037.202500", "173038.692500", "173040.182500", "173041.672500", "173043.162500", "173044.652500", "173046.142500", "173047.632500", "173049.122500", "173050.612500", "173052.102500", "173053.592500", "173055.082500", "173056.572500", "173058.062500", "173059.552500", "173101.042500", "173102.532500", "173104.022500", "173105.512500", "173107.002500", "173108.492500", "173109.982500", "173111.472500", "173112.962500", "173114.452500", "173115.942500", "173117.432500", "173118.922500", "173120.412500", "173121.902500", "173123.392500", "173124.882500", "173126.372500", "173127.862500", "173129.352500", "173130.842500", "173132.332500", "173133.822500", "173135.312500", "173136.802500", "173138.292500", "173139.782500", "173141.272500", "173142.762500", "173144.252500", "173145.742500", "173147.232500", "173148.722500", "173150.212500", "173151.702500", "173153.192500", "173154.682500", "173156.172500", "173157.662500", "173159.152500", "173200.642500", "173202.132500", "173203.622500", "173205.112500", "173206.602500", "173208.092500", "173209.582500", "173211.072500", "173212.562500", "173214.052500", "173215.542500", "173217.032500", "173218.522500", "173220.012500", "173221.502500", "173222.992500", "173224.482500", "173225.972500", "173227.462500", "173228.952500", "173230.442500", "173231.932500", "173233.422500", "173234.912500", "173236.402500", "173237.892500", "173239.382500", "173240.872500", "173242.362500", "173243.852500", "173245.342500", "173246.832500", "173248.322500", "173249.812500", "173251.302500", "173252.792500", "173254.282500", "173255.772500", "173257.262500", "173258.752500", "173300.242500", "173301.732500", "173303.222500", "173304.712500", "173306.202500", "173307.692500", "173309.182500", "173310.672500", "173312.162500", "173313.652500", "173315.142500", "173316.632500", "173318.122500", "173319.612500", "173321.102500", "173322.592500", "173324.082500", "173325.572500", "173327.062500", "173328.552500", "173330.042500", "173331.532500", "173333.022500", "173334.512500", "173336.002500", "173337.492500", "173338.982500", "173340.472500", "173341.962500", "173343.452500", "173344.942500", "173346.432500", "173347.922500", "173349.412500", "173350.902500", "173352.392500", "173353.882500", "173355.372500", "173356.862500", "173358.352500", "173359.842500", "173401.332500", "173402.822500", "173404.312500", "173405.802500", "173407.292500", "173408.782500", "173410.272500", "173411.762500", "173413.252500", "173414.742500", "173416.232500", "173417.722500", "173419.212500", "173420.702500", "173422.192500", "173423.682500", "173425.172500", "173426.662500", "173428.152500", "173429.642500", "173431.132500", "173432.622500", "173434.112500"],
      "ContentTime": ["173118.558000", "173118.562000", "173118.565000", "173118.568000", "173118.575000", "173118.578000", "173118.582000", "173118.585000", "173118.588000", "173118.591000", "173118.595000", "173118.598000", "173118.601000", "173118.604000", "173118.608000", "173118.611000", "173118.614000", "173118.617000", "173118.620000", "173118.624000", "173118.627000", "173118.630000", "173118.639000", "173118.643000", "173118.646000", "173118.649000", "173118.652000", "173118.655000", "173118.659000", "173118.662000", "173118.666000", "173118.669000", "173138.522000", "173138.526000", "173138.534000", "173138.537000", "173138.540000", "173138.543000", "173138.547000", "173138.564000", "173138.568000", "173138.571000", "173138.574000", "173138.578000", "173138.581000", "173138.584000", "173138.587000", "173138.590000", "173138.594000", "173138.597000", "173138.600000", "173138.603000", "173158.522000", "173158.526000", "173158.529000", "173158.532000", "173158.535000", "173158.539000", "173158.550000", "173158.554000", "173158.557000", "173158.560000", "173158.571000", "173158.574000", "173158.577000", "173158.580000", "173158.584000", "173158.587000", "173158.591000", "173158.594000", "173158.597000", "173158.600000", "173218.522000", "173218.526000", "173218.529000", "173218.532000", "173218.535000", "173218.539000", "173218.542000", "173218.545000", "173218.548000", "173218.552000", "173218.555000", "173218.558000", "173218.561000", "173218.565000", "173218.568000", "173218.571000", "173218.574000", "173218.578000", "173218.581000", "173218.584000", "173258.522000", "173258.526000", "173258.529000", "173258.532000", "173258.535000", "173258.539000", "173258.542000", "173258.545000", "173258.549000", "173258.552000", "173258.555000", "173258.558000", "173258.562000", "173258.565000", "173258.568000", "173258.572000", "173258.575000", "173258.578000", "173258.581000", "173258.584000", "173258.588000", "173258.591000", "173258.594000", "173258.597000", "173258.601000", "173258.604000", "173258.607000", "173258.610000", "173258.614000", "173258.617000", "173258.620000", "173258.623000", "173338.522000", "173338.526000", "173338.529000", "173338.532000", "173338.536000", "173338.540000", "173338.543000", "173338.546000", "173338.549000", "173338.553000", "173338.556000", "173338.559000", "173338.563000", "173338.566000", "173338.569000", "173338.572000", "173338.576000", "173338.579000", "173338.582000", "173338.585000", "173338.589000", "173338.592000", "173338.595000", "173338.599000", "173338.617000", "173338.621000", "173338.624000", "173418.522000", "173418.526000", "173418.529000", "173418.532000", "173418.535000", "173418.539000", "173418.542000", "173418.545000", "173418.548000", "173418.552000", "173418.555000", "173418.558000", "173418.561000", "173418.565000", "173418.568000", "173418.571000", "173418.575000", "173418.578000", "173418.581000", "173418.584000", "173418.588000", "173418.591000", "173418.594000", "173418.597000", "173418.601000", "173418.604000", "173418.607000", "173435.845000", "173435.849000", "173435.852000", "173435.855000", "173435.859000", "173435.862000", "173435.866000", "173435.869000", "173435.872000", "173435.876000", "173435.879000", "173435.883000"],
      "InstanceCreationTime": ["173118.558000", "173118.562000", "173118.565000", "173118.568000", "173118.575000", "173118.578000", "173118.582000", "173118.585000", "173118.588000", "173118.591000", "173118.595000", "173118.598000", "173118.601000", "173118.604000", "173118.608000", "173118.611000", "173118.614000", "173118.617000", "173118.620000", "173118.624000", "173118.627000", "173118.630000", "173118.639000", "173118.643000", "173118.646000", "173118.649000", "173118.652000", "173118.655000", "173118.659000", "173118.662000", "173118.666000", "173118.669000", "173138.522000", "173138.526000", "173138.534000", "173138.537000", "173138.540000", "173138.543000", "173138.547000", "173138.564000", "173138.568000", "173138.571000", "173138.574000", "173138.578000", "173138.581000", "173138.584000", "173138.587000", "173138.590000", "173138.594000", "173138.597000", "173138.600000", "173138.603000", "173158.522000", "173158.526000", "173158.529000", "173158.532000", "173158.535000", "173158.539000", "173158.550000", "173158.554000", "173158.557000", "173158.560000", "173158.571000", "173158.574000", "173158.577000", "173158.580000", "173158.584000", "173158.587000", "173158.591000", "173158.594000", "173158.597000", "173158.600000", "173218.522000", "173218.526000", "173218.529000", "173218.532000", "173218.535000", "173218.539000", "173218.542000", "173218.545000", "173218.548000", "173218.552000", "173218.555000", "173218.558000", "173218.561000", "173218.565000", "173218.568000", "173218.571000", "173218.574000", "173218.578000", "173218.581000", "173218.584000", "173258.522000", "173258.526000", "173258.529000", "173258.532000", "173258.535000", "173258.539000", "173258.542000", "173258.545000", "173258.549000", "173258.552000", "173258.555000", "173258.558000", "173258.562000", "173258.565000", "173258.568000", "173258.572000", "173258.575000", "173258.578000", "173258.581000", "173258.584000", "173258.588000", "173258.591000", "173258.594000", "173258.597000", "173258.601000", "173258.604000", "173258.607000", "173258.610000", "173258.614000", "173258.617000", "173258.620000", "173258.623000", "173338.522000", "173338.526000", "173338.529000", "173338.532000", "173338.536000", "173338.540000", "173338.543000", "173338.546000", "173338.549000", "173338.553000", "173338.556000", "173338.559000", "173338.563000", "173338.566000", "173338.569000", "173338.572000", "173338.576000", "173338.579000", "173338.582000", "173338.585000", "173338.589000", "173338.592000", "173338.595000", "173338.599000", "173338.617000", "173338.621000", "173338.624000", "173418.522000", "173418.526000", "173418.529000", "173418.532000", "173418.535000", "173418.539000", "173418.542000", "173418.545000", "173418.548000", "173418.552000", "173418.555000", "173418.558000", "173418.561000", "173418.565000", "173418.568000", "173418.571000", "173418.575000", "173418.578000", "173418.581000", "173418.584000", "173418.588000", "173418.591000", "173418.594000", "173418.597000", "173418.601000", "173418.604000", "173418.607000", "173435.845000", "173435.849000", "173435.852000", "173435.855000", "173435.859000", "173435.862000", "173435.866000", "173435.869000", "173435.872000", "173435.876000", "173435.879000", "173435.883000"],
      "InstanceNumber": [1, 2, 3, 4, 5, 6, 7, 8, 9, 10, 11, 12, 13, 14, 15, 16, 17, 18, 19, 20, 21, 22, 23, 24, 25, 26, 27, 28, 29, 30, 31, 32, 33, 34, 35, 36, 37, 38, 39, 40, 41, 42, 43, 44, 45, 46, 47, 48, 49, 50, 51, 52, 53, 54, 55, 56, 57, 58, 59, 60, 61, 62, 63, 64, 65, 66, 67, 68, 69, 70, 71, 72, 73, 74, 75, 76, 77, 78, 79, 80, 81, 82, 83, 84, 85, 86, 87, 88, 89, 90, 91, 92, 93, 94, 95, 96, 97, 98, 99, 100, 101, 102, 103, 104, 105, 106, 107, 108, 109, 110, 111, 112, 113, 114, 115, 116, 117, 118, 119, 120, 121, 122, 123, 124, 125, 126, 127, 128, 129, 130, 131, 132, 133, 134, 135, 136, 137, 138, 139, 140, 141, 142, 143, 144, 145, 146, 147, 148, 149, 150, 151, 152, 153, 154, 155, 156, 157, 158, 159, 160, 161, 162, 163, 164, 165, 166, 167, 168, 169, 170, 171, 172, 173, 174, 175, 176, 177, 178, 179, 180, 181, 182, 183, 184, 185, 186, 187, 188, 189, 190],
      "LargestImagePixelValue": [43987, 42511, 41347, 41118, 40849, 40178, 39989, 40593, 40097, 40597, 40900, 40921, 41816, 41315, 40454, 39886, 40208, 39735, 40070, 39830, 40393, 39777, 40338, 42381, 40638, 41128, 40671, 40938, 40127, 39519, 40077, 39872, 40835, 40461, 40021, 39905, 40431, 40380, 40509, 40177, 40080, 40279, 40302, 40240, 39782, 39753, 40094, 39987, 40310, 40959, 40352, 40040, 39279, 39726, 39991, 40145, 39774, 39835, 40325, 39449, 39756, 39857, 40061, 39567, 39976, 39795, 39469, 39703, 40281, 40054, 39480, 40229, 40181, 40027, 40591, 41280, 40851, 39781, 40355, 40858, 40808, 40515, 40936, 42047, 41764, 40725, 40104, 39627, 39993, 40498, 41358, 40533, 40092, 39547, 39831, 40546, 41031, 40373, 39747, 40455, 40140, 39830, 40236, 39793, 39627, 39832, 39638, 39669, 39656, 39449, 39822, 39448, 39714, 40472, 40159, 39727, 40252, 39649, 39789, 40246, 40127, 39988, 39547, 39614, 39941, 40324, 39965, 39899, 39606, 39278, 39634, 39742, 39879, 39397, 39446, 39792, 40016, 39744, 39528, 39009, 39011, 39565, 39674, 39371, 39888, 40207, 39294, 39404, 39273, 39966, 39789, 39472, 40108, 40008, 39600, 39747, 39649, 39433, 38969, 39372, 39400, 39519, 39675, 39891, 39846, 39817, 39533, 39730, 40018, 39850, 38771, 39773, 39507, 39606, 39396, 39778, 39858, 39665, 40203, 39274, 39605, 39564, 39007, 39820, 40261, 39894, 38683, 39527, 39887, 39662],
      "WindowCenter": [10516.0, 10464.0, 10448.0, 10442.0, 10430.0, 10418.0, 10421.0, 10430.0, 10428.0, 10441.0, 10429.0, 10415.0, 10434.0, 10454.0, 10442.0, 10417.0, 10407.0, 10401.0, 10423.0, 10418.0, 10406.0, 10394.0, 10421.0, 10442.0, 10433.0, 10432.0, 10426.0, 10421.0, 10384.0, 10373.0, 10388.0, 10421.0, 10450.0, 10428.0, 10403.0, 10394.0, 10415.0, 10424.0, 10415.0, 10397.0, 10389.0, 10404.0, 10416.0, 10415.0, 10402.0, 10403.0, 10402.0, 10391.0, 10398.0, 10426.0, 10431.0, 10408.0, 10378.0, 10372.0, 10379.0, 10402.0, 10402.0, 10394.0, 10385.0, 10383.0, 10391.0, 10396.0, 10397.0, 10416.0, 10419.0, 10408.0, 10396.0, 10409.0, 10425.0, 10412.0, 10397.0, 10399.0, 10399.0, 10411.0, 10413.0, 10404.0, 10410.0, 10402.0, 10400.0, 10413.0, 10403.0, 10398.0, 10420.0, 10462.0, 10454.0, 10416.0, 10392.0, 10393.0, 10402.0, 10418.0, 10440.0, 10419.0, 10387.0, 10358.0, 10367.0, 10416.0, 10432.0, 10401.0, 10377.0, 10372.0, 10370.0, 10366.0, 10379.0, 10373.0, 10365.0, 10358.0, 10371.0, 10364.0, 10391.0, 10397.0, 10394.0, 10380.0, 10386.0, 10391.0, 10393.0, 10403.0, 10410.0, 10387.0, 10375.0, 10380.0, 10392.0, 10420.0, 10432.0, 10414.0, 10394.0, 10388.0, 10391.0, 10402.0, 10428.0, 10427.0, 10402.0, 10384.0, 10390.0, 10413.0, 10417.0, 10399.0, 10403.0, 10416.0, 10408.0, 10383.0, 10369.0, 10374.0, 10392.0, 10405.0, 10398.0, 10409.0, 10406.0, 10392.0, 10363.0, 10364.0, 10383.0, 10415.0, 10441.0, 10408.0, 10372.0, 10360.0, 10363.0, 10369.0, 10398.0, 10399.0, 10378.0, 10356.0, 10360.0, 10389.0, 10403.0, 10390.0, 10375.0, 10374.0, 10401.0, 10411.0, 10397.0, 10399.0, 10398.0, 10389.0, 10380.0, 10383.0, 10398.0, 10417.0, 10428.0, 10392.0, 10378.0, 10368.0, 10378.0, 10416.0, 10432.0, 10397.0, 10342.0, 10340.0, 10353.0, 10367.0],
      "WindowWidth": [22364.0, 22227.0, 22186.0, 22170.0, 22134.0, 22110.0, 22117.0, 22128.0, 22132.0, 22156.0, 22126.0, 22094.0, 22133.0, 22187.0, 22162.0, 22102.0, 22075.0, 22069.0, 22116.0, 22105.0, 22073.0, 22052.0, 22113.0, 22151.0, 22146.0, 22133.0, 22123.0, 22109.0, 22032.0, 22005.0, 22037.0, 22113.0, 22179.0, 22127.0, 22069.0, 22045.0, 22098.0, 22122.0, 22100.0, 22057.0, 22041.0, 22077.0, 22103.0, 22097.0, 22070.0, 22079.0, 22074.0, 22048.0, 22058.0, 22121.0, 22137.0, 22084.0, 22017.0, 22000.0, 22016.0, 22068.0, 22070.0, 22052.0, 22026.0, 22026.0, 22045.0, 22054.0, 22056.0, 22102.0, 22109.0, 22081.0, 22057.0, 22090.0, 22125.0, 22095.0, 22061.0, 22059.0, 22062.0, 22097.0, 22095.0, 22069.0, 22081.0, 22068.0, 22066.0, 22092.0, 22069.0, 22057.0, 22105.0, 22207.0, 22188.0, 22100.0, 22044.0, 22051.0, 22067.0, 22106.0, 22155.0, 22108.0, 22034.0, 21965.0, 21989.0, 22101.0, 22140.0, 22068.0, 22013.0, 21998.0, 21993.0, 21986.0, 22017.0, 22005.0, 21984.0, 21972.0, 21997.0, 21984.0, 22048.0, 22063.0, 22051.0, 22021.0, 22032.0, 22042.0, 22044.0, 22071.0, 22090.0, 22040.0, 22008.0, 22018.0, 22051.0, 22118.0, 22144.0, 22099.0, 22049.0, 22032.0, 22043.0, 22068.0, 22131.0, 22132.0, 22071.0, 22025.0, 22037.0, 22098.0, 22109.0, 22064.0, 22068.0, 22102.0, 22087.0, 22031.0, 21996.0, 22007.0, 22048.0, 22078.0, 22061.0, 22076.0, 22079.0, 22059.0, 21984.0, 21982.0, 22027.0, 22110.0, 22166.0, 22089.0, 21999.0, 21969.0, 21977.0, 21997.0, 22069.0, 22069.0, 22012.0, 21964.0, 21973.0, 22040.0, 22077.0, 22045.0, 22004.0, 22007.0, 22072.0, 22089.0, 22064.0, 22065.0, 22066.0, 22043.0, 22023.0, 22026.0, 22056.0, 22114.0, 22129.0, 22051.0, 22013.0, 21989.0, 22015.0, 22106.0, 22139.0, 22058.0, 21938.0, 21925.0, 21955.0, 21991.0]
    },
    "slices": {}
  }
}