{
  "AcquisitionMatrixPE": 104,
  "AcquisitionNumber": 1,
  "AcquisitionTime": "17:48:28.532500",
  "BandwidthPerPixelPhaseEncode": 17.17,
  "BaseResolution": 104,
  "BodyPartExamined": "BRAIN",
  "CoilString": "HC1-7;NC1_2",
  "ConsistencyInfo": "N4_VE11C_LATEST_20160120",
  "ConversionSoftware": "dcm2niix",
  "ConversionSoftwareVersion": "v1.0.20190902",
  "DerivedVendorReportedEchoSpacing": 0.000560011,
  "DeviceSerialNumber": "167006",
  "DwellTime": 2.1e-06,
  "EchoTime": 0.037,
  "EchoTrainLength": 104,
  "EffectiveEchoSpacing": 0.000560011,
  "FlipAngle": 52,
  "HeudiconvVersion": "0.10.0",
  "ImageComments": "Unaliased_MB4_PE3_LB",
  "ImageOrientationPatientDICOM": [0.997877, 0.0568559, 0.0317723, -0.0442662, 0.949869, -0.309497],
  "ImageType": [
    "ORIGINAL",
    "PRIMARY",
    "M",
    "MB",
    "ND",
    "MOSAIC"
],
  "ImagingFrequency": 123.259,
  "InPlanePhaseEncodingDirectionDICOM": "COL",
  "InstitutionAddress": "Chemin_Queen-Mary_4565_Montreal_District_CA_H3W_1W5",
  "InstitutionName": "IUGM",
  "InstitutionalDepartmentName": "Department",
  "MRAcquisitionType": "2D",
  "MagneticFieldStrength": 3,
  "Manufacturer": "Siemens",
  "ManufacturersModelName": "Prisma_fit",
  "Modality": "MR",
  "MultibandAccelerationFactor": 4,
  "PartialFourier": 1,
  "PatientPosition": "HFS",
  "PercentPhaseFOV": 100,
  "PhaseEncodingDirection": "j",
  "PhaseEncodingSteps": 104,
  "PhaseResolution": 1,
  "PixelBandwidth": 2290,
  "ProcedureStepDescription": "memory_things",
  "ProtocolName": "func_task-things_run-4",
  "PulseSequenceDetails": "%CustomerSeq%_cmrr_mbep2d_bold",
  "ReceiveCoilActiveElements": "HC1-7;NC1,2",
  "ReceiveCoilName": "HeadNeck_64",
  "ReconMatrixPE": 104,
  "RepetitionTime": 1.49,
  "SAR": 0.0418901,
  "ScanOptions": "FS",
  "ScanningSequence": "EP",
  "SequenceName": "epfid2d1_104",
  "SequenceVariant": "SK_SS",
  "SeriesDescription": "func_task-things_run-4",
  "SeriesNumber": 19,
  "ShimSetting": [632, -7182, -8817, 628, 73, 20, -46, -3],
  "SliceThickness": 2,
  "SliceTiming": [0, 0.7825, 0.0975, 0.8825, 0.195, 0.98, 0.2925, 1.0775, 0.3925, 1.175, 0.49, 1.2725, 0.5875, 1.3725, 0.685, 0, 0.7825, 0.0975, 0.8825, 0.195, 0.98, 0.2925, 1.0775, 0.3925, 1.175, 0.49, 1.2725, 0.5875, 1.3725, 0.685, 0, 0.7825, 0.0975, 0.8825, 0.195, 0.98, 0.2925, 1.0775, 0.3925, 1.175, 0.49, 1.2725, 0.5875, 1.3725, 0.685, 0, 0.7825, 0.0975, 0.8825, 0.195, 0.98, 0.2925, 1.0775, 0.3925, 1.175, 0.49, 1.2725, 0.5875, 1.3725, 0.685],
  "SoftwareVersions": "syngo_MR_E11",
  "SpacingBetweenSlices": 2,
  "StationName": "MRC35049",
  "TaskName": "things",
  "TotalReadoutTime": 0.0576811,
  "TxRefAmp": 254.519,
  "WipMemBlock": "d651b44c-ef20-48c1-9401-cb998a034fc8||Sequence: R016 ve11c/master r/e634e98; Dec 19 2017 11:00:25 by eja",
  "dcmmeta_affine": [
    [-1.9957534074783325, -0.08853240311145782, 0.09555254131555557, 108.661376953125],
    [-0.11371173709630966, 1.8997389078140259, -0.6148671507835388, -57.116119384765625],
    [0.0635446086525917, 0.6189943552017212, 1.9007388353347778, -58.187015533447266],
    [0.0, 0.0, 0.0, 1.0]
],
  "dcmmeta_reorient_transform": [
    [0.0, -1.0, 0.0, 103.0],
    [1.0, 0.0, 0.0, 0.0],
    [0.0, 0.0, 1.0, 0.0],
    [0.0, 0.0, 0.0, 1.0]
],
  "dcmmeta_shape": [104, 104, 60, 190],
  "dcmmeta_slice_dim": 2,
  "dcmmeta_version": 0.6,
  "global": {
    "const": {
      "AcquisitionMatrix": [104, 0, 0, 104],
      "AngioFlag": "N",
      "BitsAllocated": 16,
      "BitsStored": 16,
      "BodyPartExamined": "BRAIN",
      "Columns": 832,
      "EchoNumbers": 1,
      "EchoTime": 37.0,
      "EchoTrainLength": 104,
      "FlipAngle": 52.0,
      "HighBit": 15,
      "ImageOrientationPatient": [0.99787671135317, 0.05685586684609, 0.03177230467175, -0.0442662026476, 0.9498694618353, -0.3094971870242],
      "ImagePositionPatient": [-793.77098834753, -871.45302885232, 207.75312010734],
      "ImageType": [
        "ORIGINAL",
        "PRIMARY",
        "M",
        "MB",
        "ND",
        "MOSAIC"
],
      "ImagedNucleus": "1H",
      "ImagingFrequency": 123.258906,
      "InPlanePhaseEncodingDirection": "COL",
      "MRAcquisitionType": "2D",
      "MagneticFieldStrength": 3.0,
      "Manufacturer": "SIEMENS",
      "ManufacturerModelName": "Prisma_fit",
      "Modality": "MR",
      "NumberOfAverages": 1.0,
      "NumberOfPhaseEncodingSteps": 104,
      "PercentPhaseFieldOfView": 100.0,
      "PercentSampling": 100.0,
      "PerformedProcedureStepStartTime": "170608.146000",
      "PhotometricInterpretation": "MONOCHROME2",
      "PixelBandwidth": 2290.0,
      "PixelRepresentation": 0,
      "PixelSpacing": [2.0, 2.0],
      "ProtocolName": "func_task-things_run-4",
      "RepetitionTime": 1490.0,
      "Rows": 832,
      "SAR": 0.04189006528386,
      "SamplesPerPixel": 1,
      "ScanOptions": "FS",
      "ScanningSequence": "EP",
      "SequenceName": "epfid2d1_104",
      "SequenceVariant": [
        "SK",
        "SS"
],
      "SeriesDescription": "func_task-things_run-4",
      "SeriesNumber": 19,
      "SeriesTime": "174958.556000",
      "SliceLocation": -32.548309237681,
      "SliceThickness": 2.0,
      "SmallestImagePixelValue": 0,
      "SoftwareVersions": "syngo MR E11",
      "SpacingBetweenSlices": 1.9999999620733,
      "SpecificCharacterSet": "ISO_IR 100",
      "StudyID": "1",
      "StudyTime": "170608.076000",
      "TransmitCoilName": "Body",
      "VariableFlipAngleFlag": "N",
      "WindowCenterWidthExplanation": "Algo1",
      "dBdt": 0.0},
    "slices": {}
  },
  "time": {
    "samples": {
      "AcquisitionNumber": [1, 2, 3, 4, 5, 6, 7, 8, 9, 10, 11, 12, 13, 14, 15, 16, 17, 18, 19, 20, 21, 22, 23, 24, 25, 26, 27, 28, 29, 30, 31, 32, 33, 34, 35, 36, 37, 38, 39, 40, 41, 42, 43, 44, 45, 46, 47, 48, 49, 50, 51, 52, 53, 54, 55, 56, 57, 58, 59, 60, 61, 62, 63, 64, 65, 66, 67, 68, 69, 70, 71, 72, 73, 74, 75, 76, 77, 78, 79, 80, 81, 82, 83, 84, 85, 86, 87, 88, 89, 90, 91, 92, 93, 94, 95, 96, 97, 98, 99, 100, 101, 102, 103, 104, 105, 106, 107, 108, 109, 110, 111, 112, 113, 114, 115, 116, 117, 118, 119, 120, 121, 122, 123, 124, 125, 126, 127, 128, 129, 130, 131, 132, 133, 134, 135, 136, 137, 138, 139, 140, 141, 142, 143, 144, 145, 146, 147, 148, 149, 150, 151, 152, 153, 154, 155, 156, 157, 158, 159, 160, 161, 162, 163, 164, 165, 166, 167, 168, 169, 170, 171, 172, 173, 174, 175, 176, 177, 178, 179, 180, 181, 182, 183, 184, 185, 186, 187, 188, 189, 190],
      "AcquisitionTime": ["174828.532500", "174830.022500", "174831.512500", "174833.002500", "174834.492500", "174835.982500", "174837.472500", "174838.962500", "174840.452500", "174841.942500", "174843.432500", "174844.922500", "174846.412500", "174847.902500", "174849.392500", "174850.882500", "174852.372500", "174853.862500", "174855.352500", "174856.842500", "174858.332500", "174859.822500", "174901.312500", "174902.802500", "174904.292500", "174905.782500", "174907.272500", "174908.762500", "174910.252500", "174911.742500", "174913.232500", "174914.722500", "174916.212500", "174917.702500", "174919.192500", "174920.682500", "174922.172500", "174923.662500", "174925.152500", "174926.642500", "174928.132500", "174929.622500", "174931.112500", "174932.602500", "174934.092500", "174935.582500", "174937.072500", "174938.562500", "174940.052500", "174941.542500", "174943.032500", "174944.522500", "174946.012500", "174947.502500", "174948.992500", "174950.482500", "174951.972500", "174953.462500", "174954.952500", "174956.442500", "174957.932500", "174959.422500", "175000.912500", "175002.402500", "175003.892500", "175005.382500", "175006.872500", "175008.362500", "175009.852500", "175011.342500", "175012.832500", "175014.322500", "175015.812500", "175017.302500", "175018.792500", "175020.282500", "175021.772500", "175023.262500", "175024.752500", "175026.242500", "175027.732500", "175029.222500", "175030.712500", "175032.202500", "175033.692500", "175035.182500", "175036.672500", "175038.162500", "175039.652500", "175041.142500", "175042.632500", "175044.122500", "175045.612500", "175047.102500", "175048.592500", "175050.082500", "175051.572500", "175053.062500", "175054.552500", "175056.042500", "175057.532500", "175059.022500", "175100.512500", "175102.002500", "175103.492500", "175104.982500", "175106.472500", "175107.962500", "175109.452500", "175110.942500", "175112.432500", "175113.922500", "175115.412500", "175116.902500", "175118.392500", "175119.882500", "175121.372500", "175122.862500", "175124.352500", "175125.842500", "175127.332500", "175128.822500", "175130.312500", "175131.802500", "175133.292500", "175134.782500", "175136.272500", "175137.762500", "175139.252500", "175140.742500", "175142.232500", "175143.722500", "175145.212500", "175146.702500", "175148.192500", "175149.682500", "175151.172500", "175152.662500", "175154.152500", "175155.642500", "175157.132500", "175158.622500", "175200.112500", "175201.602500", "175203.092500", "175204.582500", "175206.072500", "175207.562500", "175209.052500", "175210.542500", "175212.032500", "175213.522500", "175215.012500", "175216.502500", "175217.992500", "175219.482500", "175220.972500", "175222.462500", "175223.952500", "175225.442500", "175226.932500", "175228.422500", "175229.912500", "175231.402500", "175232.892500", "175234.382500", "175235.872500", "175237.362500", "175238.852500", "175240.342500", "175241.832500", "175243.322500", "175244.812500", "175246.302500", "175247.792500", "175249.282500", "175250.772500", "175252.262500", "175253.752500", "175255.242500", "175256.732500", "175258.222500", "175259.712500", "175301.202500", "175302.692500", "175304.182500", "175305.672500", "175307.162500", "175308.652500", "175310.142500"],
      "ContentTime": ["174958.559000", "174958.563000", "174958.566000", "174958.570000", "174958.573000", "174958.576000", "174958.579000", "174958.583000", "174958.586000", "174958.589000", "174958.593000", "174958.596000", "174958.599000", "174958.602000", "174958.611000", "174958.615000", "174958.618000", "174958.621000", "174958.632000", "174958.636000", "174958.639000", "174958.642000", "174958.646000", "174958.649000", "174958.652000", "174958.655000", "174958.659000", "174958.662000", "174958.665000", "174958.668000", "174958.672000", "174958.675000", "174958.678000", "174958.682000", "174958.685000", "174958.688000", "174958.691000", "175018.522000", "175018.526000", "175018.529000", "175018.532000", "175018.539000", "175018.542000", "175018.545000", "175018.549000", "175018.552000", "175018.555000", "175018.558000", "175018.562000", "175018.565000", "175018.568000", "175018.571000", "175018.575000", "175018.578000", "175018.581000", "175018.584000", "175018.588000", "175038.522000", "175038.526000", "175038.537000", "175038.540000", "175038.543000", "175038.546000", "175038.550000", "175038.553000", "175038.556000", "175038.559000", "175038.563000", "175038.566000", "175038.569000", "175038.572000", "175038.576000", "175038.579000", "175038.582000", "175038.585000", "175038.589000", "175038.592000", "175058.522000", "175058.526000", "175058.529000", "175058.532000", "175058.535000", "175058.539000", "175058.542000", "175058.545000", "175058.548000", "175058.552000", "175058.555000", "175058.558000", "175058.562000", "175058.565000", "175058.568000", "175058.572000", "175058.575000", "175058.578000", "175058.581000", "175058.585000", "175138.522000", "175138.526000", "175138.529000", "175138.532000", "175138.536000", "175138.539000", "175138.542000", "175138.545000", "175138.549000", "175138.552000", "175138.555000", "175138.559000", "175138.562000", "175138.565000", "175138.568000", "175138.572000", "175138.575000", "175138.578000", "175138.581000", "175138.585000", "175138.588000", "175138.591000", "175138.594000", "175138.598000", "175138.601000", "175138.604000", "175138.607000", "175138.610000", "175138.614000", "175138.617000", "175218.523000", "175218.527000", "175218.530000", "175218.533000", "175218.537000", "175218.540000", "175218.543000", "175218.546000", "175218.550000", "175218.553000", "175218.556000", "175218.559000", "175218.563000", "175218.566000", "175218.569000", "175218.572000", "175218.576000", "175218.579000", "175218.582000", "175218.585000", "175218.589000", "175218.592000", "175218.595000", "175218.598000", "175218.602000", "175218.605000", "175218.608000", "175258.522000", "175258.526000", "175258.529000", "175258.532000", "175258.535000", "175258.551000", "175258.554000", "175258.557000", "175258.560000", "175258.564000", "175258.567000", "175258.570000", "175258.573000", "175258.577000", "175258.580000", "175258.583000", "175258.587000", "175258.590000", "175258.594000", "175258.601000", "175258.604000", "175258.608000", "175258.611000", "175258.615000", "175258.618000", "175258.621000", "175312.064000", "175312.067000", "175312.071000", "175312.074000", "175312.077000", "175312.080000", "175312.084000", "175312.087000", "175312.090000", "175312.094000"],
      "InstanceCreationTime": ["174958.559000", "174958.563000", "174958.566000", "174958.570000", "174958.573000", "174958.576000", "174958.579000", "174958.583000", "174958.586000", "174958.589000", "174958.593000", "174958.596000", "174958.599000", "174958.602000", "174958.611000", "174958.615000", "174958.618000", "174958.621000", "174958.632000", "174958.636000", "174958.639000", "174958.642000", "174958.646000", "174958.649000", "174958.652000", "174958.655000", "174958.659000", "174958.662000", "174958.665000", "174958.668000", "174958.672000", "174958.675000", "174958.678000", "174958.682000", "174958.685000", "174958.688000", "174958.691000", "175018.522000", "175018.526000", "175018.529000", "175018.532000", "175018.539000", "175018.542000", "175018.545000", "175018.549000", "175018.552000", "175018.555000", "175018.558000", "175018.562000", "175018.565000", "175018.568000", "175018.571000", "175018.575000", "175018.578000", "175018.581000", "175018.584000", "175018.588000", "175038.522000", "175038.526000", "175038.537000", "175038.540000", "175038.543000", "175038.546000", "175038.550000", "175038.553000", "175038.556000", "175038.559000", "175038.563000", "175038.566000", "175038.569000", "175038.572000", "175038.576000", "175038.579000", "175038.582000", "175038.585000", "175038.589000", "175038.592000", "175058.522000", "175058.526000", "175058.529000", "175058.532000", "175058.535000", "175058.539000", "175058.542000", "175058.545000", "175058.548000", "175058.552000", "175058.555000", "175058.558000", "175058.562000", "175058.565000", "175058.568000", "175058.572000", "175058.575000", "175058.578000", "175058.581000", "175058.585000", "175138.522000", "175138.526000", "175138.529000", "175138.532000", "175138.536000", "175138.539000", "175138.542000", "175138.545000", "175138.549000", "175138.552000", "175138.555000", "175138.559000", "175138.562000", "175138.565000", "175138.568000", "175138.572000", "175138.575000", "175138.578000", "175138.581000", "175138.585000", "175138.588000", "175138.591000", "175138.594000", "175138.598000", "175138.601000", "175138.604000", "175138.607000", "175138.610000", "175138.614000", "175138.617000", "175218.523000", "175218.527000", "175218.530000", "175218.533000", "175218.537000", "175218.540000", "175218.543000", "175218.546000", "175218.550000", "175218.553000", "175218.556000", "175218.559000", "175218.563000", "175218.566000", "175218.569000", "175218.572000", "175218.576000", "175218.579000", "175218.582000", "175218.585000", "175218.589000", "175218.592000", "175218.595000", "175218.598000", "175218.602000", "175218.605000", "175218.608000", "175258.522000", "175258.526000", "175258.529000", "175258.532000", "175258.535000", "175258.551000", "175258.554000", "175258.557000", "175258.560000", "175258.564000", "175258.567000", "175258.570000", "175258.573000", "175258.577000", "175258.580000", "175258.583000", "175258.587000", "175258.590000", "175258.594000", "175258.601000", "175258.604000", "175258.608000", "175258.611000", "175258.615000", "175258.618000", "175258.621000", "175312.064000", "175312.067000", "175312.071000", "175312.074000", "175312.077000", "175312.080000", "175312.084000", "175312.087000", "175312.090000", "175312.094000"],
      "InstanceNumber": [1, 2, 3, 4, 5, 6, 7, 8, 9, 10, 11, 12, 13, 14, 15, 16, 17, 18, 19, 20, 21, 22, 23, 24, 25, 26, 27, 28, 29, 30, 31, 32, 33, 34, 35, 36, 37, 38, 39, 40, 41, 42, 43, 44, 45, 46, 47, 48, 49, 50, 51, 52, 53, 54, 55, 56, 57, 58, 59, 60, 61, 62, 63, 64, 65, 66, 67, 68, 69, 70, 71, 72, 73, 74, 75, 76, 77, 78, 79, 80, 81, 82, 83, 84, 85, 86, 87, 88, 89, 90, 91, 92, 93, 94, 95, 96, 97, 98, 99, 100, 101, 102, 103, 104, 105, 106, 107, 108, 109, 110, 111, 112, 113, 114, 115, 116, 117, 118, 119, 120, 121, 122, 123, 124, 125, 126, 127, 128, 129, 130, 131, 132, 133, 134, 135, 136, 137, 138, 139, 140, 141, 142, 143, 144, 145, 146, 147, 148, 149, 150, 151, 152, 153, 154, 155, 156, 157, 158, 159, 160, 161, 162, 163, 164, 165, 166, 167, 168, 169, 170, 171, 172, 173, 174, 175, 176, 177, 178, 179, 180, 181, 182, 183, 184, 185, 186, 187, 188, 189, 190],
      "LargestImagePixelValue": [41560, 40529, 40501, 40055, 38954, 39481, 40129, 39633, 39544, 39644, 40134, 40337, 40070, 39152, 39722, 39843, 39691, 39096, 39678, 39877, 38959, 39862, 39951, 39934, 39130, 39530, 40285, 39990, 40340, 39546, 39799, 39552, 39533, 38997, 40007, 39760, 39534, 39584, 40031, 39485, 39800, 39693, 39355, 39266, 38934, 39307, 39511, 39159, 39562, 39411, 39372, 39483, 38717, 39440, 39547, 39601, 39096, 39667, 39504, 38704, 39700, 39553, 39439, 39567, 39970, 39862, 39575, 39428, 39418, 39976, 38962, 39935, 39618, 39450, 39555, 39364, 39232, 40815, 40579, 40463, 40315, 40000, 39247, 39122, 39458, 39994, 39968, 40163, 39987, 39802, 39379, 39506, 39711, 40030, 40034, 39721, 39701, 39197, 39026, 39565, 39632, 40034, 39706, 39624, 39816, 39488, 38855, 39025, 38565, 39286, 39631, 39887, 39789, 39780, 40388, 39976, 39506, 39307, 39973, 39558, 40199, 39465, 39580, 39837, 39879, 39810, 40004, 39595, 39576, 39647, 39715, 39319, 39273, 39535, 38656, 39458, 40284, 39386, 39287, 39105, 39453, 39844, 39286, 39138, 39765, 39381, 39806, 39490, 39104, 38954, 39781, 39304, 39351, 39184, 39467, 39565, 39345, 38679, 39079, 39487, 39089, 39177, 39654, 39100, 38756, 39022, 39626, 39123, 39368, 39835, 39177, 39094, 39807, 39695, 39864, 39624, 39426, 39378, 39099, 39206, 39325, 38934, 39920, 39423, 39427, 39501, 39817, 39048, 39915, 39543],
      "WindowCenter": [10414.0, 10358.0, 10342.0, 10317.0, 10298.0, 10321.0, 10352.0, 10346.0, 10336.0, 10329.0, 10326.0, 10330.0, 10341.0, 10333.0, 10330.0, 10325.0, 10317.0, 10320.0, 10327.0, 10331.0, 10330.0, 10352.0, 10344.0, 10333.0, 10328.0, 10355.0, 10369.0, 10360.0, 10346.0, 10329.0, 10312.0, 10290.0, 10287.0, 10299.0, 10340.0, 10337.0, 10321.0, 10307.0, 10297.0, 10308.0, 10334.0, 10327.0, 10310.0, 10291.0, 10300.0, 10325.0, 10327.0, 10320.0, 10335.0, 10314.0, 10302.0, 10299.0, 10310.0, 10330.0, 10327.0, 10310.0, 10310.0, 10309.0, 10299.0, 10294.0, 10324.0, 10332.0, 10316.0, 10309.0, 10314.0, 10306.0, 10296.0, 10289.0, 10296.0, 10328.0, 10321.0, 10324.0, 10316.0, 10325.0, 10325.0, 10306.0, 10317.0, 10364.0, 10360.0, 10321.0, 10291.0, 10274.0, 10280.0, 10308.0, 10311.0, 10306.0, 10303.0, 10296.0, 10285.0, 10275.0, 10277.0, 10294.0, 10313.0, 10321.0, 10319.0, 10305.0, 10298.0, 10309.0, 10328.0, 10336.0, 10335.0, 10335.0, 10337.0, 10327.0, 10318.0, 10315.0, 10315.0, 10339.0, 10339.0, 10343.0, 10333.0, 10329.0, 10328.0, 10323.0, 10327.0, 10340.0, 10344.0, 10329.0, 10358.0, 10356.0, 10349.0, 10307.0, 10319.0, 10350.0, 10352.0, 10353.0, 10350.0, 10328.0, 10326.0, 10342.0, 10361.0, 10348.0, 10346.0, 10345.0, 10325.0, 10327.0, 10353.0, 10338.0, 10321.0, 10303.0, 10299.0, 10340.0, 10338.0, 10338.0, 10351.0, 10339.0, 10326.0, 10314.0, 10327.0, 10357.0, 10364.0, 10341.0, 10317.0, 10303.0, 10302.0, 10323.0, 10344.0, 10333.0, 10323.0, 10312.0, 10321.0, 10321.0, 10316.0, 10313.0, 10316.0, 10321.0, 10333.0, 10340.0, 10340.0, 10336.0, 10322.0, 10312.0, 10323.0, 10324.0, 10335.0, 10324.0, 10308.0, 10307.0, 10311.0, 10312.0, 10326.0, 10340.0, 10359.0, 10328.0, 10309.0, 10300.0, 10305.0, 10300.0, 10307.0, 10290.0],
      "WindowWidth": [22121.0, 21975.0, 21927.0, 21867.0, 21825.0, 21876.0, 21942.0, 21924.0, 21900.0, 21888.0, 21878.0, 21882.0, 21914.0, 21901.0, 21891.0, 21875.0, 21856.0, 21867.0, 21883.0, 21889.0, 21893.0, 21942.0, 21920.0, 21893.0, 21890.0, 21952.0, 21981.0, 21961.0, 21922.0, 21885.0, 21849.0, 21796.0, 21785.0, 21820.0, 21914.0, 21908.0, 21869.0, 21834.0, 21809.0, 21839.0, 21903.0, 21885.0, 21842.0, 21798.0, 21820.0, 21881.0, 21883.0, 21869.0, 21901.0, 21858.0, 21827.0, 21817.0, 21848.0, 21896.0, 21884.0, 21841.0, 21845.0, 21844.0, 21818.0, 21811.0, 21878.0, 21893.0, 21856.0, 21839.0, 21849.0, 21833.0, 21811.0, 21795.0, 21811.0, 21884.0, 21874.0, 21871.0, 21854.0, 21879.0, 21882.0, 21836.0, 21860.0, 21968.0, 21961.0, 21869.0, 21798.0, 21763.0, 21783.0, 21843.0, 21845.0, 21828.0, 21820.0, 21808.0, 21782.0, 21760.0, 21770.0, 21808.0, 21852.0, 21870.0, 21860.0, 21829.0, 21816.0, 21845.0, 21891.0, 21907.0, 21905.0, 21903.0, 21912.0, 21889.0, 21867.0, 21857.0, 21862.0, 21920.0, 21922.0, 21923.0, 21900.0, 21891.0, 21890.0, 21875.0, 21881.0, 21913.0, 21925.0, 21889.0, 21954.0, 21955.0, 21933.0, 21837.0, 21861.0, 21936.0, 21940.0, 21942.0, 21935.0, 21885.0, 21882.0, 21923.0, 21965.0, 21938.0, 21931.0, 21928.0, 21886.0, 21883.0, 21940.0, 21911.0, 21873.0, 21831.0, 21822.0, 21916.0, 21914.0, 21912.0, 21939.0, 21917.0, 21881.0, 21852.0, 21887.0, 21958.0, 21970.0, 21920.0, 21865.0, 21829.0, 21827.0, 21875.0, 21928.0, 21904.0, 21877.0, 21853.0, 21876.0, 21873.0, 21858.0, 21859.0, 21865.0, 21873.0, 21898.0, 21920.0, 21916.0, 21904.0, 21873.0, 21847.0, 21867.0, 21875.0, 21906.0, 21872.0, 21835.0, 21837.0, 21852.0, 21853.0, 21880.0, 21918.0, 21957.0, 21888.0, 21841.0, 21822.0, 21831.0, 21822.0, 21838.0, 21798.0]
    },
    "slices": {}
  }
}