{
  "AcquisitionMatrixPE": 104,
  "AcquisitionNumber": 1,
  "AcquisitionTime": "17:36:3.435000",
  "BandwidthPerPixelPhaseEncode": 17.17,
  "BaseResolution": 104,
  "BodyPartExamined": "BRAIN",
  "CoilString": "HC1-7;NC1_2",
  "ConsistencyInfo": "N4_VE11C_LATEST_20160120",
  "ConversionSoftware": "dcm2niix",
  "ConversionSoftwareVersion": "v1.0.20190902",
  "DerivedVendorReportedEchoSpacing": 0.000560011,
  "DeviceSerialNumber": "167006",
  "DwellTime": 2.1e-06,
  "EchoTime": 0.037,
  "EchoTrainLength": 104,
  "EffectiveEchoSpacing": 0.000560011,
  "FlipAngle": 52,
  "HeudiconvVersion": "0.10.0",
  "ImageComments": "Unaliased_MB4_PE3_LB",
  "ImageOrientationPatientDICOM": [0.997877, 0.0568559, 0.0317723, -0.0442662, 0.949869, -0.309497],
  "ImageType": [
    "ORIGINAL",
    "PRIMARY",
    "P",
    "MB",
    "ND",
    "MOSAIC"
],
  "ImagingFrequency": 123.259,
  "InPlanePhaseEncodingDirectionDICOM": "COL",
  "InstitutionAddress": "Chemin_Queen-Mary_4565_Montreal_District_CA_H3W_1W5",
  "InstitutionName": "IUGM",
  "InstitutionalDepartmentName": "Department",
  "MRAcquisitionType": "2D",
  "MagneticFieldStrength": 3,
  "Manufacturer": "Siemens",
  "ManufacturersModelName": "Prisma_fit",
  "Modality": "MR",
  "MultibandAccelerationFactor": 4,
  "PartialFourier": 1,
  "PatientPosition": "HFS",
  "PercentPhaseFOV": 100,
  "PhaseEncodingDirection": "j",
  "PhaseEncodingSteps": 104,
  "PhaseResolution": 1,
  "PixelBandwidth": 2290,
  "ProcedureStepDescription": "memory_things",
  "ProtocolName": "func_task-things_run-2",
  "PulseSequenceDetails": "%CustomerSeq%_cmrr_mbep2d_bold",
  "ReceiveCoilActiveElements": "HC1-7;NC1,2",
  "ReceiveCoilName": "HeadNeck_64",
  "ReconMatrixPE": 104,
  "RepetitionTime": 1.49,
  "SAR": 0.0418901,
  "ScanOptions": "FS",
  "ScanningSequence": "EP",
  "SequenceName": "epfid2d1_104",
  "SequenceVariant": "SK_SS",
  "SeriesDescription": "func_task-things_run-2",
  "SeriesNumber": 14,
  "ShimSetting": [632, -7182, -8817, 628, 73, 20, -46, -3],
  "SliceThickness": 2,
  "SliceTiming": [0, 0.7825, 0.0975, 0.8825, 0.195, 0.98, 0.2925, 1.0775, 0.3925, 1.175, 0.49, 1.2725, 0.5875, 1.3725, 0.685, 0, 0.7825, 0.0975, 0.8825, 0.195, 0.98, 0.2925, 1.0775, 0.3925, 1.175, 0.49, 1.2725, 0.5875, 1.3725, 0.685, 0, 0.7825, 0.0975, 0.8825, 0.195, 0.98, 0.2925, 1.0775, 0.3925, 1.175, 0.49, 1.2725, 0.5875, 1.3725, 0.685, 0, 0.7825, 0.0975, 0.8825, 0.195, 0.98, 0.2925, 1.0775, 0.3925, 1.175, 0.49, 1.2725, 0.5875, 1.3725, 0.685],
  "SoftwareVersions": "syngo_MR_E11",
  "SpacingBetweenSlices": 2,
  "StationName": "MRC35049",
  "TaskName": "things",
  "TotalReadoutTime": 0.0576811,
  "TxRefAmp": 254.519,
  "WipMemBlock": "d9b1b083-b125-4d20-940b-29e6b21e46a1||Sequence: R016 ve11c/master r/e634e98; Dec 19 2017 11:00:25 by eja",
  "dcmmeta_affine": [
    [-1.9957534074783325, -0.08853240311145782, 0.09555254131555557, 108.661376953125],
    [-0.11371173709630966, 1.8997389078140259, -0.6148671507835388, -57.116119384765625],
    [0.0635446086525917, 0.6189943552017212, 1.9007388353347778, -58.187015533447266],
    [0.0, 0.0, 0.0, 1.0]
],
  "dcmmeta_reorient_transform": [
    [0.0, -1.0, 0.0, 103.0],
    [1.0, 0.0, 0.0, 0.0],
    [0.0, 0.0, 1.0, 0.0],
    [0.0, 0.0, 0.0, 1.0]
],
  "dcmmeta_shape": [104, 104, 60, 190],
  "dcmmeta_slice_dim": 2,
  "dcmmeta_version": 0.6,
  "global": {
    "const": {
      "AcquisitionMatrix": [104, 0, 0, 104],
      "AngioFlag": "N",
      "BitsAllocated": 16,
      "BitsStored": 16,
      "BodyPartExamined": "BRAIN",
      "Columns": 832,
      "EchoNumbers": 1,
      "EchoTime": 37.0,
      "EchoTrainLength": 104,
      "FlipAngle": 52.0,
      "HighBit": 15,
      "ImageOrientationPatient": [0.99787671135317, 0.05685586684609, 0.03177230467175, -0.0442662026476, 0.9498694618353, -0.3094971870242],
      "ImagePositionPatient": [-793.77098834753, -871.45302885232, 207.75312010734],
      "ImageType": [
        "ORIGINAL",
        "PRIMARY",
        "P",
        "MB",
        "ND",
        "MOSAIC"
],
      "ImagedNucleus": "1H",
      "ImagingFrequency": 123.2589,
      "InPlanePhaseEncodingDirection": "COL",
      "LargestImagePixelValue": 4095,
      "MRAcquisitionType": "2D",
      "MagneticFieldStrength": 3.0,
      "Manufacturer": "SIEMENS",
      "ManufacturerModelName": "Prisma_fit",
      "Modality": "MR",
      "NumberOfAverages": 1.0,
      "NumberOfPhaseEncodingSteps": 104,
      "PercentPhaseFieldOfView": 100.0,
      "PercentSampling": 100.0,
      "PerformedProcedureStepStartTime": "170608.146000",
      "PhotometricInterpretation": "MONOCHROME2",
      "PixelBandwidth": 2290.0,
      "PixelRepresentation": 0,
      "PixelSpacing": [2.0, 2.0],
      "ProtocolName": "func_task-things_run-2",
      "RepetitionTime": 1490.0,
      "RescaleIntercept": -4096.0,
      "RescaleSlope": 2.0,
      "RescaleType": "US",
      "Rows": 832,
      "SAR": 0.04189006528386,
      "SamplesPerPixel": 1,
      "ScanOptions": "FS",
      "ScanningSequence": "EP",
      "SequenceName": "epfid2d1_104",
      "SequenceVariant": [
        "SK",
        "SS"
],
      "SeriesDescription": "func_task-things_run-2",
      "SeriesNumber": 14,
      "SeriesTime": "173722.063000",
      "SliceLocation": -32.548309237681,
      "SliceThickness": 2.0,
      "SmallestImagePixelValue": 0,
      "SoftwareVersions": "syngo MR E11",
      "SpacingBetweenSlices": 1.9999999620733,
      "SpecificCharacterSet": "ISO_IR 100",
      "StudyID": "1",
      "StudyTime": "170608.076000",
      "TransmitCoilName": "Body",
      "VariableFlipAngleFlag": "N",
      "WindowCenterWidthExplanation": "Algo1",
      "dBdt": 0.0},
    "slices": {}
  },
  "time": {
    "samples": {
      "AcquisitionNumber": [1, 2, 3, 4, 5, 6, 7, 8, 9, 10, 11, 12, 13, 14, 15, 16, 17, 18, 19, 20, 21, 22, 23, 24, 25, 26, 27, 28, 29, 30, 31, 32, 33, 34, 35, 36, 37, 38, 39, 40, 41, 42, 43, 44, 45, 46, 47, 48, 49, 50, 51, 52, 53, 54, 55, 56, 57, 58, 59, 60, 61, 62, 63, 64, 65, 66, 67, 68, 69, 70, 71, 72, 73, 74, 75, 76, 77, 78, 79, 80, 81, 82, 83, 84, 85, 86, 87, 88, 89, 90, 91, 92, 93, 94, 95, 96, 97, 98, 99, 100, 101, 102, 103, 104, 105, 106, 107, 108, 109, 110, 111, 112, 113, 114, 115, 116, 117, 118, 119, 120, 121, 122, 123, 124, 125, 126, 127, 128, 129, 130, 131, 132, 133, 134, 135, 136, 137, 138, 139, 140, 141, 142, 143, 144, 145, 146, 147, 148, 149, 150, 151, 152, 153, 154, 155, 156, 157, 158, 159, 160, 161, 162, 163, 164, 165, 166, 167, 168, 169, 170, 171, 172, 173, 174, 175, 176, 177, 178, 179, 180, 181, 182, 183, 184, 185, 186, 187, 188, 189, 190],
      "AcquisitionTime": ["173603.435000", "173604.925000", "173606.415000", "173607.905000", "173609.395000", "173610.885000", "173612.375000", "173613.865000", "173615.355000", "173616.845000", "173618.335000", "173619.825000", "173621.315000", "173622.805000", "173624.295000", "173625.785000", "173627.275000", "173628.765000", "173630.255000", "173631.745000", "173633.235000", "173634.725000", "173636.215000", "173637.705000", "173639.195000", "173640.685000", "173642.175000", "173643.665000", "173645.155000", "173646.645000", "173648.135000", "173649.625000", "173651.115000", "173652.605000", "173654.095000", "173655.585000", "173657.075000", "173658.565000", "173700.055000", "173701.545000", "173703.035000", "173704.525000", "173706.015000", "173707.505000", "173708.995000", "173710.485000", "173711.975000", "173713.465000", "173714.955000", "173716.445000", "173717.935000", "173719.425000", "173720.915000", "173722.405000", "173723.895000", "173725.385000", "173726.875000", "173728.365000", "173729.855000", "173731.345000", "173732.835000", "173734.325000", "173735.815000", "173737.305000", "173738.795000", "173740.285000", "173741.775000", "173743.265000", "173744.755000", "173746.245000", "173747.735000", "173749.225000", "173750.715000", "173752.205000", "173753.695000", "173755.185000", "173756.675000", "173758.165000", "173759.655000", "173801.145000", "173802.635000", "173804.125000", "173805.615000", "173807.105000", "173808.595000", "173810.085000", "173811.575000", "173813.065000", "173814.555000", "173816.045000", "173817.535000", "173819.025000", "173820.515000", "173822.005000", "173823.495000", "173824.985000", "173826.475000", "173827.965000", "173829.455000", "173830.945000", "173832.435000", "173833.925000", "173835.415000", "173836.905000", "173838.395000", "173839.885000", "173841.375000", "173842.865000", "173844.355000", "173845.845000", "173847.335000", "173848.825000", "173850.315000", "173851.805000", "173853.295000", "173854.785000", "173856.275000", "173857.765000", "173859.255000", "173900.745000", "173902.235000", "173903.725000", "173905.215000", "173906.705000", "173908.195000", "173909.685000", "173911.175000", "173912.665000", "173914.155000", "173915.645000", "173917.135000", "173918.625000", "173920.115000", "173921.605000", "173923.095000", "173924.585000", "173926.075000", "173927.565000", "173929.055000", "173930.545000", "173932.035000", "173933.525000", "173935.015000", "173936.505000", "173937.995000", "173939.485000", "173940.975000", "173942.465000", "173943.955000", "173945.445000", "173946.935000", "173948.425000", "173949.915000", "173951.405000", "173952.895000", "173954.385000", "173955.875000", "173957.365000", "173958.855000", "174000.345000", "174001.835000", "174003.325000", "174004.815000", "174006.305000", "174007.795000", "174009.285000", "174010.775000", "174012.265000", "174013.755000", "174015.245000", "174016.735000", "174018.225000", "174019.715000", "174021.205000", "174022.695000", "174024.185000", "174025.675000", "174027.165000", "174028.655000", "174030.145000", "174031.635000", "174033.125000", "174034.615000", "174036.105000", "174037.595000", "174039.085000", "174040.575000", "174042.065000", "174043.555000", "174045.045000"],
      "ContentTime": ["173722.065000", "173722.068000", "173722.072000", "173722.077000", "173722.081000", "173722.083000", "173722.087000", "173722.090000", "173722.093000", "173722.095000", "173722.098000", "173722.100000", "173722.103000", "173722.105000", "173722.107000", "173722.110000", "173722.112000", "173722.115000", "173722.117000", "173722.120000", "173722.122000", "173722.124000", "173722.127000", "173722.129000", "173742.023000", "173742.025000", "173742.028000", "173742.030000", "173742.033000", "173742.035000", "173742.037000", "173742.040000", "173742.042000", "173742.045000", "173742.047000", "173742.050000", "173742.052000", "173742.055000", "173742.057000", "173742.059000", "173742.062000", "173742.064000", "173742.067000", "173742.069000", "173742.072000", "173802.027000", "173802.029000", "173802.032000", "173802.034000", "173802.037000", "173802.039000", "173802.042000", "173802.044000", "173802.047000", "173802.049000", "173802.051000", "173802.054000", "173802.056000", "173802.059000", "173802.061000", "173802.064000", "173802.066000", "173802.068000", "173802.071000", "173802.073000", "173822.020000", "173822.023000", "173822.025000", "173822.028000", "173822.030000", "173822.033000", "173822.035000", "173822.038000", "173822.040000", "173822.042000", "173822.045000", "173822.047000", "173822.050000", "173822.052000", "173822.055000", "173822.057000", "173822.059000", "173822.062000", "173822.064000", "173822.067000", "173842.031000", "173842.033000", "173842.036000", "173842.038000", "173842.041000", "173842.043000", "173842.046000", "173842.048000", "173842.051000", "173842.053000", "173842.056000", "173842.058000", "173842.061000", "173842.063000", "173842.065000", "173842.068000", "173842.070000", "173842.073000", "173842.075000", "173842.078000", "173922.055000", "173922.058000", "173922.060000", "173922.063000", "173922.065000", "173922.068000", "173922.070000", "173922.073000", "173922.075000", "173922.077000", "173922.080000", "173922.082000", "173922.085000", "173922.087000", "173922.090000", "173922.092000", "173922.095000", "173922.097000", "173922.099000", "173922.102000", "173922.104000", "173922.107000", "173922.109000", "173922.112000", "173922.114000", "173922.116000", "173922.119000", "174002.063000", "174002.065000", "174002.068000", "174002.070000", "174002.073000", "174002.075000", "174002.078000", "174002.080000", "174002.083000", "174002.085000", "174002.088000", "174002.090000", "174002.093000", "174002.095000", "174002.098000", "174002.100000", "174002.102000", "174002.105000", "174002.107000", "174002.110000", "174002.112000", "174002.115000", "174002.117000", "174002.120000", "174002.122000", "174002.124000", "174002.127000", "174042.048000", "174042.051000", "174042.053000", "174042.056000", "174042.058000", "174042.061000", "174042.063000", "174042.065000", "174042.068000", "174042.070000", "174042.073000", "174042.075000", "174042.078000", "174042.080000", "174042.083000", "174042.085000", "174042.087000", "174042.090000", "174042.092000", "174042.095000", "174042.097000", "174042.100000", "174042.102000", "174042.105000", "174042.107000", "174042.110000", "174042.112000", "174047.733000", "174047.736000", "174047.738000", "174047.741000"],
      "InstanceCreationTime": ["173722.065000", "173722.068000", "173722.072000", "173722.077000", "173722.081000", "173722.083000", "173722.087000", "173722.090000", "173722.093000", "173722.095000", "173722.098000", "173722.100000", "173722.103000", "173722.105000", "173722.107000", "173722.110000", "173722.112000", "173722.115000", "173722.117000", "173722.120000", "173722.122000", "173722.124000", "173722.127000", "173722.129000", "173742.023000", "173742.025000", "173742.028000", "173742.030000", "173742.033000", "173742.035000", "173742.037000", "173742.040000", "173742.042000", "173742.045000", "173742.047000", "173742.050000", "173742.052000", "173742.055000", "173742.057000", "173742.059000", "173742.062000", "173742.064000", "173742.067000", "173742.069000", "173742.072000", "173802.027000", "173802.029000", "173802.032000", "173802.034000", "173802.037000", "173802.039000", "173802.042000", "173802.044000", "173802.047000", "173802.049000", "173802.051000", "173802.054000", "173802.056000", "173802.059000", "173802.061000", "173802.064000", "173802.066000", "173802.068000", "173802.071000", "173802.073000", "173822.020000", "173822.023000", "173822.025000", "173822.028000", "173822.030000", "173822.033000", "173822.035000", "173822.038000", "173822.040000", "173822.042000", "173822.045000", "173822.047000", "173822.050000", "173822.052000", "173822.055000", "173822.057000", "173822.059000", "173822.062000", "173822.064000", "173822.067000", "173842.031000", "173842.033000", "173842.036000", "173842.038000", "173842.041000", "173842.043000", "173842.046000", "173842.048000", "173842.051000", "173842.053000", "173842.056000", "173842.058000", "173842.061000", "173842.063000", "173842.065000", "173842.068000", "173842.070000", "173842.073000", "173842.075000", "173842.078000", "173922.055000", "173922.058000", "173922.060000", "173922.063000", "173922.065000", "173922.068000", "173922.070000", "173922.073000", "173922.075000", "173922.077000", "173922.080000", "173922.082000", "173922.085000", "173922.087000", "173922.090000", "173922.092000", "173922.095000", "173922.097000", "173922.099000", "173922.102000", "173922.104000", "173922.107000", "173922.109000", "173922.112000", "173922.114000", "173922.116000", "173922.119000", "174002.063000", "174002.065000", "174002.068000", "174002.070000", "174002.073000", "174002.075000", "174002.078000", "174002.080000", "174002.083000", "174002.085000", "174002.088000", "174002.090000", "174002.093000", "174002.095000", "174002.098000", "174002.100000", "174002.102000", "174002.105000", "174002.107000", "174002.110000", "174002.112000", "174002.115000", "174002.117000", "174002.120000", "174002.122000", "174002.124000", "174002.127000", "174042.048000", "174042.051000", "174042.053000", "174042.056000", "174042.058000", "174042.061000", "174042.063000", "174042.065000", "174042.068000", "174042.070000", "174042.073000", "174042.075000", "174042.078000", "174042.080000", "174042.083000", "174042.085000", "174042.087000", "174042.090000", "174042.092000", "174042.095000", "174042.097000", "174042.100000", "174042.102000", "174042.105000", "174042.107000", "174042.110000", "174042.112000", "174047.733000", "174047.736000", "174047.738000", "174047.741000"],
      "InstanceNumber": [1, 2, 3, 4, 5, 6, 7, 8, 9, 10, 11, 12, 13, 14, 15, 16, 17, 18, 19, 20, 21, 22, 23, 24, 25, 26, 27, 28, 29, 30, 31, 32, 33, 34, 35, 36, 37, 38, 39, 40, 41, 42, 43, 44, 45, 46, 47, 48, 49, 50, 51, 52, 53, 54, 55, 56, 57, 58, 59, 60, 61, 62, 63, 64, 65, 66, 67, 68, 69, 70, 71, 72, 73, 74, 75, 76, 77, 78, 79, 80, 81, 82, 83, 84, 85, 86, 87, 88, 89, 90, 91, 92, 93, 94, 95, 96, 97, 98, 99, 100, 101, 102, 103, 104, 105, 106, 107, 108, 109, 110, 111, 112, 113, 114, 115, 116, 117, 118, 119, 120, 121, 122, 123, 124, 125, 126, 127, 128, 129, 130, 131, 132, 133, 134, 135, 136, 137, 138, 139, 140, 141, 142, 143, 144, 145, 146, 147, 148, 149, 150, 151, 152, 153, 154, 155, 156, 157, 158, 159, 160, 161, 162, 163, 164, 165, 166, 167, 168, 169, 170, 171, 172, 173, 174, 175, 176, 177, 178, 179, 180, 181, 182, 183, 184, 185, 186, 187, 188, 189, 190],
      "WindowCenter": [4858.0, 4860.0, 4860.0, 4858.0, 4856.0, 4838.0, 4860.0, 4880.0, 4860.0, 4860.0, 4862.0, 4858.0, 4858.0, 4860.0, 4858.0, 4860.0, 4862.0, 4882.0, 4860.0, 4856.0, 4858.0, 4834.0, 4860.0, 4884.0, 4858.0, 4858.0, 4860.0, 4860.0, 4858.0, 4858.0, 4858.0, 4858.0, 4860.0, 4860.0, 4858.0, 4860.0, 4860.0, 4860.0, 4860.0, 4860.0, 4856.0, 4858.0, 4858.0, 4858.0, 4856.0, 4858.0, 4858.0, 4886.0, 4860.0, 4862.0, 4860.0, 4858.0, 4884.0, 4882.0, 4860.0, 4856.0, 4834.0, 4858.0, 4860.0, 4858.0, 4860.0, 4860.0, 4860.0, 4860.0, 4858.0, 4860.0, 4860.0, 4860.0, 4860.0, 4860.0, 4860.0, 4856.0, 4860.0, 4858.0, 4860.0, 4858.0, 4860.0, 4858.0, 4858.0, 4862.0, 4860.0, 4858.0, 4860.0, 4860.0, 4860.0, 4860.0, 4862.0, 4860.0, 4858.0, 4860.0, 4860.0, 4858.0, 4860.0, 4860.0, 4860.0, 4860.0, 4864.0, 4860.0, 4862.0, 4862.0, 4858.0, 4860.0, 4882.0, 4860.0, 4860.0, 4862.0, 4862.0, 4856.0, 4860.0, 4860.0, 4860.0, 4860.0, 4862.0, 4884.0, 4858.0, 4834.0, 4862.0, 4862.0, 4884.0, 4862.0, 4858.0, 4862.0, 4884.0, 4860.0, 4860.0, 4860.0, 4860.0, 4862.0, 4858.0, 4860.0, 4858.0, 4862.0, 4864.0, 4862.0, 4860.0, 4882.0, 4878.0, 4882.0, 4836.0, 4836.0, 4836.0, 4860.0, 4886.0, 4860.0, 4860.0, 4860.0, 4884.0, 4886.0, 4862.0, 4836.0, 4860.0, 4858.0, 4860.0, 4864.0, 4862.0, 4862.0, 4862.0, 4884.0, 4882.0, 4862.0, 4856.0, 4858.0, 4862.0, 4886.0, 4862.0, 4858.0, 4860.0, 4884.0, 4884.0, 4860.0, 4858.0, 4864.0, 4886.0, 4884.0, 4862.0, 4858.0, 4860.0, 4862.0, 4862.0, 4856.0, 4862.0, 4862.0, 4862.0, 4862.0, 4886.0, 4882.0, 4886.0, 4862.0, 4858.0, 4860.0],
      "WindowWidth": [18608.0, 18612.0, 18608.0, 18606.0, 18604.0, 18574.0, 18610.0, 18642.0, 18614.0, 18608.0, 18610.0, 18604.0, 18604.0, 18604.0, 18604.0, 18608.0, 18618.0, 18646.0, 18608.0, 18600.0, 18606.0, 18568.0, 18606.0, 18640.0, 18608.0, 18610.0, 18608.0, 18610.0, 18612.0, 18602.0, 18604.0, 18602.0, 18606.0, 18612.0, 18610.0, 18602.0, 18608.0, 18610.0, 18614.0, 18608.0, 18604.0, 18604.0, 18610.0, 18608.0, 18604.0, 18606.0, 18606.0, 18644.0, 18610.0, 18610.0, 18606.0, 18608.0, 18652.0, 18644.0, 18604.0, 18598.0, 18572.0, 18604.0, 18610.0, 18606.0, 18604.0, 18600.0, 18610.0, 18618.0, 18606.0, 18604.0, 18602.0, 18612.0, 18612.0, 18606.0, 18604.0, 18606.0, 18606.0, 18614.0, 18612.0, 18604.0, 18604.0, 18606.0, 18606.0, 18604.0, 18602.0, 18602.0, 18614.0, 18614.0, 18602.0, 18604.0, 18606.0, 18610.0, 18608.0, 18604.0, 18606.0, 18608.0, 18610.0, 18608.0, 18610.0, 18608.0, 18606.0, 18602.0, 18612.0, 18608.0, 18608.0, 18610.0, 18640.0, 18608.0, 18610.0, 18606.0, 18610.0, 18604.0, 18602.0, 18606.0, 18606.0, 18600.0, 18610.0, 18648.0, 18606.0, 18574.0, 18606.0, 18608.0, 18640.0, 18608.0, 18602.0, 18608.0, 18642.0, 18604.0, 18606.0, 18604.0, 18610.0, 18616.0, 18604.0, 18598.0, 18600.0, 18610.0, 18612.0, 18608.0, 18608.0, 18646.0, 18650.0, 18638.0, 18570.0, 18572.0, 18572.0, 18602.0, 18642.0, 18610.0, 18610.0, 18612.0, 18646.0, 18644.0, 18604.0, 18572.0, 18602.0, 18600.0, 18608.0, 18612.0, 18612.0, 18600.0, 18610.0, 18648.0, 18648.0, 18604.0, 18600.0, 18598.0, 18614.0, 18642.0, 18614.0, 18606.0, 18602.0, 18640.0, 18646.0, 18606.0, 18604.0, 18606.0, 18646.0, 18640.0, 18606.0, 18600.0, 18606.0, 18608.0, 18602.0, 18600.0, 18610.0, 18608.0, 18608.0, 18610.0, 18640.0, 18644.0, 18646.0, 18604.0, 18600.0, 18606.0]
    },
    "slices": {}
  }
}