{
  "AcquisitionMatrixPE": 104,
  "AcquisitionNumber": 1,
  "AcquisitionTime": "15:57:34.762500",
  "BandwidthPerPixelPhaseEncode": 17.17,
  "BaseResolution": 104,
  "BodyPartExamined": "BRAIN",
  "CoilCombinationMethod": "Sum of Squares",
  "ConsistencyInfo": "N4_VE11C_LATEST_20160120",
  "ConversionSoftware": "dcm2niix",
  "ConversionSoftwareVersion": "v1.0.20211006",
  "DerivedVendorReportedEchoSpacing": 0.000560011,
  "DeviceSerialNumber": "167006",
  "DwellTime": 2.1e-06,
  "EchoTime": 0.037,
  "EchoTime1": 0.037,
  "EchoTime2": 0.001,
  "EchoTrainLength": 104,
  "EffectiveEchoSpacing": 0.000560011,
  "FlipAngle": 52,
  "HeudiconvVersion": "0.10.0",
  "ImageComments": "Unaliased MB4/PE3/LB",
  "ImageOrientationPatientDICOM": [0.999593, -0.0257675, 0.0122122, 0.0282704, 0.951507, -0.306326],
  "ImageOrientationText": "Tra>Cor(-17.9)>Sag(0.2)",
  "ImageType": [
    "ORIGINAL",
    "PRIMARY",
    "P",
    "MB",
    "ND",
    "MOSAIC",
    "PHASE"
],
  "ImagingFrequency": 123.259,
  "InPlanePhaseEncodingDirectionDICOM": "COL",
  "InstitutionAddress": "Chemin Queen-Mary 4565,Montreal,District,CA,H3W 1W5",
  "InstitutionName": "IUGM",
  "InstitutionalDepartmentName": "Department",
  "MRAcquisitionType": "2D",
  "MagneticFieldStrength": 3,
  "Manufacturer": "Siemens",
  "ManufacturersModelName": "Prisma_fit",
  "MatrixCoilMode": "SENSE",
  "Modality": "MR",
  "MultibandAccelerationFactor": 4,
  "PartialFourier": 1,
  "PatientPosition": "HFS",
  "PercentPhaseFOV": 100,
  "PercentSampling": 100,
  "PhaseEncodingDirection": "j",
  "PhaseEncodingSteps": 104,
  "PhaseResolution": 1,
  "PixelBandwidth": 2290,
  "ProcedureStepDescription": "memory^things",
  "ProtocolName": "func_task-things_run-5",
  "PulseSequenceDetails": "%CustomerSeq%\\cmrr_mbep2d_bold",
  "ReceiveCoilActiveElements": "HC1-7;NC1,2",
  "ReceiveCoilName": "HeadNeck_64",
  "ReconMatrixPE": 104,
  "RepetitionTime": 1.49,
  "SAR": 0.045139,
  "ScanOptions": "FS",
  "ScanningSequence": "EP",
  "SequenceName": "epfid2d1_104",
  "SequenceVariant": "SK\\SS",
  "SeriesDescription": "func_task-things_run-5",
  "SeriesNumber": 26,
  "ShimSetting": [626, -7247, -8836, 600, -9, -210, -41, -35],
  "SliceThickness": 2,
  "SliceTiming": [0, 0.7825, 0.0975, 0.8825, 0.195, 0.98, 0.295, 1.0775, 0.3925, 1.175, 0.49, 1.2725, 0.5875, 1.3725, 0.685, 0, 0.7825, 0.0975, 0.8825, 0.195, 0.98, 0.295, 1.0775, 0.3925, 1.175, 0.49, 1.2725, 0.5875, 1.3725, 0.685, 0, 0.7825, 0.0975, 0.8825, 0.195, 0.98, 0.295, 1.0775, 0.3925, 1.175, 0.49, 1.2725, 0.5875, 1.3725, 0.685, 0, 0.7825, 0.0975, 0.8825, 0.195, 0.98, 0.295, 1.0775, 0.3925, 1.175, 0.49, 1.2725, 0.5875, 1.3725, 0.685],
  "SoftwareVersions": "syngo MR E11",
  "SpacingBetweenSlices": 2,
  "StationName": "MRC35049",
  "TaskName": "things",
  "TotalReadoutTime": 0.0576811,
  "TxRefAmp": 245.362,
  "WipMemBlock": "04058e0a-d625-4085-98a1-0f2f03f4f940||Sequence: R016 ve11c/master r/e634e98; Dec 19 2017 11:00:25 by eja",
  "dcmmeta_affine": [
    [-1.9991867542266846, 0.05654073879122734, 0.007453565951436758, 103.97508239746094],
    [0.0515349879860878, 1.9030135869979858, -0.6130932569503784, -68.69693756103516],
    [0.024424493312835693, 0.6126518845558167, 1.9036966562271118, -68.3331527709961],
    [0.0, 0.0, 0.0, 1.0]
],
  "dcmmeta_reorient_transform": [
    [0.0, -1.0, 0.0, 103.0],
    [1.0, 0.0, 0.0, 0.0],
    [0.0, 0.0, 1.0, 0.0],
    [0.0, 0.0, 0.0, 1.0]
],
  "dcmmeta_shape": [104, 104, 60, 190],
  "dcmmeta_slice_dim": 2,
  "dcmmeta_version": 0.6,
  "global": {
    "const": {
      "AcquisitionMatrix": [104, 0, 0, 104],
      "AngioFlag": "N",
      "BitsAllocated": 16,
      "BitsStored": 16,
      "BodyPartExamined": "BRAIN",
      "Columns": 832,
      "EchoNumbers": 1,
      "EchoTime": 37.0,
      "EchoTrainLength": 104,
      "FlipAngle": 52.0,
      "HighBit": 15,
      "ImageOrientationPatient": [0.99959336595993, -0.0257674944612, 0.01221224623418, 0.02827036995068, 0.95150680275612, -0.3063259546491],
      "ImagePositionPatient": [-858.08357489476, -801.25167791138, 208.88477626913],
      "ImageType": [
        "ORIGINAL",
        "PRIMARY",
        "P",
        "MB",
        "ND",
        "MOSAIC"
],
      "ImagedNucleus": "1H",
      "ImagingFrequency": 123.258881,
      "InPlanePhaseEncodingDirection": "COL",
      "LargestImagePixelValue": 4095,
      "MRAcquisitionType": "2D",
      "MagneticFieldStrength": 3.0,
      "Manufacturer": "SIEMENS",
      "ManufacturerModelName": "Prisma_fit",
      "Modality": "MR",
      "NumberOfAverages": 1.0,
      "NumberOfPhaseEncodingSteps": 104,
      "PercentPhaseFieldOfView": 100.0,
      "PercentSampling": 100.0,
      "PerformedProcedureStepStartTime": "142519.344000",
      "PhotometricInterpretation": "MONOCHROME2",
      "PixelBandwidth": 2290.0,
      "PixelRepresentation": 0,
      "PixelSpacing": [2.0, 2.0],
      "ProtocolName": "func_task-things_run-5",
      "RepetitionTime": 1490.0,
      "RescaleIntercept": -4096.0,
      "RescaleSlope": 2.0,
      "RescaleType": "US",
      "Rows": 832,
      "SAR": 0.04513896580173,
      "SamplesPerPixel": 1,
      "ScanOptions": "FS",
      "ScanningSequence": "EP",
      "SequenceName": "epfid2d1_104",
      "SequenceVariant": [
        "SK",
        "SS"
],
      "SeriesDescription": "func_task-things_run-5",
      "SeriesNumber": 26,
      "SeriesTime": "155857.004000",
      "SliceLocation": -43.596487354114,
      "SliceThickness": 2.0,
      "SmallestImagePixelValue": 0,
      "SoftwareVersions": "syngo MR E11",
      "SpacingBetweenSlices": 1.999999983259,
      "SpecificCharacterSet": "ISO_IR 100",
      "StudyID": "1",
      "StudyTime": "142519.282000",
      "TransmitCoilName": "Body",
      "VariableFlipAngleFlag": "N",
      "WindowCenterWidthExplanation": "Algo1",
      "dBdt": 0.0},
    "slices": {}
  },
  "time": {
    "samples": {
      "AcquisitionNumber": [1, 2, 3, 4, 5, 6, 7, 8, 9, 10, 11, 12, 13, 14, 15, 16, 17, 18, 19, 20, 21, 22, 23, 24, 25, 26, 27, 28, 29, 30, 31, 32, 33, 34, 35, 36, 37, 38, 39, 40, 41, 42, 43, 44, 45, 46, 47, 48, 49, 50, 51, 52, 53, 54, 55, 56, 57, 58, 59, 60, 61, 62, 63, 64, 65, 66, 67, 68, 69, 70, 71, 72, 73, 74, 75, 76, 77, 78, 79, 80, 81, 82, 83, 84, 85, 86, 87, 88, 89, 90, 91, 92, 93, 94, 95, 96, 97, 98, 99, 100, 101, 102, 103, 104, 105, 106, 107, 108, 109, 110, 111, 112, 113, 114, 115, 116, 117, 118, 119, 120, 121, 122, 123, 124, 125, 126, 127, 128, 129, 130, 131, 132, 133, 134, 135, 136, 137, 138, 139, 140, 141, 142, 143, 144, 145, 146, 147, 148, 149, 150, 151, 152, 153, 154, 155, 156, 157, 158, 159, 160, 161, 162, 163, 164, 165, 166, 167, 168, 169, 170, 171, 172, 173, 174, 175, 176, 177, 178, 179, 180, 181, 182, 183, 184, 185, 186, 187, 188, 189, 190],
      "AcquisitionTime": ["155734.762500", "155736.252500", "155737.742500", "155739.232500", "155740.722500", "155742.212500", "155743.702500", "155745.192500", "155746.682500", "155748.172500", "155749.662500", "155751.152500", "155752.642500", "155754.132500", "155755.622500", "155757.112500", "155758.602500", "155800.092500", "155801.582500", "155803.072500", "155804.562500", "155806.052500", "155807.542500", "155809.032500", "155810.522500", "155812.012500", "155813.502500", "155814.992500", "155816.482500", "155817.972500", "155819.462500", "155820.952500", "155822.442500", "155823.932500", "155825.422500", "155826.912500", "155828.402500", "155829.892500", "155831.382500", "155832.872500", "155834.362500", "155835.852500", "155837.342500", "155838.832500", "155840.322500", "155841.812500", "155843.302500", "155844.792500", "155846.282500", "155847.772500", "155849.262500", "155850.752500", "155852.242500", "155853.732500", "155855.222500", "155856.712500", "155858.202500", "155859.692500", "155901.182500", "155902.672500", "155904.162500", "155905.652500", "155907.142500", "155908.632500", "155910.122500", "155911.612500", "155913.102500", "155914.592500", "155916.082500", "155917.572500", "155919.062500", "155920.552500", "155922.042500", "155923.532500", "155925.022500", "155926.512500", "155928.002500", "155929.492500", "155930.982500", "155932.472500", "155933.962500", "155935.452500", "155936.942500", "155938.432500", "155939.922500", "155941.412500", "155942.902500", "155944.392500", "155945.882500", "155947.372500", "155948.862500", "155950.352500", "155951.842500", "155953.332500", "155954.822500", "155956.312500", "155957.802500", "155959.292500", "160000.782500", "160002.272500", "160003.762500", "160005.252500", "160006.742500", "160008.232500", "160009.722500", "160011.212500", "160012.702500", "160014.192500", "160015.682500", "160017.172500", "160018.662500", "160020.152500", "160021.642500", "160023.132500", "160024.622500", "160026.112500", "160027.602500", "160029.092500", "160030.582500", "160032.072500", "160033.562500", "160035.052500", "160036.542500", "160038.032500", "160039.522500", "160041.012500", "160042.502500", "160043.992500", "160045.482500", "160046.972500", "160048.462500", "160049.952500", "160051.442500", "160052.932500", "160054.422500", "160055.912500", "160057.402500", "160058.892500", "160100.382500", "160101.872500", "160103.362500", "160104.852500", "160106.342500", "160107.832500", "160109.322500", "160110.812500", "160112.302500", "160113.792500", "160115.282500", "160116.772500", "160118.262500", "160119.752500", "160121.242500", "160122.732500", "160124.222500", "160125.712500", "160127.202500", "160128.692500", "160130.182500", "160131.672500", "160133.162500", "160134.652500", "160136.142500", "160137.632500", "160139.122500", "160140.612500", "160142.102500", "160143.592500", "160145.082500", "160146.572500", "160148.062500", "160149.552500", "160151.042500", "160152.532500", "160154.022500", "160155.512500", "160157.002500", "160158.492500", "160159.982500", "160201.472500", "160202.962500", "160204.452500", "160205.942500", "160207.432500", "160208.922500", "160210.412500", "160211.902500", "160213.392500", "160214.882500", "160216.372500"],
      "ContentTime": ["155857.006000", "155857.009000", "155857.011000", "155857.014000", "155857.016000", "155857.019000", "155857.021000", "155857.027000", "155857.029000", "155857.032000", "155857.034000", "155857.037000", "155857.039000", "155857.042000", "155857.044000", "155857.047000", "155857.049000", "155857.051000", "155857.054000", "155857.057000", "155857.059000", "155857.061000", "155857.064000", "155857.067000", "155857.069000", "155916.992000", "155916.995000", "155916.997000", "155917.001000", "155917.003000", "155917.006000", "155917.008000", "155917.011000", "155917.013000", "155917.016000", "155917.018000", "155917.021000", "155917.023000", "155917.026000", "155917.028000", "155917.031000", "155917.033000", "155917.036000", "155917.038000", "155917.041000", "155937.242000", "155937.245000", "155937.247000", "155937.249000", "155937.252000", "155937.255000", "155937.257000", "155937.262000", "155937.264000", "155937.267000", "155937.269000", "155937.272000", "155937.274000", "155937.277000", "155937.279000", "155937.282000", "155937.284000", "155937.287000", "155937.289000", "155937.292000", "155937.294000", "155956.956000", "155956.958000", "155956.961000", "155956.963000", "155956.966000", "155956.968000", "155956.971000", "155956.973000", "155956.976000", "155956.978000", "155956.981000", "155956.984000", "155956.986000", "155956.989000", "155956.991000", "155956.994000", "155956.996000", "155957.000000", "155957.002000", "155957.005000", "160016.967000", "160016.970000", "160016.973000", "160016.983000", "160016.986000", "160016.988000", "160016.991000", "160016.994000", "160016.996000", "160017.000000", "160017.002000", "160017.005000", "160017.008000", "160017.011000", "160017.019000", "160017.022000", "160017.025000", "160017.028000", "160017.031000", "160017.034000", "160056.986000", "160056.989000", "160056.992000", "160056.994000", "160056.997000", "160057.000000", "160057.003000", "160057.005000", "160057.008000", "160057.010000", "160057.013000", "160057.016000", "160057.018000", "160057.020000", "160057.023000", "160057.026000", "160057.028000", "160057.031000", "160057.033000", "160057.036000", "160057.038000", "160057.041000", "160057.043000", "160057.046000", "160057.048000", "160057.051000", "160057.053000", "160057.056000", "160057.058000", "160116.921000", "160116.924000", "160116.927000", "160116.929000", "160116.932000", "160116.934000", "160116.937000", "160116.939000", "160116.942000", "160116.944000", "160116.947000", "160116.949000", "160116.952000", "160156.986000", "160156.989000", "160156.991000", "160156.994000", "160156.997000", "160157.000000", "160157.003000", "160157.005000", "160157.008000", "160157.010000", "160157.013000", "160157.015000", "160157.018000", "160157.020000", "160157.023000", "160157.025000", "160157.028000", "160157.030000", "160157.033000", "160157.036000", "160157.038000", "160157.041000", "160157.043000", "160157.046000", "160157.048000", "160157.051000", "160157.053000", "160218.509000", "160218.512000", "160218.525000", "160218.527000", "160218.530000", "160218.532000", "160218.535000", "160218.538000", "160218.540000", "160218.543000", "160218.546000", "160218.548000", "160218.551000", "160218.553000", "160218.556000"],
      "InstanceCreationTime": ["155857.006000", "155857.009000", "155857.011000", "155857.014000", "155857.016000", "155857.019000", "155857.021000", "155857.027000", "155857.029000", "155857.032000", "155857.034000", "155857.037000", "155857.039000", "155857.042000", "155857.044000", "155857.047000", "155857.049000", "155857.051000", "155857.054000", "155857.057000", "155857.059000", "155857.061000", "155857.064000", "155857.067000", "155857.069000", "155916.992000", "155916.995000", "155916.997000", "155917.001000", "155917.003000", "155917.006000", "155917.008000", "155917.011000", "155917.013000", "155917.016000", "155917.018000", "155917.021000", "155917.023000", "155917.026000", "155917.028000", "155917.031000", "155917.033000", "155917.036000", "155917.038000", "155917.041000", "155937.242000", "155937.245000", "155937.247000", "155937.249000", "155937.252000", "155937.255000", "155937.257000", "155937.262000", "155937.264000", "155937.267000", "155937.269000", "155937.272000", "155937.274000", "155937.277000", "155937.279000", "155937.282000", "155937.284000", "155937.287000", "155937.289000", "155937.292000", "155937.294000", "155956.956000", "155956.958000", "155956.961000", "155956.963000", "155956.966000", "155956.968000", "155956.971000", "155956.973000", "155956.976000", "155956.978000", "155956.981000", "155956.984000", "155956.986000", "155956.989000", "155956.991000", "155956.994000", "155956.996000", "155957.000000", "155957.002000", "155957.005000", "160016.967000", "160016.970000", "160016.973000", "160016.983000", "160016.986000", "160016.988000", "160016.991000", "160016.994000", "160016.996000", "160017.000000", "160017.002000", "160017.005000", "160017.008000", "160017.011000", "160017.019000", "160017.022000", "160017.025000", "160017.028000", "160017.031000", "160017.034000", "160056.986000", "160056.989000", "160056.992000", "160056.994000", "160056.997000", "160057.000000", "160057.003000", "160057.005000", "160057.008000", "160057.010000", "160057.013000", "160057.016000", "160057.018000", "160057.020000", "160057.023000", "160057.026000", "160057.028000", "160057.031000", "160057.033000", "160057.036000", "160057.038000", "160057.041000", "160057.043000", "160057.046000", "160057.048000", "160057.051000", "160057.053000", "160057.056000", "160057.058000", "160116.921000", "160116.924000", "160116.927000", "160116.929000", "160116.932000", "160116.934000", "160116.937000", "160116.939000", "160116.942000", "160116.944000", "160116.947000", "160116.949000", "160116.952000", "160156.986000", "160156.989000", "160156.991000", "160156.994000", "160156.997000", "160157.000000", "160157.003000", "160157.005000", "160157.008000", "160157.010000", "160157.013000", "160157.015000", "160157.018000", "160157.020000", "160157.023000", "160157.025000", "160157.028000", "160157.030000", "160157.033000", "160157.036000", "160157.038000", "160157.041000", "160157.043000", "160157.046000", "160157.048000", "160157.051000", "160157.053000", "160218.509000", "160218.512000", "160218.525000", "160218.527000", "160218.530000", "160218.532000", "160218.535000", "160218.538000", "160218.540000", "160218.543000", "160218.546000", "160218.548000", "160218.551000", "160218.553000", "160218.556000"],
      "InstanceNumber": [1, 2, 3, 4, 5, 6, 7, 8, 9, 10, 11, 12, 13, 14, 15, 16, 17, 18, 19, 20, 21, 22, 23, 24, 25, 26, 27, 28, 29, 30, 31, 32, 33, 34, 35, 36, 37, 38, 39, 40, 41, 42, 43, 44, 45, 46, 47, 48, 49, 50, 51, 52, 53, 54, 55, 56, 57, 58, 59, 60, 61, 62, 63, 64, 65, 66, 67, 68, 69, 70, 71, 72, 73, 74, 75, 76, 77, 78, 79, 80, 81, 82, 83, 84, 85, 86, 87, 88, 89, 90, 91, 92, 93, 94, 95, 96, 97, 98, 99, 100, 101, 102, 103, 104, 105, 106, 107, 108, 109, 110, 111, 112, 113, 114, 115, 116, 117, 118, 119, 120, 121, 122, 123, 124, 125, 126, 127, 128, 129, 130, 131, 132, 133, 134, 135, 136, 137, 138, 139, 140, 141, 142, 143, 144, 145, 146, 147, 148, 149, 150, 151, 152, 153, 154, 155, 156, 157, 158, 159, 160, 161, 162, 163, 164, 165, 166, 167, 168, 169, 170, 171, 172, 173, 174, 175, 176, 177, 178, 179, 180, 181, 182, 183, 184, 185, 186, 187, 188, 189, 190],
      "WindowCenter": [4776.0, 4802.0, 4836.0, 4810.0, 4804.0, 4814.0, 4824.0, 4812.0, 4776.0, 4806.0, 4838.0, 4774.0, 4812.0, 4840.0, 4818.0, 4814.0, 4784.0, 4776.0, 4774.0, 4832.0, 4870.0, 4864.0, 4804.0, 4804.0, 4810.0, 4812.0, 4810.0, 4812.0, 4806.0, 4804.0, 4804.0, 4832.0, 4772.0, 4800.0, 4800.0, 4802.0, 4800.0, 4806.0, 4806.0, 4804.0, 4816.0, 4798.0, 4800.0, 4776.0, 4772.0, 4802.0, 4802.0, 4802.0, 4798.0, 4800.0, 4814.0, 4822.0, 4816.0, 4798.0, 4804.0, 4836.0, 4834.0, 4806.0, 4800.0, 4804.0, 4810.0, 4822.0, 4816.0, 4802.0, 4806.0, 4846.0, 4872.0, 4802.0, 4800.0, 4776.0, 4806.0, 4808.0, 4810.0, 4808.0, 4810.0, 4776.0, 4810.0, 4848.0, 4840.0, 4778.0, 4782.0, 4812.0, 4806.0, 4810.0, 4812.0, 4806.0, 4802.0, 4798.0, 4796.0, 4776.0, 4778.0, 4774.0, 4778.0, 4804.0, 4808.0, 4802.0, 4804.0, 4804.0, 4800.0, 4778.0, 4802.0, 4800.0, 4774.0, 4806.0, 4778.0, 4802.0, 4804.0, 4802.0, 4798.0, 4804.0, 4778.0, 4800.0, 4802.0, 4780.0, 4778.0, 4778.0, 4778.0, 4804.0, 4806.0, 4776.0, 4798.0, 4780.0, 4776.0, 4778.0, 4780.0, 4778.0, 4800.0, 4800.0, 4778.0, 4780.0, 4778.0, 4814.0, 4820.0, 4780.0, 4804.0, 4808.0, 4804.0, 4792.0, 4776.0, 4800.0, 4814.0, 4816.0, 4808.0, 4800.0, 4802.0, 4796.0, 4802.0, 4796.0, 4774.0, 4800.0, 4804.0, 4804.0, 4814.0, 4804.0, 4798.0, 4800.0, 4800.0, 4802.0, 4776.0, 4776.0, 4808.0, 4806.0, 4802.0, 4778.0, 4778.0, 4778.0, 4778.0, 4806.0, 4776.0, 4800.0, 4798.0, 4774.0, 4774.0, 4812.0, 4824.0, 4810.0, 4800.0, 4804.0, 4804.0, 4808.0, 4778.0, 4778.0, 4812.0, 4812.0, 4808.0, 4806.0, 4804.0, 4780.0, 4778.0, 4802.0],
      "WindowWidth": [18564.0, 18590.0, 18634.0, 18596.0, 18594.0, 18614.0, 18616.0, 18612.0, 18558.0, 18596.0, 18640.0, 18558.0, 18618.0, 18660.0, 18624.0, 18620.0, 18578.0, 18568.0, 18554.0, 18642.0, 18678.0, 18680.0, 18596.0, 18596.0, 18612.0, 18618.0, 18616.0, 18614.0, 18602.0, 18594.0, 18588.0, 18628.0, 18552.0, 18586.0, 18586.0, 18586.0, 18606.0, 18614.0, 18612.0, 18608.0, 18626.0, 18600.0, 18586.0, 18566.0, 18558.0, 18592.0, 18592.0, 18592.0, 18594.0, 18600.0, 18620.0, 18630.0, 18620.0, 18596.0, 18588.0, 18628.0, 18632.0, 18596.0, 18588.0, 18592.0, 18608.0, 18624.0, 18620.0, 18590.0, 18594.0, 18650.0, 18686.0, 18590.0, 18592.0, 18562.0, 18600.0, 18604.0, 18610.0, 18606.0, 18612.0, 18558.0, 18598.0, 18646.0, 18640.0, 18554.0, 18574.0, 18616.0, 18612.0, 18618.0, 18620.0, 18614.0, 18594.0, 18590.0, 18588.0, 18566.0, 18562.0, 18560.0, 18564.0, 18602.0, 18616.0, 18598.0, 18598.0, 18602.0, 18594.0, 18556.0, 18592.0, 18588.0, 18556.0, 18610.0, 18570.0, 18598.0, 18598.0, 18604.0, 18590.0, 18592.0, 18562.0, 18588.0, 18590.0, 18562.0, 18562.0, 18564.0, 18562.0, 18598.0, 18604.0, 18562.0, 18592.0, 18568.0, 18562.0, 18562.0, 18564.0, 18560.0, 18588.0, 18584.0, 18558.0, 18562.0, 18566.0, 18612.0, 18624.0, 18562.0, 18588.0, 18600.0, 18596.0, 18584.0, 18566.0, 18602.0, 18622.0, 18628.0, 18614.0, 18598.0, 18600.0, 18590.0, 18594.0, 18586.0, 18564.0, 18596.0, 18602.0, 18608.0, 18622.0, 18606.0, 18596.0, 18590.0, 18588.0, 18594.0, 18558.0, 18560.0, 18612.0, 18602.0, 18596.0, 18564.0, 18562.0, 18560.0, 18560.0, 18608.0, 18566.0, 18590.0, 18592.0, 18560.0, 18558.0, 18614.0, 18626.0, 18612.0, 18590.0, 18594.0, 18596.0, 18596.0, 18560.0, 18558.0, 18616.0, 18618.0, 18610.0, 18602.0, 18598.0, 18570.0, 18562.0, 18594.0]
    },
    "slices": {}
  }
}