{
  "AcquisitionMatrixPE": 104,
  "AcquisitionNumber": 1,
  "AcquisitionTime": "15:26:41.292500",
  "BandwidthPerPixelPhaseEncode": 17.17,
  "BaseResolution": 104,
  "BodyPartExamined": "BRAIN",
  "CoilCombinationMethod": "Sum of Squares",
  "ConsistencyInfo": "N4_VE11C_LATEST_20160120",
  "ConversionSoftware": "dcm2niix",
  "ConversionSoftwareVersion": "v1.0.20211006",
  "DerivedVendorReportedEchoSpacing": 0.000560011,
  "DeviceSerialNumber": "167006",
  "DwellTime": 2.1e-06,
  "EchoTime": 0.037,
  "EchoTime1": 0.037,
  "EchoTime2": 0.001,
  "EchoTrainLength": 104,
  "EffectiveEchoSpacing": 0.000560011,
  "FlipAngle": 52,
  "HeudiconvVersion": "0.10.0",
  "ImageComments": "Unaliased MB4/PE3/LB",
  "ImageOrientationPatientDICOM": [0.999593, -0.0257675, 0.0122122, 0.0282704, 0.951507, -0.306326],
  "ImageOrientationText": "Tra>Cor(-17.9)>Sag(0.2)",
  "ImageType": [
    "ORIGINAL",
    "PRIMARY",
    "P",
    "MB",
    "ND",
    "MOSAIC",
    "PHASE"
],
  "ImagingFrequency": 123.259,
  "InPlanePhaseEncodingDirectionDICOM": "COL",
  "InstitutionAddress": "Chemin Queen-Mary 4565,Montreal,District,CA,H3W 1W5",
  "InstitutionName": "IUGM",
  "InstitutionalDepartmentName": "Department",
  "MRAcquisitionType": "2D",
  "MagneticFieldStrength": 3,
  "Manufacturer": "Siemens",
  "ManufacturersModelName": "Prisma_fit",
  "MatrixCoilMode": "SENSE",
  "Modality": "MR",
  "MultibandAccelerationFactor": 4,
  "PartialFourier": 1,
  "PatientPosition": "HFS",
  "PercentPhaseFOV": 100,
  "PercentSampling": 100,
  "PhaseEncodingDirection": "j",
  "PhaseEncodingSteps": 104,
  "PhaseResolution": 1,
  "PixelBandwidth": 2290,
  "ProcedureStepDescription": "memory^things",
  "ProtocolName": "func_task-things_run-1",
  "PulseSequenceDetails": "%CustomerSeq%\\cmrr_mbep2d_bold",
  "ReceiveCoilActiveElements": "HC1-7;NC1,2",
  "ReceiveCoilName": "HeadNeck_64",
  "ReconMatrixPE": 104,
  "RepetitionTime": 1.49,
  "SAR": 0.045139,
  "ScanOptions": "FS",
  "ScanningSequence": "EP",
  "SequenceName": "epfid2d1_104",
  "SequenceVariant": "SK\\SS",
  "SeriesDescription": "func_task-things_run-1",
  "SeriesNumber": 11,
  "ShimSetting": [626, -7247, -8836, 600, -9, -210, -41, -35],
  "SliceThickness": 2,
  "SliceTiming": [0, 0.785, 0.0975, 0.8825, 0.195, 0.98, 0.295, 1.0775, 0.3925, 1.175, 0.49, 1.275, 0.5875, 1.3725, 0.685, 0, 0.785, 0.0975, 0.8825, 0.195, 0.98, 0.295, 1.0775, 0.3925, 1.175, 0.49, 1.275, 0.5875, 1.3725, 0.685, 0, 0.785, 0.0975, 0.8825, 0.195, 0.98, 0.295, 1.0775, 0.3925, 1.175, 0.49, 1.275, 0.5875, 1.3725, 0.685, 0, 0.785, 0.0975, 0.8825, 0.195, 0.98, 0.295, 1.0775, 0.3925, 1.175, 0.49, 1.275, 0.5875, 1.3725, 0.685],
  "SoftwareVersions": "syngo MR E11",
  "SpacingBetweenSlices": 2,
  "StationName": "MRC35049",
  "TaskName": "things",
  "TotalReadoutTime": 0.0576811,
  "TxRefAmp": 245.362,
  "WipMemBlock": "1221d705-a862-46bc-8301-ca38a00af5ee||Sequence: R016 ve11c/master r/e634e98; Dec 19 2017 11:00:25 by eja",
  "dcmmeta_affine": [
    [-1.9991867542266846, 0.05654073879122734, 0.007453565951436758, 103.97508239746094],
    [0.0515349879860878, 1.9030135869979858, -0.6130932569503784, -68.69693756103516],
    [0.024424493312835693, 0.6126518845558167, 1.9036966562271118, -68.3331527709961],
    [0.0, 0.0, 0.0, 1.0]
],
  "dcmmeta_reorient_transform": [
    [0.0, -1.0, 0.0, 103.0],
    [1.0, 0.0, 0.0, 0.0],
    [0.0, 0.0, 1.0, 0.0],
    [0.0, 0.0, 0.0, 1.0]
],
  "dcmmeta_shape": [104, 104, 60, 190],
  "dcmmeta_slice_dim": 2,
  "dcmmeta_version": 0.6,
  "global": {
    "const": {
      "AcquisitionMatrix": [104, 0, 0, 104],
      "AngioFlag": "N",
      "BitsAllocated": 16,
      "BitsStored": 16,
      "BodyPartExamined": "BRAIN",
      "Columns": 832,
      "EchoNumbers": 1,
      "EchoTime": 37.0,
      "EchoTrainLength": 104,
      "FlipAngle": 52.0,
      "HighBit": 15,
      "ImageOrientationPatient": [0.99959336595993, -0.0257674944612, 0.01221224623418, 0.02827036995068, 0.95150680275612, -0.3063259546491],
      "ImagePositionPatient": [-858.08357489476, -801.25167791138, 208.88477626913],
      "ImageType": [
        "ORIGINAL",
        "PRIMARY",
        "P",
        "MB",
        "ND",
        "MOSAIC"
],
      "ImagedNucleus": "1H",
      "ImagingFrequency": 123.25887,
      "InPlanePhaseEncodingDirection": "COL",
      "LargestImagePixelValue": 4095,
      "MRAcquisitionType": "2D",
      "MagneticFieldStrength": 3.0,
      "Manufacturer": "SIEMENS",
      "ManufacturerModelName": "Prisma_fit",
      "Modality": "MR",
      "NumberOfAverages": 1.0,
      "NumberOfPhaseEncodingSteps": 104,
      "PercentPhaseFieldOfView": 100.0,
      "PercentSampling": 100.0,
      "PerformedProcedureStepStartTime": "142519.344000",
      "PhotometricInterpretation": "MONOCHROME2",
      "PixelBandwidth": 2290.0,
      "PixelRepresentation": 0,
      "PixelSpacing": [2.0, 2.0],
      "ProtocolName": "func_task-things_run-1",
      "RepetitionTime": 1490.0,
      "RescaleIntercept": -4096.0,
      "RescaleSlope": 2.0,
      "RescaleType": "US",
      "Rows": 832,
      "SAR": 0.04513896580173,
      "SamplesPerPixel": 1,
      "ScanOptions": "FS",
      "ScanningSequence": "EP",
      "SequenceName": "epfid2d1_104",
      "SequenceVariant": [
        "SK",
        "SS"
],
      "SeriesDescription": "func_task-things_run-1",
      "SeriesNumber": 11,
      "SeriesTime": "152803.092000",
      "SliceLocation": -43.596487354114,
      "SliceThickness": 2.0,
      "SmallestImagePixelValue": 0,
      "SoftwareVersions": "syngo MR E11",
      "SpacingBetweenSlices": 1.999999983259,
      "SpecificCharacterSet": "ISO_IR 100",
      "StudyID": "1",
      "StudyTime": "142519.282000",
      "TransmitCoilName": "Body",
      "VariableFlipAngleFlag": "N",
      "WindowCenterWidthExplanation": "Algo1",
      "dBdt": 0.0},
    "slices": {}
  },
  "time": {
    "samples": {
      "AcquisitionNumber": [1, 2, 3, 4, 5, 6, 7, 8, 9, 10, 11, 12, 13, 14, 15, 16, 17, 18, 19, 20, 21, 22, 23, 24, 25, 26, 27, 28, 29, 30, 31, 32, 33, 34, 35, 36, 37, 38, 39, 40, 41, 42, 43, 44, 45, 46, 47, 48, 49, 50, 51, 52, 53, 54, 55, 56, 57, 58, 59, 60, 61, 62, 63, 64, 65, 66, 67, 68, 69, 70, 71, 72, 73, 74, 75, 76, 77, 78, 79, 80, 81, 82, 83, 84, 85, 86, 87, 88, 89, 90, 91, 92, 93, 94, 95, 96, 97, 98, 99, 100, 101, 102, 103, 104, 105, 106, 107, 108, 109, 110, 111, 112, 113, 114, 115, 116, 117, 118, 119, 120, 121, 122, 123, 124, 125, 126, 127, 128, 129, 130, 131, 132, 133, 134, 135, 136, 137, 138, 139, 140, 141, 142, 143, 144, 145, 146, 147, 148, 149, 150, 151, 152, 153, 154, 155, 156, 157, 158, 159, 160, 161, 162, 163, 164, 165, 166, 167, 168, 169, 170, 171, 172, 173, 174, 175, 176, 177, 178, 179, 180, 181, 182, 183, 184, 185, 186, 187, 188, 189, 190],
      "AcquisitionTime": ["152641.292500", "152642.782500", "152644.272500", "152645.762500", "152647.252500", "152648.742500", "152650.232500", "152651.722500", "152653.212500", "152654.702500", "152656.192500", "152657.682500", "152659.172500", "152700.662500", "152702.152500", "152703.642500", "152705.132500", "152706.622500", "152708.112500", "152709.602500", "152711.092500", "152712.582500", "152714.072500", "152715.562500", "152717.052500", "152718.542500", "152720.032500", "152721.522500", "152723.012500", "152724.502500", "152725.992500", "152727.482500", "152728.972500", "152730.462500", "152731.952500", "152733.442500", "152734.932500", "152736.422500", "152737.912500", "152739.402500", "152740.892500", "152742.382500", "152743.872500", "152745.362500", "152746.852500", "152748.342500", "152749.832500", "152751.322500", "152752.812500", "152754.302500", "152755.792500", "152757.282500", "152758.772500", "152800.262500", "152801.752500", "152803.242500", "152804.732500", "152806.222500", "152807.712500", "152809.202500", "152810.692500", "152812.182500", "152813.672500", "152815.162500", "152816.652500", "152818.142500", "152819.632500", "152821.122500", "152822.612500", "152824.102500", "152825.592500", "152827.082500", "152828.572500", "152830.062500", "152831.552500", "152833.042500", "152834.532500", "152836.022500", "152837.512500", "152839.002500", "152840.492500", "152841.982500", "152843.472500", "152844.962500", "152846.452500", "152847.942500", "152849.432500", "152850.922500", "152852.412500", "152853.902500", "152855.392500", "152856.882500", "152858.372500", "152859.862500", "152901.352500", "152902.842500", "152904.332500", "152905.822500", "152907.312500", "152908.802500", "152910.292500", "152911.782500", "152913.272500", "152914.762500", "152916.252500", "152917.742500", "152919.232500", "152920.722500", "152922.212500", "152923.702500", "152925.192500", "152926.682500", "152928.172500", "152929.662500", "152931.152500", "152932.642500", "152934.132500", "152935.622500", "152937.112500", "152938.602500", "152940.092500", "152941.582500", "152943.072500", "152944.562500", "152946.052500", "152947.542500", "152949.032500", "152950.522500", "152952.012500", "152953.502500", "152954.992500", "152956.482500", "152957.972500", "152959.462500", "153000.952500", "153002.442500", "153003.932500", "153005.422500", "153006.912500", "153008.402500", "153009.892500", "153011.382500", "153012.872500", "153014.362500", "153015.852500", "153017.342500", "153018.832500", "153020.322500", "153021.812500", "153023.302500", "153024.792500", "153026.282500", "153027.772500", "153029.262500", "153030.752500", "153032.242500", "153033.732500", "153035.222500", "153036.712500", "153038.202500", "153039.692500", "153041.182500", "153042.672500", "153044.162500", "153045.652500", "153047.142500", "153048.632500", "153050.122500", "153051.612500", "153053.102500", "153054.592500", "153056.082500", "153057.572500", "153059.062500", "153100.552500", "153102.042500", "153103.532500", "153105.022500", "153106.512500", "153108.002500", "153109.492500", "153110.982500", "153112.472500", "153113.962500", "153115.452500", "153116.942500", "153118.432500", "153119.922500", "153121.412500", "153122.902500"],
      "ContentTime": ["152803.094000", "152803.097000", "152803.100000", "152803.102000", "152803.104000", "152803.107000", "152803.109000", "152803.112000", "152803.114000", "152803.117000", "152803.120000", "152803.122000", "152803.124000", "152803.127000", "152803.130000", "152803.132000", "152803.134000", "152803.137000", "152803.139000", "152803.142000", "152803.144000", "152803.147000", "152803.150000", "152803.152000", "152803.154000", "152803.157000", "152803.160000", "152803.162000", "152803.165000", "152823.028000", "152823.031000", "152823.033000", "152823.036000", "152823.039000", "152823.041000", "152823.044000", "152823.046000", "152823.049000", "152823.051000", "152823.054000", "152823.056000", "152823.059000", "152823.061000", "152823.064000", "152823.067000", "152823.070000", "152823.073000", "152823.075000", "152823.078000", "152843.073000", "152843.076000", "152843.078000", "152843.081000", "152843.083000", "152843.086000", "152843.088000", "152843.091000", "152843.093000", "152843.096000", "152843.098000", "152843.101000", "152843.103000", "152843.106000", "152843.108000", "152843.111000", "152843.113000", "152843.116000", "152843.132000", "152843.134000", "152843.137000", "152903.026000", "152903.029000", "152903.032000", "152903.034000", "152903.044000", "152903.046000", "152903.049000", "152903.051000", "152903.054000", "152903.056000", "152903.059000", "152903.061000", "152903.064000", "152903.066000", "152903.069000", "152903.071000", "152903.074000", "152903.076000", "152903.079000", "152903.081000", "152943.070000", "152943.073000", "152943.075000", "152943.078000", "152943.080000", "152943.083000", "152943.085000", "152943.088000", "152943.090000", "152943.093000", "152943.095000", "152943.098000", "152943.100000", "152943.103000", "152943.105000", "152943.108000", "152943.110000", "152943.113000", "152943.116000", "152943.118000", "152943.120000", "152943.123000", "152943.126000", "152943.128000", "152943.130000", "152943.133000", "152943.136000", "152943.138000", "152943.140000", "152943.143000", "152943.146000", "153023.060000", "153023.063000", "153023.065000", "153023.068000", "153023.070000", "153023.073000", "153023.075000", "153023.078000", "153023.080000", "153023.083000", "153023.085000", "153023.088000", "153023.090000", "153023.093000", "153023.095000", "153023.098000", "153023.100000", "153023.103000", "153023.105000", "153023.108000", "153023.110000", "153023.113000", "153023.115000", "153023.118000", "153023.120000", "153023.123000", "153023.125000", "153103.067000", "153103.070000", "153103.073000", "153103.075000", "153103.078000", "153103.080000", "153103.083000", "153103.085000", "153103.088000", "153103.090000", "153103.093000", "153103.095000", "153103.098000", "153103.100000", "153103.103000", "153103.105000", "153103.108000", "153103.110000", "153103.113000", "153103.115000", "153103.118000", "153103.120000", "153103.123000", "153103.126000", "153103.128000", "153103.131000", "153103.133000", "153124.949000", "153124.952000", "153124.955000", "153124.957000", "153124.964000", "153124.967000", "153124.970000", "153124.972000", "153124.975000", "153124.977000", "153124.980000", "153124.982000", "153124.985000", "153124.988000", "153124.990000"],
      "InstanceCreationTime": ["152803.094000", "152803.097000", "152803.100000", "152803.102000", "152803.104000", "152803.107000", "152803.109000", "152803.112000", "152803.114000", "152803.117000", "152803.120000", "152803.122000", "152803.124000", "152803.127000", "152803.130000", "152803.132000", "152803.134000", "152803.137000", "152803.139000", "152803.142000", "152803.144000", "152803.147000", "152803.150000", "152803.152000", "152803.154000", "152803.157000", "152803.160000", "152803.162000", "152803.165000", "152823.028000", "152823.031000", "152823.033000", "152823.036000", "152823.039000", "152823.041000", "152823.044000", "152823.046000", "152823.049000", "152823.051000", "152823.054000", "152823.056000", "152823.059000", "152823.061000", "152823.064000", "152823.067000", "152823.070000", "152823.073000", "152823.075000", "152823.078000", "152843.073000", "152843.076000", "152843.078000", "152843.081000", "152843.083000", "152843.086000", "152843.088000", "152843.091000", "152843.093000", "152843.096000", "152843.098000", "152843.101000", "152843.103000", "152843.106000", "152843.108000", "152843.111000", "152843.113000", "152843.116000", "152843.132000", "152843.134000", "152843.137000", "152903.026000", "152903.029000", "152903.032000", "152903.034000", "152903.044000", "152903.046000", "152903.049000", "152903.051000", "152903.054000", "152903.056000", "152903.059000", "152903.061000", "152903.064000", "152903.066000", "152903.069000", "152903.071000", "152903.074000", "152903.076000", "152903.079000", "152903.081000", "152943.070000", "152943.073000", "152943.075000", "152943.078000", "152943.080000", "152943.083000", "152943.085000", "152943.088000", "152943.090000", "152943.093000", "152943.095000", "152943.098000", "152943.100000", "152943.103000", "152943.105000", "152943.108000", "152943.110000", "152943.113000", "152943.116000", "152943.118000", "152943.120000", "152943.123000", "152943.126000", "152943.128000", "152943.130000", "152943.133000", "152943.136000", "152943.138000", "152943.140000", "152943.143000", "152943.146000", "153023.060000", "153023.063000", "153023.065000", "153023.068000", "153023.070000", "153023.073000", "153023.075000", "153023.078000", "153023.080000", "153023.083000", "153023.085000", "153023.088000", "153023.090000", "153023.093000", "153023.095000", "153023.098000", "153023.100000", "153023.103000", "153023.105000", "153023.108000", "153023.110000", "153023.113000", "153023.115000", "153023.118000", "153023.120000", "153023.123000", "153023.125000", "153103.067000", "153103.070000", "153103.073000", "153103.075000", "153103.078000", "153103.080000", "153103.083000", "153103.085000", "153103.088000", "153103.090000", "153103.093000", "153103.095000", "153103.098000", "153103.100000", "153103.103000", "153103.105000", "153103.108000", "153103.110000", "153103.113000", "153103.115000", "153103.118000", "153103.120000", "153103.123000", "153103.126000", "153103.128000", "153103.131000", "153103.133000", "153124.949000", "153124.952000", "153124.955000", "153124.957000", "153124.964000", "153124.967000", "153124.970000", "153124.972000", "153124.975000", "153124.977000", "153124.980000", "153124.982000", "153124.985000", "153124.988000", "153124.990000"],
      "InstanceNumber": [1, 2, 3, 4, 5, 6, 7, 8, 9, 10, 11, 12, 13, 14, 15, 16, 17, 18, 19, 20, 21, 22, 23, 24, 25, 26, 27, 28, 29, 30, 31, 32, 33, 34, 35, 36, 37, 38, 39, 40, 41, 42, 43, 44, 45, 46, 47, 48, 49, 50, 51, 52, 53, 54, 55, 56, 57, 58, 59, 60, 61, 62, 63, 64, 65, 66, 67, 68, 69, 70, 71, 72, 73, 74, 75, 76, 77, 78, 79, 80, 81, 82, 83, 84, 85, 86, 87, 88, 89, 90, 91, 92, 93, 94, 95, 96, 97, 98, 99, 100, 101, 102, 103, 104, 105, 106, 107, 108, 109, 110, 111, 112, 113, 114, 115, 116, 117, 118, 119, 120, 121, 122, 123, 124, 125, 126, 127, 128, 129, 130, 131, 132, 133, 134, 135, 136, 137, 138, 139, 140, 141, 142, 143, 144, 145, 146, 147, 148, 149, 150, 151, 152, 153, 154, 155, 156, 157, 158, 159, 160, 161, 162, 163, 164, 165, 166, 167, 168, 169, 170, 171, 172, 173, 174, 175, 176, 177, 178, 179, 180, 181, 182, 183, 184, 185, 186, 187, 188, 189, 190],
      "WindowCenter": [4804.0, 4804.0, 4836.0, 4832.0, 4800.0, 4802.0, 4832.0, 4798.0, 4804.0, 4830.0, 4800.0, 4830.0, 4804.0, 4796.0, 4804.0, 4834.0, 4832.0, 4804.0, 4836.0, 4832.0, 4800.0, 4806.0, 4802.0, 4798.0, 4802.0, 4834.0, 4800.0, 4778.0, 4800.0, 4842.0, 4874.0, 4868.0, 4842.0, 4808.0, 4802.0, 4800.0, 4802.0, 4780.0, 4782.0, 4802.0, 4870.0, 4876.0, 4866.0, 4796.0, 4802.0, 4804.0, 4772.0, 4776.0, 4772.0, 4774.0, 4802.0, 4830.0, 4836.0, 4800.0, 4800.0, 4804.0, 4802.0, 4800.0, 4798.0, 4808.0, 4804.0, 4772.0, 4808.0, 4796.0, 4774.0, 4798.0, 4806.0, 4806.0, 4778.0, 4804.0, 4800.0, 4842.0, 4846.0, 4844.0, 4832.0, 4806.0, 4802.0, 4808.0, 4822.0, 4812.0, 4802.0, 4880.0, 4880.0, 4902.0, 4844.0, 4806.0, 4776.0, 4804.0, 4784.0, 4810.0, 4810.0, 4800.0, 4844.0, 4876.0, 4878.0, 4872.0, 4808.0, 4782.0, 4808.0, 4784.0, 4800.0, 4798.0, 4802.0, 4842.0, 4844.0, 4838.0, 4778.0, 4780.0, 4772.0, 4798.0, 4776.0, 4798.0, 4830.0, 4806.0, 4776.0, 4784.0, 4798.0, 4838.0, 4840.0, 4838.0, 4808.0, 4800.0, 4800.0, 4802.0, 4800.0, 4786.0, 4802.0, 4804.0, 4834.0, 4832.0, 4806.0, 4810.0, 4776.0, 4784.0, 4780.0, 4798.0, 4800.0, 4776.0, 4804.0, 4832.0, 4804.0, 4784.0, 4784.0, 4776.0, 4832.0, 4836.0, 4832.0, 4808.0, 4806.0, 4778.0, 4776.0, 4798.0, 4780.0, 4782.0, 4800.0, 4800.0, 4774.0, 4778.0, 4800.0, 4846.0, 4868.0, 4836.0, 4802.0, 4800.0, 4798.0, 4804.0, 4812.0, 4806.0, 4774.0, 4808.0, 4840.0, 4804.0, 4776.0, 4798.0, 4804.0, 4804.0, 4804.0, 4776.0, 4806.0, 4782.0, 4802.0, 4804.0, 4832.0, 4832.0, 4808.0, 4800.0, 4782.0, 4784.0, 4778.0, 4800.0],
      "WindowWidth": [18602.0, 18600.0, 18642.0, 18640.0, 18596.0, 18598.0, 18634.0, 18594.0, 18596.0, 18634.0, 18592.0, 18638.0, 18596.0, 18594.0, 18598.0, 18636.0, 18634.0, 18598.0, 18636.0, 18636.0, 18594.0, 18600.0, 18594.0, 18588.0, 18592.0, 18636.0, 18594.0, 18572.0, 18598.0, 18646.0, 18684.0, 18680.0, 18642.0, 18598.0, 18596.0, 18588.0, 18594.0, 18576.0, 18580.0, 18596.0, 18684.0, 18684.0, 18684.0, 18592.0, 18596.0, 18592.0, 18564.0, 18562.0, 18562.0, 18564.0, 18598.0, 18628.0, 18638.0, 18596.0, 18592.0, 18600.0, 18592.0, 18600.0, 18596.0, 18604.0, 18604.0, 18558.0, 18600.0, 18592.0, 18566.0, 18592.0, 18598.0, 18600.0, 18566.0, 18606.0, 18594.0, 18648.0, 18650.0, 18648.0, 18642.0, 18600.0, 18592.0, 18606.0, 18612.0, 18608.0, 18594.0, 18692.0, 18686.0, 18722.0, 18646.0, 18596.0, 18554.0, 18604.0, 18572.0, 18610.0, 18612.0, 18594.0, 18650.0, 18682.0, 18688.0, 18680.0, 18606.0, 18574.0, 18610.0, 18568.0, 18592.0, 18590.0, 18592.0, 18644.0, 18646.0, 18642.0, 18562.0, 18572.0, 18554.0, 18592.0, 18562.0, 18590.0, 18632.0, 18600.0, 18560.0, 18570.0, 18594.0, 18638.0, 18642.0, 18642.0, 18598.0, 18590.0, 18590.0, 18594.0, 18594.0, 18574.0, 18592.0, 18592.0, 18638.0, 18632.0, 18596.0, 18604.0, 18562.0, 18576.0, 18566.0, 18592.0, 18592.0, 18562.0, 18594.0, 18632.0, 18594.0, 18578.0, 18574.0, 18556.0, 18628.0, 18636.0, 18630.0, 18596.0, 18594.0, 18558.0, 18556.0, 18590.0, 18568.0, 18572.0, 18592.0, 18594.0, 18562.0, 18568.0, 18588.0, 18648.0, 18678.0, 18634.0, 18590.0, 18590.0, 18596.0, 18594.0, 18602.0, 18606.0, 18558.0, 18600.0, 18642.0, 18596.0, 18556.0, 18586.0, 18596.0, 18594.0, 18594.0, 18558.0, 18602.0, 18570.0, 18594.0, 18594.0, 18630.0, 18632.0, 18604.0, 18590.0, 18566.0, 18578.0, 18562.0, 18586.0]
    },
    "slices": {}
  }
}