{
  "AcquisitionMatrixPE": 104,
  "AcquisitionNumber": 1,
  "AcquisitionTime": "15:57:34.762500",
  "BandwidthPerPixelPhaseEncode": 17.17,
  "BaseResolution": 104,
  "BodyPartExamined": "BRAIN",
  "CoilCombinationMethod": "Sum of Squares",
  "ConsistencyInfo": "N4_VE11C_LATEST_20160120",
  "ConversionSoftware": "dcm2niix",
  "ConversionSoftwareVersion": "v1.0.20211006",
  "DerivedVendorReportedEchoSpacing": 0.000560011,
  "DeviceSerialNumber": "167006",
  "DwellTime": 2.1e-06,
  "EchoTime": 0.037,
  "EchoTrainLength": 104,
  "EffectiveEchoSpacing": 0.000560011,
  "FlipAngle": 52,
  "HeudiconvVersion": "0.10.0",
  "ImageComments": "Unaliased MB4/PE3/LB",
  "ImageOrientationPatientDICOM": [0.999593, -0.0257675, 0.0122122, 0.0282704, 0.951507, -0.306326],
  "ImageOrientationText": "Tra>Cor(-17.9)>Sag(0.2)",
  "ImageType": [
    "ORIGINAL",
    "PRIMARY",
    "M",
    "MB",
    "ND",
    "MOSAIC"
],
  "ImagingFrequency": 123.259,
  "InPlanePhaseEncodingDirectionDICOM": "COL",
  "InstitutionAddress": "Chemin Queen-Mary 4565,Montreal,District,CA,H3W 1W5",
  "InstitutionName": "IUGM",
  "InstitutionalDepartmentName": "Department",
  "MRAcquisitionType": "2D",
  "MagneticFieldStrength": 3,
  "Manufacturer": "Siemens",
  "ManufacturersModelName": "Prisma_fit",
  "MatrixCoilMode": "SENSE",
  "Modality": "MR",
  "MultibandAccelerationFactor": 4,
  "PartialFourier": 1,
  "PatientPosition": "HFS",
  "PercentPhaseFOV": 100,
  "PercentSampling": 100,
  "PhaseEncodingDirection": "j",
  "PhaseEncodingSteps": 104,
  "PhaseResolution": 1,
  "PixelBandwidth": 2290,
  "ProcedureStepDescription": "memory^things",
  "ProtocolName": "func_task-things_run-5",
  "PulseSequenceDetails": "%CustomerSeq%\\cmrr_mbep2d_bold",
  "ReceiveCoilActiveElements": "HC1-7;NC1,2",
  "ReceiveCoilName": "HeadNeck_64",
  "ReconMatrixPE": 104,
  "RepetitionTime": 1.49,
  "SAR": 0.045139,
  "ScanOptions": "FS",
  "ScanningSequence": "EP",
  "SequenceName": "epfid2d1_104",
  "SequenceVariant": "SK\\SS",
  "SeriesDescription": "func_task-things_run-5",
  "SeriesNumber": 25,
  "ShimSetting": [626, -7247, -8836, 600, -9, -210, -41, -35],
  "SliceThickness": 2,
  "SliceTiming": [0, 0.7825, 0.0975, 0.8825, 0.195, 0.98, 0.295, 1.0775, 0.3925, 1.175, 0.49, 1.2725, 0.5875, 1.3725, 0.685, 0, 0.7825, 0.0975, 0.8825, 0.195, 0.98, 0.295, 1.0775, 0.3925, 1.175, 0.49, 1.2725, 0.5875, 1.3725, 0.685, 0, 0.7825, 0.0975, 0.8825, 0.195, 0.98, 0.295, 1.0775, 0.3925, 1.175, 0.49, 1.2725, 0.5875, 1.3725, 0.685, 0, 0.7825, 0.0975, 0.8825, 0.195, 0.98, 0.295, 1.0775, 0.3925, 1.175, 0.49, 1.2725, 0.5875, 1.3725, 0.685],
  "SoftwareVersions": "syngo MR E11",
  "SpacingBetweenSlices": 2,
  "StationName": "MRC35049",
  "TaskName": "things",
  "TotalReadoutTime": 0.0576811,
  "TxRefAmp": 245.362,
  "WipMemBlock": "04058e0a-d625-4085-98a1-0f2f03f4f940||Sequence: R016 ve11c/master r/e634e98; Dec 19 2017 11:00:25 by eja",
  "dcmmeta_affine": [
    [-1.9991867542266846, 0.05654073879122734, 0.007453565951436758, 103.97508239746094],
    [0.0515349879860878, 1.9030135869979858, -0.6130932569503784, -68.69693756103516],
    [0.024424493312835693, 0.6126518845558167, 1.9036966562271118, -68.3331527709961],
    [0.0, 0.0, 0.0, 1.0]
],
  "dcmmeta_reorient_transform": [
    [0.0, -1.0, 0.0, 103.0],
    [1.0, 0.0, 0.0, 0.0],
    [0.0, 0.0, 1.0, 0.0],
    [0.0, 0.0, 0.0, 1.0]
],
  "dcmmeta_shape": [104, 104, 60, 190],
  "dcmmeta_slice_dim": 2,
  "dcmmeta_version": 0.6,
  "global": {
    "const": {
      "AcquisitionMatrix": [104, 0, 0, 104],
      "AngioFlag": "N",
      "BitsAllocated": 16,
      "BitsStored": 16,
      "BodyPartExamined": "BRAIN",
      "Columns": 832,
      "EchoNumbers": 1,
      "EchoTime": 37.0,
      "EchoTrainLength": 104,
      "FlipAngle": 52.0,
      "HighBit": 15,
      "ImageOrientationPatient": [0.99959336595993, -0.0257674944612, 0.01221224623418, 0.02827036995068, 0.95150680275612, -0.3063259546491],
      "ImagePositionPatient": [-858.08357489476, -801.25167791138, 208.88477626913],
      "ImageType": [
        "ORIGINAL",
        "PRIMARY",
        "M",
        "MB",
        "ND",
        "MOSAIC"
],
      "ImagedNucleus": "1H",
      "ImagingFrequency": 123.258881,
      "InPlanePhaseEncodingDirection": "COL",
      "MRAcquisitionType": "2D",
      "MagneticFieldStrength": 3.0,
      "Manufacturer": "SIEMENS",
      "ManufacturerModelName": "Prisma_fit",
      "Modality": "MR",
      "NumberOfAverages": 1.0,
      "NumberOfPhaseEncodingSteps": 104,
      "PercentPhaseFieldOfView": 100.0,
      "PercentSampling": 100.0,
      "PerformedProcedureStepStartTime": "142519.344000",
      "PhotometricInterpretation": "MONOCHROME2",
      "PixelBandwidth": 2290.0,
      "PixelRepresentation": 0,
      "PixelSpacing": [2.0, 2.0],
      "ProtocolName": "func_task-things_run-5",
      "RepetitionTime": 1490.0,
      "Rows": 832,
      "SAR": 0.04513896580173,
      "SamplesPerPixel": 1,
      "ScanOptions": "FS",
      "ScanningSequence": "EP",
      "SequenceName": "epfid2d1_104",
      "SequenceVariant": [
        "SK",
        "SS"
],
      "SeriesDescription": "func_task-things_run-5",
      "SeriesNumber": 25,
      "SeriesTime": "155856.881000",
      "SliceLocation": -43.596487354114,
      "SliceThickness": 2.0,
      "SmallestImagePixelValue": 0,
      "SoftwareVersions": "syngo MR E11",
      "SpacingBetweenSlices": 1.999999983259,
      "SpecificCharacterSet": "ISO_IR 100",
      "StudyID": "1",
      "StudyTime": "142519.282000",
      "TransmitCoilName": "Body",
      "VariableFlipAngleFlag": "N",
      "WindowCenterWidthExplanation": "Algo1",
      "dBdt": 0.0},
    "slices": {}
  },
  "time": {
    "samples": {
      "AcquisitionNumber": [1, 2, 3, 4, 5, 6, 7, 8, 9, 10, 11, 12, 13, 14, 15, 16, 17, 18, 19, 20, 21, 22, 23, 24, 25, 26, 27, 28, 29, 30, 31, 32, 33, 34, 35, 36, 37, 38, 39, 40, 41, 42, 43, 44, 45, 46, 47, 48, 49, 50, 51, 52, 53, 54, 55, 56, 57, 58, 59, 60, 61, 62, 63, 64, 65, 66, 67, 68, 69, 70, 71, 72, 73, 74, 75, 76, 77, 78, 79, 80, 81, 82, 83, 84, 85, 86, 87, 88, 89, 90, 91, 92, 93, 94, 95, 96, 97, 98, 99, 100, 101, 102, 103, 104, 105, 106, 107, 108, 109, 110, 111, 112, 113, 114, 115, 116, 117, 118, 119, 120, 121, 122, 123, 124, 125, 126, 127, 128, 129, 130, 131, 132, 133, 134, 135, 136, 137, 138, 139, 140, 141, 142, 143, 144, 145, 146, 147, 148, 149, 150, 151, 152, 153, 154, 155, 156, 157, 158, 159, 160, 161, 162, 163, 164, 165, 166, 167, 168, 169, 170, 171, 172, 173, 174, 175, 176, 177, 178, 179, 180, 181, 182, 183, 184, 185, 186, 187, 188, 189, 190],
      "AcquisitionTime": ["155734.762500", "155736.252500", "155737.742500", "155739.232500", "155740.722500", "155742.212500", "155743.702500", "155745.192500", "155746.682500", "155748.172500", "155749.662500", "155751.152500", "155752.642500", "155754.132500", "155755.622500", "155757.112500", "155758.602500", "155800.092500", "155801.582500", "155803.072500", "155804.562500", "155806.052500", "155807.542500", "155809.032500", "155810.522500", "155812.012500", "155813.502500", "155814.992500", "155816.482500", "155817.972500", "155819.462500", "155820.952500", "155822.442500", "155823.932500", "155825.422500", "155826.912500", "155828.402500", "155829.892500", "155831.382500", "155832.872500", "155834.362500", "155835.852500", "155837.342500", "155838.832500", "155840.322500", "155841.812500", "155843.302500", "155844.792500", "155846.282500", "155847.772500", "155849.262500", "155850.752500", "155852.242500", "155853.732500", "155855.222500", "155856.712500", "155858.202500", "155859.692500", "155901.182500", "155902.672500", "155904.162500", "155905.652500", "155907.142500", "155908.632500", "155910.122500", "155911.612500", "155913.102500", "155914.592500", "155916.082500", "155917.572500", "155919.062500", "155920.552500", "155922.042500", "155923.532500", "155925.022500", "155926.512500", "155928.002500", "155929.492500", "155930.982500", "155932.472500", "155933.962500", "155935.452500", "155936.942500", "155938.432500", "155939.922500", "155941.412500", "155942.902500", "155944.392500", "155945.882500", "155947.372500", "155948.862500", "155950.352500", "155951.842500", "155953.332500", "155954.822500", "155956.312500", "155957.802500", "155959.292500", "160000.782500", "160002.272500", "160003.762500", "160005.252500", "160006.742500", "160008.232500", "160009.722500", "160011.212500", "160012.702500", "160014.192500", "160015.682500", "160017.172500", "160018.662500", "160020.152500", "160021.642500", "160023.132500", "160024.622500", "160026.112500", "160027.602500", "160029.092500", "160030.582500", "160032.072500", "160033.562500", "160035.052500", "160036.542500", "160038.032500", "160039.522500", "160041.012500", "160042.502500", "160043.992500", "160045.482500", "160046.972500", "160048.462500", "160049.952500", "160051.442500", "160052.932500", "160054.422500", "160055.912500", "160057.402500", "160058.892500", "160100.382500", "160101.872500", "160103.362500", "160104.852500", "160106.342500", "160107.832500", "160109.322500", "160110.812500", "160112.302500", "160113.792500", "160115.282500", "160116.772500", "160118.262500", "160119.752500", "160121.242500", "160122.732500", "160124.222500", "160125.712500", "160127.202500", "160128.692500", "160130.182500", "160131.672500", "160133.162500", "160134.652500", "160136.142500", "160137.632500", "160139.122500", "160140.612500", "160142.102500", "160143.592500", "160145.082500", "160146.572500", "160148.062500", "160149.552500", "160151.042500", "160152.532500", "160154.022500", "160155.512500", "160157.002500", "160158.492500", "160159.982500", "160201.472500", "160202.962500", "160204.452500", "160205.942500", "160207.432500", "160208.922500", "160210.412500", "160211.902500", "160213.392500", "160214.882500", "160216.372500"],
      "ContentTime": ["155856.884000", "155856.888000", "155856.892000", "155856.895000", "155856.898000", "155856.901000", "155856.910000", "155856.913000", "155856.916000", "155856.920000", "155856.923000", "155856.926000", "155856.929000", "155856.933000", "155856.936000", "155856.939000", "155856.943000", "155856.946000", "155856.949000", "155856.952000", "155856.956000", "155856.959000", "155856.962000", "155856.966000", "155856.969000", "155916.844000", "155916.848000", "155916.851000", "155916.855000", "155916.858000", "155916.861000", "155916.865000", "155916.868000", "155916.872000", "155916.876000", "155916.879000", "155916.882000", "155916.886000", "155916.890000", "155916.893000", "155916.897000", "155916.924000", "155916.928000", "155916.931000", "155916.934000", "155936.844000", "155936.848000", "155936.851000", "155936.854000", "155936.858000", "155936.861000", "155936.864000", "155936.868000", "155936.871000", "155936.875000", "155936.878000", "155936.881000", "155936.884000", "155936.888000", "155936.891000", "155936.894000", "155936.898000", "155936.901000", "155936.904000", "155936.908000", "155936.911000", "155956.844000", "155956.848000", "155956.851000", "155956.854000", "155956.858000", "155956.861000", "155956.864000", "155956.868000", "155956.871000", "155956.874000", "155956.882000", "155956.885000", "155956.889000", "155956.892000", "155956.895000", "155956.899000", "155956.902000", "155956.905000", "155956.908000", "155956.912000", "160016.845000", "160016.849000", "160016.852000", "160016.855000", "160016.859000", "160016.862000", "160016.865000", "160016.869000", "160016.872000", "160016.875000", "160016.879000", "160016.898000", "160016.901000", "160016.904000", "160016.908000", "160016.911000", "160016.914000", "160016.930000", "160016.933000", "160016.937000", "160056.844000", "160056.848000", "160056.851000", "160056.855000", "160056.858000", "160056.861000", "160056.864000", "160056.868000", "160056.871000", "160056.874000", "160056.878000", "160056.881000", "160056.884000", "160056.888000", "160056.891000", "160056.894000", "160056.899000", "160056.903000", "160056.906000", "160056.909000", "160056.913000", "160056.916000", "160056.919000", "160056.922000", "160056.926000", "160056.929000", "160056.932000", "160056.936000", "160056.939000", "160116.844000", "160116.848000", "160116.851000", "160116.855000", "160116.858000", "160116.861000", "160116.865000", "160116.868000", "160116.871000", "160116.875000", "160116.878000", "160116.881000", "160116.884000", "160156.844000", "160156.848000", "160156.851000", "160156.855000", "160156.858000", "160156.861000", "160156.864000", "160156.868000", "160156.871000", "160156.874000", "160156.878000", "160156.886000", "160156.889000", "160156.893000", "160156.896000", "160156.899000", "160156.903000", "160156.906000", "160156.909000", "160156.913000", "160156.916000", "160156.919000", "160156.922000", "160156.926000", "160156.930000", "160156.933000", "160156.936000", "160218.422000", "160218.426000", "160218.430000", "160218.433000", "160218.437000", "160218.440000", "160218.444000", "160218.448000", "160218.451000", "160218.455000", "160218.459000", "160218.463000", "160218.466000", "160218.469000", "160218.473000"],
      "InstanceCreationTime": ["155856.884000", "155856.888000", "155856.892000", "155856.895000", "155856.898000", "155856.901000", "155856.910000", "155856.913000", "155856.916000", "155856.920000", "155856.923000", "155856.926000", "155856.929000", "155856.933000", "155856.936000", "155856.939000", "155856.943000", "155856.946000", "155856.949000", "155856.952000", "155856.956000", "155856.959000", "155856.962000", "155856.966000", "155856.969000", "155916.844000", "155916.848000", "155916.851000", "155916.855000", "155916.858000", "155916.861000", "155916.865000", "155916.868000", "155916.872000", "155916.876000", "155916.879000", "155916.882000", "155916.886000", "155916.890000", "155916.893000", "155916.897000", "155916.924000", "155916.928000", "155916.931000", "155916.934000", "155936.844000", "155936.848000", "155936.851000", "155936.854000", "155936.858000", "155936.861000", "155936.864000", "155936.868000", "155936.871000", "155936.875000", "155936.878000", "155936.881000", "155936.884000", "155936.888000", "155936.891000", "155936.894000", "155936.898000", "155936.901000", "155936.904000", "155936.908000", "155936.911000", "155956.844000", "155956.848000", "155956.851000", "155956.854000", "155956.858000", "155956.861000", "155956.864000", "155956.868000", "155956.871000", "155956.874000", "155956.882000", "155956.885000", "155956.889000", "155956.892000", "155956.895000", "155956.899000", "155956.902000", "155956.905000", "155956.908000", "155956.912000", "160016.845000", "160016.849000", "160016.852000", "160016.855000", "160016.859000", "160016.862000", "160016.865000", "160016.869000", "160016.872000", "160016.875000", "160016.879000", "160016.898000", "160016.901000", "160016.904000", "160016.908000", "160016.911000", "160016.914000", "160016.930000", "160016.933000", "160016.937000", "160056.844000", "160056.848000", "160056.851000", "160056.855000", "160056.858000", "160056.861000", "160056.864000", "160056.868000", "160056.871000", "160056.874000", "160056.878000", "160056.881000", "160056.884000", "160056.888000", "160056.891000", "160056.894000", "160056.899000", "160056.903000", "160056.906000", "160056.909000", "160056.913000", "160056.916000", "160056.919000", "160056.922000", "160056.926000", "160056.929000", "160056.932000", "160056.936000", "160056.939000", "160116.844000", "160116.848000", "160116.851000", "160116.855000", "160116.858000", "160116.861000", "160116.865000", "160116.868000", "160116.871000", "160116.875000", "160116.878000", "160116.881000", "160116.884000", "160156.844000", "160156.848000", "160156.851000", "160156.855000", "160156.858000", "160156.861000", "160156.864000", "160156.868000", "160156.871000", "160156.874000", "160156.878000", "160156.886000", "160156.889000", "160156.893000", "160156.896000", "160156.899000", "160156.903000", "160156.906000", "160156.909000", "160156.913000", "160156.916000", "160156.919000", "160156.922000", "160156.926000", "160156.930000", "160156.933000", "160156.936000", "160218.422000", "160218.426000", "160218.430000", "160218.433000", "160218.437000", "160218.440000", "160218.444000", "160218.448000", "160218.451000", "160218.455000", "160218.459000", "160218.463000", "160218.466000", "160218.469000", "160218.473000"],
      "InstanceNumber": [1, 2, 3, 4, 5, 6, 7, 8, 9, 10, 11, 12, 13, 14, 15, 16, 17, 18, 19, 20, 21, 22, 23, 24, 25, 26, 27, 28, 29, 30, 31, 32, 33, 34, 35, 36, 37, 38, 39, 40, 41, 42, 43, 44, 45, 46, 47, 48, 49, 50, 51, 52, 53, 54, 55, 56, 57, 58, 59, 60, 61, 62, 63, 64, 65, 66, 67, 68, 69, 70, 71, 72, 73, 74, 75, 76, 77, 78, 79, 80, 81, 82, 83, 84, 85, 86, 87, 88, 89, 90, 91, 92, 93, 94, 95, 96, 97, 98, 99, 100, 101, 102, 103, 104, 105, 106, 107, 108, 109, 110, 111, 112, 113, 114, 115, 116, 117, 118, 119, 120, 121, 122, 123, 124, 125, 126, 127, 128, 129, 130, 131, 132, 133, 134, 135, 136, 137, 138, 139, 140, 141, 142, 143, 144, 145, 146, 147, 148, 149, 150, 151, 152, 153, 154, 155, 156, 157, 158, 159, 160, 161, 162, 163, 164, 165, 166, 167, 168, 169, 170, 171, 172, 173, 174, 175, 176, 177, 178, 179, 180, 181, 182, 183, 184, 185, 186, 187, 188, 189, 190],
      "LargestImagePixelValue": [43733, 42513, 41904, 41604, 40758, 42728, 43338, 41723, 42346, 42830, 42820, 41448, 41115, 42167, 41683, 41567, 41471, 41021, 40655, 41171, 41161, 40912, 40587, 40458, 40642, 41019, 40782, 41273, 41914, 40848, 41757, 40475, 40788, 40364, 40265, 40596, 42746, 42663, 40847, 43535, 41217, 42392, 41836, 41418, 40148, 41842, 40508, 40515, 41449, 41097, 40825, 41570, 40250, 40451, 40331, 40249, 40005, 39976, 40260, 40054, 40254, 40555, 40906, 41032, 40674, 40342, 39716, 40230, 40647, 40091, 39655, 40314, 40557, 39378, 40228, 40432, 41364, 42234, 41111, 42187, 42542, 41050, 41553, 41553, 41845, 41860, 40395, 41761, 41694, 41934, 40982, 41685, 41857, 41882, 41681, 41037, 39704, 40842, 41981, 41817, 41592, 41517, 41939, 41846, 42409, 42195, 42054, 41632, 41604, 41813, 41382, 41702, 41844, 41276, 41372, 41161, 41579, 41768, 41793, 41838, 41167, 40698, 41525, 41160, 41469, 42023, 41556, 41544, 41199, 41691, 42002, 41130, 41769, 41991, 41908, 42205, 41679, 42655, 42690, 41957, 41687, 42456, 41551, 41991, 42176, 41764, 41734, 41429, 42408, 41781, 41892, 41742, 41527, 41666, 41860, 41923, 41942, 41927, 41821, 41309, 41407, 42163, 41714, 41540, 41611, 41611, 41711, 42415, 42553, 41875, 41135, 41863, 41841, 41574, 41501, 41181, 41499, 41126, 42018, 41282, 41395, 41462, 41118, 41594, 41946, 41823, 41105, 41878, 41491, 41327],
      "WindowCenter": [10464.0, 10402.0, 10357.0, 10329.0, 10313.0, 10358.0, 10379.0, 10337.0, 10296.0, 10274.0, 10279.0, 10263.0, 10264.0, 10290.0, 10297.0, 10294.0, 10277.0, 10255.0, 10244.0, 10247.0, 10255.0, 10261.0, 10271.0, 10271.0, 10264.0, 10267.0, 10268.0, 10273.0, 10291.0, 10309.0, 10349.0, 10351.0, 10350.0, 10329.0, 10326.0, 10314.0, 10340.0, 10367.0, 10367.0, 10380.0, 10357.0, 10344.0, 10321.0, 10308.0, 10319.0, 10380.0, 10364.0, 10327.0, 10291.0, 10273.0, 10287.0, 10337.0, 10341.0, 10319.0, 10302.0, 10292.0, 10294.0, 10303.0, 10304.0, 10304.0, 10301.0, 10313.0, 10342.0, 10343.0, 10335.0, 10323.0, 10327.0, 10344.0, 10334.0, 10299.0, 10271.0, 10319.0, 10316.0, 10258.0, 10309.0, 10323.0, 10318.0, 10302.0, 10288.0, 10313.0, 10364.0, 10368.0, 10362.0, 10327.0, 10321.0, 10311.0, 10290.0, 10321.0, 10316.0, 10321.0, 10310.0, 10303.0, 10259.0, 10267.0, 10324.0, 10350.0, 10330.0, 10306.0, 10297.0, 10295.0, 10291.0, 10284.0, 10288.0, 10310.0, 10332.0, 10330.0, 10307.0, 10294.0, 10300.0, 10327.0, 10319.0, 10316.0, 10321.0, 10316.0, 10315.0, 10319.0, 10332.0, 10322.0, 10319.0, 10310.0, 10336.0, 10342.0, 10337.0, 10316.0, 10294.0, 10283.0, 10278.0, 10267.0, 10269.0, 10283.0, 10284.0, 10285.0, 10320.0, 10325.0, 10310.0, 10291.0, 10312.0, 10349.0, 10357.0, 10328.0, 10304.0, 10313.0, 10287.0, 10284.0, 10298.0, 10312.0, 10324.0, 10313.0, 10314.0, 10311.0, 10345.0, 10333.0, 10317.0, 10300.0, 10297.0, 10287.0, 10271.0, 10284.0, 10309.0, 10306.0, 10300.0, 10318.0, 10320.0, 10309.0, 10306.0, 10306.0, 10327.0, 10353.0, 10362.0, 10354.0, 10333.0, 10309.0, 10298.0, 10295.0, 10329.0, 10345.0, 10354.0, 10323.0, 10325.0, 10307.0, 10277.0, 10246.0, 10230.0, 10243.0, 10267.0, 10263.0, 10245.0, 10288.0, 10317.0, 10342.0],
      "WindowWidth": [22646.0, 22465.0, 22334.0, 22254.0, 22214.0, 22327.0, 22371.0, 22272.0, 22171.0, 22112.0, 22120.0, 22092.0, 22097.0, 22151.0, 22172.0, 22168.0, 22130.0, 22083.0, 22057.0, 22061.0, 22072.0, 22087.0, 22108.0, 22109.0, 22092.0, 22095.0, 22102.0, 22117.0, 22156.0, 22199.0, 22288.0, 22295.0, 22294.0, 22245.0, 22233.0, 22213.0, 22274.0, 22336.0, 22336.0, 22355.0, 22306.0, 22273.0, 22223.0, 22197.0, 22224.0, 22353.0, 22324.0, 22238.0, 22162.0, 22118.0, 22149.0, 22260.0, 22271.0, 22228.0, 22190.0, 22165.0, 22171.0, 22190.0, 22188.0, 22188.0, 22180.0, 22207.0, 22273.0, 22280.0, 22261.0, 22235.0, 22247.0, 22281.0, 22258.0, 22182.0, 22120.0, 22232.0, 22220.0, 22081.0, 22192.0, 22233.0, 22223.0, 22183.0, 22148.0, 22206.0, 22333.0, 22348.0, 22326.0, 22247.0, 22230.0, 22212.0, 22165.0, 22225.0, 22216.0, 22228.0, 22206.0, 22188.0, 22089.0, 22099.0, 22231.0, 22286.0, 22240.0, 22191.0, 22164.0, 22163.0, 22156.0, 22140.0, 22147.0, 22196.0, 22243.0, 22241.0, 22191.0, 22165.0, 22179.0, 22236.0, 22225.0, 22216.0, 22224.0, 22215.0, 22213.0, 22226.0, 22254.0, 22230.0, 22221.0, 22199.0, 22261.0, 22278.0, 22264.0, 22215.0, 22163.0, 22134.0, 22126.0, 22101.0, 22105.0, 22138.0, 22141.0, 22144.0, 22221.0, 22236.0, 22202.0, 22159.0, 22220.0, 22311.0, 22313.0, 22245.0, 22183.0, 22202.0, 22151.0, 22143.0, 22174.0, 22205.0, 22233.0, 22210.0, 22204.0, 22197.0, 22271.0, 22247.0, 22212.0, 22175.0, 22166.0, 22142.0, 22108.0, 22135.0, 22191.0, 22189.0, 22180.0, 22214.0, 22221.0, 22197.0, 22190.0, 22191.0, 22237.0, 22295.0, 22317.0, 22298.0, 22252.0, 22196.0, 22173.0, 22166.0, 22242.0, 22286.0, 22303.0, 22233.0, 22229.0, 22193.0, 22122.0, 22047.0, 22010.0, 22043.0, 22096.0, 22090.0, 22047.0, 22144.0, 22211.0, 22273.0]
    },
    "slices": {}
  }
}