{
  "AcquisitionMatrixPE": 104,
  "AcquisitionNumber": 1,
  "AcquisitionTime": "16:03:50.050000",
  "BandwidthPerPixelPhaseEncode": 17.17,
  "BaseResolution": 104,
  "BodyPartExamined": "BRAIN",
  "CoilCombinationMethod": "Sum of Squares",
  "ConsistencyInfo": "N4_VE11C_LATEST_20160120",
  "ConversionSoftware": "dcm2niix",
  "ConversionSoftwareVersion": "v1.0.20211006",
  "DerivedVendorReportedEchoSpacing": 0.000560011,
  "DeviceSerialNumber": "167006",
  "DwellTime": 2.1e-06,
  "EchoTime": 0.037,
  "EchoTime1": 0.037,
  "EchoTime2": 0.001,
  "EchoTrainLength": 104,
  "EffectiveEchoSpacing": 0.000560011,
  "FlipAngle": 52,
  "HeudiconvVersion": "0.10.0",
  "ImageComments": "Unaliased MB4/PE3/LB",
  "ImageOrientationPatientDICOM": [0.999593, -0.0257675, 0.0122122, 0.0282704, 0.951507, -0.306326],
  "ImageOrientationText": "Tra>Cor(-17.9)>Sag(0.2)",
  "ImageType": [
    "ORIGINAL",
    "PRIMARY",
    "P",
    "MB",
    "ND",
    "MOSAIC",
    "PHASE"
],
  "ImagingFrequency": 123.259,
  "InPlanePhaseEncodingDirectionDICOM": "COL",
  "InstitutionAddress": "Chemin Queen-Mary 4565,Montreal,District,CA,H3W 1W5",
  "InstitutionName": "IUGM",
  "InstitutionalDepartmentName": "Department",
  "MRAcquisitionType": "2D",
  "MagneticFieldStrength": 3,
  "Manufacturer": "Siemens",
  "ManufacturersModelName": "Prisma_fit",
  "MatrixCoilMode": "SENSE",
  "Modality": "MR",
  "MultibandAccelerationFactor": 4,
  "PartialFourier": 1,
  "PatientPosition": "HFS",
  "PercentPhaseFOV": 100,
  "PercentSampling": 100,
  "PhaseEncodingDirection": "j",
  "PhaseEncodingSteps": 104,
  "PhaseResolution": 1,
  "PixelBandwidth": 2290,
  "ProcedureStepDescription": "memory^things",
  "ProtocolName": "func_task-things_run-6",
  "PulseSequenceDetails": "%CustomerSeq%\\cmrr_mbep2d_bold",
  "ReceiveCoilActiveElements": "HC1-7;NC1,2",
  "ReceiveCoilName": "HeadNeck_64",
  "ReconMatrixPE": 104,
  "RepetitionTime": 1.49,
  "SAR": 0.045139,
  "ScanOptions": "FS",
  "ScanningSequence": "EP",
  "SequenceName": "epfid2d1_104",
  "SequenceVariant": "SK\\SS",
  "SeriesDescription": "func_task-things_run-6",
  "SeriesNumber": 29,
  "ShimSetting": [626, -7247, -8836, 600, -9, -210, -41, -35],
  "SliceThickness": 2,
  "SliceTiming": [0, 0.7825, 0.0975, 0.8825, 0.195, 0.98, 0.2925, 1.0775, 0.3925, 1.175, 0.49, 1.2725, 0.5875, 1.3725, 0.685, 0, 0.7825, 0.0975, 0.8825, 0.195, 0.98, 0.2925, 1.0775, 0.3925, 1.175, 0.49, 1.2725, 0.5875, 1.3725, 0.685, 0, 0.7825, 0.0975, 0.8825, 0.195, 0.98, 0.2925, 1.0775, 0.3925, 1.175, 0.49, 1.2725, 0.5875, 1.3725, 0.685, 0, 0.7825, 0.0975, 0.8825, 0.195, 0.98, 0.2925, 1.0775, 0.3925, 1.175, 0.49, 1.2725, 0.5875, 1.3725, 0.685],
  "SoftwareVersions": "syngo MR E11",
  "SpacingBetweenSlices": 2,
  "StationName": "MRC35049",
  "TaskName": "things",
  "TotalReadoutTime": 0.0576811,
  "TxRefAmp": 245.362,
  "WipMemBlock": "c91ecf7a-1bca-4e5b-82ba-fab154daa3bc||Sequence: R016 ve11c/master r/e634e98; Dec 19 2017 11:00:25 by eja",
  "dcmmeta_affine": [
    [-1.9991867542266846, 0.05654073879122734, 0.007453565951436758, 103.97508239746094],
    [0.0515349879860878, 1.9030135869979858, -0.6130932569503784, -68.69693756103516],
    [0.024424493312835693, 0.6126518845558167, 1.9036966562271118, -68.3331527709961],
    [0.0, 0.0, 0.0, 1.0]
],
  "dcmmeta_reorient_transform": [
    [0.0, -1.0, 0.0, 103.0],
    [1.0, 0.0, 0.0, 0.0],
    [0.0, 0.0, 1.0, 0.0],
    [0.0, 0.0, 0.0, 1.0]
],
  "dcmmeta_shape": [104, 104, 60, 190],
  "dcmmeta_slice_dim": 2,
  "dcmmeta_version": 0.6,
  "global": {
    "const": {
      "AcquisitionMatrix": [104, 0, 0, 104],
      "AngioFlag": "N",
      "BitsAllocated": 16,
      "BitsStored": 16,
      "BodyPartExamined": "BRAIN",
      "Columns": 832,
      "EchoNumbers": 1,
      "EchoTime": 37.0,
      "EchoTrainLength": 104,
      "FlipAngle": 52.0,
      "HighBit": 15,
      "ImageOrientationPatient": [0.99959336595993, -0.0257674944612, 0.01221224623418, 0.02827036995068, 0.95150680275612, -0.3063259546491],
      "ImagePositionPatient": [-858.08357489476, -801.25167791138, 208.88477626913],
      "ImageType": [
        "ORIGINAL",
        "PRIMARY",
        "P",
        "MB",
        "ND",
        "MOSAIC"
],
      "ImagedNucleus": "1H",
      "ImagingFrequency": 123.258884,
      "InPlanePhaseEncodingDirection": "COL",
      "LargestImagePixelValue": 4095,
      "MRAcquisitionType": "2D",
      "MagneticFieldStrength": 3.0,
      "Manufacturer": "SIEMENS",
      "ManufacturerModelName": "Prisma_fit",
      "Modality": "MR",
      "NumberOfAverages": 1.0,
      "NumberOfPhaseEncodingSteps": 104,
      "PercentPhaseFieldOfView": 100.0,
      "PercentSampling": 100.0,
      "PerformedProcedureStepStartTime": "142519.344000",
      "PhotometricInterpretation": "MONOCHROME2",
      "PixelBandwidth": 2290.0,
      "PixelRepresentation": 0,
      "PixelSpacing": [2.0, 2.0],
      "ProtocolName": "func_task-things_run-6",
      "RepetitionTime": 1490.0,
      "RescaleIntercept": -4096.0,
      "RescaleSlope": 2.0,
      "RescaleType": "US",
      "Rows": 832,
      "SAR": 0.04513896580173,
      "SamplesPerPixel": 1,
      "ScanOptions": "FS",
      "ScanningSequence": "EP",
      "SequenceName": "epfid2d1_104",
      "SequenceVariant": [
        "SK",
        "SS"
],
      "SeriesDescription": "func_task-things_run-6",
      "SeriesNumber": 29,
      "SeriesTime": "160523.155000",
      "SliceLocation": -43.596487354114,
      "SliceThickness": 2.0,
      "SmallestImagePixelValue": 0,
      "SoftwareVersions": "syngo MR E11",
      "SpacingBetweenSlices": 1.999999983259,
      "SpecificCharacterSet": "ISO_IR 100",
      "StudyID": "1",
      "StudyTime": "142519.282000",
      "TransmitCoilName": "Body",
      "VariableFlipAngleFlag": "N",
      "WindowCenterWidthExplanation": "Algo1",
      "dBdt": 0.0},
    "slices": {}
  },
  "time": {
    "samples": {
      "AcquisitionNumber": [1, 2, 3, 4, 5, 6, 7, 8, 9, 10, 11, 12, 13, 14, 15, 16, 17, 18, 19, 20, 21, 22, 23, 24, 25, 26, 27, 28, 29, 30, 31, 32, 33, 34, 35, 36, 37, 38, 39, 40, 41, 42, 43, 44, 45, 46, 47, 48, 49, 50, 51, 52, 53, 54, 55, 56, 57, 58, 59, 60, 61, 62, 63, 64, 65, 66, 67, 68, 69, 70, 71, 72, 73, 74, 75, 76, 77, 78, 79, 80, 81, 82, 83, 84, 85, 86, 87, 88, 89, 90, 91, 92, 93, 94, 95, 96, 97, 98, 99, 100, 101, 102, 103, 104, 105, 106, 107, 108, 109, 110, 111, 112, 113, 114, 115, 116, 117, 118, 119, 120, 121, 122, 123, 124, 125, 126, 127, 128, 129, 130, 131, 132, 133, 134, 135, 136, 137, 138, 139, 140, 141, 142, 143, 144, 145, 146, 147, 148, 149, 150, 151, 152, 153, 154, 155, 156, 157, 158, 159, 160, 161, 162, 163, 164, 165, 166, 167, 168, 169, 170, 171, 172, 173, 174, 175, 176, 177, 178, 179, 180, 181, 182, 183, 184, 185, 186, 187, 188, 189, 190],
      "AcquisitionTime": ["160350.050000", "160351.540000", "160353.030000", "160354.520000", "160356.010000", "160357.500000", "160358.990000", "160400.480000", "160401.970000", "160403.460000", "160404.950000", "160406.440000", "160407.930000", "160409.420000", "160410.910000", "160412.400000", "160413.890000", "160415.380000", "160416.870000", "160418.360000", "160419.850000", "160421.340000", "160422.830000", "160424.320000", "160425.810000", "160427.300000", "160428.790000", "160430.280000", "160431.770000", "160433.260000", "160434.750000", "160436.240000", "160437.730000", "160439.220000", "160440.710000", "160442.200000", "160443.690000", "160445.180000", "160446.670000", "160448.160000", "160449.650000", "160451.140000", "160452.630000", "160454.120000", "160455.610000", "160457.100000", "160458.590000", "160500.080000", "160501.570000", "160503.060000", "160504.550000", "160506.040000", "160507.530000", "160509.020000", "160510.510000", "160512.000000", "160513.490000", "160514.980000", "160516.470000", "160517.960000", "160519.450000", "160520.940000", "160522.430000", "160523.920000", "160525.410000", "160526.900000", "160528.390000", "160529.880000", "160531.370000", "160532.860000", "160534.350000", "160535.840000", "160537.330000", "160538.820000", "160540.310000", "160541.800000", "160543.290000", "160544.780000", "160546.270000", "160547.760000", "160549.250000", "160550.740000", "160552.230000", "160553.720000", "160555.210000", "160556.700000", "160558.190000", "160559.680000", "160601.170000", "160602.660000", "160604.150000", "160605.640000", "160607.130000", "160608.620000", "160610.110000", "160611.600000", "160613.090000", "160614.580000", "160616.070000", "160617.560000", "160619.050000", "160620.540000", "160622.030000", "160623.520000", "160625.010000", "160626.500000", "160627.990000", "160629.480000", "160630.970000", "160632.460000", "160633.950000", "160635.440000", "160636.930000", "160638.420000", "160639.910000", "160641.400000", "160642.890000", "160644.380000", "160645.870000", "160647.360000", "160648.850000", "160650.340000", "160651.830000", "160653.320000", "160654.810000", "160656.300000", "160657.790000", "160659.280000", "160700.770000", "160702.260000", "160703.750000", "160705.240000", "160706.730000", "160708.220000", "160709.710000", "160711.200000", "160712.690000", "160714.180000", "160715.670000", "160717.160000", "160718.650000", "160720.140000", "160721.630000", "160723.120000", "160724.610000", "160726.100000", "160727.590000", "160729.080000", "160730.570000", "160732.060000", "160733.550000", "160735.040000", "160736.530000", "160738.020000", "160739.510000", "160741.000000", "160742.490000", "160743.980000", "160745.470000", "160746.960000", "160748.450000", "160749.940000", "160751.430000", "160752.920000", "160754.410000", "160755.900000", "160757.390000", "160758.880000", "160800.370000", "160801.860000", "160803.350000", "160804.840000", "160806.330000", "160807.820000", "160809.310000", "160810.800000", "160812.290000", "160813.780000", "160815.270000", "160816.760000", "160818.250000", "160819.740000", "160821.230000", "160822.720000", "160824.210000", "160825.700000", "160827.190000", "160828.680000", "160830.170000", "160831.660000"],
      "ContentTime": ["160523.157000", "160523.160000", "160523.163000", "160523.166000", "160523.168000", "160523.171000", "160523.173000", "160523.176000", "160523.179000", "160523.181000", "160523.184000", "160523.188000", "160523.192000", "160523.196000", "160523.198000", "160523.201000", "160523.204000", "160523.207000", "160523.209000", "160523.212000", "160523.214000", "160523.217000", "160523.219000", "160523.222000", "160523.224000", "160523.227000", "160523.229000", "160523.232000", "160523.235000", "160523.237000", "160523.240000", "160523.242000", "160523.245000", "160523.247000", "160523.249000", "160523.252000", "160523.255000", "160523.257000", "160523.259000", "160543.028000", "160543.031000", "160543.034000", "160543.043000", "160543.046000", "160543.048000", "160543.051000", "160543.053000", "160543.056000", "160543.058000", "160543.061000", "160543.063000", "160543.066000", "160543.068000", "160543.071000", "160543.073000", "160543.076000", "160543.078000", "160543.081000", "160543.083000", "160603.028000", "160603.030000", "160603.033000", "160603.035000", "160603.038000", "160603.040000", "160603.043000", "160603.045000", "160603.048000", "160603.050000", "160603.053000", "160603.055000", "160603.058000", "160603.060000", "160603.063000", "160603.065000", "160603.068000", "160603.070000", "160603.073000", "160603.075000", "160603.078000", "160623.045000", "160623.047000", "160623.050000", "160623.052000", "160623.055000", "160623.057000", "160623.060000", "160623.062000", "160623.065000", "160623.067000", "160623.070000", "160623.072000", "160623.075000", "160623.078000", "160623.080000", "160623.083000", "160623.085000", "160623.088000", "160623.090000", "160623.093000", "160703.064000", "160703.067000", "160703.069000", "160703.072000", "160703.074000", "160703.077000", "160703.079000", "160703.082000", "160703.084000", "160703.087000", "160703.089000", "160703.092000", "160703.094000", "160703.097000", "160703.099000", "160703.102000", "160703.104000", "160703.107000", "160703.109000", "160703.112000", "160703.114000", "160703.117000", "160703.119000", "160703.122000", "160703.124000", "160703.134000", "160703.137000", "160703.139000", "160703.142000", "160743.060000", "160743.063000", "160743.065000", "160743.068000", "160743.076000", "160743.079000", "160743.081000", "160743.084000", "160743.087000", "160743.089000", "160743.091000", "160743.094000", "160743.097000", "160743.099000", "160743.101000", "160743.104000", "160743.107000", "160743.109000", "160743.112000", "160743.114000", "160743.117000", "160743.119000", "160743.122000", "160743.124000", "160743.127000", "160743.129000", "160743.132000", "160823.051000", "160823.053000", "160823.056000", "160823.059000", "160823.061000", "160823.064000", "160823.066000", "160823.069000", "160823.071000", "160823.074000", "160823.076000", "160823.079000", "160823.081000", "160823.084000", "160823.086000", "160823.089000", "160823.091000", "160823.094000", "160823.096000", "160823.099000", "160823.101000", "160823.104000", "160823.106000", "160823.109000", "160823.111000", "160823.114000", "160833.676000", "160833.678000", "160833.681000", "160833.683000", "160833.686000", "160833.689000", "160833.691000", "160833.694000"],
      "InstanceCreationTime": ["160523.157000", "160523.160000", "160523.163000", "160523.166000", "160523.168000", "160523.171000", "160523.173000", "160523.176000", "160523.179000", "160523.181000", "160523.184000", "160523.188000", "160523.192000", "160523.196000", "160523.198000", "160523.201000", "160523.204000", "160523.207000", "160523.209000", "160523.212000", "160523.214000", "160523.217000", "160523.219000", "160523.222000", "160523.224000", "160523.227000", "160523.229000", "160523.232000", "160523.235000", "160523.237000", "160523.240000", "160523.242000", "160523.245000", "160523.247000", "160523.249000", "160523.252000", "160523.255000", "160523.257000", "160523.259000", "160543.028000", "160543.031000", "160543.034000", "160543.043000", "160543.046000", "160543.048000", "160543.051000", "160543.053000", "160543.056000", "160543.058000", "160543.061000", "160543.063000", "160543.066000", "160543.068000", "160543.071000", "160543.073000", "160543.076000", "160543.078000", "160543.081000", "160543.083000", "160603.028000", "160603.030000", "160603.033000", "160603.035000", "160603.038000", "160603.040000", "160603.043000", "160603.045000", "160603.048000", "160603.050000", "160603.053000", "160603.055000", "160603.058000", "160603.060000", "160603.063000", "160603.065000", "160603.068000", "160603.070000", "160603.073000", "160603.075000", "160603.078000", "160623.045000", "160623.047000", "160623.050000", "160623.052000", "160623.055000", "160623.057000", "160623.060000", "160623.062000", "160623.065000", "160623.067000", "160623.070000", "160623.072000", "160623.075000", "160623.078000", "160623.080000", "160623.083000", "160623.085000", "160623.088000", "160623.090000", "160623.093000", "160703.064000", "160703.067000", "160703.069000", "160703.072000", "160703.074000", "160703.077000", "160703.079000", "160703.082000", "160703.084000", "160703.087000", "160703.089000", "160703.092000", "160703.094000", "160703.097000", "160703.099000", "160703.102000", "160703.104000", "160703.107000", "160703.109000", "160703.112000", "160703.114000", "160703.117000", "160703.119000", "160703.122000", "160703.124000", "160703.134000", "160703.137000", "160703.139000", "160703.142000", "160743.060000", "160743.063000", "160743.065000", "160743.068000", "160743.076000", "160743.079000", "160743.081000", "160743.084000", "160743.087000", "160743.089000", "160743.091000", "160743.094000", "160743.097000", "160743.099000", "160743.101000", "160743.104000", "160743.107000", "160743.109000", "160743.112000", "160743.114000", "160743.117000", "160743.119000", "160743.122000", "160743.124000", "160743.127000", "160743.129000", "160743.132000", "160823.051000", "160823.053000", "160823.056000", "160823.059000", "160823.061000", "160823.064000", "160823.066000", "160823.069000", "160823.071000", "160823.074000", "160823.076000", "160823.079000", "160823.081000", "160823.084000", "160823.086000", "160823.089000", "160823.091000", "160823.094000", "160823.096000", "160823.099000", "160823.101000", "160823.104000", "160823.106000", "160823.109000", "160823.111000", "160823.114000", "160833.676000", "160833.678000", "160833.681000", "160833.683000", "160833.686000", "160833.689000", "160833.691000", "160833.694000"],
      "InstanceNumber": [1, 2, 3, 4, 5, 6, 7, 8, 9, 10, 11, 12, 13, 14, 15, 16, 17, 18, 19, 20, 21, 22, 23, 24, 25, 26, 27, 28, 29, 30, 31, 32, 33, 34, 35, 36, 37, 38, 39, 40, 41, 42, 43, 44, 45, 46, 47, 48, 49, 50, 51, 52, 53, 54, 55, 56, 57, 58, 59, 60, 61, 62, 63, 64, 65, 66, 67, 68, 69, 70, 71, 72, 73, 74, 75, 76, 77, 78, 79, 80, 81, 82, 83, 84, 85, 86, 87, 88, 89, 90, 91, 92, 93, 94, 95, 96, 97, 98, 99, 100, 101, 102, 103, 104, 105, 106, 107, 108, 109, 110, 111, 112, 113, 114, 115, 116, 117, 118, 119, 120, 121, 122, 123, 124, 125, 126, 127, 128, 129, 130, 131, 132, 133, 134, 135, 136, 137, 138, 139, 140, 141, 142, 143, 144, 145, 146, 147, 148, 149, 150, 151, 152, 153, 154, 155, 156, 157, 158, 159, 160, 161, 162, 163, 164, 165, 166, 167, 168, 169, 170, 171, 172, 173, 174, 175, 176, 177, 178, 179, 180, 181, 182, 183, 184, 185, 186, 187, 188, 189, 190],
      "WindowCenter": [4842.0, 4832.0, 4840.0, 4804.0, 4844.0, 4870.0, 4798.0, 4778.0, 4836.0, 4880.0, 4880.0, 4880.0, 4880.0, 4838.0, 4808.0, 4806.0, 4804.0, 4808.0, 4838.0, 4832.0, 4802.0, 4872.0, 4904.0, 4876.0, 4904.0, 4876.0, 4840.0, 4804.0, 4808.0, 4798.0, 4802.0, 4870.0, 4866.0, 4880.0, 4882.0, 4874.0, 4870.0, 4868.0, 4804.0, 4778.0, 4808.0, 4844.0, 4834.0, 4874.0, 4874.0, 4876.0, 4874.0, 4844.0, 4836.0, 4776.0, 4780.0, 4804.0, 4870.0, 4906.0, 4882.0, 4880.0, 4842.0, 4868.0, 4836.0, 4832.0, 4832.0, 4806.0, 4776.0, 4836.0, 4874.0, 4838.0, 4870.0, 4878.0, 4872.0, 4804.0, 4836.0, 4840.0, 4844.0, 4838.0, 4808.0, 4840.0, 4846.0, 4842.0, 4868.0, 4870.0, 4838.0, 4840.0, 4834.0, 4804.0, 4840.0, 4836.0, 4842.0, 4872.0, 4840.0, 4832.0, 4872.0, 4836.0, 4832.0, 4840.0, 4830.0, 4840.0, 4834.0, 4834.0, 4864.0, 4830.0, 4844.0, 4868.0, 4834.0, 4870.0, 4838.0, 4836.0, 4842.0, 4830.0, 4866.0, 4834.0, 4840.0, 4870.0, 4834.0, 4800.0, 4840.0, 4844.0, 4842.0, 4874.0, 4840.0, 4866.0, 4838.0, 4804.0, 4838.0, 4810.0, 4832.0, 4842.0, 4838.0, 4840.0, 4864.0, 4808.0, 4778.0, 4840.0, 4872.0, 4840.0, 4836.0, 4870.0, 4872.0, 4832.0, 4834.0, 4840.0, 4832.0, 4802.0, 4836.0, 4864.0, 4832.0, 4868.0, 4872.0, 4836.0, 4842.0, 4842.0, 4806.0, 4800.0, 4840.0, 4836.0, 4776.0, 4838.0, 4868.0, 4870.0, 4874.0, 4842.0, 4802.0, 4830.0, 4834.0, 4830.0, 4836.0, 4838.0, 4802.0, 4834.0, 4838.0, 4832.0, 4872.0, 4866.0, 4834.0, 4838.0, 4800.0, 4830.0, 4832.0, 4802.0, 4834.0, 4866.0, 4872.0, 4842.0, 4870.0, 4844.0, 4842.0, 4834.0, 4806.0, 4834.0, 4810.0, 4798.0],
      "WindowWidth": [18640.0, 18628.0, 18644.0, 18600.0, 18648.0, 18682.0, 18596.0, 18564.0, 18646.0, 18686.0, 18674.0, 18682.0, 18690.0, 18638.0, 18600.0, 18590.0, 18592.0, 18594.0, 18638.0, 18632.0, 18594.0, 18686.0, 18712.0, 18688.0, 18722.0, 18686.0, 18644.0, 18594.0, 18594.0, 18588.0, 18590.0, 18678.0, 18684.0, 18690.0, 18692.0, 18684.0, 18680.0, 18678.0, 18594.0, 18560.0, 18598.0, 18644.0, 18634.0, 18686.0, 18686.0, 18690.0, 18684.0, 18646.0, 18632.0, 18560.0, 18564.0, 18592.0, 18684.0, 18724.0, 18690.0, 18684.0, 18642.0, 18680.0, 18642.0, 18628.0, 18630.0, 18596.0, 18556.0, 18636.0, 18686.0, 18642.0, 18678.0, 18686.0, 18682.0, 18594.0, 18634.0, 18642.0, 18642.0, 18640.0, 18602.0, 18640.0, 18648.0, 18646.0, 18676.0, 18680.0, 18644.0, 18648.0, 18634.0, 18594.0, 18646.0, 18640.0, 18644.0, 18682.0, 18640.0, 18630.0, 18680.0, 18632.0, 18636.0, 18642.0, 18628.0, 18638.0, 18642.0, 18632.0, 18672.0, 18634.0, 18646.0, 18678.0, 18636.0, 18680.0, 18636.0, 18636.0, 18646.0, 18628.0, 18674.0, 18634.0, 18642.0, 18680.0, 18634.0, 18586.0, 18644.0, 18642.0, 18646.0, 18684.0, 18642.0, 18678.0, 18642.0, 18592.0, 18636.0, 18602.0, 18630.0, 18644.0, 18640.0, 18642.0, 18676.0, 18602.0, 18558.0, 18648.0, 18688.0, 18644.0, 18638.0, 18688.0, 18684.0, 18630.0, 18630.0, 18636.0, 18628.0, 18592.0, 18636.0, 18674.0, 18636.0, 18680.0, 18682.0, 18636.0, 18642.0, 18648.0, 18596.0, 18586.0, 18642.0, 18640.0, 18564.0, 18644.0, 18682.0, 18682.0, 18682.0, 18640.0, 18590.0, 18628.0, 18634.0, 18634.0, 18638.0, 18640.0, 18594.0, 18632.0, 18636.0, 18632.0, 18686.0, 18678.0, 18634.0, 18642.0, 18590.0, 18624.0, 18634.0, 18592.0, 18632.0, 18676.0, 18686.0, 18644.0, 18680.0, 18650.0, 18642.0, 18636.0, 18590.0, 18632.0, 18600.0, 18586.0]
    },
    "slices": {}
  }
}