{
  "AcquisitionMatrixPE": 104,
  "AcquisitionNumber": 1,
  "AcquisitionTime": "15:43:29.157500",
  "BandwidthPerPixelPhaseEncode": 17.17,
  "BaseResolution": 104,
  "BodyPartExamined": "BRAIN",
  "CoilCombinationMethod": "Sum of Squares",
  "ConsistencyInfo": "N4_VE11C_LATEST_20160120",
  "ConversionSoftware": "dcm2niix",
  "ConversionSoftwareVersion": "v1.0.20211006",
  "DerivedVendorReportedEchoSpacing": 0.000560011,
  "DeviceSerialNumber": "167006",
  "DwellTime": 2.1e-06,
  "EchoTime": 0.037,
  "EchoTime1": 0.037,
  "EchoTime2": 0.001,
  "EchoTrainLength": 104,
  "EffectiveEchoSpacing": 0.000560011,
  "FlipAngle": 52,
  "HeudiconvVersion": "0.10.0",
  "ImageComments": "Unaliased MB4/PE3/LB",
  "ImageOrientationPatientDICOM": [0.999593, -0.0257675, 0.0122122, 0.0282704, 0.951507, -0.306326],
  "ImageOrientationText": "Tra>Cor(-17.9)>Sag(0.2)",
  "ImageType": [
    "ORIGINAL",
    "PRIMARY",
    "P",
    "MB",
    "ND",
    "MOSAIC",
    "PHASE"
],
  "ImagingFrequency": 123.259,
  "InPlanePhaseEncodingDirectionDICOM": "COL",
  "InstitutionAddress": "Chemin Queen-Mary 4565,Montreal,District,CA,H3W 1W5",
  "InstitutionName": "IUGM",
  "InstitutionalDepartmentName": "Department",
  "MRAcquisitionType": "2D",
  "MagneticFieldStrength": 3,
  "Manufacturer": "Siemens",
  "ManufacturersModelName": "Prisma_fit",
  "MatrixCoilMode": "SENSE",
  "Modality": "MR",
  "MultibandAccelerationFactor": 4,
  "PartialFourier": 1,
  "PatientPosition": "HFS",
  "PercentPhaseFOV": 100,
  "PercentSampling": 100,
  "PhaseEncodingDirection": "j",
  "PhaseEncodingSteps": 104,
  "PhaseResolution": 1,
  "PixelBandwidth": 2290,
  "ProcedureStepDescription": "memory^things",
  "ProtocolName": "func_task-things_run-3",
  "PulseSequenceDetails": "%CustomerSeq%\\cmrr_mbep2d_bold",
  "ReceiveCoilActiveElements": "HC1-7;NC1,2",
  "ReceiveCoilName": "HeadNeck_64",
  "ReconMatrixPE": 104,
  "RepetitionTime": 1.49,
  "SAR": 0.045139,
  "ScanOptions": "FS",
  "ScanningSequence": "EP",
  "SequenceName": "epfid2d1_104",
  "SequenceVariant": "SK\\SS",
  "SeriesDescription": "func_task-things_run-3",
  "SeriesNumber": 17,
  "ShimSetting": [626, -7247, -8836, 600, -9, -210, -41, -35],
  "SliceThickness": 2,
  "SliceTiming": [0, 0.785, 0.0975, 0.8825, 0.195, 0.98, 0.295, 1.0775, 0.3925, 1.175, 0.49, 1.275, 0.5875, 1.3725, 0.685, 0, 0.785, 0.0975, 0.8825, 0.195, 0.98, 0.295, 1.0775, 0.3925, 1.175, 0.49, 1.275, 0.5875, 1.3725, 0.685, 0, 0.785, 0.0975, 0.8825, 0.195, 0.98, 0.295, 1.0775, 0.3925, 1.175, 0.49, 1.275, 0.5875, 1.3725, 0.685, 0, 0.785, 0.0975, 0.8825, 0.195, 0.98, 0.295, 1.0775, 0.3925, 1.175, 0.49, 1.275, 0.5875, 1.3725, 0.685],
  "SoftwareVersions": "syngo MR E11",
  "SpacingBetweenSlices": 2,
  "StationName": "MRC35049",
  "TaskName": "things",
  "TotalReadoutTime": 0.0576811,
  "TxRefAmp": 245.362,
  "WipMemBlock": "4fdec2eb-70d1-499e-bcfb-d1c15b9dc081||Sequence: R016 ve11c/master r/e634e98; Dec 19 2017 11:00:25 by eja",
  "dcmmeta_affine": [
    [-1.9991867542266846, 0.05654073879122734, 0.007453565951436758, 103.97508239746094],
    [0.0515349879860878, 1.9030135869979858, -0.6130932569503784, -68.69693756103516],
    [0.024424493312835693, 0.6126518845558167, 1.9036966562271118, -68.3331527709961],
    [0.0, 0.0, 0.0, 1.0]
],
  "dcmmeta_reorient_transform": [
    [0.0, -1.0, 0.0, 103.0],
    [1.0, 0.0, 0.0, 0.0],
    [0.0, 0.0, 1.0, 0.0],
    [0.0, 0.0, 0.0, 1.0]
],
  "dcmmeta_shape": [104, 104, 60, 190],
  "dcmmeta_slice_dim": 2,
  "dcmmeta_version": 0.6,
  "global": {
    "const": {
      "AcquisitionMatrix": [104, 0, 0, 104],
      "AngioFlag": "N",
      "BitsAllocated": 16,
      "BitsStored": 16,
      "BodyPartExamined": "BRAIN",
      "Columns": 832,
      "EchoNumbers": 1,
      "EchoTime": 37.0,
      "EchoTrainLength": 104,
      "FlipAngle": 52.0,
      "HighBit": 15,
      "ImageOrientationPatient": [0.99959336595993, -0.0257674944612, 0.01221224623418, 0.02827036995068, 0.95150680275612, -0.3063259546491],
      "ImagePositionPatient": [-858.08357489476, -801.25167791138, 208.88477626913],
      "ImageType": [
        "ORIGINAL",
        "PRIMARY",
        "P",
        "MB",
        "ND",
        "MOSAIC"
],
      "ImagedNucleus": "1H",
      "ImagingFrequency": 123.258876,
      "InPlanePhaseEncodingDirection": "COL",
      "LargestImagePixelValue": 4095,
      "MRAcquisitionType": "2D",
      "MagneticFieldStrength": 3.0,
      "Manufacturer": "SIEMENS",
      "ManufacturerModelName": "Prisma_fit",
      "Modality": "MR",
      "NumberOfAverages": 1.0,
      "NumberOfPhaseEncodingSteps": 104,
      "PercentPhaseFieldOfView": 100.0,
      "PercentSampling": 100.0,
      "PerformedProcedureStepStartTime": "142519.344000",
      "PhotometricInterpretation": "MONOCHROME2",
      "PixelBandwidth": 2290.0,
      "PixelRepresentation": 0,
      "PixelSpacing": [2.0, 2.0],
      "ProtocolName": "func_task-things_run-3",
      "RepetitionTime": 1490.0,
      "RescaleIntercept": -4096.0,
      "RescaleSlope": 2.0,
      "RescaleType": "US",
      "Rows": 832,
      "SAR": 0.04513896580173,
      "SamplesPerPixel": 1,
      "ScanOptions": "FS",
      "ScanningSequence": "EP",
      "SequenceName": "epfid2d1_104",
      "SequenceVariant": [
        "SK",
        "SS"
],
      "SeriesDescription": "func_task-things_run-3",
      "SeriesNumber": 17,
      "SeriesTime": "154436.970000",
      "SliceLocation": -43.596487354114,
      "SliceThickness": 2.0,
      "SmallestImagePixelValue": 0,
      "SoftwareVersions": "syngo MR E11",
      "SpacingBetweenSlices": 1.999999983259,
      "SpecificCharacterSet": "ISO_IR 100",
      "StudyID": "1",
      "StudyTime": "142519.282000",
      "TransmitCoilName": "Body",
      "VariableFlipAngleFlag": "N",
      "WindowCenterWidthExplanation": "Algo1",
      "dBdt": 0.0},
    "slices": {}
  },
  "time": {
    "samples": {
      "AcquisitionNumber": [1, 2, 3, 4, 5, 6, 7, 8, 9, 10, 11, 12, 13, 14, 15, 16, 17, 18, 19, 20, 21, 22, 23, 24, 25, 26, 27, 28, 29, 30, 31, 32, 33, 34, 35, 36, 37, 38, 39, 40, 41, 42, 43, 44, 45, 46, 47, 48, 49, 50, 51, 52, 53, 54, 55, 56, 57, 58, 59, 60, 61, 62, 63, 64, 65, 66, 67, 68, 69, 70, 71, 72, 73, 74, 75, 76, 77, 78, 79, 80, 81, 82, 83, 84, 85, 86, 87, 88, 89, 90, 91, 92, 93, 94, 95, 96, 97, 98, 99, 100, 101, 102, 103, 104, 105, 106, 107, 108, 109, 110, 111, 112, 113, 114, 115, 116, 117, 118, 119, 120, 121, 122, 123, 124, 125, 126, 127, 128, 129, 130, 131, 132, 133, 134, 135, 136, 137, 138, 139, 140, 141, 142, 143, 144, 145, 146, 147, 148, 149, 150, 151, 152, 153, 154, 155, 156, 157, 158, 159, 160, 161, 162, 163, 164, 165, 166, 167, 168, 169, 170, 171, 172, 173, 174, 175, 176, 177, 178, 179, 180, 181, 182, 183, 184, 185, 186, 187, 188, 189, 190],
      "AcquisitionTime": ["154329.157500", "154330.647500", "154332.137500", "154333.627500", "154335.117500", "154336.607500", "154338.097500", "154339.587500", "154341.077500", "154342.567500", "154344.057500", "154345.547500", "154347.037500", "154348.527500", "154350.017500", "154351.507500", "154352.997500", "154354.487500", "154355.977500", "154357.467500", "154358.957500", "154400.447500", "154401.937500", "154403.427500", "154404.917500", "154406.407500", "154407.897500", "154409.387500", "154410.877500", "154412.367500", "154413.857500", "154415.347500", "154416.837500", "154418.327500", "154419.817500", "154421.307500", "154422.797500", "154424.287500", "154425.777500", "154427.267500", "154428.757500", "154430.247500", "154431.737500", "154433.227500", "154434.717500", "154436.207500", "154437.697500", "154439.187500", "154440.677500", "154442.167500", "154443.657500", "154445.147500", "154446.637500", "154448.127500", "154449.617500", "154451.107500", "154452.597500", "154454.087500", "154455.577500", "154457.067500", "154458.557500", "154500.047500", "154501.537500", "154503.027500", "154504.517500", "154506.007500", "154507.497500", "154508.987500", "154510.477500", "154511.967500", "154513.457500", "154514.947500", "154516.437500", "154517.927500", "154519.417500", "154520.907500", "154522.397500", "154523.887500", "154525.377500", "154526.867500", "154528.357500", "154529.847500", "154531.337500", "154532.827500", "154534.317500", "154535.807500", "154537.297500", "154538.787500", "154540.277500", "154541.767500", "154543.257500", "154544.747500", "154546.237500", "154547.727500", "154549.217500", "154550.707500", "154552.197500", "154553.687500", "154555.177500", "154556.667500", "154558.157500", "154559.647500", "154601.137500", "154602.627500", "154604.117500", "154605.607500", "154607.097500", "154608.587500", "154610.077500", "154611.567500", "154613.057500", "154614.547500", "154616.037500", "154617.527500", "154619.017500", "154620.507500", "154621.997500", "154623.487500", "154624.977500", "154626.467500", "154627.957500", "154629.447500", "154630.937500", "154632.427500", "154633.917500", "154635.407500", "154636.897500", "154638.387500", "154639.877500", "154641.367500", "154642.857500", "154644.347500", "154645.837500", "154647.327500", "154648.817500", "154650.307500", "154651.797500", "154653.287500", "154654.777500", "154656.267500", "154657.757500", "154659.247500", "154700.737500", "154702.227500", "154703.717500", "154705.207500", "154706.697500", "154708.187500", "154709.677500", "154711.167500", "154712.657500", "154714.147500", "154715.637500", "154717.127500", "154718.617500", "154720.107500", "154721.597500", "154723.087500", "154724.577500", "154726.067500", "154727.557500", "154729.047500", "154730.537500", "154732.027500", "154733.517500", "154735.007500", "154736.497500", "154737.987500", "154739.477500", "154740.967500", "154742.457500", "154743.947500", "154745.437500", "154746.927500", "154748.417500", "154749.907500", "154751.397500", "154752.887500", "154754.377500", "154755.867500", "154757.357500", "154758.847500", "154800.337500", "154801.827500", "154803.317500", "154804.807500", "154806.297500", "154807.787500", "154809.277500", "154810.767500"],
      "ContentTime": ["154436.972000", "154436.975000", "154436.978000", "154436.980000", "154436.983000", "154436.985000", "154436.988000", "154436.990000", "154436.993000", "154437.001000", "154437.004000", "154437.006000", "154437.009000", "154437.011000", "154457.256000", "154457.262000", "154457.265000", "154457.267000", "154457.270000", "154457.272000", "154457.275000", "154457.277000", "154457.280000", "154457.282000", "154457.285000", "154457.287000", "154457.290000", "154457.292000", "154457.295000", "154457.297000", "154457.300000", "154457.302000", "154457.305000", "154457.307000", "154516.947000", "154516.950000", "154516.952000", "154516.955000", "154516.962000", "154516.965000", "154516.967000", "154516.970000", "154516.972000", "154516.975000", "154516.977000", "154516.980000", "154516.982000", "154516.985000", "154516.987000", "154516.990000", "154516.992000", "154516.995000", "154516.997000", "154517.001000", "154517.004000", "154536.946000", "154536.949000", "154536.951000", "154536.954000", "154536.957000", "154536.959000", "154536.961000", "154536.964000", "154536.967000", "154536.969000", "154536.972000", "154536.974000", "154536.977000", "154536.979000", "154536.982000", "154536.984000", "154536.987000", "154536.989000", "154536.992000", "154536.994000", "154556.945000", "154556.948000", "154556.951000", "154556.954000", "154556.956000", "154556.959000", "154556.961000", "154556.964000", "154556.966000", "154556.969000", "154556.971000", "154556.974000", "154556.976000", "154556.979000", "154556.981000", "154556.984000", "154556.986000", "154556.989000", "154556.991000", "154556.994000", "154637.006000", "154637.008000", "154637.011000", "154637.013000", "154637.016000", "154637.019000", "154637.021000", "154637.024000", "154637.026000", "154637.029000", "154637.031000", "154637.034000", "154637.036000", "154637.039000", "154637.041000", "154637.044000", "154637.046000", "154637.049000", "154637.051000", "154637.054000", "154637.056000", "154637.059000", "154637.061000", "154637.064000", "154637.066000", "154637.069000", "154637.071000", "154637.074000", "154637.076000", "154637.079000", "154716.985000", "154716.987000", "154716.990000", "154716.992000", "154716.995000", "154716.998000", "154717.001000", "154717.003000", "154717.006000", "154717.009000", "154717.011000", "154717.013000", "154717.016000", "154717.019000", "154717.021000", "154717.023000", "154717.030000", "154717.032000", "154717.035000", "154717.037000", "154717.040000", "154717.042000", "154717.045000", "154717.047000", "154717.050000", "154717.052000", "154717.055000", "154756.992000", "154756.995000", "154756.998000", "154757.006000", "154757.009000", "154757.011000", "154757.014000", "154757.016000", "154757.019000", "154757.022000", "154757.024000", "154757.027000", "154757.030000", "154757.032000", "154757.035000", "154757.037000", "154757.040000", "154757.042000", "154757.045000", "154757.048000", "154757.050000", "154757.053000", "154757.055000", "154757.058000", "154757.060000", "154757.063000", "154813.392000", "154813.395000", "154813.398000", "154813.401000", "154813.403000", "154813.412000", "154813.415000", "154813.418000", "154813.421000", "154813.424000", "154813.427000", "154813.430000"],
      "InstanceCreationTime": ["154436.972000", "154436.975000", "154436.978000", "154436.980000", "154436.983000", "154436.985000", "154436.988000", "154436.990000", "154436.993000", "154437.001000", "154437.004000", "154437.006000", "154437.009000", "154437.011000", "154457.256000", "154457.262000", "154457.265000", "154457.267000", "154457.270000", "154457.272000", "154457.275000", "154457.277000", "154457.280000", "154457.282000", "154457.285000", "154457.287000", "154457.290000", "154457.292000", "154457.295000", "154457.297000", "154457.300000", "154457.302000", "154457.305000", "154457.307000", "154516.947000", "154516.950000", "154516.952000", "154516.955000", "154516.962000", "154516.965000", "154516.967000", "154516.970000", "154516.972000", "154516.975000", "154516.977000", "154516.980000", "154516.982000", "154516.985000", "154516.987000", "154516.990000", "154516.992000", "154516.995000", "154516.997000", "154517.001000", "154517.004000", "154536.946000", "154536.949000", "154536.951000", "154536.954000", "154536.957000", "154536.959000", "154536.961000", "154536.964000", "154536.967000", "154536.969000", "154536.972000", "154536.974000", "154536.977000", "154536.979000", "154536.982000", "154536.984000", "154536.987000", "154536.989000", "154536.992000", "154536.994000", "154556.945000", "154556.948000", "154556.951000", "154556.954000", "154556.956000", "154556.959000", "154556.961000", "154556.964000", "154556.966000", "154556.969000", "154556.971000", "154556.974000", "154556.976000", "154556.979000", "154556.981000", "154556.984000", "154556.986000", "154556.989000", "154556.991000", "154556.994000", "154637.006000", "154637.008000", "154637.011000", "154637.013000", "154637.016000", "154637.019000", "154637.021000", "154637.024000", "154637.026000", "154637.029000", "154637.031000", "154637.034000", "154637.036000", "154637.039000", "154637.041000", "154637.044000", "154637.046000", "154637.049000", "154637.051000", "154637.054000", "154637.056000", "154637.059000", "154637.061000", "154637.064000", "154637.066000", "154637.069000", "154637.071000", "154637.074000", "154637.076000", "154637.079000", "154716.985000", "154716.987000", "154716.990000", "154716.992000", "154716.995000", "154716.998000", "154717.001000", "154717.003000", "154717.006000", "154717.009000", "154717.011000", "154717.013000", "154717.016000", "154717.019000", "154717.021000", "154717.023000", "154717.030000", "154717.032000", "154717.035000", "154717.037000", "154717.040000", "154717.042000", "154717.045000", "154717.047000", "154717.050000", "154717.052000", "154717.055000", "154756.992000", "154756.995000", "154756.998000", "154757.006000", "154757.009000", "154757.011000", "154757.014000", "154757.016000", "154757.019000", "154757.022000", "154757.024000", "154757.027000", "154757.030000", "154757.032000", "154757.035000", "154757.037000", "154757.040000", "154757.042000", "154757.045000", "154757.048000", "154757.050000", "154757.053000", "154757.055000", "154757.058000", "154757.060000", "154757.063000", "154813.392000", "154813.395000", "154813.398000", "154813.401000", "154813.403000", "154813.412000", "154813.415000", "154813.418000", "154813.421000", "154813.424000", "154813.427000", "154813.430000"],
      "InstanceNumber": [1, 2, 3, 4, 5, 6, 7, 8, 9, 10, 11, 12, 13, 14, 15, 16, 17, 18, 19, 20, 21, 22, 23, 24, 25, 26, 27, 28, 29, 30, 31, 32, 33, 34, 35, 36, 37, 38, 39, 40, 41, 42, 43, 44, 45, 46, 47, 48, 49, 50, 51, 52, 53, 54, 55, 56, 57, 58, 59, 60, 61, 62, 63, 64, 65, 66, 67, 68, 69, 70, 71, 72, 73, 74, 75, 76, 77, 78, 79, 80, 81, 82, 83, 84, 85, 86, 87, 88, 89, 90, 91, 92, 93, 94, 95, 96, 97, 98, 99, 100, 101, 102, 103, 104, 105, 106, 107, 108, 109, 110, 111, 112, 113, 114, 115, 116, 117, 118, 119, 120, 121, 122, 123, 124, 125, 126, 127, 128, 129, 130, 131, 132, 133, 134, 135, 136, 137, 138, 139, 140, 141, 142, 143, 144, 145, 146, 147, 148, 149, 150, 151, 152, 153, 154, 155, 156, 157, 158, 159, 160, 161, 162, 163, 164, 165, 166, 167, 168, 169, 170, 171, 172, 173, 174, 175, 176, 177, 178, 179, 180, 181, 182, 183, 184, 185, 186, 187, 188, 189, 190],
      "WindowCenter": [4806.0, 4802.0, 4862.0, 4870.0, 4842.0, 4804.0, 4806.0, 4830.0, 4806.0, 4774.0, 4800.0, 4838.0, 4834.0, 4772.0, 4776.0, 4840.0, 4878.0, 4878.0, 4876.0, 4842.0, 4810.0, 4802.0, 4800.0, 4800.0, 4806.0, 4776.0, 4780.0, 4774.0, 4878.0, 4878.0, 4876.0, 4876.0, 4804.0, 4776.0, 4800.0, 4804.0, 4802.0, 4830.0, 4842.0, 4868.0, 4808.0, 4796.0, 4834.0, 4874.0, 4872.0, 4872.0, 4834.0, 4778.0, 4798.0, 4804.0, 4838.0, 4842.0, 4836.0, 4804.0, 4838.0, 4842.0, 4808.0, 4772.0, 4800.0, 4842.0, 4840.0, 4842.0, 4868.0, 4834.0, 4776.0, 4778.0, 4832.0, 4870.0, 4876.0, 4874.0, 4872.0, 4844.0, 4832.0, 4804.0, 4776.0, 4780.0, 4800.0, 4874.0, 4880.0, 4876.0, 4880.0, 4868.0, 4808.0, 4780.0, 4802.0, 4800.0, 4866.0, 4876.0, 4876.0, 4876.0, 4838.0, 4832.0, 4810.0, 4804.0, 4802.0, 4778.0, 4808.0, 4842.0, 4842.0, 4870.0, 4872.0, 4810.0, 4836.0, 4840.0, 4804.0, 4776.0, 4802.0, 4844.0, 4876.0, 4866.0, 4806.0, 4838.0, 4838.0, 4800.0, 4806.0, 4810.0, 4804.0, 4834.0, 4844.0, 4872.0, 4836.0, 4808.0, 4840.0, 4832.0, 4776.0, 4786.0, 4798.0, 4872.0, 4876.0, 4878.0, 4878.0, 4870.0, 4836.0, 4802.0, 4806.0, 4800.0, 4806.0, 4842.0, 4872.0, 4866.0, 4800.0, 4830.0, 4846.0, 4870.0, 4832.0, 4804.0, 4800.0, 4804.0, 4810.0, 4842.0, 4842.0, 4800.0, 4808.0, 4842.0, 4870.0, 4836.0, 4834.0, 4842.0, 4802.0, 4834.0, 4842.0, 4832.0, 4836.0, 4840.0, 4804.0, 4838.0, 4842.0, 4832.0, 4838.0, 4838.0, 4800.0, 4798.0, 4830.0, 4870.0, 4878.0, 4844.0, 4840.0, 4840.0, 4800.0, 4806.0, 4788.0, 4776.0, 4874.0, 4880.0, 4878.0, 4876.0, 4848.0, 4808.0, 4800.0, 4804.0],
      "WindowWidth": [18604.0, 18588.0, 18678.0, 18680.0, 18652.0, 18598.0, 18594.0, 18632.0, 18596.0, 18560.0, 18588.0, 18638.0, 18634.0, 18562.0, 18566.0, 18646.0, 18686.0, 18686.0, 18682.0, 18646.0, 18602.0, 18596.0, 18588.0, 18594.0, 18594.0, 18564.0, 18574.0, 18564.0, 18692.0, 18670.0, 18672.0, 18686.0, 18600.0, 18560.0, 18594.0, 18594.0, 18588.0, 18626.0, 18644.0, 18680.0, 18602.0, 18586.0, 18636.0, 18688.0, 18682.0, 18686.0, 18638.0, 18560.0, 18590.0, 18592.0, 18634.0, 18642.0, 18638.0, 18600.0, 18636.0, 18646.0, 18604.0, 18562.0, 18594.0, 18644.0, 18638.0, 18648.0, 18682.0, 18638.0, 18564.0, 18564.0, 18632.0, 18680.0, 18686.0, 18686.0, 18680.0, 18646.0, 18634.0, 18596.0, 18562.0, 18570.0, 18594.0, 18682.0, 18686.0, 18684.0, 18686.0, 18684.0, 18600.0, 18568.0, 18604.0, 18588.0, 18680.0, 18686.0, 18682.0, 18688.0, 18644.0, 18632.0, 18596.0, 18592.0, 18590.0, 18564.0, 18598.0, 18642.0, 18646.0, 18684.0, 18682.0, 18600.0, 18636.0, 18642.0, 18594.0, 18564.0, 18596.0, 18644.0, 18688.0, 18680.0, 18604.0, 18638.0, 18638.0, 18594.0, 18592.0, 18602.0, 18594.0, 18632.0, 18644.0, 18682.0, 18636.0, 18602.0, 18644.0, 18634.0, 18560.0, 18576.0, 18592.0, 18688.0, 18680.0, 18676.0, 18686.0, 18684.0, 18634.0, 18594.0, 18604.0, 18598.0, 18594.0, 18642.0, 18678.0, 18678.0, 18594.0, 18630.0, 18648.0, 18682.0, 18634.0, 18602.0, 18594.0, 18596.0, 18602.0, 18644.0, 18642.0, 18590.0, 18596.0, 18644.0, 18682.0, 18634.0, 18630.0, 18644.0, 18590.0, 18632.0, 18648.0, 18632.0, 18640.0, 18644.0, 18600.0, 18636.0, 18640.0, 18632.0, 18638.0, 18640.0, 18594.0, 18594.0, 18632.0, 18684.0, 18690.0, 18650.0, 18644.0, 18640.0, 18594.0, 18606.0, 18580.0, 18562.0, 18688.0, 18676.0, 18674.0, 18682.0, 18652.0, 18598.0, 18584.0, 18600.0]
    },
    "slices": {}
  }
}