{
  "AcquisitionMatrixPE": 104,
  "AcquisitionNumber": 1,
  "AcquisitionTime": "15:55:40.790000",
  "BandwidthPerPixelPhaseEncode": 17.17,
  "BaseResolution": 104,
  "BodyPartExamined": "BRAIN",
  "CoilString": "HC1-7;NC1_2",
  "ConsistencyInfo": "N4_VE11C_LATEST_20160120",
  "ConversionSoftware": "dcm2niix",
  "ConversionSoftwareVersion": "v1.0.20190902",
  "DerivedVendorReportedEchoSpacing": 0.000560011,
  "DeviceSerialNumber": "167006",
  "DwellTime": 2.1e-06,
  "EchoTime": 0.037,
  "EchoTrainLength": 104,
  "EffectiveEchoSpacing": 0.000560011,
  "FlipAngle": 52,
  "ImageComments": "Unaliased_MB4_PE3_LB",
  "ImageOrientationPatientDICOM": [0.999451, -0.0330716, 0.0019263, 0.0321075, 0.952714, -0.302169],
  "ImageType": [
    "ORIGINAL",
    "PRIMARY",
    "P",
    "MB",
    "ND",
    "MOSAIC"
],
  "ImagingFrequency": 123.259,
  "InPlanePhaseEncodingDirectionDICOM": "COL",
  "InstitutionAddress": "Chemin_Queen-Mary_4565_Montreal_District_CA_H3W_1W5",
  "InstitutionName": "IUGM",
  "InstitutionalDepartmentName": "Department",
  "MRAcquisitionType": "2D",
  "MagneticFieldStrength": 3,
  "Manufacturer": "Siemens",
  "ManufacturersModelName": "Prisma_fit",
  "Modality": "MR",
  "MultibandAccelerationFactor": 4,
  "PartialFourier": 1,
  "PatientPosition": "HFS",
  "PercentPhaseFOV": 100,
  "PhaseEncodingDirection": "j",
  "PhaseEncodingSteps": 104,
  "PhaseResolution": 1,
  "PixelBandwidth": 2290,
  "ProcedureStepDescription": "memory_things",
  "ProtocolName": "func_task-things_run-6",
  "PulseSequenceDetails": "%CustomerSeq%_cmrr_mbep2d_bold",
  "ReceiveCoilActiveElements": "HC1-7;NC1,2",
  "ReceiveCoilName": "HeadNeck_64",
  "ReconMatrixPE": 104,
  "RepetitionTime": 1.49,
  "SAR": 0.0343488,
  "ScanOptions": "FS",
  "ScanningSequence": "EP",
  "SequenceName": "epfid2d1_104",
  "SequenceVariant": "SK_SS",
  "SeriesDescription": "func_task-things_run-6",
  "SeriesNumber": 26,
  "ShimSetting": [619, -7259, -8799, 619, -17, -224, -11, -21],
  "SliceThickness": 2,
  "SliceTiming": [0, 0.7825, 0.0975, 0.8825, 0.195, 0.98, 0.2925, 1.0775, 0.3925, 1.175, 0.49, 1.2725, 0.5875, 1.3725, 0.685, 0, 0.7825, 0.0975, 0.8825, 0.195, 0.98, 0.2925, 1.0775, 0.3925, 1.175, 0.49, 1.2725, 0.5875, 1.3725, 0.685, 0, 0.7825, 0.0975, 0.8825, 0.195, 0.98, 0.2925, 1.0775, 0.3925, 1.175, 0.49, 1.2725, 0.5875, 1.3725, 0.685, 0, 0.7825, 0.0975, 0.8825, 0.195, 0.98, 0.2925, 1.0775, 0.3925, 1.175, 0.49, 1.2725, 0.5875, 1.3725, 0.685],
  "SoftwareVersions": "syngo_MR_E11",
  "SpacingBetweenSlices": 2,
  "StationName": "MRC35049",
  "TaskName": "things",
  "TotalReadoutTime": 0.0576811,
  "TxRefAmp": 231.001,
  "WipMemBlock": "f153d4a3-3367-45ae-9e54-727771f2b1eb||Sequence: R016 ve11c/master r/e634e98; Dec 19 2017 11:00:25 by eja",
  "dcmmeta_affine": [
    [-1.9989022016525269, 0.06421500444412231, -0.016315996646881104, 103.93379974365234],
    [0.06614329665899277, 1.90542733669281, -0.6041290163993835, -71.25801086425781],
    [0.0038526018615812063, 0.6043370366096497, 1.9065051078796387, -56.782108306884766],
    [0.0, 0.0, 0.0, 1.0]
],
  "dcmmeta_reorient_transform": [
    [0.0, -1.0, 0.0, 103.0],
    [1.0, 0.0, 0.0, 0.0],
    [0.0, 0.0, 1.0, 0.0],
    [0.0, 0.0, 0.0, 1.0]
],
  "dcmmeta_shape": [104, 104, 60, 190],
  "dcmmeta_slice_dim": 2,
  "dcmmeta_version": 0.6,
  "global": {
    "const": {
      "AcquisitionMatrix": [104, 0, 0, 104],
      "AngioFlag": "N",
      "BitsAllocated": 16,
      "BitsStored": 16,
      "BodyPartExamined": "BRAIN",
      "Columns": 832,
      "EchoNumbers": 1,
      "EchoTime": 37.0,
      "EchoTrainLength": 104,
      "FlipAngle": 52.0,
      "HighBit": 15,
      "ImageOrientationPatient": [0.99945112703872, -0.0330716498824, 0.00192630088322, 0.03210750254817, 0.95271364505466, -0.3021685271612],
      "ImagePositionPatient": [-861.52262535348, -794.50037057415, 224.04095029309],
      "ImageType": [
        "ORIGINAL",
        "PRIMARY",
        "P",
        "MB",
        "ND",
        "MOSAIC"
],
      "ImagedNucleus": "1H",
      "ImagingFrequency": 123.258918,
      "InPlanePhaseEncodingDirection": "COL",
      "LargestImagePixelValue": 4095,
      "MRAcquisitionType": "2D",
      "MagneticFieldStrength": 3.0,
      "Manufacturer": "SIEMENS",
      "ManufacturerModelName": "Prisma_fit",
      "Modality": "MR",
      "NumberOfAverages": 1.0,
      "NumberOfPhaseEncodingSteps": 104,
      "PercentPhaseFieldOfView": 100.0,
      "PercentSampling": 100.0,
      "PerformedProcedureStepStartTime": "150020.534000",
      "PhotometricInterpretation": "MONOCHROME2",
      "PixelBandwidth": 2290.0,
      "PixelRepresentation": 0,
      "PixelSpacing": [2.0, 2.0],
      "ProtocolName": "func_task-things_run-6",
      "RepetitionTime": 1490.0,
      "RescaleIntercept": -4096.0,
      "RescaleSlope": 2.0,
      "RescaleType": "US",
      "Rows": 832,
      "SAR": 0.03434883985515,
      "SamplesPerPixel": 1,
      "ScanOptions": "FS",
      "ScanningSequence": "EP",
      "SequenceName": "epfid2d1_104",
      "SequenceVariant": [
        "SK",
        "SS"
],
      "SeriesDescription": "func_task-things_run-6",
      "SeriesNumber": 26,
      "SeriesTime": "155655.236000",
      "SliceLocation": -33.45106378509,
      "SliceThickness": 2.0,
      "SmallestImagePixelValue": 0,
      "SoftwareVersions": "syngo MR E11",
      "SpacingBetweenSlices": 1.9999999817828,
      "SpecificCharacterSet": "ISO_IR 100",
      "StudyID": "1",
      "StudyTime": "150020.398000",
      "TransmitCoilName": "Body",
      "VariableFlipAngleFlag": "N",
      "WindowCenterWidthExplanation": "Algo1",
      "dBdt": 0.0},
    "slices": {}
  },
  "time": {
    "samples": {
      "AcquisitionNumber": [1, 2, 3, 4, 5, 6, 7, 8, 9, 10, 11, 12, 13, 14, 15, 16, 17, 18, 19, 20, 21, 22, 23, 24, 25, 26, 27, 28, 29, 30, 31, 32, 33, 34, 35, 36, 37, 38, 39, 40, 41, 42, 43, 44, 45, 46, 47, 48, 49, 50, 51, 52, 53, 54, 55, 56, 57, 58, 59, 60, 61, 62, 63, 64, 65, 66, 67, 68, 69, 70, 71, 72, 73, 74, 75, 76, 77, 78, 79, 80, 81, 82, 83, 84, 85, 86, 87, 88, 89, 90, 91, 92, 93, 94, 95, 96, 97, 98, 99, 100, 101, 102, 103, 104, 105, 106, 107, 108, 109, 110, 111, 112, 113, 114, 115, 116, 117, 118, 119, 120, 121, 122, 123, 124, 125, 126, 127, 128, 129, 130, 131, 132, 133, 134, 135, 136, 137, 138, 139, 140, 141, 142, 143, 144, 145, 146, 147, 148, 149, 150, 151, 152, 153, 154, 155, 156, 157, 158, 159, 160, 161, 162, 163, 164, 165, 166, 167, 168, 169, 170, 171, 172, 173, 174, 175, 176, 177, 178, 179, 180, 181, 182, 183, 184, 185, 186, 187, 188, 189, 190],
      "AcquisitionTime": ["155540.790000", "155542.280000", "155543.770000", "155545.260000", "155546.750000", "155548.240000", "155549.730000", "155551.220000", "155552.710000", "155554.200000", "155555.690000", "155557.180000", "155558.670000", "155600.160000", "155601.650000", "155603.140000", "155604.630000", "155606.120000", "155607.610000", "155609.100000", "155610.590000", "155612.080000", "155613.570000", "155615.060000", "155616.550000", "155618.040000", "155619.530000", "155621.020000", "155622.510000", "155624.000000", "155625.490000", "155626.980000", "155628.470000", "155629.960000", "155631.450000", "155632.940000", "155634.430000", "155635.920000", "155637.410000", "155638.900000", "155640.390000", "155641.880000", "155643.370000", "155644.860000", "155646.350000", "155647.840000", "155649.330000", "155650.820000", "155652.310000", "155653.800000", "155655.290000", "155656.780000", "155658.270000", "155659.760000", "155701.250000", "155702.740000", "155704.230000", "155705.720000", "155707.210000", "155708.700000", "155710.190000", "155711.680000", "155713.170000", "155714.660000", "155716.150000", "155717.640000", "155719.130000", "155720.620000", "155722.110000", "155723.600000", "155725.090000", "155726.580000", "155728.070000", "155729.560000", "155731.050000", "155732.540000", "155734.030000", "155735.520000", "155737.010000", "155738.500000", "155739.990000", "155741.480000", "155742.970000", "155744.460000", "155745.950000", "155747.440000", "155748.930000", "155750.420000", "155751.910000", "155753.400000", "155754.890000", "155756.380000", "155757.870000", "155759.360000", "155800.850000", "155802.340000", "155803.830000", "155805.320000", "155806.810000", "155808.300000", "155809.790000", "155811.280000", "155812.770000", "155814.260000", "155815.750000", "155817.240000", "155818.730000", "155820.220000", "155821.710000", "155823.200000", "155824.690000", "155826.180000", "155827.670000", "155829.160000", "155830.650000", "155832.140000", "155833.630000", "155835.120000", "155836.610000", "155838.100000", "155839.590000", "155841.080000", "155842.570000", "155844.060000", "155845.550000", "155847.040000", "155848.530000", "155850.020000", "155851.510000", "155853.000000", "155854.490000", "155855.980000", "155857.470000", "155858.960000", "155900.450000", "155901.940000", "155903.430000", "155904.920000", "155906.410000", "155907.900000", "155909.390000", "155910.880000", "155912.370000", "155913.860000", "155915.350000", "155916.840000", "155918.330000", "155919.820000", "155921.310000", "155922.800000", "155924.290000", "155925.780000", "155927.270000", "155928.760000", "155930.250000", "155931.740000", "155933.230000", "155934.720000", "155936.210000", "155937.700000", "155939.190000", "155940.680000", "155942.170000", "155943.660000", "155945.150000", "155946.640000", "155948.130000", "155949.620000", "155951.110000", "155952.600000", "155954.090000", "155955.580000", "155957.070000", "155958.560000", "160000.050000", "160001.540000", "160003.030000", "160004.520000", "160006.010000", "160007.500000", "160008.990000", "160010.480000", "160011.970000", "160013.460000", "160014.950000", "160016.440000", "160017.930000", "160019.420000", "160020.910000", "160022.400000"],
      "ContentTime": ["155655.238000", "155655.241000", "155655.244000", "155655.246000", "155655.248000", "155655.251000", "155655.253000", "155655.256000", "155655.258000", "155655.261000", "155655.263000", "155655.266000", "155655.268000", "155655.270000", "155655.273000", "155655.275000", "155655.278000", "155655.280000", "155655.283000", "155655.285000", "155715.207000", "155715.210000", "155715.226000", "155715.228000", "155715.231000", "155715.233000", "155715.236000", "155715.238000", "155715.241000", "155715.243000", "155715.246000", "155715.248000", "155715.250000", "155715.253000", "155715.255000", "155715.258000", "155715.260000", "155715.271000", "155715.274000", "155715.276000", "155715.279000", "155735.201000", "155735.204000", "155735.207000", "155735.209000", "155735.217000", "155735.220000", "155735.222000", "155735.225000", "155735.228000", "155735.230000", "155735.233000", "155735.235000", "155735.238000", "155735.240000", "155735.243000", "155735.245000", "155735.247000", "155735.250000", "155735.252000", "155735.255000", "155755.183000", "155755.186000", "155755.188000", "155755.191000", "155755.193000", "155755.196000", "155755.198000", "155755.201000", "155755.203000", "155755.206000", "155755.208000", "155755.211000", "155755.213000", "155755.216000", "155755.218000", "155755.220000", "155755.223000", "155755.225000", "155755.228000", "155755.230000", "155815.188000", "155815.191000", "155815.193000", "155815.196000", "155815.198000", "155815.201000", "155815.203000", "155815.206000", "155815.208000", "155815.211000", "155815.213000", "155815.216000", "155815.218000", "155815.221000", "155815.223000", "155815.225000", "155815.228000", "155815.230000", "155815.233000", "155815.235000", "155815.238000", "155855.219000", "155855.221000", "155855.224000", "155855.226000", "155855.229000", "155855.231000", "155855.234000", "155855.236000", "155855.239000", "155855.241000", "155855.244000", "155855.246000", "155855.249000", "155855.251000", "155855.253000", "155855.256000", "155855.258000", "155855.261000", "155855.263000", "155855.266000", "155855.277000", "155855.279000", "155855.282000", "155855.284000", "155855.287000", "155855.289000", "155855.292000", "155855.294000", "155935.225000", "155935.228000", "155935.231000", "155935.242000", "155935.245000", "155935.247000", "155935.250000", "155935.252000", "155935.255000", "155935.257000", "155935.260000", "155935.262000", "155935.265000", "155935.267000", "155935.270000", "155935.272000", "155935.274000", "155935.277000", "155935.279000", "155935.282000", "155935.284000", "155935.287000", "155935.289000", "155935.292000", "155935.294000", "155935.297000", "160015.210000", "160015.214000", "160015.216000", "160015.219000", "160015.221000", "160015.224000", "160015.226000", "160015.229000", "160015.231000", "160015.234000", "160015.236000", "160015.239000", "160015.241000", "160015.243000", "160015.246000", "160015.248000", "160015.251000", "160015.253000", "160015.256000", "160015.258000", "160015.261000", "160015.263000", "160015.265000", "160015.268000", "160015.270000", "160015.273000", "160015.275000", "160024.397000", "160024.399000", "160024.402000", "160024.404000", "160024.407000", "160024.409000", "160024.412000"],
      "InstanceCreationTime": ["155655.238000", "155655.241000", "155655.244000", "155655.246000", "155655.248000", "155655.251000", "155655.253000", "155655.256000", "155655.258000", "155655.261000", "155655.263000", "155655.266000", "155655.268000", "155655.270000", "155655.273000", "155655.275000", "155655.278000", "155655.280000", "155655.283000", "155655.285000", "155715.207000", "155715.210000", "155715.226000", "155715.228000", "155715.231000", "155715.233000", "155715.236000", "155715.238000", "155715.241000", "155715.243000", "155715.246000", "155715.248000", "155715.250000", "155715.253000", "155715.255000", "155715.258000", "155715.260000", "155715.271000", "155715.274000", "155715.276000", "155715.279000", "155735.201000", "155735.204000", "155735.207000", "155735.209000", "155735.217000", "155735.220000", "155735.222000", "155735.225000", "155735.228000", "155735.230000", "155735.233000", "155735.235000", "155735.238000", "155735.240000", "155735.243000", "155735.245000", "155735.247000", "155735.250000", "155735.252000", "155735.255000", "155755.183000", "155755.186000", "155755.188000", "155755.191000", "155755.193000", "155755.196000", "155755.198000", "155755.201000", "155755.203000", "155755.206000", "155755.208000", "155755.211000", "155755.213000", "155755.216000", "155755.218000", "155755.220000", "155755.223000", "155755.225000", "155755.228000", "155755.230000", "155815.188000", "155815.191000", "155815.193000", "155815.196000", "155815.198000", "155815.201000", "155815.203000", "155815.206000", "155815.208000", "155815.211000", "155815.213000", "155815.216000", "155815.218000", "155815.221000", "155815.223000", "155815.225000", "155815.228000", "155815.230000", "155815.233000", "155815.235000", "155815.238000", "155855.219000", "155855.221000", "155855.224000", "155855.226000", "155855.229000", "155855.231000", "155855.234000", "155855.236000", "155855.239000", "155855.241000", "155855.244000", "155855.246000", "155855.249000", "155855.251000", "155855.253000", "155855.256000", "155855.258000", "155855.261000", "155855.263000", "155855.266000", "155855.277000", "155855.279000", "155855.282000", "155855.284000", "155855.287000", "155855.289000", "155855.292000", "155855.294000", "155935.225000", "155935.228000", "155935.231000", "155935.242000", "155935.245000", "155935.247000", "155935.250000", "155935.252000", "155935.255000", "155935.257000", "155935.260000", "155935.262000", "155935.265000", "155935.267000", "155935.270000", "155935.272000", "155935.274000", "155935.277000", "155935.279000", "155935.282000", "155935.284000", "155935.287000", "155935.289000", "155935.292000", "155935.294000", "155935.297000", "160015.210000", "160015.214000", "160015.216000", "160015.219000", "160015.221000", "160015.224000", "160015.226000", "160015.229000", "160015.231000", "160015.234000", "160015.236000", "160015.239000", "160015.241000", "160015.243000", "160015.246000", "160015.248000", "160015.251000", "160015.253000", "160015.256000", "160015.258000", "160015.261000", "160015.263000", "160015.265000", "160015.268000", "160015.270000", "160015.273000", "160015.275000", "160024.397000", "160024.399000", "160024.402000", "160024.404000", "160024.407000", "160024.409000", "160024.412000"],
      "InstanceNumber": [1, 2, 3, 4, 5, 6, 7, 8, 9, 10, 11, 12, 13, 14, 15, 16, 17, 18, 19, 20, 21, 22, 23, 24, 25, 26, 27, 28, 29, 30, 31, 32, 33, 34, 35, 36, 37, 38, 39, 40, 41, 42, 43, 44, 45, 46, 47, 48, 49, 50, 51, 52, 53, 54, 55, 56, 57, 58, 59, 60, 61, 62, 63, 64, 65, 66, 67, 68, 69, 70, 71, 72, 73, 74, 75, 76, 77, 78, 79, 80, 81, 82, 83, 84, 85, 86, 87, 88, 89, 90, 91, 92, 93, 94, 95, 96, 97, 98, 99, 100, 101, 102, 103, 104, 105, 106, 107, 108, 109, 110, 111, 112, 113, 114, 115, 116, 117, 118, 119, 120, 121, 122, 123, 124, 125, 126, 127, 128, 129, 130, 131, 132, 133, 134, 135, 136, 137, 138, 139, 140, 141, 142, 143, 144, 145, 146, 147, 148, 149, 150, 151, 152, 153, 154, 155, 156, 157, 158, 159, 160, 161, 162, 163, 164, 165, 166, 167, 168, 169, 170, 171, 172, 173, 174, 175, 176, 177, 178, 179, 180, 181, 182, 183, 184, 185, 186, 187, 188, 189, 190],
      "WindowCenter": [4816.0, 4812.0, 4808.0, 4816.0, 4816.0, 4814.0, 4812.0, 4786.0, 4802.0, 4816.0, 4820.0, 4818.0, 4814.0, 4812.0, 4790.0, 4814.0, 4816.0, 4814.0, 4822.0, 4802.0, 4824.0, 4820.0, 4786.0, 4770.0, 4796.0, 4772.0, 4784.0, 4818.0, 4820.0, 4818.0, 4818.0, 4792.0, 4812.0, 4814.0, 4782.0, 4774.0, 4778.0, 4778.0, 4812.0, 4814.0, 4814.0, 4814.0, 4816.0, 4818.0, 4820.0, 4814.0, 4788.0, 4822.0, 4820.0, 4820.0, 4794.0, 4790.0, 4782.0, 4808.0, 4810.0, 4808.0, 4810.0, 4810.0, 4818.0, 4816.0, 4814.0, 4814.0, 4814.0, 4814.0, 4808.0, 4816.0, 4822.0, 4820.0, 4820.0, 4822.0, 4816.0, 4820.0, 4818.0, 4820.0, 4820.0, 4816.0, 4812.0, 4814.0, 4810.0, 4816.0, 4816.0, 4818.0, 4816.0, 4816.0, 4814.0, 4820.0, 4790.0, 4790.0, 4812.0, 4812.0, 4788.0, 4820.0, 4820.0, 4822.0, 4820.0, 4784.0, 4774.0, 4776.0, 4786.0, 4790.0, 4820.0, 4818.0, 4814.0, 4818.0, 4816.0, 4814.0, 4820.0, 4820.0, 4794.0, 4792.0, 4820.0, 4820.0, 4820.0, 4818.0, 4812.0, 4814.0, 4816.0, 4812.0, 4816.0, 4812.0, 4814.0, 4818.0, 4818.0, 4810.0, 4810.0, 4796.0, 4796.0, 4816.0, 4804.0, 4798.0, 4798.0, 4804.0, 4810.0, 4810.0, 4814.0, 4814.0, 4814.0, 4814.0, 4810.0, 4810.0, 4816.0, 4810.0, 4808.0, 4812.0, 4810.0, 4812.0, 4812.0, 4818.0, 4816.0, 4810.0, 4814.0, 4810.0, 4810.0, 4810.0, 4782.0, 4810.0, 4810.0, 4810.0, 4808.0, 4814.0, 4810.0, 4810.0, 4812.0, 4808.0, 4814.0, 4810.0, 4812.0, 4808.0, 4812.0, 4814.0, 4810.0, 4788.0, 4814.0, 4820.0, 4824.0, 4818.0, 4820.0, 4814.0, 4818.0, 4816.0, 4812.0, 4812.0, 4804.0, 4782.0, 4804.0, 4810.0, 4816.0, 4812.0, 4814.0, 4816.0],
      "WindowWidth": [18632.0, 18628.0, 18624.0, 18610.0, 18620.0, 18624.0, 18622.0, 18588.0, 18618.0, 18628.0, 18624.0, 18626.0, 18622.0, 18620.0, 18588.0, 18618.0, 18616.0, 18624.0, 18596.0, 18558.0, 18596.0, 18600.0, 18582.0, 18566.0, 18598.0, 18568.0, 18582.0, 18620.0, 18614.0, 18600.0, 18586.0, 18548.0, 18606.0, 18620.0, 18576.0, 18570.0, 18580.0, 18578.0, 18624.0, 18600.0, 18596.0, 18612.0, 18620.0, 18612.0, 18610.0, 18614.0, 18584.0, 18602.0, 18606.0, 18608.0, 18580.0, 18584.0, 18572.0, 18614.0, 18622.0, 18624.0, 18622.0, 18618.0, 18614.0, 18612.0, 18602.0, 18612.0, 18624.0, 18624.0, 18618.0, 18616.0, 18616.0, 18620.0, 18612.0, 18620.0, 18614.0, 18618.0, 18624.0, 18604.0, 18610.0, 18622.0, 18622.0, 18622.0, 18620.0, 18624.0, 18624.0, 18608.0, 18604.0, 18618.0, 18620.0, 18614.0, 18586.0, 18586.0, 18620.0, 18620.0, 18584.0, 18596.0, 18586.0, 18600.0, 18612.0, 18580.0, 18568.0, 18568.0, 18578.0, 18582.0, 18596.0, 18598.0, 18600.0, 18608.0, 18608.0, 18614.0, 18604.0, 18616.0, 18582.0, 18586.0, 18614.0, 18618.0, 18616.0, 18612.0, 18612.0, 18610.0, 18618.0, 18618.0, 18624.0, 18628.0, 18616.0, 18608.0, 18618.0, 18614.0, 18616.0, 18574.0, 18566.0, 18602.0, 18610.0, 18604.0, 18610.0, 18616.0, 18624.0, 18614.0, 18606.0, 18606.0, 18610.0, 18612.0, 18618.0, 18616.0, 18614.0, 18622.0, 18616.0, 18620.0, 18618.0, 18626.0, 18622.0, 18612.0, 18612.0, 18614.0, 18610.0, 18616.0, 18622.0, 18622.0, 18588.0, 18622.0, 18622.0, 18610.0, 18610.0, 18618.0, 18616.0, 18624.0, 18616.0, 18622.0, 18618.0, 18622.0, 18622.0, 18622.0, 18616.0, 18622.0, 18614.0, 18586.0, 18616.0, 18614.0, 18608.0, 18608.0, 18604.0, 18606.0, 18608.0, 18624.0, 18620.0, 18618.0, 18616.0, 18584.0, 18618.0, 18622.0, 18620.0, 18616.0, 18618.0, 18612.0]
    },
    "slices": {}
  }
}