{
  "AcquisitionMatrixPE": 104,
  "AcquisitionNumber": 1,
  "AcquisitionTime": "15:30:16.715000",
  "BandwidthPerPixelPhaseEncode": 17.17,
  "BaseResolution": 104,
  "BodyPartExamined": "BRAIN",
  "CoilString": "HC1-7;NC1_2",
  "ConsistencyInfo": "N4_VE11C_LATEST_20160120",
  "ConversionSoftware": "dcm2niix",
  "ConversionSoftwareVersion": "v1.0.20190902",
  "DerivedVendorReportedEchoSpacing": 0.000560011,
  "DeviceSerialNumber": "167006",
  "DwellTime": 2.1e-06,
  "EchoTime": 0.037,
  "EchoTrainLength": 104,
  "EffectiveEchoSpacing": 0.000560011,
  "FlipAngle": 52,
  "ImageComments": "Unaliased_MB4_PE3_LB",
  "ImageOrientationPatientDICOM": [0.999451, -0.0330716, 0.0019263, 0.0321075, 0.952714, -0.302169],
  "ImageType": [
    "ORIGINAL",
    "PRIMARY",
    "M",
    "MB",
    "ND",
    "MOSAIC"
],
  "ImagingFrequency": 123.259,
  "InPlanePhaseEncodingDirectionDICOM": "COL",
  "InstitutionAddress": "Chemin_Queen-Mary_4565_Montreal_District_CA_H3W_1W5",
  "InstitutionName": "IUGM",
  "InstitutionalDepartmentName": "Department",
  "MRAcquisitionType": "2D",
  "MagneticFieldStrength": 3,
  "Manufacturer": "Siemens",
  "ManufacturersModelName": "Prisma_fit",
  "Modality": "MR",
  "MultibandAccelerationFactor": 4,
  "PartialFourier": 1,
  "PatientPosition": "HFS",
  "PercentPhaseFOV": 100,
  "PhaseEncodingDirection": "j",
  "PhaseEncodingSteps": 104,
  "PhaseResolution": 1,
  "PixelBandwidth": 2290,
  "ProcedureStepDescription": "memory_things",
  "ProtocolName": "func_task-things_run-2",
  "PulseSequenceDetails": "%CustomerSeq%_cmrr_mbep2d_bold",
  "ReceiveCoilActiveElements": "HC1-7;NC1,2",
  "ReceiveCoilName": "HeadNeck_64",
  "ReconMatrixPE": 104,
  "RepetitionTime": 1.49,
  "SAR": 0.0343488,
  "ScanOptions": "FS",
  "ScanningSequence": "EP",
  "SequenceName": "epfid2d1_104",
  "SequenceVariant": "SK_SS",
  "SeriesDescription": "func_task-things_run-2",
  "SeriesNumber": 13,
  "ShimSetting": [619, -7259, -8799, 619, -17, -224, -11, -21],
  "SliceThickness": 2,
  "SliceTiming": [0, 0.785, 0.1, 0.8825, 0.1975, 0.98, 0.295, 1.08, 0.3925, 1.1775, 0.49, 1.275, 0.59, 1.3725, 0.6875, 0, 0.785, 0.1, 0.8825, 0.1975, 0.98, 0.295, 1.08, 0.3925, 1.1775, 0.49, 1.275, 0.59, 1.3725, 0.6875, 0, 0.785, 0.1, 0.8825, 0.1975, 0.98, 0.295, 1.08, 0.3925, 1.1775, 0.49, 1.275, 0.59, 1.3725, 0.6875, 0, 0.785, 0.1, 0.8825, 0.1975, 0.98, 0.295, 1.08, 0.3925, 1.1775, 0.49, 1.275, 0.59, 1.3725, 0.6875],
  "SoftwareVersions": "syngo_MR_E11",
  "SpacingBetweenSlices": 2,
  "StationName": "MRC35049",
  "TaskName": "things",
  "TotalReadoutTime": 0.0576811,
  "TxRefAmp": 231.001,
  "WipMemBlock": "85f782e3-81d9-4538-9975-19d0f2852829||Sequence: R016 ve11c/master r/e634e98; Dec 19 2017 11:00:25 by eja",
  "dcmmeta_affine": [
    [-1.9989022016525269, 0.06421500444412231, -0.016315996646881104, 103.93379974365234],
    [0.06614329665899277, 1.90542733669281, -0.6041290163993835, -71.25801086425781],
    [0.0038526018615812063, 0.6043370366096497, 1.9065051078796387, -56.782108306884766],
    [0.0, 0.0, 0.0, 1.0]
],
  "dcmmeta_reorient_transform": [
    [0.0, -1.0, 0.0, 103.0],
    [1.0, 0.0, 0.0, 0.0],
    [0.0, 0.0, 1.0, 0.0],
    [0.0, 0.0, 0.0, 1.0]
],
  "dcmmeta_shape": [104, 104, 60, 190],
  "dcmmeta_slice_dim": 2,
  "dcmmeta_version": 0.6,
  "global": {
    "const": {
      "AcquisitionMatrix": [104, 0, 0, 104],
      "AngioFlag": "N",
      "BitsAllocated": 16,
      "BitsStored": 16,
      "BodyPartExamined": "BRAIN",
      "Columns": 832,
      "EchoNumbers": 1,
      "EchoTime": 37.0,
      "EchoTrainLength": 104,
      "FlipAngle": 52.0,
      "HighBit": 15,
      "ImageOrientationPatient": [0.99945112703872, -0.0330716498824, 0.00192630088322, 0.03210750254817, 0.95271364505466, -0.3021685271612],
      "ImagePositionPatient": [-861.52262535348, -794.50037057415, 224.04095029309],
      "ImageType": [
        "ORIGINAL",
        "PRIMARY",
        "M",
        "MB",
        "ND",
        "MOSAIC"
],
      "ImagedNucleus": "1H",
      "ImagingFrequency": 123.258907,
      "InPlanePhaseEncodingDirection": "COL",
      "MRAcquisitionType": "2D",
      "MagneticFieldStrength": 3.0,
      "Manufacturer": "SIEMENS",
      "ManufacturerModelName": "Prisma_fit",
      "Modality": "MR",
      "NumberOfAverages": 1.0,
      "NumberOfPhaseEncodingSteps": 104,
      "PercentPhaseFieldOfView": 100.0,
      "PercentSampling": 100.0,
      "PerformedProcedureStepStartTime": "150020.534000",
      "PhotometricInterpretation": "MONOCHROME2",
      "PixelBandwidth": 2290.0,
      "PixelRepresentation": 0,
      "PixelSpacing": [2.0, 2.0],
      "ProtocolName": "func_task-things_run-2",
      "RepetitionTime": 1490.0,
      "Rows": 832,
      "SAR": 0.03434883985515,
      "SamplesPerPixel": 1,
      "ScanOptions": "FS",
      "ScanningSequence": "EP",
      "SequenceName": "epfid2d1_104",
      "SequenceVariant": [
        "SK",
        "SS"
],
      "SeriesDescription": "func_task-things_run-2",
      "SeriesNumber": 13,
      "SeriesTime": "153139.288000",
      "SliceLocation": -33.45106378509,
      "SliceThickness": 2.0,
      "SmallestImagePixelValue": 0,
      "SoftwareVersions": "syngo MR E11",
      "SpacingBetweenSlices": 1.9999999817828,
      "SpecificCharacterSet": "ISO_IR 100",
      "StudyID": "1",
      "StudyTime": "150020.398000",
      "TransmitCoilName": "Body",
      "VariableFlipAngleFlag": "N",
      "WindowCenterWidthExplanation": "Algo1",
      "dBdt": 0.0},
    "slices": {}
  },
  "time": {
    "samples": {
      "AcquisitionNumber": [1, 2, 3, 4, 5, 6, 7, 8, 9, 10, 11, 12, 13, 14, 15, 16, 17, 18, 19, 20, 21, 22, 23, 24, 25, 26, 27, 28, 29, 30, 31, 32, 33, 34, 35, 36, 37, 38, 39, 40, 41, 42, 43, 44, 45, 46, 47, 48, 49, 50, 51, 52, 53, 54, 55, 56, 57, 58, 59, 60, 61, 62, 63, 64, 65, 66, 67, 68, 69, 70, 71, 72, 73, 74, 75, 76, 77, 78, 79, 80, 81, 82, 83, 84, 85, 86, 87, 88, 89, 90, 91, 92, 93, 94, 95, 96, 97, 98, 99, 100, 101, 102, 103, 104, 105, 106, 107, 108, 109, 110, 111, 112, 113, 114, 115, 116, 117, 118, 119, 120, 121, 122, 123, 124, 125, 126, 127, 128, 129, 130, 131, 132, 133, 134, 135, 136, 137, 138, 139, 140, 141, 142, 143, 144, 145, 146, 147, 148, 149, 150, 151, 152, 153, 154, 155, 156, 157, 158, 159, 160, 161, 162, 163, 164, 165, 166, 167, 168, 169, 170, 171, 172, 173, 174, 175, 176, 177, 178, 179, 180, 181, 182, 183, 184, 185, 186, 187, 188, 189, 190],
      "AcquisitionTime": ["153016.715000", "153018.205000", "153019.695000", "153021.185000", "153022.675000", "153024.165000", "153025.655000", "153027.145000", "153028.635000", "153030.125000", "153031.615000", "153033.105000", "153034.595000", "153036.085000", "153037.575000", "153039.065000", "153040.555000", "153042.045000", "153043.535000", "153045.025000", "153046.515000", "153048.005000", "153049.495000", "153050.985000", "153052.475000", "153053.965000", "153055.455000", "153056.945000", "153058.435000", "153059.925000", "153101.415000", "153102.905000", "153104.395000", "153105.885000", "153107.375000", "153108.865000", "153110.355000", "153111.845000", "153113.335000", "153114.825000", "153116.315000", "153117.805000", "153119.295000", "153120.785000", "153122.275000", "153123.765000", "153125.255000", "153126.745000", "153128.235000", "153129.725000", "153131.215000", "153132.705000", "153134.195000", "153135.685000", "153137.175000", "153138.665000", "153140.155000", "153141.645000", "153143.135000", "153144.625000", "153146.115000", "153147.605000", "153149.095000", "153150.585000", "153152.075000", "153153.565000", "153155.055000", "153156.545000", "153158.035000", "153159.525000", "153201.015000", "153202.505000", "153203.995000", "153205.485000", "153206.975000", "153208.465000", "153209.955000", "153211.445000", "153212.935000", "153214.425000", "153215.915000", "153217.405000", "153218.895000", "153220.385000", "153221.875000", "153223.365000", "153224.855000", "153226.345000", "153227.835000", "153229.325000", "153230.815000", "153232.305000", "153233.795000", "153235.285000", "153236.775000", "153238.265000", "153239.755000", "153241.245000", "153242.735000", "153244.225000", "153245.715000", "153247.205000", "153248.695000", "153250.185000", "153251.675000", "153253.165000", "153254.655000", "153256.145000", "153257.635000", "153259.125000", "153300.615000", "153302.105000", "153303.595000", "153305.085000", "153306.575000", "153308.065000", "153309.555000", "153311.045000", "153312.535000", "153314.025000", "153315.515000", "153317.005000", "153318.495000", "153319.985000", "153321.475000", "153322.965000", "153324.455000", "153325.945000", "153327.435000", "153328.925000", "153330.415000", "153331.905000", "153333.395000", "153334.885000", "153336.375000", "153337.865000", "153339.355000", "153340.845000", "153342.335000", "153343.825000", "153345.315000", "153346.805000", "153348.295000", "153349.785000", "153351.275000", "153352.765000", "153354.255000", "153355.745000", "153357.235000", "153358.725000", "153400.215000", "153401.705000", "153403.195000", "153404.685000", "153406.175000", "153407.665000", "153409.155000", "153410.645000", "153412.135000", "153413.625000", "153415.115000", "153416.605000", "153418.095000", "153419.585000", "153421.075000", "153422.565000", "153424.055000", "153425.545000", "153427.035000", "153428.525000", "153430.015000", "153431.505000", "153432.995000", "153434.485000", "153435.975000", "153437.465000", "153438.955000", "153440.445000", "153441.935000", "153443.425000", "153444.915000", "153446.405000", "153447.895000", "153449.385000", "153450.875000", "153452.365000", "153453.855000", "153455.345000", "153456.835000", "153458.325000"],
      "ContentTime": ["153139.291000", "153139.295000", "153139.298000", "153139.301000", "153139.304000", "153139.308000", "153139.311000", "153139.314000", "153139.317000", "153139.321000", "153139.324000", "153139.327000", "153139.330000", "153139.347000", "153139.351000", "153139.354000", "153139.357000", "153139.360000", "153139.364000", "153139.367000", "153139.376000", "153139.380000", "153139.383000", "153139.386000", "153139.389000", "153139.392000", "153139.396000", "153139.399000", "153139.402000", "153159.262000", "153159.266000", "153159.277000", "153159.280000", "153159.283000", "153159.286000", "153159.290000", "153159.293000", "153159.296000", "153159.306000", "153159.310000", "153159.313000", "153159.316000", "153159.319000", "153159.323000", "153159.326000", "153159.329000", "153159.332000", "153159.336000", "153159.339000", "153219.262000", "153219.266000", "153219.269000", "153219.272000", "153219.281000", "153219.284000", "153219.287000", "153219.290000", "153219.294000", "153219.297000", "153219.316000", "153219.319000", "153219.323000", "153219.326000", "153219.329000", "153219.332000", "153219.336000", "153219.339000", "153219.342000", "153219.345000", "153219.348000", "153239.262000", "153239.266000", "153239.269000", "153239.272000", "153239.275000", "153239.279000", "153239.282000", "153239.285000", "153239.288000", "153239.292000", "153239.295000", "153239.298000", "153239.301000", "153239.305000", "153239.308000", "153239.316000", "153239.319000", "153239.322000", "153239.325000", "153239.334000", "153319.262000", "153319.269000", "153319.273000", "153319.276000", "153319.279000", "153319.282000", "153319.286000", "153319.289000", "153319.292000", "153319.295000", "153319.299000", "153319.302000", "153319.305000", "153319.308000", "153319.312000", "153319.315000", "153319.318000", "153319.322000", "153319.325000", "153319.328000", "153319.331000", "153319.334000", "153319.338000", "153319.341000", "153319.344000", "153319.357000", "153319.361000", "153319.364000", "153319.367000", "153319.370000", "153319.373000", "153359.262000", "153359.266000", "153359.269000", "153359.272000", "153359.276000", "153359.279000", "153359.282000", "153359.285000", "153359.289000", "153359.292000", "153359.295000", "153359.298000", "153359.302000", "153359.305000", "153359.308000", "153359.311000", "153359.315000", "153359.318000", "153359.321000", "153359.324000", "153359.328000", "153359.331000", "153359.334000", "153359.337000", "153359.341000", "153359.344000", "153359.347000", "153439.262000", "153439.266000", "153439.269000", "153439.272000", "153439.275000", "153439.279000", "153439.282000", "153439.285000", "153439.288000", "153439.292000", "153439.295000", "153439.298000", "153439.302000", "153439.305000", "153439.308000", "153439.311000", "153439.315000", "153439.318000", "153439.321000", "153439.324000", "153439.328000", "153439.331000", "153439.334000", "153439.337000", "153439.340000", "153439.344000", "153439.347000", "153500.917000", "153500.920000", "153500.924000", "153500.927000", "153500.930000", "153500.934000", "153500.937000", "153500.940000", "153500.943000", "153500.947000", "153500.950000", "153500.953000", "153500.957000", "153500.960000", "153500.963000"],
      "InstanceCreationTime": ["153139.291000", "153139.295000", "153139.298000", "153139.301000", "153139.304000", "153139.308000", "153139.311000", "153139.314000", "153139.317000", "153139.321000", "153139.324000", "153139.327000", "153139.330000", "153139.347000", "153139.351000", "153139.354000", "153139.357000", "153139.360000", "153139.364000", "153139.367000", "153139.376000", "153139.380000", "153139.383000", "153139.386000", "153139.389000", "153139.392000", "153139.396000", "153139.399000", "153139.402000", "153159.262000", "153159.266000", "153159.277000", "153159.280000", "153159.283000", "153159.286000", "153159.290000", "153159.293000", "153159.296000", "153159.306000", "153159.310000", "153159.313000", "153159.316000", "153159.319000", "153159.323000", "153159.326000", "153159.329000", "153159.332000", "153159.336000", "153159.339000", "153219.262000", "153219.266000", "153219.269000", "153219.272000", "153219.281000", "153219.284000", "153219.287000", "153219.290000", "153219.294000", "153219.297000", "153219.316000", "153219.319000", "153219.323000", "153219.326000", "153219.329000", "153219.332000", "153219.336000", "153219.339000", "153219.342000", "153219.345000", "153219.348000", "153239.262000", "153239.266000", "153239.269000", "153239.272000", "153239.275000", "153239.279000", "153239.282000", "153239.285000", "153239.288000", "153239.292000", "153239.295000", "153239.298000", "153239.301000", "153239.305000", "153239.308000", "153239.316000", "153239.319000", "153239.322000", "153239.325000", "153239.334000", "153319.262000", "153319.269000", "153319.273000", "153319.276000", "153319.279000", "153319.282000", "153319.286000", "153319.289000", "153319.292000", "153319.295000", "153319.299000", "153319.302000", "153319.305000", "153319.308000", "153319.312000", "153319.315000", "153319.318000", "153319.322000", "153319.325000", "153319.328000", "153319.331000", "153319.334000", "153319.338000", "153319.341000", "153319.344000", "153319.357000", "153319.361000", "153319.364000", "153319.367000", "153319.370000", "153319.373000", "153359.262000", "153359.266000", "153359.269000", "153359.272000", "153359.276000", "153359.279000", "153359.282000", "153359.285000", "153359.289000", "153359.292000", "153359.295000", "153359.298000", "153359.302000", "153359.305000", "153359.308000", "153359.311000", "153359.315000", "153359.318000", "153359.321000", "153359.324000", "153359.328000", "153359.331000", "153359.334000", "153359.337000", "153359.341000", "153359.344000", "153359.347000", "153439.262000", "153439.266000", "153439.269000", "153439.272000", "153439.275000", "153439.279000", "153439.282000", "153439.285000", "153439.288000", "153439.292000", "153439.295000", "153439.298000", "153439.302000", "153439.305000", "153439.308000", "153439.311000", "153439.315000", "153439.318000", "153439.321000", "153439.324000", "153439.328000", "153439.331000", "153439.334000", "153439.337000", "153439.340000", "153439.344000", "153439.347000", "153500.917000", "153500.920000", "153500.924000", "153500.927000", "153500.930000", "153500.934000", "153500.937000", "153500.940000", "153500.943000", "153500.947000", "153500.950000", "153500.953000", "153500.957000", "153500.960000", "153500.963000"],
      "InstanceNumber": [1, 2, 3, 4, 5, 6, 7, 8, 9, 10, 11, 12, 13, 14, 15, 16, 17, 18, 19, 20, 21, 22, 23, 24, 25, 26, 27, 28, 29, 30, 31, 32, 33, 34, 35, 36, 37, 38, 39, 40, 41, 42, 43, 44, 45, 46, 47, 48, 49, 50, 51, 52, 53, 54, 55, 56, 57, 58, 59, 60, 61, 62, 63, 64, 65, 66, 67, 68, 69, 70, 71, 72, 73, 74, 75, 76, 77, 78, 79, 80, 81, 82, 83, 84, 85, 86, 87, 88, 89, 90, 91, 92, 93, 94, 95, 96, 97, 98, 99, 100, 101, 102, 103, 104, 105, 106, 107, 108, 109, 110, 111, 112, 113, 114, 115, 116, 117, 118, 119, 120, 121, 122, 123, 124, 125, 126, 127, 128, 129, 130, 131, 132, 133, 134, 135, 136, 137, 138, 139, 140, 141, 142, 143, 144, 145, 146, 147, 148, 149, 150, 151, 152, 153, 154, 155, 156, 157, 158, 159, 160, 161, 162, 163, 164, 165, 166, 167, 168, 169, 170, 171, 172, 173, 174, 175, 176, 177, 178, 179, 180, 181, 182, 183, 184, 185, 186, 187, 188, 189, 190],
      "LargestImagePixelValue": [41765, 41142, 39753, 40431, 39565, 40252, 40721, 39626, 39073, 39630, 40060, 39877, 39541, 39151, 40359, 39420, 40076, 39751, 38698, 38784, 38932, 38682, 39607, 39375, 39611, 39902, 38858, 39474, 39060, 39690, 39485, 38603, 39077, 39339, 39308, 39606, 39071, 40001, 39209, 40052, 38818, 39793, 39682, 39340, 39737, 39225, 39518, 40010, 39489, 39044, 39407, 39449, 39306, 39879, 39138, 39761, 39653, 39853, 40003, 39245, 40177, 39808, 40153, 40117, 39535, 39145, 39980, 39663, 39746, 39942, 38996, 39671, 38753, 39606, 39097, 39436, 40004, 39310, 40128, 40039, 39559, 39844, 39909, 39765, 40016, 39691, 40195, 39759, 39660, 39653, 39357, 39911, 39757, 39704, 40110, 39420, 38682, 39104, 39406, 39454, 39320, 39031, 39155, 39095, 38629, 39138, 39243, 39049, 38728, 39304, 39021, 39062, 39188, 39152, 39186, 39107, 38839, 39162, 39186, 38954, 39396, 39179, 39368, 39147, 39358, 39076, 39491, 39299, 39149, 39262, 38733, 39406, 39093, 40204, 39544, 40108, 40117, 40374, 40304, 39712, 40017, 40148, 39976, 39721, 40123, 40638, 40090, 39794, 39784, 40277, 39562, 39642, 39555, 39979, 39846, 40558, 40079, 40483, 40003, 40451, 41024, 40008, 40325, 40816, 41273, 39798, 40997, 40231, 40523, 40851, 40610, 40653, 40387, 39862, 40121, 41201, 39898, 40340, 40248, 41221, 39950, 40351, 40477, 40815, 41022, 40335, 40814, 40826, 40784, 40825],
      "WindowCenter": [10368.0, 10322.0, 10298.0, 10291.0, 10291.0, 10324.0, 10337.0, 10319.0, 10292.0, 10309.0, 10329.0, 10301.0, 10255.0, 10224.0, 10229.0, 10235.0, 10254.0, 10233.0, 10190.0, 10175.0, 10188.0, 10205.0, 10225.0, 10235.0, 10238.0, 10240.0, 10233.0, 10253.0, 10256.0, 10263.0, 10256.0, 10258.0, 10272.0, 10271.0, 10265.0, 10274.0, 10266.0, 10282.0, 10285.0, 10292.0, 10282.0, 10293.0, 10280.0, 10263.0, 10267.0, 10262.0, 10254.0, 10259.0, 10262.0, 10258.0, 10262.0, 10248.0, 10253.0, 10271.0, 10258.0, 10267.0, 10262.0, 10262.0, 10267.0, 10278.0, 10281.0, 10269.0, 10268.0, 10259.0, 10252.0, 10247.0, 10280.0, 10291.0, 10280.0, 10260.0, 10224.0, 10225.0, 10232.0, 10248.0, 10231.0, 10221.0, 10224.0, 10236.0, 10256.0, 10266.0, 10254.0, 10236.0, 10242.0, 10246.0, 10236.0, 10197.0, 10219.0, 10280.0, 10303.0, 10281.0, 10261.0, 10250.0, 10248.0, 10254.0, 10263.0, 10248.0, 10212.0, 10197.0, 10203.0, 10234.0, 10239.0, 10239.0, 10240.0, 10241.0, 10235.0, 10233.0, 10229.0, 10231.0, 10240.0, 10245.0, 10256.0, 10265.0, 10266.0, 10268.0, 10268.0, 10269.0, 10269.0, 10277.0, 10277.0, 10283.0, 10275.0, 10259.0, 10257.0, 10273.0, 10297.0, 10282.0, 10259.0, 10249.0, 10256.0, 10269.0, 10261.0, 10241.0, 10211.0, 10216.0, 10226.0, 10257.0, 10268.0, 10261.0, 10235.0, 10211.0, 10209.0, 10215.0, 10217.0, 10218.0, 10233.0, 10256.0, 10246.0, 10238.0, 10243.0, 10273.0, 10265.0, 10255.0, 10261.0, 10260.0, 10258.0, 10274.0, 10291.0, 10300.0, 10282.0, 10263.0, 10272.0, 10298.0, 10317.0, 10307.0, 10290.0, 10262.0, 10271.0, 10267.0, 10257.0, 10263.0, 10265.0, 10265.0, 10258.0, 10259.0, 10259.0, 10261.0, 10265.0, 10285.0, 10286.0, 10286.0, 10269.0, 10270.0, 10271.0, 10258.0, 10242.0, 10242.0, 10253.0, 10248.0, 10247.0, 10241.0],
      "WindowWidth": [22484.0, 22335.0, 22261.0, 22228.0, 22222.0, 22293.0, 22323.0, 22283.0, 22213.0, 22248.0, 22296.0, 22233.0, 22128.0, 22057.0, 22063.0, 22077.0, 22119.0, 22075.0, 21982.0, 21947.0, 21976.0, 22015.0, 22058.0, 22080.0, 22086.0, 22085.0, 22078.0, 22119.0, 22130.0, 22142.0, 22129.0, 22137.0, 22163.0, 22161.0, 22149.0, 22164.0, 22151.0, 22180.0, 22190.0, 22207.0, 22189.0, 22210.0, 22182.0, 22144.0, 22148.0, 22140.0, 22123.0, 22130.0, 22140.0, 22136.0, 22141.0, 22112.0, 22120.0, 22158.0, 22136.0, 22152.0, 22144.0, 22143.0, 22154.0, 22178.0, 22182.0, 22160.0, 22154.0, 22135.0, 22122.0, 22112.0, 22178.0, 22205.0, 22184.0, 22135.0, 22059.0, 22055.0, 22077.0, 22108.0, 22075.0, 22050.0, 22054.0, 22083.0, 22124.0, 22151.0, 22125.0, 22084.0, 22099.0, 22111.0, 22086.0, 22002.0, 22041.0, 22180.0, 22235.0, 22188.0, 22142.0, 22111.0, 22111.0, 22126.0, 22146.0, 22114.0, 22034.0, 21994.0, 22006.0, 22076.0, 22090.0, 22089.0, 22092.0, 22093.0, 22084.0, 22077.0, 22063.0, 22070.0, 22091.0, 22099.0, 22127.0, 22147.0, 22153.0, 22156.0, 22158.0, 22160.0, 22160.0, 22178.0, 22179.0, 22191.0, 22174.0, 22140.0, 22133.0, 22168.0, 22221.0, 22187.0, 22133.0, 22113.0, 22127.0, 22157.0, 22143.0, 22093.0, 22029.0, 22033.0, 22058.0, 22126.0, 22152.0, 22139.0, 22079.0, 22026.0, 22021.0, 22033.0, 22038.0, 22043.0, 22075.0, 22128.0, 22109.0, 22092.0, 22103.0, 22168.0, 22156.0, 22131.0, 22142.0, 22140.0, 22134.0, 22171.0, 22213.0, 22231.0, 22195.0, 22154.0, 22167.0, 22227.0, 22271.0, 22246.0, 22204.0, 22146.0, 22164.0, 22157.0, 22135.0, 22149.0, 22154.0, 22152.0, 22135.0, 22140.0, 22140.0, 22145.0, 22156.0, 22200.0, 22204.0, 22197.0, 22162.0, 22167.0, 22170.0, 22138.0, 22101.0, 22103.0, 22125.0, 22116.0, 22112.0, 22100.0]
    },
    "slices": {}
  }
}