{
  "AcquisitionMatrixPE": 104,
  "AcquisitionNumber": 1,
  "AcquisitionTime": "15:36:31.812500",
  "BandwidthPerPixelPhaseEncode": 17.17,
  "BaseResolution": 104,
  "BodyPartExamined": "BRAIN",
  "CoilString": "HC1-7;NC1_2",
  "ConsistencyInfo": "N4_VE11C_LATEST_20160120",
  "ConversionSoftware": "dcm2niix",
  "ConversionSoftwareVersion": "v1.0.20190902",
  "DerivedVendorReportedEchoSpacing": 0.000560011,
  "DeviceSerialNumber": "167006",
  "DwellTime": 2.1e-06,
  "EchoTime": 0.037,
  "EchoTrainLength": 104,
  "EffectiveEchoSpacing": 0.000560011,
  "FlipAngle": 52,
  "ImageComments": "Unaliased_MB4_PE3_LB",
  "ImageOrientationPatientDICOM": [0.999451, -0.0330716, 0.0019263, 0.0321075, 0.952714, -0.302169],
  "ImageType": [
    "ORIGINAL",
    "PRIMARY",
    "M",
    "MB",
    "ND",
    "MOSAIC"
],
  "ImagingFrequency": 123.259,
  "InPlanePhaseEncodingDirectionDICOM": "COL",
  "InstitutionAddress": "Chemin_Queen-Mary_4565_Montreal_District_CA_H3W_1W5",
  "InstitutionName": "IUGM",
  "InstitutionalDepartmentName": "Department",
  "MRAcquisitionType": "2D",
  "MagneticFieldStrength": 3,
  "Manufacturer": "Siemens",
  "ManufacturersModelName": "Prisma_fit",
  "Modality": "MR",
  "MultibandAccelerationFactor": 4,
  "PartialFourier": 1,
  "PatientPosition": "HFS",
  "PercentPhaseFOV": 100,
  "PhaseEncodingDirection": "j",
  "PhaseEncodingSteps": 104,
  "PhaseResolution": 1,
  "PixelBandwidth": 2290,
  "ProcedureStepDescription": "memory_things",
  "ProtocolName": "func_task-things_run-3",
  "PulseSequenceDetails": "%CustomerSeq%_cmrr_mbep2d_bold",
  "ReceiveCoilActiveElements": "HC1-7;NC1,2",
  "ReceiveCoilName": "HeadNeck_64",
  "ReconMatrixPE": 104,
  "RepetitionTime": 1.49,
  "SAR": 0.0343488,
  "ScanOptions": "FS",
  "ScanningSequence": "EP",
  "SequenceName": "epfid2d1_104",
  "SequenceVariant": "SK_SS",
  "SeriesDescription": "func_task-things_run-3",
  "SeriesNumber": 16,
  "ShimSetting": [619, -7259, -8799, 619, -17, -224, -11, -21],
  "SliceThickness": 2,
  "SliceTiming": [0, 0.785, 0.0975, 0.8825, 0.1975, 0.98, 0.295, 1.0775, 0.3925, 1.175, 0.49, 1.275, 0.5875, 1.3725, 0.685, 0, 0.785, 0.0975, 0.8825, 0.1975, 0.98, 0.295, 1.0775, 0.3925, 1.175, 0.49, 1.275, 0.5875, 1.3725, 0.685, 0, 0.785, 0.0975, 0.8825, 0.1975, 0.98, 0.295, 1.0775, 0.3925, 1.175, 0.49, 1.275, 0.5875, 1.3725, 0.685, 0, 0.785, 0.0975, 0.8825, 0.1975, 0.98, 0.295, 1.0775, 0.3925, 1.175, 0.49, 1.275, 0.5875, 1.3725, 0.685],
  "SoftwareVersions": "syngo_MR_E11",
  "SpacingBetweenSlices": 2,
  "StationName": "MRC35049",
  "TaskName": "things",
  "TotalReadoutTime": 0.0576811,
  "TxRefAmp": 231.001,
  "WipMemBlock": "a64e1a2b-a297-42e5-8b84-001c9ed4af2c||Sequence: R016 ve11c/master r/e634e98; Dec 19 2017 11:00:25 by eja",
  "dcmmeta_affine": [
    [-1.9989022016525269, 0.06421500444412231, -0.016315996646881104, 103.93379974365234],
    [0.06614329665899277, 1.90542733669281, -0.6041290163993835, -71.25801086425781],
    [0.0038526018615812063, 0.6043370366096497, 1.9065051078796387, -56.782108306884766],
    [0.0, 0.0, 0.0, 1.0]
],
  "dcmmeta_reorient_transform": [
    [0.0, -1.0, 0.0, 103.0],
    [1.0, 0.0, 0.0, 0.0],
    [0.0, 0.0, 1.0, 0.0],
    [0.0, 0.0, 0.0, 1.0]
],
  "dcmmeta_shape": [104, 104, 60, 190],
  "dcmmeta_slice_dim": 2,
  "dcmmeta_version": 0.6,
  "global": {
    "const": {
      "AcquisitionMatrix": [104, 0, 0, 104],
      "AngioFlag": "N",
      "BitsAllocated": 16,
      "BitsStored": 16,
      "BodyPartExamined": "BRAIN",
      "Columns": 832,
      "EchoNumbers": 1,
      "EchoTime": 37.0,
      "EchoTrainLength": 104,
      "FlipAngle": 52.0,
      "HighBit": 15,
      "ImageOrientationPatient": [0.99945112703872, -0.0330716498824, 0.00192630088322, 0.03210750254817, 0.95271364505466, -0.3021685271612],
      "ImagePositionPatient": [-861.52262535348, -794.50037057415, 224.04095029309],
      "ImageType": [
        "ORIGINAL",
        "PRIMARY",
        "M",
        "MB",
        "ND",
        "MOSAIC"
],
      "ImagedNucleus": "1H",
      "ImagingFrequency": 123.25891,
      "InPlanePhaseEncodingDirection": "COL",
      "MRAcquisitionType": "2D",
      "MagneticFieldStrength": 3.0,
      "Manufacturer": "SIEMENS",
      "ManufacturerModelName": "Prisma_fit",
      "Modality": "MR",
      "NumberOfAverages": 1.0,
      "NumberOfPhaseEncodingSteps": 104,
      "PercentPhaseFieldOfView": 100.0,
      "PercentSampling": 100.0,
      "PerformedProcedureStepStartTime": "150020.534000",
      "PhotometricInterpretation": "MONOCHROME2",
      "PixelBandwidth": 2290.0,
      "PixelRepresentation": 0,
      "PixelSpacing": [2.0, 2.0],
      "ProtocolName": "func_task-things_run-3",
      "RepetitionTime": 1490.0,
      "Rows": 832,
      "SAR": 0.03434883985515,
      "SamplesPerPixel": 1,
      "ScanOptions": "FS",
      "ScanningSequence": "EP",
      "SequenceName": "epfid2d1_104",
      "SequenceVariant": [
        "SK",
        "SS"
],
      "SeriesDescription": "func_task-things_run-3",
      "SeriesNumber": 16,
      "SeriesTime": "153755.106000",
      "SliceLocation": -33.45106378509,
      "SliceThickness": 2.0,
      "SmallestImagePixelValue": 0,
      "SoftwareVersions": "syngo MR E11",
      "SpacingBetweenSlices": 1.9999999817828,
      "SpecificCharacterSet": "ISO_IR 100",
      "StudyID": "1",
      "StudyTime": "150020.398000",
      "TransmitCoilName": "Body",
      "VariableFlipAngleFlag": "N",
      "WindowCenterWidthExplanation": "Algo1",
      "dBdt": 0.0},
    "slices": {}
  },
  "time": {
    "samples": {
      "AcquisitionNumber": [1, 2, 3, 4, 5, 6, 7, 8, 9, 10, 11, 12, 13, 14, 15, 16, 17, 18, 19, 20, 21, 22, 23, 24, 25, 26, 27, 28, 29, 30, 31, 32, 33, 34, 35, 36, 37, 38, 39, 40, 41, 42, 43, 44, 45, 46, 47, 48, 49, 50, 51, 52, 53, 54, 55, 56, 57, 58, 59, 60, 61, 62, 63, 64, 65, 66, 67, 68, 69, 70, 71, 72, 73, 74, 75, 76, 77, 78, 79, 80, 81, 82, 83, 84, 85, 86, 87, 88, 89, 90, 91, 92, 93, 94, 95, 96, 97, 98, 99, 100, 101, 102, 103, 104, 105, 106, 107, 108, 109, 110, 111, 112, 113, 114, 115, 116, 117, 118, 119, 120, 121, 122, 123, 124, 125, 126, 127, 128, 129, 130, 131, 132, 133, 134, 135, 136, 137, 138, 139, 140, 141, 142, 143, 144, 145, 146, 147, 148, 149, 150, 151, 152, 153, 154, 155, 156, 157, 158, 159, 160, 161, 162, 163, 164, 165, 166, 167, 168, 169, 170, 171, 172, 173, 174, 175, 176, 177, 178, 179, 180, 181, 182, 183, 184, 185, 186, 187, 188, 189, 190],
      "AcquisitionTime": ["153631.812500", "153633.302500", "153634.792500", "153636.282500", "153637.772500", "153639.262500", "153640.752500", "153642.242500", "153643.732500", "153645.222500", "153646.712500", "153648.202500", "153649.692500", "153651.182500", "153652.672500", "153654.162500", "153655.652500", "153657.142500", "153658.632500", "153700.122500", "153701.612500", "153703.102500", "153704.592500", "153706.082500", "153707.572500", "153709.062500", "153710.552500", "153712.042500", "153713.532500", "153715.022500", "153716.512500", "153718.002500", "153719.492500", "153720.982500", "153722.472500", "153723.962500", "153725.452500", "153726.942500", "153728.432500", "153729.922500", "153731.412500", "153732.902500", "153734.392500", "153735.882500", "153737.372500", "153738.862500", "153740.352500", "153741.842500", "153743.332500", "153744.822500", "153746.312500", "153747.802500", "153749.292500", "153750.782500", "153752.272500", "153753.762500", "153755.252500", "153756.742500", "153758.232500", "153759.722500", "153801.212500", "153802.702500", "153804.192500", "153805.682500", "153807.172500", "153808.662500", "153810.152500", "153811.642500", "153813.132500", "153814.622500", "153816.112500", "153817.602500", "153819.092500", "153820.582500", "153822.072500", "153823.562500", "153825.052500", "153826.542500", "153828.032500", "153829.522500", "153831.012500", "153832.502500", "153833.992500", "153835.482500", "153836.972500", "153838.462500", "153839.952500", "153841.442500", "153842.932500", "153844.422500", "153845.912500", "153847.402500", "153848.892500", "153850.382500", "153851.872500", "153853.362500", "153854.852500", "153856.342500", "153857.832500", "153859.322500", "153900.812500", "153902.302500", "153903.792500", "153905.282500", "153906.772500", "153908.262500", "153909.752500", "153911.242500", "153912.732500", "153914.222500", "153915.712500", "153917.202500", "153918.692500", "153920.182500", "153921.672500", "153923.162500", "153924.652500", "153926.142500", "153927.632500", "153929.122500", "153930.612500", "153932.102500", "153933.592500", "153935.082500", "153936.572500", "153938.062500", "153939.552500", "153941.042500", "153942.532500", "153944.022500", "153945.512500", "153947.002500", "153948.492500", "153949.982500", "153951.472500", "153952.962500", "153954.452500", "153955.942500", "153957.432500", "153958.922500", "154000.412500", "154001.902500", "154003.392500", "154004.882500", "154006.372500", "154007.862500", "154009.352500", "154010.842500", "154012.332500", "154013.822500", "154015.312500", "154016.802500", "154018.292500", "154019.782500", "154021.272500", "154022.762500", "154024.252500", "154025.742500", "154027.232500", "154028.722500", "154030.212500", "154031.702500", "154033.192500", "154034.682500", "154036.172500", "154037.662500", "154039.152500", "154040.642500", "154042.132500", "154043.622500", "154045.112500", "154046.602500", "154048.092500", "154049.582500", "154051.072500", "154052.562500", "154054.052500", "154055.542500", "154057.032500", "154058.522500", "154100.012500", "154101.502500", "154102.992500", "154104.482500", "154105.972500", "154107.462500", "154108.952500", "154110.442500", "154111.932500", "154113.422500"],
      "ContentTime": ["153755.109000", "153755.113000", "153755.116000", "153755.120000", "153755.123000", "153755.126000", "153755.129000", "153755.133000", "153755.144000", "153755.147000", "153755.150000", "153755.153000", "153755.157000", "153755.160000", "153755.163000", "153755.166000", "153755.170000", "153755.173000", "153755.176000", "153755.179000", "153755.182000", "153755.207000", "153755.210000", "153755.213000", "153755.216000", "153755.220000", "153755.223000", "153755.226000", "153755.229000", "153755.233000", "153815.075000", "153815.079000", "153815.082000", "153815.085000", "153815.088000", "153815.091000", "153815.095000", "153815.098000", "153815.101000", "153815.105000", "153815.108000", "153815.111000", "153815.114000", "153815.118000", "153815.121000", "153815.124000", "153815.127000", "153815.130000", "153815.134000", "153815.137000", "153835.075000", "153835.079000", "153835.082000", "153835.085000", "153835.088000", "153835.092000", "153835.095000", "153835.098000", "153835.101000", "153835.104000", "153835.108000", "153835.117000", "153835.120000", "153835.124000", "153835.127000", "153835.130000", "153835.133000", "153835.137000", "153835.140000", "153835.143000", "153855.076000", "153855.080000", "153855.083000", "153855.086000", "153855.090000", "153855.093000", "153855.096000", "153855.099000", "153855.103000", "153855.106000", "153855.109000", "153855.112000", "153855.116000", "153855.119000", "153855.122000", "153855.125000", "153855.129000", "153855.132000", "153855.135000", "153855.138000", "153855.142000", "153935.076000", "153935.080000", "153935.083000", "153935.086000", "153935.089000", "153935.093000", "153935.096000", "153935.099000", "153935.102000", "153935.106000", "153935.109000", "153935.112000", "153935.115000", "153935.119000", "153935.122000", "153935.125000", "153935.128000", "153935.132000", "153935.135000", "153935.138000", "153935.141000", "153935.145000", "153935.148000", "153935.151000", "153935.154000", "153935.157000", "153935.161000", "153935.164000", "153935.167000", "153935.170000", "153935.174000", "154015.075000", "154015.079000", "154015.082000", "154015.085000", "154015.089000", "154015.092000", "154015.095000", "154015.098000", "154015.102000", "154015.105000", "154015.108000", "154015.112000", "154015.115000", "154015.118000", "154015.121000", "154015.124000", "154015.128000", "154015.131000", "154015.134000", "154015.137000", "154015.141000", "154015.144000", "154015.147000", "154015.150000", "154015.153000", "154015.157000", "154015.160000", "154055.075000", "154055.079000", "154055.082000", "154055.085000", "154055.088000", "154055.092000", "154055.095000", "154055.098000", "154055.101000", "154055.105000", "154055.108000", "154055.111000", "154055.114000", "154055.118000", "154055.121000", "154055.124000", "154055.127000", "154055.130000", "154055.134000", "154055.137000", "154055.140000", "154055.144000", "154055.147000", "154055.150000", "154055.153000", "154055.157000", "154055.160000", "154115.277000", "154115.280000", "154115.283000", "154115.287000", "154115.290000", "154115.293000", "154115.296000", "154115.300000", "154115.303000", "154115.306000", "154115.309000", "154115.313000", "154115.316000", "154115.319000"],
      "InstanceCreationTime": ["153755.109000", "153755.113000", "153755.116000", "153755.120000", "153755.123000", "153755.126000", "153755.129000", "153755.133000", "153755.144000", "153755.147000", "153755.150000", "153755.153000", "153755.157000", "153755.160000", "153755.163000", "153755.166000", "153755.170000", "153755.173000", "153755.176000", "153755.179000", "153755.182000", "153755.207000", "153755.210000", "153755.213000", "153755.216000", "153755.220000", "153755.223000", "153755.226000", "153755.229000", "153755.233000", "153815.075000", "153815.079000", "153815.082000", "153815.085000", "153815.088000", "153815.091000", "153815.095000", "153815.098000", "153815.101000", "153815.105000", "153815.108000", "153815.111000", "153815.114000", "153815.118000", "153815.121000", "153815.124000", "153815.127000", "153815.130000", "153815.134000", "153815.137000", "153835.075000", "153835.079000", "153835.082000", "153835.085000", "153835.088000", "153835.092000", "153835.095000", "153835.098000", "153835.101000", "153835.104000", "153835.108000", "153835.117000", "153835.120000", "153835.124000", "153835.127000", "153835.130000", "153835.133000", "153835.137000", "153835.140000", "153835.143000", "153855.076000", "153855.080000", "153855.083000", "153855.086000", "153855.090000", "153855.093000", "153855.096000", "153855.099000", "153855.103000", "153855.106000", "153855.109000", "153855.112000", "153855.116000", "153855.119000", "153855.122000", "153855.125000", "153855.129000", "153855.132000", "153855.135000", "153855.138000", "153855.142000", "153935.076000", "153935.080000", "153935.083000", "153935.086000", "153935.089000", "153935.093000", "153935.096000", "153935.099000", "153935.102000", "153935.106000", "153935.109000", "153935.112000", "153935.115000", "153935.119000", "153935.122000", "153935.125000", "153935.128000", "153935.132000", "153935.135000", "153935.138000", "153935.141000", "153935.145000", "153935.148000", "153935.151000", "153935.154000", "153935.157000", "153935.161000", "153935.164000", "153935.167000", "153935.170000", "153935.174000", "154015.075000", "154015.079000", "154015.082000", "154015.085000", "154015.089000", "154015.092000", "154015.095000", "154015.098000", "154015.102000", "154015.105000", "154015.108000", "154015.112000", "154015.115000", "154015.118000", "154015.121000", "154015.124000", "154015.128000", "154015.131000", "154015.134000", "154015.137000", "154015.141000", "154015.144000", "154015.147000", "154015.150000", "154015.153000", "154015.157000", "154015.160000", "154055.075000", "154055.079000", "154055.082000", "154055.085000", "154055.088000", "154055.092000", "154055.095000", "154055.098000", "154055.101000", "154055.105000", "154055.108000", "154055.111000", "154055.114000", "154055.118000", "154055.121000", "154055.124000", "154055.127000", "154055.130000", "154055.134000", "154055.137000", "154055.140000", "154055.144000", "154055.147000", "154055.150000", "154055.153000", "154055.157000", "154055.160000", "154115.277000", "154115.280000", "154115.283000", "154115.287000", "154115.290000", "154115.293000", "154115.296000", "154115.300000", "154115.303000", "154115.306000", "154115.309000", "154115.313000", "154115.316000", "154115.319000"],
      "InstanceNumber": [1, 2, 3, 4, 5, 6, 7, 8, 9, 10, 11, 12, 13, 14, 15, 16, 17, 18, 19, 20, 21, 22, 23, 24, 25, 26, 27, 28, 29, 30, 31, 32, 33, 34, 35, 36, 37, 38, 39, 40, 41, 42, 43, 44, 45, 46, 47, 48, 49, 50, 51, 52, 53, 54, 55, 56, 57, 58, 59, 60, 61, 62, 63, 64, 65, 66, 67, 68, 69, 70, 71, 72, 73, 74, 75, 76, 77, 78, 79, 80, 81, 82, 83, 84, 85, 86, 87, 88, 89, 90, 91, 92, 93, 94, 95, 96, 97, 98, 99, 100, 101, 102, 103, 104, 105, 106, 107, 108, 109, 110, 111, 112, 113, 114, 115, 116, 117, 118, 119, 120, 121, 122, 123, 124, 125, 126, 127, 128, 129, 130, 131, 132, 133, 134, 135, 136, 137, 138, 139, 140, 141, 142, 143, 144, 145, 146, 147, 148, 149, 150, 151, 152, 153, 154, 155, 156, 157, 158, 159, 160, 161, 162, 163, 164, 165, 166, 167, 168, 169, 170, 171, 172, 173, 174, 175, 176, 177, 178, 179, 180, 181, 182, 183, 184, 185, 186, 187, 188, 189, 190],
      "LargestImagePixelValue": [42546, 41209, 41049, 40345, 40123, 39699, 39539, 39547, 39692, 39346, 39246, 39420, 39343, 39447, 39500, 39713, 38950, 39252, 40384, 38564, 38382, 40276, 38889, 39553, 38932, 39530, 38967, 39966, 39030, 39100, 40114, 39268, 38672, 38680, 39598, 40233, 39883, 39157, 38880, 39387, 38924, 39004, 38775, 38406, 38806, 38258, 38940, 38949, 38909, 38544, 38302, 38666, 38675, 38634, 38712, 39880, 38289, 38590, 38420, 38117, 39253, 38460, 38778, 38794, 38794, 39000, 38176, 39531, 39724, 38747, 39284, 39505, 38789, 39003, 38535, 39319, 38722, 39763, 39152, 39234, 38403, 39382, 39047, 38589, 38428, 38500, 38750, 38994, 38935, 38990, 38561, 38881, 38677, 39522, 38833, 38939, 38654, 38570, 38440, 39996, 39347, 38874, 38678, 38861, 38786, 38613, 39086, 38605, 38944, 40041, 39428, 39848, 38515, 39932, 40080, 41107, 41372, 40222, 38660, 38392, 38417, 38756, 40755, 40756, 40732, 41254, 40991, 41051, 39025, 40374, 40177, 39513, 39208, 40114, 40553, 41164, 41365, 40927, 39995, 40249, 40289, 39007, 40568, 40652, 39247, 40345, 39495, 40094, 40648, 39744, 40694, 40926, 40886, 40274, 40700, 39936, 40825, 41002, 40968, 40274, 39567, 40897, 40105, 38928, 40473, 39913, 39297, 39405, 39519, 39676, 38899, 39618, 40326, 39929, 38692, 39190, 38718, 39392, 38735, 38612, 38770, 39173, 38699, 38746, 39177, 39152, 38782, 39730, 39656, 39132],
      "WindowCenter": [10338.0, 10261.0, 10244.0, 10231.0, 10238.0, 10224.0, 10217.0, 10215.0, 10218.0, 10208.0, 10205.0, 10205.0, 10192.0, 10193.0, 10195.0, 10203.0, 10199.0, 10181.0, 10178.0, 10179.0, 10182.0, 10189.0, 10165.0, 10173.0, 10168.0, 10175.0, 10186.0, 10212.0, 10198.0, 10183.0, 10199.0, 10193.0, 10182.0, 10180.0, 10206.0, 10210.0, 10201.0, 10166.0, 10145.0, 10160.0, 10155.0, 10132.0, 10121.0, 10138.0, 10178.0, 10176.0, 10158.0, 10144.0, 10164.0, 10182.0, 10176.0, 10165.0, 10155.0, 10163.0, 10162.0, 10177.0, 10202.0, 10205.0, 10176.0, 10156.0, 10188.0, 10178.0, 10154.0, 10130.0, 10125.0, 10145.0, 10162.0, 10178.0, 10179.0, 10162.0, 10163.0, 10161.0, 10167.0, 10165.0, 10158.0, 10183.0, 10167.0, 10169.0, 10163.0, 10154.0, 10121.0, 10126.0, 10122.0, 10154.0, 10161.0, 10148.0, 10142.0, 10141.0, 10156.0, 10164.0, 10157.0, 10157.0, 10157.0, 10169.0, 10158.0, 10188.0, 10203.0, 10197.0, 10166.0, 10168.0, 10176.0, 10176.0, 10152.0, 10139.0, 10154.0, 10163.0, 10139.0, 10127.0, 10160.0, 10184.0, 10201.0, 10195.0, 10150.0, 10161.0, 10194.0, 10234.0, 10199.0, 10185.0, 10174.0, 10159.0, 10130.0, 10107.0, 10125.0, 10125.0, 10121.0, 10137.0, 10160.0, 10176.0, 10145.0, 10152.0, 10167.0, 10150.0, 10141.0, 10151.0, 10173.0, 10168.0, 10157.0, 10148.0, 10136.0, 10156.0, 10169.0, 10150.0, 10167.0, 10160.0, 10144.0, 10159.0, 10179.0, 10203.0, 10201.0, 10159.0, 10152.0, 10161.0, 10179.0, 10170.0, 10165.0, 10154.0, 10164.0, 10177.0, 10188.0, 10169.0, 10136.0, 10156.0, 10169.0, 10166.0, 10171.0, 10155.0, 10135.0, 10133.0, 10145.0, 10176.0, 10177.0, 10158.0, 10159.0, 10169.0, 10152.0, 10149.0, 10142.0, 10134.0, 10121.0, 10133.0, 10145.0, 10153.0, 10152.0, 10162.0, 10178.0, 10187.0, 10183.0, 10185.0, 10197.0, 10202.0],
      "WindowWidth": [22396.0, 22185.0, 22119.0, 22078.0, 22085.0, 22051.0, 22029.0, 22024.0, 22026.0, 22009.0, 21997.0, 22001.0, 21972.0, 21973.0, 21976.0, 21994.0, 21989.0, 21944.0, 21925.0, 21939.0, 21950.0, 21960.0, 21909.0, 21922.0, 21913.0, 21931.0, 21957.0, 22011.0, 21988.0, 21952.0, 21989.0, 21978.0, 21956.0, 21957.0, 22015.0, 22011.0, 21991.0, 21912.0, 21862.0, 21896.0, 21890.0, 21841.0, 21812.0, 21849.0, 21938.0, 21938.0, 21892.0, 21853.0, 21899.0, 21947.0, 21938.0, 21907.0, 21887.0, 21904.0, 21905.0, 21935.0, 21996.0, 22000.0, 21932.0, 21885.0, 21953.0, 21936.0, 21884.0, 21832.0, 21816.0, 21857.0, 21903.0, 21928.0, 21931.0, 21899.0, 21898.0, 21893.0, 21912.0, 21910.0, 21893.0, 21942.0, 21909.0, 21911.0, 21901.0, 21880.0, 21811.0, 21814.0, 21811.0, 21881.0, 21903.0, 21872.0, 21855.0, 21853.0, 21886.0, 21907.0, 21891.0, 21888.0, 21890.0, 21913.0, 21894.0, 21957.0, 21994.0, 21980.0, 21911.0, 21908.0, 21929.0, 21934.0, 21881.0, 21847.0, 21881.0, 21900.0, 21850.0, 21823.0, 21892.0, 21947.0, 21989.0, 21976.0, 21879.0, 21892.0, 21968.0, 22071.0, 21987.0, 21936.0, 21917.0, 21880.0, 21815.0, 21770.0, 21801.0, 21802.0, 21794.0, 21826.0, 21882.0, 21914.0, 21853.0, 21862.0, 21895.0, 21862.0, 21838.0, 21857.0, 21904.0, 21897.0, 21867.0, 21848.0, 21827.0, 21870.0, 21902.0, 21863.0, 21891.0, 21879.0, 21849.0, 21875.0, 21922.0, 21977.0, 21971.0, 21882.0, 21860.0, 21877.0, 21920.0, 21903.0, 21890.0, 21868.0, 21888.0, 21916.0, 21942.0, 21903.0, 21836.0, 21869.0, 21901.0, 21895.0, 21906.0, 21872.0, 21831.0, 21825.0, 21848.0, 21918.0, 21928.0, 21881.0, 21879.0, 21904.0, 21869.0, 21859.0, 21845.0, 21826.0, 21801.0, 21825.0, 21853.0, 21872.0, 21871.0, 21895.0, 21928.0, 21952.0, 21946.0, 21945.0, 21968.0, 21981.0]
    },
    "slices": {}
  }
}