{
  "AcquisitionMatrixPE": 104,
  "AcquisitionNumber": 1,
  "AcquisitionTime": "15:42:51.132500",
  "BandwidthPerPixelPhaseEncode": 17.17,
  "BaseResolution": 104,
  "BodyPartExamined": "BRAIN",
  "CoilString": "HC1-7;NC1_2",
  "ConsistencyInfo": "N4_VE11C_LATEST_20160120",
  "ConversionSoftware": "dcm2niix",
  "ConversionSoftwareVersion": "v1.0.20190902",
  "DerivedVendorReportedEchoSpacing": 0.000560011,
  "DeviceSerialNumber": "167006",
  "DwellTime": 2.1e-06,
  "EchoTime": 0.037,
  "EchoTrainLength": 104,
  "EffectiveEchoSpacing": 0.000560011,
  "FlipAngle": 52,
  "ImageComments": "Unaliased_MB4_PE3_LB",
  "ImageOrientationPatientDICOM": [0.999451, -0.0330716, 0.0019263, 0.0321075, 0.952714, -0.302169],
  "ImageType": [
    "ORIGINAL",
    "PRIMARY",
    "M",
    "MB",
    "ND",
    "MOSAIC"
],
  "ImagingFrequency": 123.259,
  "InPlanePhaseEncodingDirectionDICOM": "COL",
  "InstitutionAddress": "Chemin_Queen-Mary_4565_Montreal_District_CA_H3W_1W5",
  "InstitutionName": "IUGM",
  "InstitutionalDepartmentName": "Department",
  "MRAcquisitionType": "2D",
  "MagneticFieldStrength": 3,
  "Manufacturer": "Siemens",
  "ManufacturersModelName": "Prisma_fit",
  "Modality": "MR",
  "MultibandAccelerationFactor": 4,
  "PartialFourier": 1,
  "PatientPosition": "HFS",
  "PercentPhaseFOV": 100,
  "PhaseEncodingDirection": "j",
  "PhaseEncodingSteps": 104,
  "PhaseResolution": 1,
  "PixelBandwidth": 2290,
  "ProcedureStepDescription": "memory_things",
  "ProtocolName": "func_task-things_run-4",
  "PulseSequenceDetails": "%CustomerSeq%_cmrr_mbep2d_bold",
  "ReceiveCoilActiveElements": "HC1-7;NC1,2",
  "ReceiveCoilName": "HeadNeck_64",
  "ReconMatrixPE": 104,
  "RepetitionTime": 1.49,
  "SAR": 0.0343488,
  "ScanOptions": "FS",
  "ScanningSequence": "EP",
  "SequenceName": "epfid2d1_104",
  "SequenceVariant": "SK_SS",
  "SeriesDescription": "func_task-things_run-4",
  "SeriesNumber": 19,
  "ShimSetting": [619, -7259, -8799, 619, -17, -224, -11, -21],
  "SliceThickness": 2,
  "SliceTiming": [0, 0.785, 0.0975, 0.8825, 0.195, 0.98, 0.295, 1.0775, 0.3925, 1.175, 0.49, 1.275, 0.5875, 1.3725, 0.685, 0, 0.785, 0.0975, 0.8825, 0.195, 0.98, 0.295, 1.0775, 0.3925, 1.175, 0.49, 1.275, 0.5875, 1.3725, 0.685, 0, 0.785, 0.0975, 0.8825, 0.195, 0.98, 0.295, 1.0775, 0.3925, 1.175, 0.49, 1.275, 0.5875, 1.3725, 0.685, 0, 0.785, 0.0975, 0.8825, 0.195, 0.98, 0.295, 1.0775, 0.3925, 1.175, 0.49, 1.275, 0.5875, 1.3725, 0.685],
  "SoftwareVersions": "syngo_MR_E11",
  "SpacingBetweenSlices": 2,
  "StationName": "MRC35049",
  "TaskName": "things",
  "TotalReadoutTime": 0.0576811,
  "TxRefAmp": 231.001,
  "WipMemBlock": "e9497d0e-6317-4531-b262-67a39f0acf10||Sequence: R016 ve11c/master r/e634e98; Dec 19 2017 11:00:25 by eja",
  "dcmmeta_affine": [
    [-1.9989022016525269, 0.06421500444412231, -0.016315996646881104, 103.93379974365234],
    [0.06614329665899277, 1.90542733669281, -0.6041290163993835, -71.25801086425781],
    [0.0038526018615812063, 0.6043370366096497, 1.9065051078796387, -56.782108306884766],
    [0.0, 0.0, 0.0, 1.0]
],
  "dcmmeta_reorient_transform": [
    [0.0, -1.0, 0.0, 103.0],
    [1.0, 0.0, 0.0, 0.0],
    [0.0, 0.0, 1.0, 0.0],
    [0.0, 0.0, 0.0, 1.0]
],
  "dcmmeta_shape": [104, 104, 60, 190],
  "dcmmeta_slice_dim": 2,
  "dcmmeta_version": 0.6,
  "global": {
    "const": {
      "AcquisitionMatrix": [104, 0, 0, 104],
      "AngioFlag": "N",
      "BitsAllocated": 16,
      "BitsStored": 16,
      "BodyPartExamined": "BRAIN",
      "Columns": 832,
      "EchoNumbers": 1,
      "EchoTime": 37.0,
      "EchoTrainLength": 104,
      "FlipAngle": 52.0,
      "HighBit": 15,
      "ImageOrientationPatient": [0.99945112703872, -0.0330716498824, 0.00192630088322, 0.03210750254817, 0.95271364505466, -0.3021685271612],
      "ImagePositionPatient": [-861.52262535348, -794.50037057415, 224.04095029309],
      "ImageType": [
        "ORIGINAL",
        "PRIMARY",
        "M",
        "MB",
        "ND",
        "MOSAIC"
],
      "ImagedNucleus": "1H",
      "ImagingFrequency": 123.258914,
      "InPlanePhaseEncodingDirection": "COL",
      "MRAcquisitionType": "2D",
      "MagneticFieldStrength": 3.0,
      "Manufacturer": "SIEMENS",
      "ManufacturerModelName": "Prisma_fit",
      "Modality": "MR",
      "NumberOfAverages": 1.0,
      "NumberOfPhaseEncodingSteps": 104,
      "PercentPhaseFieldOfView": 100.0,
      "PercentSampling": 100.0,
      "PerformedProcedureStepStartTime": "150020.534000",
      "PhotometricInterpretation": "MONOCHROME2",
      "PixelBandwidth": 2290.0,
      "PixelRepresentation": 0,
      "PixelSpacing": [2.0, 2.0],
      "ProtocolName": "func_task-things_run-4",
      "RepetitionTime": 1490.0,
      "Rows": 832,
      "SAR": 0.03434883985515,
      "SamplesPerPixel": 1,
      "ScanOptions": "FS",
      "ScanningSequence": "EP",
      "SequenceName": "epfid2d1_104",
      "SequenceVariant": [
        "SK",
        "SS"
],
      "SeriesDescription": "func_task-things_run-4",
      "SeriesNumber": 19,
      "SeriesTime": "154355.207000",
      "SliceLocation": -33.45106378509,
      "SliceThickness": 2.0,
      "SmallestImagePixelValue": 0,
      "SoftwareVersions": "syngo MR E11",
      "SpacingBetweenSlices": 1.9999999817828,
      "SpecificCharacterSet": "ISO_IR 100",
      "StudyID": "1",
      "StudyTime": "150020.398000",
      "TransmitCoilName": "Body",
      "VariableFlipAngleFlag": "N",
      "WindowCenterWidthExplanation": "Algo1",
      "dBdt": 0.0},
    "slices": {}
  },
  "time": {
    "samples": {
      "AcquisitionNumber": [1, 2, 3, 4, 5, 6, 7, 8, 9, 10, 11, 12, 13, 14, 15, 16, 17, 18, 19, 20, 21, 22, 23, 24, 25, 26, 27, 28, 29, 30, 31, 32, 33, 34, 35, 36, 37, 38, 39, 40, 41, 42, 43, 44, 45, 46, 47, 48, 49, 50, 51, 52, 53, 54, 55, 56, 57, 58, 59, 60, 61, 62, 63, 64, 65, 66, 67, 68, 69, 70, 71, 72, 73, 74, 75, 76, 77, 78, 79, 80, 81, 82, 83, 84, 85, 86, 87, 88, 89, 90, 91, 92, 93, 94, 95, 96, 97, 98, 99, 100, 101, 102, 103, 104, 105, 106, 107, 108, 109, 110, 111, 112, 113, 114, 115, 116, 117, 118, 119, 120, 121, 122, 123, 124, 125, 126, 127, 128, 129, 130, 131, 132, 133, 134, 135, 136, 137, 138, 139, 140, 141, 142, 143, 144, 145, 146, 147, 148, 149, 150, 151, 152, 153, 154, 155, 156, 157, 158, 159, 160, 161, 162, 163, 164, 165, 166, 167, 168, 169, 170, 171, 172, 173, 174, 175, 176, 177, 178, 179, 180, 181, 182, 183, 184, 185, 186, 187, 188, 189, 190],
      "AcquisitionTime": ["154251.132500", "154252.622500", "154254.112500", "154255.602500", "154257.092500", "154258.582500", "154300.072500", "154301.562500", "154303.052500", "154304.542500", "154306.032500", "154307.522500", "154309.012500", "154310.502500", "154311.992500", "154313.482500", "154314.972500", "154316.462500", "154317.952500", "154319.442500", "154320.932500", "154322.422500", "154323.912500", "154325.402500", "154326.892500", "154328.382500", "154329.872500", "154331.362500", "154332.852500", "154334.342500", "154335.832500", "154337.322500", "154338.812500", "154340.302500", "154341.792500", "154343.282500", "154344.772500", "154346.262500", "154347.752500", "154349.242500", "154350.732500", "154352.222500", "154353.712500", "154355.202500", "154356.692500", "154358.182500", "154359.672500", "154401.162500", "154402.652500", "154404.142500", "154405.632500", "154407.122500", "154408.612500", "154410.102500", "154411.592500", "154413.082500", "154414.572500", "154416.062500", "154417.552500", "154419.042500", "154420.532500", "154422.022500", "154423.512500", "154425.002500", "154426.492500", "154427.982500", "154429.472500", "154430.962500", "154432.452500", "154433.942500", "154435.432500", "154436.922500", "154438.412500", "154439.902500", "154441.392500", "154442.882500", "154444.372500", "154445.862500", "154447.352500", "154448.842500", "154450.332500", "154451.822500", "154453.312500", "154454.802500", "154456.292500", "154457.782500", "154459.272500", "154500.762500", "154502.252500", "154503.742500", "154505.232500", "154506.722500", "154508.212500", "154509.702500", "154511.192500", "154512.682500", "154514.172500", "154515.662500", "154517.152500", "154518.642500", "154520.132500", "154521.622500", "154523.112500", "154524.602500", "154526.092500", "154527.582500", "154529.072500", "154530.562500", "154532.052500", "154533.542500", "154535.032500", "154536.522500", "154538.012500", "154539.502500", "154540.992500", "154542.482500", "154543.972500", "154545.462500", "154546.952500", "154548.442500", "154549.932500", "154551.422500", "154552.912500", "154554.402500", "154555.892500", "154557.382500", "154558.872500", "154600.362500", "154601.852500", "154603.342500", "154604.832500", "154606.322500", "154607.812500", "154609.302500", "154610.792500", "154612.282500", "154613.772500", "154615.262500", "154616.752500", "154618.242500", "154619.732500", "154621.222500", "154622.712500", "154624.202500", "154625.692500", "154627.182500", "154628.672500", "154630.162500", "154631.652500", "154633.142500", "154634.632500", "154636.122500", "154637.612500", "154639.102500", "154640.592500", "154642.082500", "154643.572500", "154645.062500", "154646.552500", "154648.042500", "154649.532500", "154651.022500", "154652.512500", "154654.002500", "154655.492500", "154656.982500", "154658.472500", "154659.962500", "154701.452500", "154702.942500", "154704.432500", "154705.922500", "154707.412500", "154708.902500", "154710.392500", "154711.882500", "154713.372500", "154714.862500", "154716.352500", "154717.842500", "154719.332500", "154720.822500", "154722.312500", "154723.802500", "154725.292500", "154726.782500", "154728.272500", "154729.762500", "154731.252500", "154732.742500"],
      "ContentTime": ["154355.210000", "154355.214000", "154355.217000", "154355.220000", "154355.224000", "154355.227000", "154355.230000", "154355.234000", "154355.237000", "154355.240000", "154355.244000", "154415.163000", "154415.167000", "154415.175000", "154415.179000", "154415.182000", "154415.185000", "154415.188000", "154415.191000", "154415.207000", "154415.210000", "154415.213000", "154415.216000", "154415.220000", "154415.223000", "154415.226000", "154415.229000", "154415.233000", "154415.236000", "154415.239000", "154415.242000", "154415.246000", "154435.162000", "154435.166000", "154435.169000", "154435.172000", "154435.175000", "154435.178000", "154435.182000", "154435.185000", "154435.188000", "154435.191000", "154435.195000", "154435.198000", "154435.201000", "154435.204000", "154435.207000", "154435.211000", "154435.214000", "154435.217000", "154435.220000", "154435.223000", "154455.162000", "154455.169000", "154455.201000", "154455.205000", "154455.208000", "154455.211000", "154455.215000", "154455.218000", "154455.221000", "154455.224000", "154455.228000", "154455.231000", "154455.234000", "154455.237000", "154455.241000", "154455.244000", "154455.247000", "154455.250000", "154455.254000", "154455.257000", "154455.260000", "154515.162000", "154515.165000", "154515.169000", "154515.172000", "154515.175000", "154515.179000", "154515.182000", "154515.185000", "154515.188000", "154515.192000", "154515.195000", "154515.198000", "154515.201000", "154515.205000", "154515.208000", "154515.211000", "154515.214000", "154515.218000", "154515.221000", "154515.224000", "154555.163000", "154555.167000", "154555.170000", "154555.173000", "154555.176000", "154555.180000", "154555.183000", "154555.186000", "154555.189000", "154555.192000", "154555.196000", "154555.199000", "154555.202000", "154555.205000", "154555.209000", "154555.212000", "154555.215000", "154555.218000", "154555.221000", "154555.225000", "154555.228000", "154555.231000", "154555.234000", "154555.238000", "154555.241000", "154555.244000", "154555.247000", "154555.251000", "154555.254000", "154555.257000", "154635.163000", "154635.167000", "154635.170000", "154635.191000", "154635.194000", "154635.198000", "154635.201000", "154635.204000", "154635.207000", "154635.211000", "154635.214000", "154635.217000", "154635.220000", "154635.224000", "154635.227000", "154635.230000", "154635.234000", "154635.237000", "154635.241000", "154635.244000", "154635.247000", "154635.250000", "154635.254000", "154635.257000", "154635.260000", "154635.264000", "154715.162000", "154715.166000", "154715.169000", "154715.172000", "154715.176000", "154715.179000", "154715.182000", "154715.185000", "154715.189000", "154715.192000", "154715.195000", "154715.207000", "154715.210000", "154715.214000", "154715.217000", "154715.220000", "154715.223000", "154715.227000", "154715.230000", "154715.233000", "154715.236000", "154715.240000", "154715.243000", "154715.246000", "154715.249000", "154715.253000", "154715.256000", "154734.915000", "154734.918000", "154734.922000", "154734.925000", "154734.928000", "154734.931000", "154734.935000", "154734.938000", "154734.941000", "154734.945000", "154734.948000", "154734.952000", "154734.955000", "154734.958000"],
      "InstanceCreationTime": ["154355.210000", "154355.214000", "154355.217000", "154355.220000", "154355.224000", "154355.227000", "154355.230000", "154355.234000", "154355.237000", "154355.240000", "154355.244000", "154415.163000", "154415.167000", "154415.175000", "154415.179000", "154415.182000", "154415.185000", "154415.188000", "154415.191000", "154415.207000", "154415.210000", "154415.213000", "154415.216000", "154415.220000", "154415.223000", "154415.226000", "154415.229000", "154415.233000", "154415.236000", "154415.239000", "154415.242000", "154415.246000", "154435.162000", "154435.166000", "154435.169000", "154435.172000", "154435.175000", "154435.178000", "154435.182000", "154435.185000", "154435.188000", "154435.191000", "154435.195000", "154435.198000", "154435.201000", "154435.204000", "154435.207000", "154435.211000", "154435.214000", "154435.217000", "154435.220000", "154435.223000", "154455.162000", "154455.169000", "154455.201000", "154455.205000", "154455.208000", "154455.211000", "154455.215000", "154455.218000", "154455.221000", "154455.224000", "154455.228000", "154455.231000", "154455.234000", "154455.237000", "154455.241000", "154455.244000", "154455.247000", "154455.250000", "154455.254000", "154455.257000", "154455.260000", "154515.162000", "154515.165000", "154515.169000", "154515.172000", "154515.175000", "154515.179000", "154515.182000", "154515.185000", "154515.188000", "154515.192000", "154515.195000", "154515.198000", "154515.201000", "154515.205000", "154515.208000", "154515.211000", "154515.214000", "154515.218000", "154515.221000", "154515.224000", "154555.163000", "154555.167000", "154555.170000", "154555.173000", "154555.176000", "154555.180000", "154555.183000", "154555.186000", "154555.189000", "154555.192000", "154555.196000", "154555.199000", "154555.202000", "154555.205000", "154555.209000", "154555.212000", "154555.215000", "154555.218000", "154555.221000", "154555.225000", "154555.228000", "154555.231000", "154555.234000", "154555.238000", "154555.241000", "154555.244000", "154555.247000", "154555.251000", "154555.254000", "154555.257000", "154635.163000", "154635.167000", "154635.170000", "154635.191000", "154635.194000", "154635.198000", "154635.201000", "154635.204000", "154635.207000", "154635.211000", "154635.214000", "154635.217000", "154635.220000", "154635.224000", "154635.227000", "154635.230000", "154635.234000", "154635.237000", "154635.241000", "154635.244000", "154635.247000", "154635.250000", "154635.254000", "154635.257000", "154635.260000", "154635.264000", "154715.162000", "154715.166000", "154715.169000", "154715.172000", "154715.176000", "154715.179000", "154715.182000", "154715.185000", "154715.189000", "154715.192000", "154715.195000", "154715.207000", "154715.210000", "154715.214000", "154715.217000", "154715.220000", "154715.223000", "154715.227000", "154715.230000", "154715.233000", "154715.236000", "154715.240000", "154715.243000", "154715.246000", "154715.249000", "154715.253000", "154715.256000", "154734.915000", "154734.918000", "154734.922000", "154734.925000", "154734.928000", "154734.931000", "154734.935000", "154734.938000", "154734.941000", "154734.945000", "154734.948000", "154734.952000", "154734.955000", "154734.958000"],
      "InstanceNumber": [1, 2, 3, 4, 5, 6, 7, 8, 9, 10, 11, 12, 13, 14, 15, 16, 17, 18, 19, 20, 21, 22, 23, 24, 25, 26, 27, 28, 29, 30, 31, 32, 33, 34, 35, 36, 37, 38, 39, 40, 41, 42, 43, 44, 45, 46, 47, 48, 49, 50, 51, 52, 53, 54, 55, 56, 57, 58, 59, 60, 61, 62, 63, 64, 65, 66, 67, 68, 69, 70, 71, 72, 73, 74, 75, 76, 77, 78, 79, 80, 81, 82, 83, 84, 85, 86, 87, 88, 89, 90, 91, 92, 93, 94, 95, 96, 97, 98, 99, 100, 101, 102, 103, 104, 105, 106, 107, 108, 109, 110, 111, 112, 113, 114, 115, 116, 117, 118, 119, 120, 121, 122, 123, 124, 125, 126, 127, 128, 129, 130, 131, 132, 133, 134, 135, 136, 137, 138, 139, 140, 141, 142, 143, 144, 145, 146, 147, 148, 149, 150, 151, 152, 153, 154, 155, 156, 157, 158, 159, 160, 161, 162, 163, 164, 165, 166, 167, 168, 169, 170, 171, 172, 173, 174, 175, 176, 177, 178, 179, 180, 181, 182, 183, 184, 185, 186, 187, 188, 189, 190],
      "LargestImagePixelValue": [43592, 41794, 40260, 41677, 41278, 40321, 39367, 40336, 39460, 39988, 40152, 39299, 39853, 40930, 40160, 39435, 39171, 38989, 38878, 38986, 38917, 38732, 39180, 40363, 40400, 39091, 40530, 39305, 39522, 41204, 39426, 40831, 41156, 40238, 40998, 40846, 39992, 41381, 40842, 40383, 40003, 39753, 40455, 39491, 39801, 40301, 40418, 40541, 40824, 40225, 40846, 40194, 40778, 40124, 39814, 39749, 41342, 41297, 40444, 39934, 39788, 39758, 40157, 39940, 41649, 41341, 40418, 38915, 41763, 41156, 39772, 40045, 40129, 40405, 40369, 40821, 40805, 40670, 41616, 41956, 41556, 41850, 41477, 41457, 41015, 41166, 40734, 41417, 41848, 41610, 41400, 41739, 40840, 41123, 41529, 41023, 40477, 40742, 41761, 41550, 41752, 41771, 41111, 41360, 41316, 40844, 41754, 41218, 41678, 40563, 41015, 42015, 41751, 41722, 41756, 41513, 40059, 41936, 42657, 42787, 42059, 41717, 41332, 41062, 40603, 42737, 39030, 42826, 41864, 41021, 40053, 40563, 40439, 40470, 40744, 40668, 40807, 40518, 41032, 40920, 41181, 41254, 40235, 40495, 40806, 41001, 41173, 40923, 40629, 41149, 40305, 41008, 40624, 41285, 40255, 40707, 41006, 41048, 41124, 41360, 40781, 40909, 40845, 41088, 40387, 40831, 41412, 41123, 41961, 41599, 41532, 41214, 41069, 41419, 41161, 41232, 40991, 40922, 41003, 41127, 41663, 41410, 40628, 40746, 40623, 40709, 41445, 40972, 41283, 41524],
      "WindowCenter": [10228.0, 10171.0, 10166.0, 10210.0, 10230.0, 10206.0, 10167.0, 10161.0, 10149.0, 10136.0, 10128.0, 10123.0, 10119.0, 10137.0, 10149.0, 10133.0, 10119.0, 10125.0, 10135.0, 10135.0, 10136.0, 10137.0, 10158.0, 10186.0, 10188.0, 10176.0, 10193.0, 10197.0, 10203.0, 10221.0, 10216.0, 10227.0, 10194.0, 10188.0, 10216.0, 10203.0, 10168.0, 10161.0, 10137.0, 10097.0, 10073.0, 10069.0, 10076.0, 10079.0, 10096.0, 10096.0, 10086.0, 10093.0, 10118.0, 10127.0, 10148.0, 10154.0, 10150.0, 10144.0, 10161.0, 10184.0, 10204.0, 10190.0, 10154.0, 10136.0, 10129.0, 10129.0, 10133.0, 10149.0, 10189.0, 10189.0, 10199.0, 10140.0, 10182.0, 10136.0, 10090.0, 10086.0, 10082.0, 10072.0, 10080.0, 10117.0, 10153.0, 10166.0, 10166.0, 10164.0, 10162.0, 10139.0, 10113.0, 10113.0, 10139.0, 10164.0, 10154.0, 10130.0, 10116.0, 10114.0, 10105.0, 10126.0, 10148.0, 10141.0, 10139.0, 10141.0, 10144.0, 10157.0, 10182.0, 10171.0, 10147.0, 10119.0, 10099.0, 10123.0, 10158.0, 10149.0, 10139.0, 10131.0, 10115.0, 10106.0, 10120.0, 10163.0, 10174.0, 10159.0, 10112.0, 10114.0, 10127.0, 10131.0, 10140.0, 10138.0, 10114.0, 10092.0, 10061.0, 10053.0, 10059.0, 10117.0, 10069.0, 10122.0, 10094.0, 10065.0, 10068.0, 10065.0, 10047.0, 10060.0, 10085.0, 10090.0, 10086.0, 10088.0, 10097.0, 10115.0, 10134.0, 10120.0, 10085.0, 10080.0, 10098.0, 10133.0, 10143.0, 10115.0, 10098.0, 10100.0, 10097.0, 10124.0, 10113.0, 10118.0, 10122.0, 10136.0, 10129.0, 10103.0, 10101.0, 10116.0, 10121.0, 10112.0, 10089.0, 10087.0, 10083.0, 10101.0, 10127.0, 10156.0, 10143.0, 10109.0, 10085.0, 10082.0, 10082.0, 10090.0, 10093.0, 10106.0, 10101.0, 10096.0, 10095.0, 10104.0, 10136.0, 10111.0, 10072.0, 10045.0, 10034.0, 10042.0, 10062.0, 10076.0, 10075.0, 10075.0],
      "WindowWidth": [22134.0, 21965.0, 21935.0, 22012.0, 22051.0, 21995.0, 21906.0, 21888.0, 21862.0, 21831.0, 21812.0, 21804.0, 21794.0, 21828.0, 21856.0, 21828.0, 21793.0, 21805.0, 21833.0, 21833.0, 21836.0, 21839.0, 21881.0, 21944.0, 21951.0, 21926.0, 21961.0, 21972.0, 21987.0, 22020.0, 22014.0, 22034.0, 21961.0, 21949.0, 22010.0, 21982.0, 21901.0, 21885.0, 21834.0, 21747.0, 21691.0, 21676.0, 21693.0, 21701.0, 21738.0, 21741.0, 21715.0, 21733.0, 21789.0, 21811.0, 21855.0, 21868.0, 21863.0, 21848.0, 21886.0, 21936.0, 21977.0, 21948.0, 21871.0, 21827.0, 21813.0, 21813.0, 21817.0, 21858.0, 21943.0, 21953.0, 21989.0, 21844.0, 21927.0, 21820.0, 21717.0, 21706.0, 21694.0, 21675.0, 21686.0, 21767.0, 21852.0, 21885.0, 21877.0, 21874.0, 21867.0, 21817.0, 21758.0, 21756.0, 21815.0, 21871.0, 21854.0, 21799.0, 21763.0, 21760.0, 21741.0, 21786.0, 21839.0, 21823.0, 21816.0, 21822.0, 21831.0, 21860.0, 21912.0, 21891.0, 21834.0, 21770.0, 21727.0, 21776.0, 21856.0, 21843.0, 21818.0, 21799.0, 21767.0, 21750.0, 21776.0, 21872.0, 21899.0, 21864.0, 21751.0, 21753.0, 21798.0, 21787.0, 21812.0, 21803.0, 21754.0, 21698.0, 21628.0, 21608.0, 21626.0, 21773.0, 21666.0, 21772.0, 21708.0, 21645.0, 21651.0, 21641.0, 21601.0, 21625.0, 21684.0, 21696.0, 21686.0, 21690.0, 21710.0, 21748.0, 21790.0, 21761.0, 21685.0, 21671.0, 21708.0, 21786.0, 21813.0, 21750.0, 21710.0, 21713.0, 21711.0, 21767.0, 21745.0, 21753.0, 21765.0, 21799.0, 21783.0, 21724.0, 21720.0, 21752.0, 21766.0, 21744.0, 21692.0, 21688.0, 21682.0, 21718.0, 21776.0, 21843.0, 21816.0, 21737.0, 21683.0, 21674.0, 21675.0, 21694.0, 21702.0, 21729.0, 21723.0, 21713.0, 21708.0, 21721.0, 21796.0, 21746.0, 21661.0, 21599.0, 21571.0, 21588.0, 21631.0, 21663.0, 21661.0, 21658.0]
    },
    "slices": {}
  }
}