{
  "AcquisitionMatrixPE": 104,
  "AcquisitionNumber": 1,
  "AcquisitionTime": "15:24:9.385000",
  "BandwidthPerPixelPhaseEncode": 17.17,
  "BaseResolution": 104,
  "BodyPartExamined": "BRAIN",
  "CoilString": "HC1-7;NC1_2",
  "ConsistencyInfo": "N4_VE11C_LATEST_20160120",
  "ConversionSoftware": "dcm2niix",
  "ConversionSoftwareVersion": "v1.0.20190902",
  "DerivedVendorReportedEchoSpacing": 0.000560011,
  "DeviceSerialNumber": "167006",
  "DwellTime": 2.1e-06,
  "EchoTime": 0.037,
  "EchoTrainLength": 104,
  "EffectiveEchoSpacing": 0.000560011,
  "FlipAngle": 52,
  "ImageComments": "Unaliased_MB4_PE3_LB",
  "ImageOrientationPatientDICOM": [0.999451, -0.0330716, 0.0019263, 0.0321075, 0.952714, -0.302169],
  "ImageType": [
    "ORIGINAL",
    "PRIMARY",
    "M",
    "MB",
    "ND",
    "MOSAIC"
],
  "ImagingFrequency": 123.259,
  "InPlanePhaseEncodingDirectionDICOM": "COL",
  "InstitutionAddress": "Chemin_Queen-Mary_4565_Montreal_District_CA_H3W_1W5",
  "InstitutionName": "IUGM",
  "InstitutionalDepartmentName": "Department",
  "MRAcquisitionType": "2D",
  "MagneticFieldStrength": 3,
  "Manufacturer": "Siemens",
  "ManufacturersModelName": "Prisma_fit",
  "Modality": "MR",
  "MultibandAccelerationFactor": 4,
  "PartialFourier": 1,
  "PatientPosition": "HFS",
  "PercentPhaseFOV": 100,
  "PhaseEncodingDirection": "j",
  "PhaseEncodingSteps": 104,
  "PhaseResolution": 1,
  "PixelBandwidth": 2290,
  "ProcedureStepDescription": "memory_things",
  "ProtocolName": "func_task-things_run-1",
  "PulseSequenceDetails": "%CustomerSeq%_cmrr_mbep2d_bold",
  "ReceiveCoilActiveElements": "HC1-7;NC1,2",
  "ReceiveCoilName": "HeadNeck_64",
  "ReconMatrixPE": 104,
  "RepetitionTime": 1.49,
  "SAR": 0.0343488,
  "ScanOptions": "FS",
  "ScanningSequence": "EP",
  "SequenceName": "epfid2d1_104",
  "SequenceVariant": "SK_SS",
  "SeriesDescription": "func_task-things_run-1",
  "SeriesNumber": 10,
  "ShimSetting": [619, -7259, -8799, 619, -17, -224, -11, -21],
  "SliceThickness": 2,
  "SliceTiming": [0, 0.7825, 0.0975, 0.88, 0.195, 0.98, 0.2925, 1.0775, 0.39, 1.175, 0.49, 1.2725, 0.5875, 1.37, 0.685, 0, 0.7825, 0.0975, 0.88, 0.195, 0.98, 0.2925, 1.0775, 0.39, 1.175, 0.49, 1.2725, 0.5875, 1.37, 0.685, 0, 0.7825, 0.0975, 0.88, 0.195, 0.98, 0.2925, 1.0775, 0.39, 1.175, 0.49, 1.2725, 0.5875, 1.37, 0.685, 0, 0.7825, 0.0975, 0.88, 0.195, 0.98, 0.2925, 1.0775, 0.39, 1.175, 0.49, 1.2725, 0.5875, 1.37, 0.685],
  "SoftwareVersions": "syngo_MR_E11",
  "SpacingBetweenSlices": 2,
  "StationName": "MRC35049",
  "TaskName": "things",
  "TotalReadoutTime": 0.0576811,
  "TxRefAmp": 231.001,
  "WipMemBlock": "4262953a-e8dd-4f66-9585-fb48ab435b4a||Sequence: R016 ve11c/master r/e634e98; Dec 19 2017 11:00:25 by eja",
  "dcmmeta_affine": [
    [-1.9989022016525269, 0.06421500444412231, -0.016315996646881104, 103.93379974365234],
    [0.06614329665899277, 1.90542733669281, -0.6041290163993835, -71.25801086425781],
    [0.0038526018615812063, 0.6043370366096497, 1.9065051078796387, -56.782108306884766],
    [0.0, 0.0, 0.0, 1.0]
],
  "dcmmeta_reorient_transform": [
    [0.0, -1.0, 0.0, 103.0],
    [1.0, 0.0, 0.0, 0.0],
    [0.0, 0.0, 1.0, 0.0],
    [0.0, 0.0, 0.0, 1.0]
],
  "dcmmeta_shape": [104, 104, 60, 190],
  "dcmmeta_slice_dim": 2,
  "dcmmeta_version": 0.6,
  "global": {
    "const": {
      "AcquisitionMatrix": [104, 0, 0, 104],
      "AngioFlag": "N",
      "BitsAllocated": 16,
      "BitsStored": 16,
      "BodyPartExamined": "BRAIN",
      "Columns": 832,
      "EchoNumbers": 1,
      "EchoTime": 37.0,
      "EchoTrainLength": 104,
      "FlipAngle": 52.0,
      "HighBit": 15,
      "ImageOrientationPatient": [0.99945112703872, -0.0330716498824, 0.00192630088322, 0.03210750254817, 0.95271364505466, -0.3021685271612],
      "ImagePositionPatient": [-861.52262535348, -794.50037057415, 224.04095029309],
      "ImageType": [
        "ORIGINAL",
        "PRIMARY",
        "M",
        "MB",
        "ND",
        "MOSAIC"
],
      "ImagedNucleus": "1H",
      "ImagingFrequency": 123.258903,
      "InPlanePhaseEncodingDirection": "COL",
      "MRAcquisitionType": "2D",
      "MagneticFieldStrength": 3.0,
      "Manufacturer": "SIEMENS",
      "ManufacturerModelName": "Prisma_fit",
      "Modality": "MR",
      "NumberOfAverages": 1.0,
      "NumberOfPhaseEncodingSteps": 104,
      "PercentPhaseFieldOfView": 100.0,
      "PercentSampling": 100.0,
      "PerformedProcedureStepStartTime": "150020.534000",
      "PhotometricInterpretation": "MONOCHROME2",
      "PixelBandwidth": 2290.0,
      "PixelRepresentation": 0,
      "PixelSpacing": [2.0, 2.0],
      "ProtocolName": "func_task-things_run-1",
      "RepetitionTime": 1490.0,
      "Rows": 832,
      "SAR": 0.03434883985515,
      "SamplesPerPixel": 1,
      "ScanOptions": "FS",
      "ScanningSequence": "EP",
      "SequenceName": "epfid2d1_104",
      "SequenceVariant": [
        "SK",
        "SS"
],
      "SeriesDescription": "func_task-things_run-1",
      "SeriesNumber": 10,
      "SeriesTime": "152535.236000",
      "SliceLocation": -33.45106378509,
      "SliceThickness": 2.0,
      "SmallestImagePixelValue": 0,
      "SoftwareVersions": "syngo MR E11",
      "SpacingBetweenSlices": 1.9999999817828,
      "SpecificCharacterSet": "ISO_IR 100",
      "StudyID": "1",
      "StudyTime": "150020.398000",
      "TransmitCoilName": "Body",
      "VariableFlipAngleFlag": "N",
      "WindowCenterWidthExplanation": "Algo1",
      "dBdt": 0.0},
    "slices": {}
  },
  "time": {
    "samples": {
      "AcquisitionNumber": [1, 2, 3, 4, 5, 6, 7, 8, 9, 10, 11, 12, 13, 14, 15, 16, 17, 18, 19, 20, 21, 22, 23, 24, 25, 26, 27, 28, 29, 30, 31, 32, 33, 34, 35, 36, 37, 38, 39, 40, 41, 42, 43, 44, 45, 46, 47, 48, 49, 50, 51, 52, 53, 54, 55, 56, 57, 58, 59, 60, 61, 62, 63, 64, 65, 66, 67, 68, 69, 70, 71, 72, 73, 74, 75, 76, 77, 78, 79, 80, 81, 82, 83, 84, 85, 86, 87, 88, 89, 90, 91, 92, 93, 94, 95, 96, 97, 98, 99, 100, 101, 102, 103, 104, 105, 106, 107, 108, 109, 110, 111, 112, 113, 114, 115, 116, 117, 118, 119, 120, 121, 122, 123, 124, 125, 126, 127, 128, 129, 130, 131, 132, 133, 134, 135, 136, 137, 138, 139, 140, 141, 142, 143, 144, 145, 146, 147, 148, 149, 150, 151, 152, 153, 154, 155, 156, 157, 158, 159, 160, 161, 162, 163, 164, 165, 166, 167, 168, 169, 170, 171, 172, 173, 174, 175, 176, 177, 178, 179, 180, 181, 182, 183, 184, 185, 186, 187, 188, 189, 190],
      "AcquisitionTime": ["152409.385000", "152410.875000", "152412.365000", "152413.855000", "152415.345000", "152416.835000", "152418.325000", "152419.815000", "152421.305000", "152422.795000", "152424.285000", "152425.775000", "152427.265000", "152428.755000", "152430.245000", "152431.735000", "152433.225000", "152434.715000", "152436.205000", "152437.695000", "152439.185000", "152440.675000", "152442.165000", "152443.655000", "152445.145000", "152446.635000", "152448.125000", "152449.615000", "152451.105000", "152452.595000", "152454.085000", "152455.575000", "152457.065000", "152458.555000", "152500.045000", "152501.535000", "152503.025000", "152504.515000", "152506.005000", "152507.495000", "152508.985000", "152510.475000", "152511.965000", "152513.455000", "152514.945000", "152516.435000", "152517.925000", "152519.415000", "152520.905000", "152522.395000", "152523.885000", "152525.375000", "152526.865000", "152528.355000", "152529.845000", "152531.335000", "152532.825000", "152534.315000", "152535.805000", "152537.295000", "152538.785000", "152540.275000", "152541.765000", "152543.255000", "152544.745000", "152546.235000", "152547.725000", "152549.215000", "152550.705000", "152552.195000", "152553.685000", "152555.175000", "152556.665000", "152558.155000", "152559.645000", "152601.135000", "152602.625000", "152604.115000", "152605.605000", "152607.095000", "152608.585000", "152610.075000", "152611.565000", "152613.055000", "152614.545000", "152616.035000", "152617.525000", "152619.015000", "152620.505000", "152621.995000", "152623.485000", "152624.975000", "152626.465000", "152627.955000", "152629.445000", "152630.935000", "152632.425000", "152633.915000", "152635.405000", "152636.895000", "152638.385000", "152639.875000", "152641.365000", "152642.855000", "152644.345000", "152645.835000", "152647.325000", "152648.815000", "152650.305000", "152651.795000", "152653.285000", "152654.775000", "152656.265000", "152657.755000", "152659.245000", "152700.735000", "152702.225000", "152703.715000", "152705.205000", "152706.695000", "152708.185000", "152709.675000", "152711.165000", "152712.655000", "152714.145000", "152715.635000", "152717.125000", "152718.615000", "152720.105000", "152721.595000", "152723.085000", "152724.575000", "152726.065000", "152727.555000", "152729.045000", "152730.535000", "152732.025000", "152733.515000", "152735.005000", "152736.495000", "152737.985000", "152739.475000", "152740.965000", "152742.455000", "152743.945000", "152745.435000", "152746.925000", "152748.415000", "152749.905000", "152751.395000", "152752.885000", "152754.375000", "152755.865000", "152757.355000", "152758.845000", "152800.335000", "152801.825000", "152803.315000", "152804.805000", "152806.295000", "152807.785000", "152809.275000", "152810.765000", "152812.255000", "152813.745000", "152815.235000", "152816.725000", "152818.215000", "152819.705000", "152821.195000", "152822.685000", "152824.175000", "152825.665000", "152827.155000", "152828.645000", "152830.135000", "152831.625000", "152833.115000", "152834.605000", "152836.095000", "152837.585000", "152839.075000", "152840.565000", "152842.055000", "152843.545000", "152845.035000", "152846.525000", "152848.015000", "152849.505000", "152850.995000"],
      "ContentTime": ["152535.239000", "152535.243000", "152535.246000", "152535.249000", "152535.259000", "152535.262000", "152535.266000", "152535.269000", "152535.272000", "152535.276000", "152535.279000", "152535.282000", "152535.285000", "152535.289000", "152535.301000", "152535.304000", "152535.307000", "152535.311000", "152535.314000", "152535.317000", "152535.320000", "152535.324000", "152535.327000", "152535.330000", "152535.333000", "152535.336000", "152535.340000", "152535.343000", "152535.346000", "152535.350000", "152535.353000", "152535.356000", "152535.359000", "152555.162000", "152555.166000", "152555.169000", "152555.180000", "152555.183000", "152555.187000", "152555.190000", "152555.193000", "152555.196000", "152555.200000", "152555.203000", "152555.206000", "152555.209000", "152555.213000", "152555.217000", "152555.221000", "152555.224000", "152555.227000", "152555.230000", "152555.233000", "152555.237000", "152615.162000", "152615.165000", "152615.169000", "152615.172000", "152615.175000", "152615.178000", "152615.182000", "152615.185000", "152615.188000", "152615.191000", "152615.195000", "152615.198000", "152615.201000", "152615.204000", "152615.208000", "152615.211000", "152615.214000", "152615.217000", "152615.221000", "152615.224000", "152635.162000", "152635.166000", "152635.183000", "152635.187000", "152635.190000", "152635.193000", "152635.196000", "152635.200000", "152635.203000", "152635.206000", "152635.209000", "152635.213000", "152635.216000", "152635.219000", "152635.222000", "152635.226000", "152635.229000", "152635.232000", "152635.235000", "152635.238000", "152635.242000", "152715.162000", "152715.166000", "152715.169000", "152715.172000", "152715.175000", "152715.179000", "152715.182000", "152715.185000", "152715.188000", "152715.192000", "152715.195000", "152715.198000", "152715.216000", "152715.219000", "152715.222000", "152715.225000", "152715.228000", "152715.232000", "152715.235000", "152715.239000", "152715.242000", "152715.245000", "152715.248000", "152715.251000", "152715.255000", "152715.258000", "152715.261000", "152715.264000", "152715.268000", "152755.163000", "152755.167000", "152755.170000", "152755.173000", "152755.177000", "152755.180000", "152755.183000", "152755.186000", "152755.189000", "152755.193000", "152755.196000", "152755.199000", "152755.202000", "152755.215000", "152755.218000", "152755.221000", "152755.225000", "152755.228000", "152755.231000", "152755.234000", "152755.238000", "152755.241000", "152755.244000", "152755.247000", "152755.251000", "152755.254000", "152755.257000", "152835.162000", "152835.166000", "152835.169000", "152835.172000", "152835.175000", "152835.179000", "152835.182000", "152835.185000", "152835.188000", "152835.191000", "152835.195000", "152835.198000", "152835.201000", "152835.204000", "152835.208000", "152835.211000", "152835.214000", "152835.217000", "152835.221000", "152835.224000", "152835.227000", "152835.231000", "152835.234000", "152835.242000", "152835.245000", "152835.248000", "152835.252000", "152852.707000", "152852.711000", "152852.714000", "152852.718000", "152852.721000", "152852.724000", "152852.728000", "152852.731000", "152852.735000", "152852.738000", "152852.741000", "152852.745000"],
      "InstanceCreationTime": ["152535.239000", "152535.243000", "152535.246000", "152535.249000", "152535.259000", "152535.262000", "152535.266000", "152535.269000", "152535.272000", "152535.276000", "152535.279000", "152535.282000", "152535.285000", "152535.289000", "152535.301000", "152535.304000", "152535.307000", "152535.311000", "152535.314000", "152535.317000", "152535.320000", "152535.324000", "152535.327000", "152535.330000", "152535.333000", "152535.336000", "152535.340000", "152535.343000", "152535.346000", "152535.350000", "152535.353000", "152535.356000", "152535.359000", "152555.162000", "152555.166000", "152555.169000", "152555.180000", "152555.183000", "152555.187000", "152555.190000", "152555.193000", "152555.196000", "152555.200000", "152555.203000", "152555.206000", "152555.209000", "152555.213000", "152555.217000", "152555.221000", "152555.224000", "152555.227000", "152555.230000", "152555.233000", "152555.237000", "152615.162000", "152615.165000", "152615.169000", "152615.172000", "152615.175000", "152615.178000", "152615.182000", "152615.185000", "152615.188000", "152615.191000", "152615.195000", "152615.198000", "152615.201000", "152615.204000", "152615.208000", "152615.211000", "152615.214000", "152615.217000", "152615.221000", "152615.224000", "152635.162000", "152635.166000", "152635.183000", "152635.187000", "152635.190000", "152635.193000", "152635.196000", "152635.200000", "152635.203000", "152635.206000", "152635.209000", "152635.213000", "152635.216000", "152635.219000", "152635.222000", "152635.226000", "152635.229000", "152635.232000", "152635.235000", "152635.238000", "152635.242000", "152715.162000", "152715.166000", "152715.169000", "152715.172000", "152715.175000", "152715.179000", "152715.182000", "152715.185000", "152715.188000", "152715.192000", "152715.195000", "152715.198000", "152715.216000", "152715.219000", "152715.222000", "152715.225000", "152715.228000", "152715.232000", "152715.235000", "152715.239000", "152715.242000", "152715.245000", "152715.248000", "152715.251000", "152715.255000", "152715.258000", "152715.261000", "152715.264000", "152715.268000", "152755.163000", "152755.167000", "152755.170000", "152755.173000", "152755.177000", "152755.180000", "152755.183000", "152755.186000", "152755.189000", "152755.193000", "152755.196000", "152755.199000", "152755.202000", "152755.215000", "152755.218000", "152755.221000", "152755.225000", "152755.228000", "152755.231000", "152755.234000", "152755.238000", "152755.241000", "152755.244000", "152755.247000", "152755.251000", "152755.254000", "152755.257000", "152835.162000", "152835.166000", "152835.169000", "152835.172000", "152835.175000", "152835.179000", "152835.182000", "152835.185000", "152835.188000", "152835.191000", "152835.195000", "152835.198000", "152835.201000", "152835.204000", "152835.208000", "152835.211000", "152835.214000", "152835.217000", "152835.221000", "152835.224000", "152835.227000", "152835.231000", "152835.234000", "152835.242000", "152835.245000", "152835.248000", "152835.252000", "152852.707000", "152852.711000", "152852.714000", "152852.718000", "152852.721000", "152852.724000", "152852.728000", "152852.731000", "152852.735000", "152852.738000", "152852.741000", "152852.745000"],
      "InstanceNumber": [1, 2, 3, 4, 5, 6, 7, 8, 9, 10, 11, 12, 13, 14, 15, 16, 17, 18, 19, 20, 21, 22, 23, 24, 25, 26, 27, 28, 29, 30, 31, 32, 33, 34, 35, 36, 37, 38, 39, 40, 41, 42, 43, 44, 45, 46, 47, 48, 49, 50, 51, 52, 53, 54, 55, 56, 57, 58, 59, 60, 61, 62, 63, 64, 65, 66, 67, 68, 69, 70, 71, 72, 73, 74, 75, 76, 77, 78, 79, 80, 81, 82, 83, 84, 85, 86, 87, 88, 89, 90, 91, 92, 93, 94, 95, 96, 97, 98, 99, 100, 101, 102, 103, 104, 105, 106, 107, 108, 109, 110, 111, 112, 113, 114, 115, 116, 117, 118, 119, 120, 121, 122, 123, 124, 125, 126, 127, 128, 129, 130, 131, 132, 133, 134, 135, 136, 137, 138, 139, 140, 141, 142, 143, 144, 145, 146, 147, 148, 149, 150, 151, 152, 153, 154, 155, 156, 157, 158, 159, 160, 161, 162, 163, 164, 165, 166, 167, 168, 169, 170, 171, 172, 173, 174, 175, 176, 177, 178, 179, 180, 181, 182, 183, 184, 185, 186, 187, 188, 189, 190],
      "LargestImagePixelValue": [42597, 41667, 41109, 40431, 41664, 40611, 40037, 40583, 39884, 40772, 40277, 40459, 40453, 40685, 40276, 39906, 40508, 39794, 41416, 40015, 41254, 40993, 40122, 40812, 40757, 40951, 41356, 39582, 39440, 39579, 39240, 41170, 39923, 40037, 40809, 39003, 39909, 39976, 39630, 41127, 40632, 39659, 40098, 39888, 41427, 40897, 41282, 40292, 39567, 39232, 39480, 39837, 39729, 40154, 39982, 39871, 40644, 39566, 40996, 40319, 40105, 40582, 40192, 40502, 40401, 39803, 40572, 40356, 39739, 39455, 40815, 40324, 40628, 40714, 40952, 41265, 39362, 39449, 39741, 40676, 41207, 40274, 40995, 40509, 40490, 39474, 39704, 40311, 39234, 40459, 40476, 40133, 40634, 39694, 41024, 39831, 41100, 40352, 40500, 40869, 40350, 40434, 40083, 40261, 40145, 40657, 39683, 40207, 40076, 39494, 39957, 40035, 40722, 39805, 40777, 39383, 41121, 40034, 40344, 40718, 40538, 41410, 40085, 40200, 39943, 40407, 40923, 40507, 40707, 40121, 40782, 40351, 40651, 40661, 40152, 41023, 39437, 40611, 40045, 40761, 41206, 40790, 40179, 40475, 39491, 40646, 39641, 40018, 39291, 39652, 39889, 40546, 39077, 41048, 40017, 40138, 40615, 40031, 40369, 40956, 40757, 39277, 40286, 39475, 40146, 40505, 40210, 41225, 39841, 40891, 39817, 40828, 40593, 40220, 41326, 40357, 39701, 40279, 39058, 40393, 39209, 40973, 40096, 40127, 40493, 39456, 40608, 40393, 40545, 40633],
      "WindowCenter": [10430.0, 10377.0, 10358.0, 10355.0, 10376.0, 10385.0, 10359.0, 10353.0, 10333.0, 10322.0, 10305.0, 10299.0, 10297.0, 10295.0, 10283.0, 10276.0, 10288.0, 10293.0, 10317.0, 10301.0, 10316.0, 10304.0, 10300.0, 10325.0, 10333.0, 10353.0, 10375.0, 10336.0, 10285.0, 10286.0, 10295.0, 10318.0, 10303.0, 10294.0, 10297.0, 10284.0, 10289.0, 10287.0, 10296.0, 10328.0, 10351.0, 10323.0, 10297.0, 10280.0, 10280.0, 10267.0, 10258.0, 10259.0, 10256.0, 10248.0, 10256.0, 10293.0, 10321.0, 10327.0, 10307.0, 10291.0, 10308.0, 10313.0, 10323.0, 10327.0, 10321.0, 10326.0, 10321.0, 10319.0, 10310.0, 10319.0, 10333.0, 10334.0, 10328.0, 10302.0, 10298.0, 10293.0, 10307.0, 10307.0, 10299.0, 10288.0, 10278.0, 10295.0, 10289.0, 10282.0, 10288.0, 10298.0, 10312.0, 10286.0, 10268.0, 10264.0, 10290.0, 10315.0, 10313.0, 10323.0, 10317.0, 10310.0, 10313.0, 10303.0, 10312.0, 10317.0, 10329.0, 10323.0, 10318.0, 10313.0, 10308.0, 10317.0, 10311.0, 10301.0, 10292.0, 10318.0, 10319.0, 10317.0, 10289.0, 10272.0, 10269.0, 10274.0, 10281.0, 10274.0, 10273.0, 10254.0, 10276.0, 10281.0, 10304.0, 10297.0, 10282.0, 10278.0, 10287.0, 10298.0, 10299.0, 10300.0, 10297.0, 10298.0, 10307.0, 10301.0, 10306.0, 10299.0, 10299.0, 10292.0, 10293.0, 10304.0, 10282.0, 10296.0, 10285.0, 10300.0, 10323.0, 10320.0, 10294.0, 10276.0, 10270.0, 10279.0, 10275.0, 10296.0, 10298.0, 10300.0, 10300.0, 10305.0, 10282.0, 10294.0, 10283.0, 10293.0, 10296.0, 10286.0, 10284.0, 10281.0, 10274.0, 10278.0, 10307.0, 10291.0, 10285.0, 10275.0, 10281.0, 10306.0, 10296.0, 10296.0, 10279.0, 10295.0, 10291.0, 10301.0, 10295.0, 10282.0, 10280.0, 10283.0, 10273.0, 10275.0, 10263.0, 10278.0, 10283.0, 10294.0, 10297.0, 10282.0, 10292.0, 10286.0, 10298.0, 10297.0],
      "WindowWidth": [22628.0, 22466.0, 22398.0, 22378.0, 22410.0, 22429.0, 22370.0, 22347.0, 22304.0, 22279.0, 22240.0, 22226.0, 22218.0, 22215.0, 22190.0, 22180.0, 22204.0, 22217.0, 22265.0, 22233.0, 22261.0, 22235.0, 22229.0, 22281.0, 22299.0, 22343.0, 22396.0, 22319.0, 22202.0, 22197.0, 22218.0, 22262.0, 22234.0, 22212.0, 22210.0, 22189.0, 22201.0, 22197.0, 22217.0, 22289.0, 22346.0, 22286.0, 22221.0, 22181.0, 22173.0, 22146.0, 22123.0, 22127.0, 22126.0, 22114.0, 22133.0, 22215.0, 22279.0, 22291.0, 22245.0, 22207.0, 22239.0, 22256.0, 22273.0, 22284.0, 22272.0, 22281.0, 22273.0, 22266.0, 22245.0, 22267.0, 22299.0, 22304.0, 22291.0, 22234.0, 22216.0, 22206.0, 22238.0, 22237.0, 22219.0, 22195.0, 22178.0, 22217.0, 22201.0, 22181.0, 22193.0, 22217.0, 22247.0, 22192.0, 22151.0, 22148.0, 22201.0, 22260.0, 22257.0, 22278.0, 22264.0, 22247.0, 22251.0, 22232.0, 22249.0, 22261.0, 22288.0, 22276.0, 22265.0, 22253.0, 22243.0, 22263.0, 22253.0, 22228.0, 22207.0, 22261.0, 22270.0, 22264.0, 22204.0, 22166.0, 22155.0, 22164.0, 22180.0, 22163.0, 22160.0, 22125.0, 22165.0, 22181.0, 22232.0, 22217.0, 22181.0, 22169.0, 22192.0, 22219.0, 22221.0, 22226.0, 22216.0, 22219.0, 22238.0, 22228.0, 22236.0, 22221.0, 22221.0, 22205.0, 22208.0, 22229.0, 22187.0, 22212.0, 22191.0, 22223.0, 22269.0, 22267.0, 22209.0, 22168.0, 22159.0, 22173.0, 22172.0, 22213.0, 22221.0, 22227.0, 22225.0, 22235.0, 22191.0, 22211.0, 22189.0, 22212.0, 22214.0, 22196.0, 22189.0, 22180.0, 22165.0, 22178.0, 22240.0, 22208.0, 22193.0, 22168.0, 22179.0, 22230.0, 22217.0, 22212.0, 22180.0, 22210.0, 22202.0, 22226.0, 22210.0, 22180.0, 22178.0, 22184.0, 22167.0, 22167.0, 22143.0, 22170.0, 22185.0, 22212.0, 22214.0, 22188.0, 22205.0, 22197.0, 22219.0, 22219.0]
    },
    "slices": {}
  }
}