{
  "AcquisitionMatrixPE": 104,
  "AcquisitionNumber": 1,
  "AcquisitionTime": "15:24:9.385000",
  "BandwidthPerPixelPhaseEncode": 17.17,
  "BaseResolution": 104,
  "BodyPartExamined": "BRAIN",
  "CoilString": "HC1-7;NC1_2",
  "ConsistencyInfo": "N4_VE11C_LATEST_20160120",
  "ConversionSoftware": "dcm2niix",
  "ConversionSoftwareVersion": "v1.0.20190902",
  "DerivedVendorReportedEchoSpacing": 0.000560011,
  "DeviceSerialNumber": "167006",
  "DwellTime": 2.1e-06,
  "EchoTime": 0.037,
  "EchoTrainLength": 104,
  "EffectiveEchoSpacing": 0.000560011,
  "FlipAngle": 52,
  "ImageComments": "Unaliased_MB4_PE3_LB",
  "ImageOrientationPatientDICOM": [0.999451, -0.0330716, 0.0019263, 0.0321075, 0.952714, -0.302169],
  "ImageType": [
    "ORIGINAL",
    "PRIMARY",
    "P",
    "MB",
    "ND",
    "MOSAIC"
],
  "ImagingFrequency": 123.259,
  "InPlanePhaseEncodingDirectionDICOM": "COL",
  "InstitutionAddress": "Chemin_Queen-Mary_4565_Montreal_District_CA_H3W_1W5",
  "InstitutionName": "IUGM",
  "InstitutionalDepartmentName": "Department",
  "MRAcquisitionType": "2D",
  "MagneticFieldStrength": 3,
  "Manufacturer": "Siemens",
  "ManufacturersModelName": "Prisma_fit",
  "Modality": "MR",
  "MultibandAccelerationFactor": 4,
  "PartialFourier": 1,
  "PatientPosition": "HFS",
  "PercentPhaseFOV": 100,
  "PhaseEncodingDirection": "j",
  "PhaseEncodingSteps": 104,
  "PhaseResolution": 1,
  "PixelBandwidth": 2290,
  "ProcedureStepDescription": "memory_things",
  "ProtocolName": "func_task-things_run-1",
  "PulseSequenceDetails": "%CustomerSeq%_cmrr_mbep2d_bold",
  "ReceiveCoilActiveElements": "HC1-7;NC1,2",
  "ReceiveCoilName": "HeadNeck_64",
  "ReconMatrixPE": 104,
  "RepetitionTime": 1.49,
  "SAR": 0.0343488,
  "ScanOptions": "FS",
  "ScanningSequence": "EP",
  "SequenceName": "epfid2d1_104",
  "SequenceVariant": "SK_SS",
  "SeriesDescription": "func_task-things_run-1",
  "SeriesNumber": 11,
  "ShimSetting": [619, -7259, -8799, 619, -17, -224, -11, -21],
  "SliceThickness": 2,
  "SliceTiming": [0, 0.7825, 0.0975, 0.88, 0.195, 0.98, 0.2925, 1.0775, 0.39, 1.175, 0.49, 1.2725, 0.5875, 1.37, 0.685, 0, 0.7825, 0.0975, 0.88, 0.195, 0.98, 0.2925, 1.0775, 0.39, 1.175, 0.49, 1.2725, 0.5875, 1.37, 0.685, 0, 0.7825, 0.0975, 0.88, 0.195, 0.98, 0.2925, 1.0775, 0.39, 1.175, 0.49, 1.2725, 0.5875, 1.37, 0.685, 0, 0.7825, 0.0975, 0.88, 0.195, 0.98, 0.2925, 1.0775, 0.39, 1.175, 0.49, 1.2725, 0.5875, 1.37, 0.685],
  "SoftwareVersions": "syngo_MR_E11",
  "SpacingBetweenSlices": 2,
  "StationName": "MRC35049",
  "TaskName": "things",
  "TotalReadoutTime": 0.0576811,
  "TxRefAmp": 231.001,
  "WipMemBlock": "4262953a-e8dd-4f66-9585-fb48ab435b4a||Sequence: R016 ve11c/master r/e634e98; Dec 19 2017 11:00:25 by eja",
  "dcmmeta_affine": [
    [-1.9989022016525269, 0.06421500444412231, -0.016315996646881104, 103.93379974365234],
    [0.06614329665899277, 1.90542733669281, -0.6041290163993835, -71.25801086425781],
    [0.0038526018615812063, 0.6043370366096497, 1.9065051078796387, -56.782108306884766],
    [0.0, 0.0, 0.0, 1.0]
],
  "dcmmeta_reorient_transform": [
    [0.0, -1.0, 0.0, 103.0],
    [1.0, 0.0, 0.0, 0.0],
    [0.0, 0.0, 1.0, 0.0],
    [0.0, 0.0, 0.0, 1.0]
],
  "dcmmeta_shape": [104, 104, 60, 190],
  "dcmmeta_slice_dim": 2,
  "dcmmeta_version": 0.6,
  "global": {
    "const": {
      "AcquisitionMatrix": [104, 0, 0, 104],
      "AngioFlag": "N",
      "BitsAllocated": 16,
      "BitsStored": 16,
      "BodyPartExamined": "BRAIN",
      "Columns": 832,
      "EchoNumbers": 1,
      "EchoTime": 37.0,
      "EchoTrainLength": 104,
      "FlipAngle": 52.0,
      "HighBit": 15,
      "ImageOrientationPatient": [0.99945112703872, -0.0330716498824, 0.00192630088322, 0.03210750254817, 0.95271364505466, -0.3021685271612],
      "ImagePositionPatient": [-861.52262535348, -794.50037057415, 224.04095029309],
      "ImageType": [
        "ORIGINAL",
        "PRIMARY",
        "P",
        "MB",
        "ND",
        "MOSAIC"
],
      "ImagedNucleus": "1H",
      "ImagingFrequency": 123.258903,
      "InPlanePhaseEncodingDirection": "COL",
      "LargestImagePixelValue": 4095,
      "MRAcquisitionType": "2D",
      "MagneticFieldStrength": 3.0,
      "Manufacturer": "SIEMENS",
      "ManufacturerModelName": "Prisma_fit",
      "Modality": "MR",
      "NumberOfAverages": 1.0,
      "NumberOfPhaseEncodingSteps": 104,
      "PercentPhaseFieldOfView": 100.0,
      "PercentSampling": 100.0,
      "PerformedProcedureStepStartTime": "150020.534000",
      "PhotometricInterpretation": "MONOCHROME2",
      "PixelBandwidth": 2290.0,
      "PixelRepresentation": 0,
      "PixelSpacing": [2.0, 2.0],
      "ProtocolName": "func_task-things_run-1",
      "RepetitionTime": 1490.0,
      "RescaleIntercept": -4096.0,
      "RescaleSlope": 2.0,
      "RescaleType": "US",
      "Rows": 832,
      "SAR": 0.03434883985515,
      "SamplesPerPixel": 1,
      "ScanOptions": "FS",
      "ScanningSequence": "EP",
      "SequenceName": "epfid2d1_104",
      "SequenceVariant": [
        "SK",
        "SS"
],
      "SeriesDescription": "func_task-things_run-1",
      "SeriesNumber": 11,
      "SeriesTime": "152535.400000",
      "SliceLocation": -33.45106378509,
      "SliceThickness": 2.0,
      "SmallestImagePixelValue": 0,
      "SoftwareVersions": "syngo MR E11",
      "SpacingBetweenSlices": 1.9999999817828,
      "SpecificCharacterSet": "ISO_IR 100",
      "StudyID": "1",
      "StudyTime": "150020.398000",
      "TransmitCoilName": "Body",
      "VariableFlipAngleFlag": "N",
      "WindowCenterWidthExplanation": "Algo1",
      "dBdt": 0.0},
    "slices": {}
  },
  "time": {
    "samples": {
      "AcquisitionNumber": [1, 2, 3, 4, 5, 6, 7, 8, 9, 10, 11, 12, 13, 14, 15, 16, 17, 18, 19, 20, 21, 22, 23, 24, 25, 26, 27, 28, 29, 30, 31, 32, 33, 34, 35, 36, 37, 38, 39, 40, 41, 42, 43, 44, 45, 46, 47, 48, 49, 50, 51, 52, 53, 54, 55, 56, 57, 58, 59, 60, 61, 62, 63, 64, 65, 66, 67, 68, 69, 70, 71, 72, 73, 74, 75, 76, 77, 78, 79, 80, 81, 82, 83, 84, 85, 86, 87, 88, 89, 90, 91, 92, 93, 94, 95, 96, 97, 98, 99, 100, 101, 102, 103, 104, 105, 106, 107, 108, 109, 110, 111, 112, 113, 114, 115, 116, 117, 118, 119, 120, 121, 122, 123, 124, 125, 126, 127, 128, 129, 130, 131, 132, 133, 134, 135, 136, 137, 138, 139, 140, 141, 142, 143, 144, 145, 146, 147, 148, 149, 150, 151, 152, 153, 154, 155, 156, 157, 158, 159, 160, 161, 162, 163, 164, 165, 166, 167, 168, 169, 170, 171, 172, 173, 174, 175, 176, 177, 178, 179, 180, 181, 182, 183, 184, 185, 186, 187, 188, 189, 190],
      "AcquisitionTime": ["152409.385000", "152410.875000", "152412.365000", "152413.855000", "152415.345000", "152416.835000", "152418.325000", "152419.815000", "152421.305000", "152422.795000", "152424.285000", "152425.775000", "152427.265000", "152428.755000", "152430.245000", "152431.735000", "152433.225000", "152434.715000", "152436.205000", "152437.695000", "152439.185000", "152440.675000", "152442.165000", "152443.655000", "152445.145000", "152446.635000", "152448.125000", "152449.615000", "152451.105000", "152452.595000", "152454.085000", "152455.575000", "152457.065000", "152458.555000", "152500.045000", "152501.535000", "152503.025000", "152504.515000", "152506.005000", "152507.495000", "152508.985000", "152510.475000", "152511.965000", "152513.455000", "152514.945000", "152516.435000", "152517.925000", "152519.415000", "152520.905000", "152522.395000", "152523.885000", "152525.375000", "152526.865000", "152528.355000", "152529.845000", "152531.335000", "152532.825000", "152534.315000", "152535.805000", "152537.295000", "152538.785000", "152540.275000", "152541.765000", "152543.255000", "152544.745000", "152546.235000", "152547.725000", "152549.215000", "152550.705000", "152552.195000", "152553.685000", "152555.175000", "152556.665000", "152558.155000", "152559.645000", "152601.135000", "152602.625000", "152604.115000", "152605.605000", "152607.095000", "152608.585000", "152610.075000", "152611.565000", "152613.055000", "152614.545000", "152616.035000", "152617.525000", "152619.015000", "152620.505000", "152621.995000", "152623.485000", "152624.975000", "152626.465000", "152627.955000", "152629.445000", "152630.935000", "152632.425000", "152633.915000", "152635.405000", "152636.895000", "152638.385000", "152639.875000", "152641.365000", "152642.855000", "152644.345000", "152645.835000", "152647.325000", "152648.815000", "152650.305000", "152651.795000", "152653.285000", "152654.775000", "152656.265000", "152657.755000", "152659.245000", "152700.735000", "152702.225000", "152703.715000", "152705.205000", "152706.695000", "152708.185000", "152709.675000", "152711.165000", "152712.655000", "152714.145000", "152715.635000", "152717.125000", "152718.615000", "152720.105000", "152721.595000", "152723.085000", "152724.575000", "152726.065000", "152727.555000", "152729.045000", "152730.535000", "152732.025000", "152733.515000", "152735.005000", "152736.495000", "152737.985000", "152739.475000", "152740.965000", "152742.455000", "152743.945000", "152745.435000", "152746.925000", "152748.415000", "152749.905000", "152751.395000", "152752.885000", "152754.375000", "152755.865000", "152757.355000", "152758.845000", "152800.335000", "152801.825000", "152803.315000", "152804.805000", "152806.295000", "152807.785000", "152809.275000", "152810.765000", "152812.255000", "152813.745000", "152815.235000", "152816.725000", "152818.215000", "152819.705000", "152821.195000", "152822.685000", "152824.175000", "152825.665000", "152827.155000", "152828.645000", "152830.135000", "152831.625000", "152833.115000", "152834.605000", "152836.095000", "152837.585000", "152839.075000", "152840.565000", "152842.055000", "152843.545000", "152845.035000", "152846.525000", "152848.015000", "152849.505000", "152850.995000"],
      "ContentTime": ["152535.402000", "152535.405000", "152535.408000", "152535.410000", "152535.413000", "152535.415000", "152535.418000", "152535.420000", "152535.423000", "152535.432000", "152535.435000", "152535.437000", "152535.440000", "152535.442000", "152535.444000", "152535.447000", "152535.449000", "152535.452000", "152535.454000", "152535.457000", "152535.459000", "152535.461000", "152535.464000", "152535.466000", "152535.469000", "152535.471000", "152535.474000", "152535.476000", "152535.479000", "152535.481000", "152535.484000", "152535.486000", "152535.489000", "152555.286000", "152555.289000", "152555.291000", "152555.293000", "152555.296000", "152555.298000", "152555.301000", "152555.303000", "152555.306000", "152555.308000", "152555.311000", "152555.313000", "152555.315000", "152555.318000", "152555.320000", "152555.323000", "152555.325000", "152555.328000", "152555.330000", "152555.333000", "152555.335000", "152615.273000", "152615.276000", "152615.278000", "152615.281000", "152615.283000", "152615.286000", "152615.288000", "152615.291000", "152615.293000", "152615.296000", "152615.298000", "152615.301000", "152615.303000", "152615.305000", "152615.308000", "152615.310000", "152615.313000", "152615.315000", "152615.318000", "152615.320000", "152635.289000", "152635.292000", "152635.294000", "152635.297000", "152635.299000", "152635.302000", "152635.304000", "152635.307000", "152635.309000", "152635.311000", "152635.314000", "152635.316000", "152635.319000", "152635.321000", "152635.324000", "152635.326000", "152635.329000", "152635.331000", "152635.334000", "152635.336000", "152715.308000", "152715.311000", "152715.314000", "152715.316000", "152715.319000", "152715.321000", "152715.323000", "152715.326000", "152715.328000", "152715.331000", "152715.333000", "152715.336000", "152715.338000", "152715.341000", "152715.343000", "152715.347000", "152715.349000", "152715.351000", "152715.354000", "152715.356000", "152715.359000", "152715.361000", "152715.364000", "152715.366000", "152715.368000", "152715.371000", "152715.373000", "152715.376000", "152715.378000", "152715.381000", "152755.311000", "152755.314000", "152755.316000", "152755.319000", "152755.321000", "152755.324000", "152755.326000", "152755.329000", "152755.331000", "152755.333000", "152755.336000", "152755.338000", "152755.341000", "152755.343000", "152755.346000", "152755.348000", "152755.350000", "152755.353000", "152755.355000", "152755.358000", "152755.360000", "152755.363000", "152755.365000", "152755.367000", "152755.370000", "152755.372000", "152755.375000", "152835.306000", "152835.309000", "152835.311000", "152835.313000", "152835.316000", "152835.318000", "152835.321000", "152835.323000", "152835.326000", "152835.328000", "152835.331000", "152835.333000", "152835.336000", "152835.338000", "152835.340000", "152835.343000", "152835.345000", "152835.348000", "152835.350000", "152835.353000", "152835.355000", "152835.358000", "152835.360000", "152835.362000", "152835.365000", "152835.367000", "152835.370000", "152852.795000", "152852.797000", "152852.800000", "152852.803000", "152852.805000", "152852.808000", "152852.810000", "152852.813000", "152852.815000", "152852.818000", "152852.820000", "152852.823000"],
      "InstanceCreationTime": ["152535.402000", "152535.405000", "152535.408000", "152535.410000", "152535.413000", "152535.415000", "152535.418000", "152535.420000", "152535.423000", "152535.432000", "152535.435000", "152535.437000", "152535.440000", "152535.442000", "152535.444000", "152535.447000", "152535.449000", "152535.452000", "152535.454000", "152535.457000", "152535.459000", "152535.461000", "152535.464000", "152535.466000", "152535.469000", "152535.471000", "152535.474000", "152535.476000", "152535.479000", "152535.481000", "152535.484000", "152535.486000", "152535.489000", "152555.286000", "152555.289000", "152555.291000", "152555.293000", "152555.296000", "152555.298000", "152555.301000", "152555.303000", "152555.306000", "152555.308000", "152555.311000", "152555.313000", "152555.315000", "152555.318000", "152555.320000", "152555.323000", "152555.325000", "152555.328000", "152555.330000", "152555.333000", "152555.335000", "152615.273000", "152615.276000", "152615.278000", "152615.281000", "152615.283000", "152615.286000", "152615.288000", "152615.291000", "152615.293000", "152615.296000", "152615.298000", "152615.301000", "152615.303000", "152615.305000", "152615.308000", "152615.310000", "152615.313000", "152615.315000", "152615.318000", "152615.320000", "152635.289000", "152635.292000", "152635.294000", "152635.297000", "152635.299000", "152635.302000", "152635.304000", "152635.307000", "152635.309000", "152635.311000", "152635.314000", "152635.316000", "152635.319000", "152635.321000", "152635.324000", "152635.326000", "152635.329000", "152635.331000", "152635.334000", "152635.336000", "152715.308000", "152715.311000", "152715.314000", "152715.316000", "152715.319000", "152715.321000", "152715.323000", "152715.326000", "152715.328000", "152715.331000", "152715.333000", "152715.336000", "152715.338000", "152715.341000", "152715.343000", "152715.347000", "152715.349000", "152715.351000", "152715.354000", "152715.356000", "152715.359000", "152715.361000", "152715.364000", "152715.366000", "152715.368000", "152715.371000", "152715.373000", "152715.376000", "152715.378000", "152715.381000", "152755.311000", "152755.314000", "152755.316000", "152755.319000", "152755.321000", "152755.324000", "152755.326000", "152755.329000", "152755.331000", "152755.333000", "152755.336000", "152755.338000", "152755.341000", "152755.343000", "152755.346000", "152755.348000", "152755.350000", "152755.353000", "152755.355000", "152755.358000", "152755.360000", "152755.363000", "152755.365000", "152755.367000", "152755.370000", "152755.372000", "152755.375000", "152835.306000", "152835.309000", "152835.311000", "152835.313000", "152835.316000", "152835.318000", "152835.321000", "152835.323000", "152835.326000", "152835.328000", "152835.331000", "152835.333000", "152835.336000", "152835.338000", "152835.340000", "152835.343000", "152835.345000", "152835.348000", "152835.350000", "152835.353000", "152835.355000", "152835.358000", "152835.360000", "152835.362000", "152835.365000", "152835.367000", "152835.370000", "152852.795000", "152852.797000", "152852.800000", "152852.803000", "152852.805000", "152852.808000", "152852.810000", "152852.813000", "152852.815000", "152852.818000", "152852.820000", "152852.823000"],
      "InstanceNumber": [1, 2, 3, 4, 5, 6, 7, 8, 9, 10, 11, 12, 13, 14, 15, 16, 17, 18, 19, 20, 21, 22, 23, 24, 25, 26, 27, 28, 29, 30, 31, 32, 33, 34, 35, 36, 37, 38, 39, 40, 41, 42, 43, 44, 45, 46, 47, 48, 49, 50, 51, 52, 53, 54, 55, 56, 57, 58, 59, 60, 61, 62, 63, 64, 65, 66, 67, 68, 69, 70, 71, 72, 73, 74, 75, 76, 77, 78, 79, 80, 81, 82, 83, 84, 85, 86, 87, 88, 89, 90, 91, 92, 93, 94, 95, 96, 97, 98, 99, 100, 101, 102, 103, 104, 105, 106, 107, 108, 109, 110, 111, 112, 113, 114, 115, 116, 117, 118, 119, 120, 121, 122, 123, 124, 125, 126, 127, 128, 129, 130, 131, 132, 133, 134, 135, 136, 137, 138, 139, 140, 141, 142, 143, 144, 145, 146, 147, 148, 149, 150, 151, 152, 153, 154, 155, 156, 157, 158, 159, 160, 161, 162, 163, 164, 165, 166, 167, 168, 169, 170, 171, 172, 173, 174, 175, 176, 177, 178, 179, 180, 181, 182, 183, 184, 185, 186, 187, 188, 189, 190],
      "WindowCenter": [4804.0, 4804.0, 4804.0, 4802.0, 4788.0, 4804.0, 4802.0, 4796.0, 4832.0, 4776.0, 4804.0, 4776.0, 4802.0, 4808.0, 4806.0, 4804.0, 4800.0, 4804.0, 4802.0, 4804.0, 4800.0, 4800.0, 4804.0, 4804.0, 4802.0, 4806.0, 4812.0, 4804.0, 4802.0, 4800.0, 4804.0, 4800.0, 4802.0, 4804.0, 4782.0, 4806.0, 4802.0, 4776.0, 4802.0, 4812.0, 4788.0, 4800.0, 4836.0, 4844.0, 4842.0, 4808.0, 4804.0, 4808.0, 4810.0, 4806.0, 4810.0, 4806.0, 4802.0, 4804.0, 4806.0, 4808.0, 4780.0, 4804.0, 4806.0, 4804.0, 4804.0, 4808.0, 4804.0, 4802.0, 4800.0, 4806.0, 4806.0, 4804.0, 4806.0, 4802.0, 4798.0, 4804.0, 4804.0, 4806.0, 4802.0, 4810.0, 4808.0, 4802.0, 4806.0, 4806.0, 4806.0, 4802.0, 4802.0, 4804.0, 4800.0, 4802.0, 4802.0, 4780.0, 4802.0, 4802.0, 4782.0, 4804.0, 4802.0, 4804.0, 4782.0, 4802.0, 4804.0, 4804.0, 4778.0, 4780.0, 4802.0, 4804.0, 4804.0, 4780.0, 4782.0, 4808.0, 4800.0, 4806.0, 4800.0, 4804.0, 4804.0, 4802.0, 4804.0, 4780.0, 4802.0, 4804.0, 4782.0, 4802.0, 4802.0, 4800.0, 4800.0, 4782.0, 4804.0, 4782.0, 4802.0, 4800.0, 4782.0, 4804.0, 4804.0, 4804.0, 4806.0, 4802.0, 4802.0, 4804.0, 4806.0, 4806.0, 4800.0, 4808.0, 4802.0, 4806.0, 4806.0, 4802.0, 4782.0, 4778.0, 4804.0, 4804.0, 4806.0, 4808.0, 4802.0, 4806.0, 4804.0, 4804.0, 4804.0, 4804.0, 4804.0, 4780.0, 4802.0, 4804.0, 4806.0, 4804.0, 4806.0, 4806.0, 4808.0, 4802.0, 4806.0, 4806.0, 4806.0, 4804.0, 4802.0, 4806.0, 4802.0, 4806.0, 4804.0, 4804.0, 4808.0, 4802.0, 4804.0, 4802.0, 4802.0, 4804.0, 4806.0, 4806.0, 4808.0, 4804.0, 4802.0, 4806.0, 4804.0, 4806.0, 4804.0, 4804.0],
      "WindowWidth": [18594.0, 18598.0, 18596.0, 18598.0, 18580.0, 18604.0, 18594.0, 18592.0, 18632.0, 18562.0, 18594.0, 18564.0, 18592.0, 18604.0, 18604.0, 18592.0, 18600.0, 18592.0, 18592.0, 18596.0, 18596.0, 18594.0, 18596.0, 18596.0, 18588.0, 18600.0, 18612.0, 18598.0, 18596.0, 18592.0, 18596.0, 18598.0, 18596.0, 18598.0, 18572.0, 18594.0, 18598.0, 18560.0, 18594.0, 18608.0, 18584.0, 18594.0, 18638.0, 18648.0, 18640.0, 18598.0, 18596.0, 18602.0, 18606.0, 18606.0, 18610.0, 18600.0, 18592.0, 18594.0, 18596.0, 18596.0, 18564.0, 18592.0, 18598.0, 18600.0, 18598.0, 18600.0, 18590.0, 18592.0, 18592.0, 18600.0, 18608.0, 18602.0, 18594.0, 18594.0, 18592.0, 18590.0, 18598.0, 18592.0, 18592.0, 18608.0, 18606.0, 18592.0, 18596.0, 18592.0, 18596.0, 18588.0, 18592.0, 18592.0, 18590.0, 18602.0, 18592.0, 18566.0, 18592.0, 18590.0, 18564.0, 18594.0, 18590.0, 18596.0, 18570.0, 18592.0, 18602.0, 18594.0, 18564.0, 18566.0, 18598.0, 18600.0, 18592.0, 18562.0, 18564.0, 18610.0, 18592.0, 18598.0, 18592.0, 18598.0, 18596.0, 18592.0, 18602.0, 18562.0, 18596.0, 18594.0, 18570.0, 18596.0, 18594.0, 18592.0, 18592.0, 18566.0, 18592.0, 18562.0, 18590.0, 18590.0, 18566.0, 18594.0, 18598.0, 18592.0, 18600.0, 18590.0, 18592.0, 18594.0, 18594.0, 18606.0, 18590.0, 18606.0, 18588.0, 18596.0, 18600.0, 18590.0, 18566.0, 18562.0, 18590.0, 18596.0, 18590.0, 18606.0, 18598.0, 18602.0, 18592.0, 18598.0, 18596.0, 18596.0, 18594.0, 18564.0, 18590.0, 18590.0, 18596.0, 18596.0, 18602.0, 18592.0, 18600.0, 18596.0, 18598.0, 18594.0, 18598.0, 18594.0, 18594.0, 18600.0, 18590.0, 18602.0, 18594.0, 18590.0, 18602.0, 18596.0, 18598.0, 18588.0, 18592.0, 18594.0, 18598.0, 18602.0, 18590.0, 18596.0, 18594.0, 18594.0, 18598.0, 18600.0, 18600.0, 18596.0]
    },
    "slices": {}
  }
}