{
  "AcquisitionMatrixPE": 104,
  "AcquisitionNumber": 1,
  "AcquisitionTime": "15:55:40.790000",
  "BandwidthPerPixelPhaseEncode": 17.17,
  "BaseResolution": 104,
  "BodyPartExamined": "BRAIN",
  "CoilString": "HC1-7;NC1_2",
  "ConsistencyInfo": "N4_VE11C_LATEST_20160120",
  "ConversionSoftware": "dcm2niix",
  "ConversionSoftwareVersion": "v1.0.20190902",
  "DerivedVendorReportedEchoSpacing": 0.000560011,
  "DeviceSerialNumber": "167006",
  "DwellTime": 2.1e-06,
  "EchoTime": 0.037,
  "EchoTrainLength": 104,
  "EffectiveEchoSpacing": 0.000560011,
  "FlipAngle": 52,
  "ImageComments": "Unaliased_MB4_PE3_LB",
  "ImageOrientationPatientDICOM": [0.999451, -0.0330716, 0.0019263, 0.0321075, 0.952714, -0.302169],
  "ImageType": [
    "ORIGINAL",
    "PRIMARY",
    "M",
    "MB",
    "ND",
    "MOSAIC"
],
  "ImagingFrequency": 123.259,
  "InPlanePhaseEncodingDirectionDICOM": "COL",
  "InstitutionAddress": "Chemin_Queen-Mary_4565_Montreal_District_CA_H3W_1W5",
  "InstitutionName": "IUGM",
  "InstitutionalDepartmentName": "Department",
  "MRAcquisitionType": "2D",
  "MagneticFieldStrength": 3,
  "Manufacturer": "Siemens",
  "ManufacturersModelName": "Prisma_fit",
  "Modality": "MR",
  "MultibandAccelerationFactor": 4,
  "PartialFourier": 1,
  "PatientPosition": "HFS",
  "PercentPhaseFOV": 100,
  "PhaseEncodingDirection": "j",
  "PhaseEncodingSteps": 104,
  "PhaseResolution": 1,
  "PixelBandwidth": 2290,
  "ProcedureStepDescription": "memory_things",
  "ProtocolName": "func_task-things_run-6",
  "PulseSequenceDetails": "%CustomerSeq%_cmrr_mbep2d_bold",
  "ReceiveCoilActiveElements": "HC1-7;NC1,2",
  "ReceiveCoilName": "HeadNeck_64",
  "ReconMatrixPE": 104,
  "RepetitionTime": 1.49,
  "SAR": 0.0343488,
  "ScanOptions": "FS",
  "ScanningSequence": "EP",
  "SequenceName": "epfid2d1_104",
  "SequenceVariant": "SK_SS",
  "SeriesDescription": "func_task-things_run-6",
  "SeriesNumber": 25,
  "ShimSetting": [619, -7259, -8799, 619, -17, -224, -11, -21],
  "SliceThickness": 2,
  "SliceTiming": [0, 0.7825, 0.0975, 0.8825, 0.195, 0.98, 0.2925, 1.0775, 0.3925, 1.175, 0.49, 1.2725, 0.5875, 1.3725, 0.685, 0, 0.7825, 0.0975, 0.8825, 0.195, 0.98, 0.2925, 1.0775, 0.3925, 1.175, 0.49, 1.2725, 0.5875, 1.3725, 0.685, 0, 0.7825, 0.0975, 0.8825, 0.195, 0.98, 0.2925, 1.0775, 0.3925, 1.175, 0.49, 1.2725, 0.5875, 1.3725, 0.685, 0, 0.7825, 0.0975, 0.8825, 0.195, 0.98, 0.2925, 1.0775, 0.3925, 1.175, 0.49, 1.2725, 0.5875, 1.3725, 0.685],
  "SoftwareVersions": "syngo_MR_E11",
  "SpacingBetweenSlices": 2,
  "StationName": "MRC35049",
  "TaskName": "things",
  "TotalReadoutTime": 0.0576811,
  "TxRefAmp": 231.001,
  "WipMemBlock": "f153d4a3-3367-45ae-9e54-727771f2b1eb||Sequence: R016 ve11c/master r/e634e98; Dec 19 2017 11:00:25 by eja",
  "dcmmeta_affine": [
    [-1.9989022016525269, 0.06421500444412231, -0.016315996646881104, 103.93379974365234],
    [0.06614329665899277, 1.90542733669281, -0.6041290163993835, -71.25801086425781],
    [0.0038526018615812063, 0.6043370366096497, 1.9065051078796387, -56.782108306884766],
    [0.0, 0.0, 0.0, 1.0]
],
  "dcmmeta_reorient_transform": [
    [0.0, -1.0, 0.0, 103.0],
    [1.0, 0.0, 0.0, 0.0],
    [0.0, 0.0, 1.0, 0.0],
    [0.0, 0.0, 0.0, 1.0]
],
  "dcmmeta_shape": [104, 104, 60, 190],
  "dcmmeta_slice_dim": 2,
  "dcmmeta_version": 0.6,
  "global": {
    "const": {
      "AcquisitionMatrix": [104, 0, 0, 104],
      "AngioFlag": "N",
      "BitsAllocated": 16,
      "BitsStored": 16,
      "BodyPartExamined": "BRAIN",
      "Columns": 832,
      "EchoNumbers": 1,
      "EchoTime": 37.0,
      "EchoTrainLength": 104,
      "FlipAngle": 52.0,
      "HighBit": 15,
      "ImageOrientationPatient": [0.99945112703872, -0.0330716498824, 0.00192630088322, 0.03210750254817, 0.95271364505466, -0.3021685271612],
      "ImagePositionPatient": [-861.52262535348, -794.50037057415, 224.04095029309],
      "ImageType": [
        "ORIGINAL",
        "PRIMARY",
        "M",
        "MB",
        "ND",
        "MOSAIC"
],
      "ImagedNucleus": "1H",
      "ImagingFrequency": 123.258918,
      "InPlanePhaseEncodingDirection": "COL",
      "MRAcquisitionType": "2D",
      "MagneticFieldStrength": 3.0,
      "Manufacturer": "SIEMENS",
      "ManufacturerModelName": "Prisma_fit",
      "Modality": "MR",
      "NumberOfAverages": 1.0,
      "NumberOfPhaseEncodingSteps": 104,
      "PercentPhaseFieldOfView": 100.0,
      "PercentSampling": 100.0,
      "PerformedProcedureStepStartTime": "150020.534000",
      "PhotometricInterpretation": "MONOCHROME2",
      "PixelBandwidth": 2290.0,
      "PixelRepresentation": 0,
      "PixelSpacing": [2.0, 2.0],
      "ProtocolName": "func_task-things_run-6",
      "RepetitionTime": 1490.0,
      "Rows": 832,
      "SAR": 0.03434883985515,
      "SamplesPerPixel": 1,
      "ScanOptions": "FS",
      "ScanningSequence": "EP",
      "SequenceName": "epfid2d1_104",
      "SequenceVariant": [
        "SK",
        "SS"
],
      "SeriesDescription": "func_task-things_run-6",
      "SeriesNumber": 25,
      "SeriesTime": "155655.115000",
      "SliceLocation": -33.45106378509,
      "SliceThickness": 2.0,
      "SmallestImagePixelValue": 0,
      "SoftwareVersions": "syngo MR E11",
      "SpacingBetweenSlices": 1.9999999817828,
      "SpecificCharacterSet": "ISO_IR 100",
      "StudyID": "1",
      "StudyTime": "150020.398000",
      "TransmitCoilName": "Body",
      "VariableFlipAngleFlag": "N",
      "WindowCenterWidthExplanation": "Algo1",
      "dBdt": 0.0},
    "slices": {}
  },
  "time": {
    "samples": {
      "AcquisitionNumber": [1, 2, 3, 4, 5, 6, 7, 8, 9, 10, 11, 12, 13, 14, 15, 16, 17, 18, 19, 20, 21, 22, 23, 24, 25, 26, 27, 28, 29, 30, 31, 32, 33, 34, 35, 36, 37, 38, 39, 40, 41, 42, 43, 44, 45, 46, 47, 48, 49, 50, 51, 52, 53, 54, 55, 56, 57, 58, 59, 60, 61, 62, 63, 64, 65, 66, 67, 68, 69, 70, 71, 72, 73, 74, 75, 76, 77, 78, 79, 80, 81, 82, 83, 84, 85, 86, 87, 88, 89, 90, 91, 92, 93, 94, 95, 96, 97, 98, 99, 100, 101, 102, 103, 104, 105, 106, 107, 108, 109, 110, 111, 112, 113, 114, 115, 116, 117, 118, 119, 120, 121, 122, 123, 124, 125, 126, 127, 128, 129, 130, 131, 132, 133, 134, 135, 136, 137, 138, 139, 140, 141, 142, 143, 144, 145, 146, 147, 148, 149, 150, 151, 152, 153, 154, 155, 156, 157, 158, 159, 160, 161, 162, 163, 164, 165, 166, 167, 168, 169, 170, 171, 172, 173, 174, 175, 176, 177, 178, 179, 180, 181, 182, 183, 184, 185, 186, 187, 188, 189, 190],
      "AcquisitionTime": ["155540.790000", "155542.280000", "155543.770000", "155545.260000", "155546.750000", "155548.240000", "155549.730000", "155551.220000", "155552.710000", "155554.200000", "155555.690000", "155557.180000", "155558.670000", "155600.160000", "155601.650000", "155603.140000", "155604.630000", "155606.120000", "155607.610000", "155609.100000", "155610.590000", "155612.080000", "155613.570000", "155615.060000", "155616.550000", "155618.040000", "155619.530000", "155621.020000", "155622.510000", "155624.000000", "155625.490000", "155626.980000", "155628.470000", "155629.960000", "155631.450000", "155632.940000", "155634.430000", "155635.920000", "155637.410000", "155638.900000", "155640.390000", "155641.880000", "155643.370000", "155644.860000", "155646.350000", "155647.840000", "155649.330000", "155650.820000", "155652.310000", "155653.800000", "155655.290000", "155656.780000", "155658.270000", "155659.760000", "155701.250000", "155702.740000", "155704.230000", "155705.720000", "155707.210000", "155708.700000", "155710.190000", "155711.680000", "155713.170000", "155714.660000", "155716.150000", "155717.640000", "155719.130000", "155720.620000", "155722.110000", "155723.600000", "155725.090000", "155726.580000", "155728.070000", "155729.560000", "155731.050000", "155732.540000", "155734.030000", "155735.520000", "155737.010000", "155738.500000", "155739.990000", "155741.480000", "155742.970000", "155744.460000", "155745.950000", "155747.440000", "155748.930000", "155750.420000", "155751.910000", "155753.400000", "155754.890000", "155756.380000", "155757.870000", "155759.360000", "155800.850000", "155802.340000", "155803.830000", "155805.320000", "155806.810000", "155808.300000", "155809.790000", "155811.280000", "155812.770000", "155814.260000", "155815.750000", "155817.240000", "155818.730000", "155820.220000", "155821.710000", "155823.200000", "155824.690000", "155826.180000", "155827.670000", "155829.160000", "155830.650000", "155832.140000", "155833.630000", "155835.120000", "155836.610000", "155838.100000", "155839.590000", "155841.080000", "155842.570000", "155844.060000", "155845.550000", "155847.040000", "155848.530000", "155850.020000", "155851.510000", "155853.000000", "155854.490000", "155855.980000", "155857.470000", "155858.960000", "155900.450000", "155901.940000", "155903.430000", "155904.920000", "155906.410000", "155907.900000", "155909.390000", "155910.880000", "155912.370000", "155913.860000", "155915.350000", "155916.840000", "155918.330000", "155919.820000", "155921.310000", "155922.800000", "155924.290000", "155925.780000", "155927.270000", "155928.760000", "155930.250000", "155931.740000", "155933.230000", "155934.720000", "155936.210000", "155937.700000", "155939.190000", "155940.680000", "155942.170000", "155943.660000", "155945.150000", "155946.640000", "155948.130000", "155949.620000", "155951.110000", "155952.600000", "155954.090000", "155955.580000", "155957.070000", "155958.560000", "160000.050000", "160001.540000", "160003.030000", "160004.520000", "160006.010000", "160007.500000", "160008.990000", "160010.480000", "160011.970000", "160013.460000", "160014.950000", "160016.440000", "160017.930000", "160019.420000", "160020.910000", "160022.400000"],
      "ContentTime": ["155655.118000", "155655.122000", "155655.125000", "155655.129000", "155655.132000", "155655.135000", "155655.139000", "155655.143000", "155655.146000", "155655.149000", "155655.153000", "155655.156000", "155655.159000", "155655.163000", "155655.166000", "155655.169000", "155655.172000", "155655.198000", "155655.201000", "155655.205000", "155715.075000", "155715.079000", "155715.082000", "155715.085000", "155715.088000", "155715.091000", "155715.095000", "155715.098000", "155715.101000", "155715.104000", "155715.114000", "155715.117000", "155715.120000", "155715.124000", "155715.127000", "155715.130000", "155715.134000", "155715.137000", "155715.140000", "155715.143000", "155715.146000", "155735.076000", "155735.080000", "155735.083000", "155735.094000", "155735.097000", "155735.100000", "155735.104000", "155735.107000", "155735.110000", "155735.113000", "155735.117000", "155735.120000", "155735.123000", "155735.126000", "155735.130000", "155735.133000", "155735.136000", "155735.139000", "155735.142000", "155735.146000", "155755.076000", "155755.080000", "155755.083000", "155755.086000", "155755.090000", "155755.093000", "155755.096000", "155755.099000", "155755.103000", "155755.106000", "155755.109000", "155755.113000", "155755.116000", "155755.119000", "155755.122000", "155755.126000", "155755.129000", "155755.132000", "155755.135000", "155755.139000", "155815.076000", "155815.080000", "155815.083000", "155815.086000", "155815.089000", "155815.093000", "155815.096000", "155815.099000", "155815.103000", "155815.106000", "155815.109000", "155815.112000", "155815.116000", "155815.119000", "155815.122000", "155815.125000", "155815.129000", "155815.132000", "155815.135000", "155815.138000", "155815.142000", "155855.075000", "155855.079000", "155855.082000", "155855.090000", "155855.093000", "155855.096000", "155855.100000", "155855.103000", "155855.106000", "155855.110000", "155855.113000", "155855.116000", "155855.119000", "155855.123000", "155855.126000", "155855.129000", "155855.132000", "155855.136000", "155855.139000", "155855.142000", "155855.145000", "155855.149000", "155855.152000", "155855.155000", "155855.158000", "155855.162000", "155855.165000", "155855.168000", "155935.075000", "155935.079000", "155935.082000", "155935.085000", "155935.094000", "155935.098000", "155935.101000", "155935.104000", "155935.108000", "155935.111000", "155935.128000", "155935.131000", "155935.135000", "155935.138000", "155935.141000", "155935.144000", "155935.148000", "155935.151000", "155935.154000", "155935.157000", "155935.161000", "155935.164000", "155935.167000", "155935.170000", "155935.174000", "155935.177000", "160015.076000", "160015.080000", "160015.083000", "160015.086000", "160015.090000", "160015.093000", "160015.096000", "160015.099000", "160015.103000", "160015.111000", "160015.114000", "160015.117000", "160015.121000", "160015.124000", "160015.127000", "160015.130000", "160015.134000", "160015.137000", "160015.140000", "160015.144000", "160015.147000", "160015.150000", "160015.153000", "160015.156000", "160015.160000", "160015.163000", "160015.166000", "160024.341000", "160024.344000", "160024.347000", "160024.351000", "160024.354000", "160024.357000", "160024.361000"],
      "InstanceCreationTime": ["155655.118000", "155655.122000", "155655.125000", "155655.129000", "155655.132000", "155655.135000", "155655.139000", "155655.143000", "155655.146000", "155655.149000", "155655.153000", "155655.156000", "155655.159000", "155655.163000", "155655.166000", "155655.169000", "155655.172000", "155655.198000", "155655.201000", "155655.205000", "155715.075000", "155715.079000", "155715.082000", "155715.085000", "155715.088000", "155715.091000", "155715.095000", "155715.098000", "155715.101000", "155715.104000", "155715.114000", "155715.117000", "155715.120000", "155715.124000", "155715.127000", "155715.130000", "155715.134000", "155715.137000", "155715.140000", "155715.143000", "155715.146000", "155735.076000", "155735.080000", "155735.083000", "155735.094000", "155735.097000", "155735.100000", "155735.104000", "155735.107000", "155735.110000", "155735.113000", "155735.117000", "155735.120000", "155735.123000", "155735.126000", "155735.130000", "155735.133000", "155735.136000", "155735.139000", "155735.142000", "155735.146000", "155755.076000", "155755.080000", "155755.083000", "155755.086000", "155755.090000", "155755.093000", "155755.096000", "155755.099000", "155755.103000", "155755.106000", "155755.109000", "155755.113000", "155755.116000", "155755.119000", "155755.122000", "155755.126000", "155755.129000", "155755.132000", "155755.135000", "155755.139000", "155815.076000", "155815.080000", "155815.083000", "155815.086000", "155815.089000", "155815.093000", "155815.096000", "155815.099000", "155815.103000", "155815.106000", "155815.109000", "155815.112000", "155815.116000", "155815.119000", "155815.122000", "155815.125000", "155815.129000", "155815.132000", "155815.135000", "155815.138000", "155815.142000", "155855.075000", "155855.079000", "155855.082000", "155855.090000", "155855.093000", "155855.096000", "155855.100000", "155855.103000", "155855.106000", "155855.110000", "155855.113000", "155855.116000", "155855.119000", "155855.123000", "155855.126000", "155855.129000", "155855.132000", "155855.136000", "155855.139000", "155855.142000", "155855.145000", "155855.149000", "155855.152000", "155855.155000", "155855.158000", "155855.162000", "155855.165000", "155855.168000", "155935.075000", "155935.079000", "155935.082000", "155935.085000", "155935.094000", "155935.098000", "155935.101000", "155935.104000", "155935.108000", "155935.111000", "155935.128000", "155935.131000", "155935.135000", "155935.138000", "155935.141000", "155935.144000", "155935.148000", "155935.151000", "155935.154000", "155935.157000", "155935.161000", "155935.164000", "155935.167000", "155935.170000", "155935.174000", "155935.177000", "160015.076000", "160015.080000", "160015.083000", "160015.086000", "160015.090000", "160015.093000", "160015.096000", "160015.099000", "160015.103000", "160015.111000", "160015.114000", "160015.117000", "160015.121000", "160015.124000", "160015.127000", "160015.130000", "160015.134000", "160015.137000", "160015.140000", "160015.144000", "160015.147000", "160015.150000", "160015.153000", "160015.156000", "160015.160000", "160015.163000", "160015.166000", "160024.341000", "160024.344000", "160024.347000", "160024.351000", "160024.354000", "160024.357000", "160024.361000"],
      "InstanceNumber": [1, 2, 3, 4, 5, 6, 7, 8, 9, 10, 11, 12, 13, 14, 15, 16, 17, 18, 19, 20, 21, 22, 23, 24, 25, 26, 27, 28, 29, 30, 31, 32, 33, 34, 35, 36, 37, 38, 39, 40, 41, 42, 43, 44, 45, 46, 47, 48, 49, 50, 51, 52, 53, 54, 55, 56, 57, 58, 59, 60, 61, 62, 63, 64, 65, 66, 67, 68, 69, 70, 71, 72, 73, 74, 75, 76, 77, 78, 79, 80, 81, 82, 83, 84, 85, 86, 87, 88, 89, 90, 91, 92, 93, 94, 95, 96, 97, 98, 99, 100, 101, 102, 103, 104, 105, 106, 107, 108, 109, 110, 111, 112, 113, 114, 115, 116, 117, 118, 119, 120, 121, 122, 123, 124, 125, 126, 127, 128, 129, 130, 131, 132, 133, 134, 135, 136, 137, 138, 139, 140, 141, 142, 143, 144, 145, 146, 147, 148, 149, 150, 151, 152, 153, 154, 155, 156, 157, 158, 159, 160, 161, 162, 163, 164, 165, 166, 167, 168, 169, 170, 171, 172, 173, 174, 175, 176, 177, 178, 179, 180, 181, 182, 183, 184, 185, 186, 187, 188, 189, 190],
      "LargestImagePixelValue": [42472, 40671, 40093, 40208, 39889, 39144, 39932, 39763, 38396, 39214, 39732, 39010, 39520, 38544, 39485, 39143, 40661, 40151, 39435, 39987, 39170, 38664, 37905, 38122, 38105, 38729, 38878, 39040, 38828, 38691, 38790, 38534, 37252, 38279, 37556, 37658, 39550, 38141, 38713, 38958, 38615, 38819, 39318, 38978, 38754, 37488, 37932, 39695, 39257, 37242, 38162, 37761, 37958, 38054, 36695, 37473, 37856, 37960, 37476, 37277, 37445, 37398, 36363, 37312, 37626, 38090, 37942, 37852, 36317, 36632, 36578, 36890, 36455, 37277, 37003, 36659, 36971, 37468, 37849, 38324, 38112, 38629, 39294, 38352, 38677, 38521, 38060, 38816, 38456, 39162, 37267, 39013, 38743, 37518, 37933, 37934, 38263, 38477, 38789, 38520, 38851, 38783, 38408, 38980, 39077, 38146, 39468, 38258, 38271, 38378, 39376, 38769, 38600, 38897, 38806, 38981, 38915, 37872, 37786, 36631, 38380, 38129, 38026, 37631, 37080, 37859, 37835, 38324, 38611, 37441, 38219, 37883, 38462, 37904, 37411, 37016, 36363, 36469, 36526, 37290, 37051, 36608, 37143, 37717, 37669, 37382, 37991, 38166, 37754, 37659, 37811, 37751, 37331, 37366, 37532, 37873, 38148, 37754, 38656, 38462, 38496, 38369, 37988, 37247, 38176, 38373, 37938, 38285, 37854, 37809, 36719, 37646, 37532, 37995, 37098, 37098, 37096, 36484, 37849, 36617, 37215, 37699, 36596, 37407, 37500, 37534, 37866, 38533, 37878, 38061],
      "WindowCenter": [10061.0, 9996.0, 9974.0, 10009.0, 10041.0, 10051.0, 10042.0, 10002.0, 10007.0, 10019.0, 10027.0, 10019.0, 10018.0, 9968.0, 9945.0, 9969.0, 10051.0, 10032.0, 9985.0, 10026.0, 10028.0, 10017.0, 9977.0, 9976.0, 9960.0, 9933.0, 9924.0, 9925.0, 9918.0, 9933.0, 9952.0, 9983.0, 10000.0, 10009.0, 9981.0, 9981.0, 9978.0, 9984.0, 10030.0, 10055.0, 10061.0, 10033.0, 9993.0, 9970.0, 9979.0, 9960.0, 9935.0, 9940.0, 9945.0, 9945.0, 9950.0, 9950.0, 9959.0, 9938.0, 9946.0, 9919.0, 9893.0, 9896.0, 9892.0, 9892.0, 9917.0, 9945.0, 9953.0, 9965.0, 9932.0, 9934.0, 9994.0, 10025.0, 9998.0, 9939.0, 9904.0, 9883.0, 9871.0, 9889.0, 9926.0, 9934.0, 9906.0, 9889.0, 9894.0, 9920.0, 9930.0, 9944.0, 9967.0, 9963.0, 9955.0, 9938.0, 9952.0, 9985.0, 9970.0, 9948.0, 9887.0, 9916.0, 9967.0, 9974.0, 9960.0, 9941.0, 9916.0, 9903.0, 9901.0, 9910.0, 9901.0, 9911.0, 9923.0, 9925.0, 9920.0, 9929.0, 9951.0, 9968.0, 9989.0, 9969.0, 9945.0, 9936.0, 9938.0, 9937.0, 9925.0, 9913.0, 9907.0, 9918.0, 9943.0, 9935.0, 9963.0, 9941.0, 9931.0, 9912.0, 9889.0, 9900.0, 9953.0, 10001.0, 9995.0, 9903.0, 9950.0, 9913.0, 9896.0, 9872.0, 9856.0, 9854.0, 9866.0, 9907.0, 9912.0, 9930.0, 9948.0, 9992.0, 10024.0, 10024.0, 9999.0, 9955.0, 9939.0, 9928.0, 9943.0, 9974.0, 9987.0, 9987.0, 9981.0, 9964.0, 9947.0, 9944.0, 9954.0, 9960.0, 9995.0, 9982.0, 9975.0, 9957.0, 9948.0, 9958.0, 9981.0, 9991.0, 9978.0, 9954.0, 9918.0, 9927.0, 9952.0, 9973.0, 9954.0, 9933.0, 9901.0, 9878.0, 9874.0, 9889.0, 9932.0, 9929.0, 9934.0, 9947.0, 9942.0, 9934.0, 9906.0, 9889.0, 9917.0, 9957.0, 9970.0, 9971.0],
      "WindowWidth": [21669.0, 21490.0, 21421.0, 21484.0, 21549.0, 21570.0, 21539.0, 21449.0, 21463.0, 21486.0, 21504.0, 21486.0, 21480.0, 21378.0, 21322.0, 21379.0, 21569.0, 21523.0, 21395.0, 21488.0, 21503.0, 21496.0, 21410.0, 21398.0, 21355.0, 21291.0, 21267.0, 21268.0, 21258.0, 21289.0, 21334.0, 21405.0, 21449.0, 21468.0, 21409.0, 21406.0, 21387.0, 21406.0, 21504.0, 21560.0, 21577.0, 21518.0, 21424.0, 21367.0, 21396.0, 21356.0, 21294.0, 21299.0, 21309.0, 21316.0, 21322.0, 21336.0, 21370.0, 21304.0, 21330.0, 21264.0, 21204.0, 21208.0, 21205.0, 21208.0, 21257.0, 21316.0, 21341.0, 21362.0, 21289.0, 21291.0, 21425.0, 21499.0, 21448.0, 21312.0, 21232.0, 21183.0, 21154.0, 21186.0, 21275.0, 21303.0, 21236.0, 21197.0, 21207.0, 21259.0, 21282.0, 21313.0, 21360.0, 21355.0, 21338.0, 21305.0, 21332.0, 21402.0, 21374.0, 21320.0, 21195.0, 21252.0, 21368.0, 21385.0, 21355.0, 21309.0, 21253.0, 21222.0, 21214.0, 21234.0, 21214.0, 21237.0, 21269.0, 21271.0, 21261.0, 21282.0, 21329.0, 21369.0, 21416.0, 21371.0, 21314.0, 21293.0, 21301.0, 21296.0, 21276.0, 21249.0, 21237.0, 21264.0, 21316.0, 21306.0, 21358.0, 21317.0, 21295.0, 21255.0, 21210.0, 21226.0, 21344.0, 21462.0, 21445.0, 21231.0, 21330.0, 21248.0, 21213.0, 21159.0, 21127.0, 21122.0, 21152.0, 21243.0, 21261.0, 21295.0, 21339.0, 21437.0, 21501.0, 21499.0, 21445.0, 21351.0, 21309.0, 21283.0, 21319.0, 21387.0, 21418.0, 21418.0, 21406.0, 21369.0, 21333.0, 21323.0, 21341.0, 21358.0, 21430.0, 21407.0, 21391.0, 21350.0, 21332.0, 21367.0, 21406.0, 21428.0, 21400.0, 21346.0, 21268.0, 21289.0, 21349.0, 21391.0, 21355.0, 21305.0, 21238.0, 21183.0, 21171.0, 21205.0, 21295.0, 21296.0, 21302.0, 21327.0, 21319.0, 21299.0, 21237.0, 21201.0, 21257.0, 21343.0, 21374.0, 21383.0]
    },
    "slices": {}
  }
}