{
  "AcquisitionMatrixPE": 104,
  "AcquisitionNumber": 1,
  "AcquisitionTime": "13:38:44.867500",
  "BandwidthPerPixelPhaseEncode": 17.17,
  "BaseResolution": 104,
  "BodyPartExamined": "BRAIN",
  "CoilString": "HC1-7;NC1_2",
  "ConsistencyInfo": "N4_VE11C_LATEST_20160120",
  "ConversionSoftware": "dcm2niix",
  "ConversionSoftwareVersion": "v1.0.20190902",
  "DerivedVendorReportedEchoSpacing": 0.000560011,
  "DeviceSerialNumber": "167006",
  "DwellTime": 2.1e-06,
  "EchoTime": 0.037,
  "EchoTrainLength": 104,
  "EffectiveEchoSpacing": 0.000560011,
  "FlipAngle": 52,
  "ImageComments": "Unaliased_MB4_PE3_LB",
  "ImageOrientationPatientDICOM": [0.999608, 0.0208877, 0.0186663, -0.0167502, 0.979779, -0.199383],
  "ImageType": [
    "ORIGINAL",
    "PRIMARY",
    "M",
    "MB",
    "ND",
    "MOSAIC"
],
  "ImagingFrequency": 123.259,
  "InPlanePhaseEncodingDirectionDICOM": "COL",
  "InstitutionAddress": "Chemin_Queen-Mary_4565_Montreal_District_CA_H3W_1W5",
  "InstitutionName": "IUGM",
  "InstitutionalDepartmentName": "Department",
  "MRAcquisitionType": "2D",
  "MagneticFieldStrength": 3,
  "Manufacturer": "Siemens",
  "ManufacturersModelName": "Prisma_fit",
  "Modality": "MR",
  "MultibandAccelerationFactor": 4,
  "PartialFourier": 1,
  "PatientPosition": "HFS",
  "PercentPhaseFOV": 100,
  "PhaseEncodingDirection": "j",
  "PhaseEncodingSteps": 104,
  "PhaseResolution": 1,
  "PixelBandwidth": 2290,
  "ProcedureStepDescription": "memory_things",
  "ProtocolName": "func_task-things_run-1",
  "PulseSequenceDetails": "%CustomerSeq%_cmrr_mbep2d_bold",
  "ReceiveCoilActiveElements": "HC1-7;NC1,2",
  "ReceiveCoilName": "HeadNeck_64",
  "ReconMatrixPE": 104,
  "RepetitionTime": 1.49,
  "SAR": 0.0479141,
  "ScanOptions": "FS",
  "ScanningSequence": "EP",
  "SequenceName": "epfid2d1_104",
  "SequenceVariant": "SK_SS",
  "SeriesDescription": "func_task-things_run-1",
  "SeriesNumber": 10,
  "ShimSetting": [629, -7221, -8760, 712, 34, -3, 102, -11],
  "SliceThickness": 2,
  "SliceTiming": [0, 0.785, 0.1, 0.8825, 0.1975, 0.98, 0.295, 1.08, 0.3925, 1.1775, 0.49, 1.275, 0.59, 1.3725, 0.6875, 0, 0.785, 0.1, 0.8825, 0.1975, 0.98, 0.295, 1.08, 0.3925, 1.1775, 0.49, 1.275, 0.59, 1.3725, 0.6875, 0, 0.785, 0.1, 0.8825, 0.1975, 0.98, 0.295, 1.08, 0.3925, 1.1775, 0.49, 1.275, 0.59, 1.3725, 0.6875, 0, 0.785, 0.1, 0.8825, 0.1975, 0.98, 0.295, 1.08, 0.3925, 1.1775, 0.49, 1.275, 0.59, 1.3725, 0.6875],
  "SoftwareVersions": "syngo_MR_E11",
  "SpacingBetweenSlices": 2,
  "StationName": "MRC35049",
  "TaskName": "things",
  "TotalReadoutTime": 0.0576811,
  "TxRefAmp": 235.004,
  "WipMemBlock": "493832d0-9cf2-4dc1-9436-47b42e7b5d2a||Sequence: R016 ve11c/master r/e634e98; Dec 19 2017 11:00:25 by eja",
  "dcmmeta_affine": [
    [-1.9992151260375977, -0.033500369638204575, 0.04490705579519272, 109.66275787353516],
    [-0.04177546501159668, 1.959557056427002, -0.3979833126068115, -76.41864776611328],
    [0.037332676351070404, 0.3987651467323303, 1.959487795829773, -50.747371673583984],
    [0.0, 0.0, 0.0, 1.0]
],
  "dcmmeta_reorient_transform": [
    [0.0, -1.0, 0.0, 103.0],
    [1.0, 0.0, 0.0, 0.0],
    [0.0, 0.0, 1.0, 0.0],
    [0.0, 0.0, 0.0, 1.0]
],
  "dcmmeta_shape": [104, 104, 60, 190],
  "dcmmeta_slice_dim": 2,
  "dcmmeta_version": 0.6,
  "global": {
    "const": {
      "AcquisitionMatrix": [104, 0, 0, 104],
      "AngioFlag": "N",
      "BitsAllocated": 16,
      "BitsStored": 16,
      "BodyPartExamined": "BRAIN",
      "Columns": 832,
      "EchoNumbers": 1,
      "EchoTime": 37.0,
      "EchoTrainLength": 104,
      "FlipAngle": 52.0,
      "HighBit": 15,
      "ImageOrientationPatient": [0.99960755820857, 0.02088773318844, 0.018666338006, -0.0167501840601, 0.97977855711643, -0.1993825728312],
      "ImagePositionPatient": [-821.73239072864, -853.90079670992, 121.88685601349],
      "ImageType": [
        "ORIGINAL",
        "PRIMARY",
        "M",
        "MB",
        "ND",
        "MOSAIC"
],
      "ImagedNucleus": "1H",
      "ImagingFrequency": 123.258964,
      "InPlanePhaseEncodingDirection": "COL",
      "MRAcquisitionType": "2D",
      "MagneticFieldStrength": 3.0,
      "Manufacturer": "SIEMENS",
      "ManufacturerModelName": "Prisma_fit",
      "Modality": "MR",
      "NumberOfAverages": 1.0,
      "NumberOfPhaseEncodingSteps": 104,
      "PercentPhaseFieldOfView": 100.0,
      "PercentSampling": 100.0,
      "PerformedProcedureStepStartTime": "130051.167000",
      "PhotometricInterpretation": "MONOCHROME2",
      "PixelBandwidth": 2290.0,
      "PixelRepresentation": 0,
      "PixelSpacing": [2.0, 2.0],
      "ProtocolName": "func_task-things_run-1",
      "RepetitionTime": 1490.0,
      "Rows": 832,
      "SAR": 0.04791409207917,
      "SamplesPerPixel": 1,
      "ScanOptions": "FS",
      "ScanningSequence": "EP",
      "SequenceName": "epfid2d1_104",
      "SequenceVariant": [
        "SK",
        "SS"
],
      "SeriesDescription": "func_task-things_run-1",
      "SeriesNumber": 10,
      "SeriesTime": "134006.184000",
      "SliceLocation": -32.050441226932,
      "SliceThickness": 2.0,
      "SmallestImagePixelValue": 0,
      "SoftwareVersions": "syngo MR E11",
      "SpacingBetweenSlices": 2.0000000021981,
      "SpecificCharacterSet": "ISO_IR 100",
      "StudyID": "1",
      "StudyTime": "130051.070000",
      "TransmitCoilName": "Body",
      "VariableFlipAngleFlag": "N",
      "WindowCenterWidthExplanation": "Algo1",
      "dBdt": 0.0},
    "slices": {}
  },
  "time": {
    "samples": {
      "AcquisitionNumber": [1, 2, 3, 4, 5, 6, 7, 8, 9, 10, 11, 12, 13, 14, 15, 16, 17, 18, 19, 20, 21, 22, 23, 24, 25, 26, 27, 28, 29, 30, 31, 32, 33, 34, 35, 36, 37, 38, 39, 40, 41, 42, 43, 44, 45, 46, 47, 48, 49, 50, 51, 52, 53, 54, 55, 56, 57, 58, 59, 60, 61, 62, 63, 64, 65, 66, 67, 68, 69, 70, 71, 72, 73, 74, 75, 76, 77, 78, 79, 80, 81, 82, 83, 84, 85, 86, 87, 88, 89, 90, 91, 92, 93, 94, 95, 96, 97, 98, 99, 100, 101, 102, 103, 104, 105, 106, 107, 108, 109, 110, 111, 112, 113, 114, 115, 116, 117, 118, 119, 120, 121, 122, 123, 124, 125, 126, 127, 128, 129, 130, 131, 132, 133, 134, 135, 136, 137, 138, 139, 140, 141, 142, 143, 144, 145, 146, 147, 148, 149, 150, 151, 152, 153, 154, 155, 156, 157, 158, 159, 160, 161, 162, 163, 164, 165, 166, 167, 168, 169, 170, 171, 172, 173, 174, 175, 176, 177, 178, 179, 180, 181, 182, 183, 184, 185, 186, 187, 188, 189, 190],
      "AcquisitionTime": ["133844.867500", "133846.357500", "133847.847500", "133849.337500", "133850.827500", "133852.317500", "133853.807500", "133855.297500", "133856.787500", "133858.277500", "133859.767500", "133901.257500", "133902.747500", "133904.237500", "133905.727500", "133907.217500", "133908.707500", "133910.197500", "133911.687500", "133913.177500", "133914.667500", "133916.157500", "133917.647500", "133919.137500", "133920.627500", "133922.117500", "133923.607500", "133925.097500", "133926.587500", "133928.077500", "133929.567500", "133931.057500", "133932.547500", "133934.037500", "133935.527500", "133937.017500", "133938.507500", "133939.997500", "133941.487500", "133942.977500", "133944.467500", "133945.957500", "133947.447500", "133948.937500", "133950.427500", "133951.917500", "133953.407500", "133954.897500", "133956.387500", "133957.877500", "133959.367500", "134000.857500", "134002.347500", "134003.837500", "134005.327500", "134006.817500", "134008.307500", "134009.797500", "134011.287500", "134012.777500", "134014.267500", "134015.757500", "134017.247500", "134018.737500", "134020.227500", "134021.717500", "134023.207500", "134024.697500", "134026.187500", "134027.677500", "134029.167500", "134030.657500", "134032.147500", "134033.637500", "134035.127500", "134036.617500", "134038.107500", "134039.597500", "134041.087500", "134042.577500", "134044.067500", "134045.557500", "134047.047500", "134048.537500", "134050.027500", "134051.517500", "134053.007500", "134054.497500", "134055.987500", "134057.477500", "134058.967500", "134100.457500", "134101.947500", "134103.437500", "134104.927500", "134106.417500", "134107.907500", "134109.397500", "134110.887500", "134112.377500", "134113.867500", "134115.357500", "134116.847500", "134118.337500", "134119.827500", "134121.317500", "134122.807500", "134124.297500", "134125.787500", "134127.277500", "134128.767500", "134130.257500", "134131.747500", "134133.237500", "134134.727500", "134136.217500", "134137.707500", "134139.197500", "134140.687500", "134142.177500", "134143.667500", "134145.157500", "134146.647500", "134148.137500", "134149.627500", "134151.117500", "134152.607500", "134154.097500", "134155.587500", "134157.077500", "134158.567500", "134200.057500", "134201.547500", "134203.037500", "134204.527500", "134206.017500", "134207.507500", "134208.997500", "134210.487500", "134211.977500", "134213.467500", "134214.957500", "134216.447500", "134217.937500", "134219.427500", "134220.917500", "134222.407500", "134223.897500", "134225.387500", "134226.877500", "134228.367500", "134229.857500", "134231.347500", "134232.837500", "134234.327500", "134235.817500", "134237.307500", "134238.797500", "134240.287500", "134241.777500", "134243.267500", "134244.757500", "134246.247500", "134247.737500", "134249.227500", "134250.717500", "134252.207500", "134253.697500", "134255.187500", "134256.677500", "134258.167500", "134259.657500", "134301.147500", "134302.637500", "134304.127500", "134305.617500", "134307.107500", "134308.597500", "134310.087500", "134311.577500", "134313.067500", "134314.557500", "134316.047500", "134317.537500", "134319.027500", "134320.517500", "134322.007500", "134323.497500", "134324.987500", "134326.477500"],
      "ContentTime": ["134006.187000", "134006.191000", "134006.195000", "134006.198000", "134006.201000", "134006.205000", "134006.208000", "134006.211000", "134006.215000", "134006.218000", "134006.221000", "134006.224000", "134006.228000", "134006.231000", "134006.234000", "134006.237000", "134006.241000", "134006.244000", "134006.247000", "134006.250000", "134006.254000", "134006.257000", "134006.260000", "134006.263000", "134006.267000", "134006.270000", "134026.144000", "134026.148000", "134026.151000", "134026.154000", "134026.158000", "134026.161000", "134026.164000", "134026.167000", "134026.171000", "134026.174000", "134026.177000", "134026.180000", "134026.184000", "134026.187000", "134026.190000", "134026.193000", "134026.197000", "134026.200000", "134026.203000", "134026.206000", "134026.210000", "134046.143000", "134046.147000", "134046.150000", "134046.153000", "134046.157000", "134046.160000", "134046.163000", "134046.166000", "134046.170000", "134046.173000", "134046.184000", "134046.188000", "134046.191000", "134046.194000", "134046.197000", "134046.201000", "134046.204000", "134046.207000", "134046.210000", "134046.214000", "134106.143000", "134106.147000", "134106.150000", "134106.153000", "134106.157000", "134106.160000", "134106.163000", "134106.166000", "134106.170000", "134106.173000", "134106.176000", "134106.180000", "134106.183000", "134106.186000", "134106.189000", "134106.193000", "134106.196000", "134106.199000", "134106.202000", "134106.206000", "134126.144000", "134126.148000", "134126.151000", "134126.154000", "134126.158000", "134126.161000", "134126.164000", "134126.167000", "134126.171000", "134126.174000", "134126.177000", "134126.180000", "134126.184000", "134126.187000", "134126.190000", "134126.194000", "134126.197000", "134126.200000", "134126.203000", "134126.207000", "134206.144000", "134206.148000", "134206.151000", "134206.164000", "134206.167000", "134206.170000", "134206.174000", "134206.184000", "134206.187000", "134206.191000", "134206.194000", "134206.197000", "134206.201000", "134206.204000", "134206.207000", "134206.210000", "134206.214000", "134206.222000", "134206.226000", "134206.229000", "134206.232000", "134206.236000", "134206.239000", "134206.242000", "134206.245000", "134206.249000", "134206.252000", "134246.144000", "134246.148000", "134246.151000", "134246.155000", "134246.158000", "134246.161000", "134246.164000", "134246.168000", "134246.171000", "134246.174000", "134246.178000", "134246.181000", "134246.184000", "134246.187000", "134246.191000", "134246.194000", "134246.197000", "134246.201000", "134246.204000", "134246.207000", "134246.211000", "134246.214000", "134246.217000", "134246.220000", "134246.224000", "134246.227000", "134246.230000", "134326.143000", "134326.147000", "134326.150000", "134326.153000", "134326.157000", "134326.160000", "134326.163000", "134326.167000", "134326.170000", "134326.173000", "134326.177000", "134326.180000", "134326.183000", "134326.187000", "134326.190000", "134326.193000", "134326.196000", "134326.200000", "134326.203000", "134326.206000", "134326.210000", "134326.213000", "134326.216000", "134326.219000", "134326.223000", "134326.226000", "134326.229000", "134329.144000", "134329.147000"],
      "InstanceCreationTime": ["134006.187000", "134006.191000", "134006.195000", "134006.198000", "134006.201000", "134006.205000", "134006.208000", "134006.211000", "134006.215000", "134006.218000", "134006.221000", "134006.224000", "134006.228000", "134006.231000", "134006.234000", "134006.237000", "134006.241000", "134006.244000", "134006.247000", "134006.250000", "134006.254000", "134006.257000", "134006.260000", "134006.263000", "134006.267000", "134006.270000", "134026.144000", "134026.148000", "134026.151000", "134026.154000", "134026.158000", "134026.161000", "134026.164000", "134026.167000", "134026.171000", "134026.174000", "134026.177000", "134026.180000", "134026.184000", "134026.187000", "134026.190000", "134026.193000", "134026.197000", "134026.200000", "134026.203000", "134026.206000", "134026.210000", "134046.143000", "134046.147000", "134046.150000", "134046.153000", "134046.157000", "134046.160000", "134046.163000", "134046.166000", "134046.170000", "134046.173000", "134046.184000", "134046.188000", "134046.191000", "134046.194000", "134046.197000", "134046.201000", "134046.204000", "134046.207000", "134046.210000", "134046.214000", "134106.143000", "134106.147000", "134106.150000", "134106.153000", "134106.157000", "134106.160000", "134106.163000", "134106.166000", "134106.170000", "134106.173000", "134106.176000", "134106.180000", "134106.183000", "134106.186000", "134106.189000", "134106.193000", "134106.196000", "134106.199000", "134106.202000", "134106.206000", "134126.144000", "134126.148000", "134126.151000", "134126.154000", "134126.158000", "134126.161000", "134126.164000", "134126.167000", "134126.171000", "134126.174000", "134126.177000", "134126.180000", "134126.184000", "134126.187000", "134126.190000", "134126.194000", "134126.197000", "134126.200000", "134126.203000", "134126.207000", "134206.144000", "134206.148000", "134206.151000", "134206.164000", "134206.167000", "134206.170000", "134206.174000", "134206.184000", "134206.187000", "134206.191000", "134206.194000", "134206.197000", "134206.201000", "134206.204000", "134206.207000", "134206.210000", "134206.214000", "134206.222000", "134206.226000", "134206.229000", "134206.232000", "134206.236000", "134206.239000", "134206.242000", "134206.245000", "134206.249000", "134206.252000", "134246.144000", "134246.148000", "134246.151000", "134246.155000", "134246.158000", "134246.161000", "134246.164000", "134246.168000", "134246.171000", "134246.174000", "134246.178000", "134246.181000", "134246.184000", "134246.187000", "134246.191000", "134246.194000", "134246.197000", "134246.201000", "134246.204000", "134246.207000", "134246.211000", "134246.214000", "134246.217000", "134246.220000", "134246.224000", "134246.227000", "134246.230000", "134326.143000", "134326.147000", "134326.150000", "134326.153000", "134326.157000", "134326.160000", "134326.163000", "134326.167000", "134326.170000", "134326.173000", "134326.177000", "134326.180000", "134326.183000", "134326.187000", "134326.190000", "134326.193000", "134326.196000", "134326.200000", "134326.203000", "134326.206000", "134326.210000", "134326.213000", "134326.216000", "134326.219000", "134326.223000", "134326.226000", "134326.229000", "134329.144000", "134329.147000"],
      "InstanceNumber": [1, 2, 3, 4, 5, 6, 7, 8, 9, 10, 11, 12, 13, 14, 15, 16, 17, 18, 19, 20, 21, 22, 23, 24, 25, 26, 27, 28, 29, 30, 31, 32, 33, 34, 35, 36, 37, 38, 39, 40, 41, 42, 43, 44, 45, 46, 47, 48, 49, 50, 51, 52, 53, 54, 55, 56, 57, 58, 59, 60, 61, 62, 63, 64, 65, 66, 67, 68, 69, 70, 71, 72, 73, 74, 75, 76, 77, 78, 79, 80, 81, 82, 83, 84, 85, 86, 87, 88, 89, 90, 91, 92, 93, 94, 95, 96, 97, 98, 99, 100, 101, 102, 103, 104, 105, 106, 107, 108, 109, 110, 111, 112, 113, 114, 115, 116, 117, 118, 119, 120, 121, 122, 123, 124, 125, 126, 127, 128, 129, 130, 131, 132, 133, 134, 135, 136, 137, 138, 139, 140, 141, 142, 143, 144, 145, 146, 147, 148, 149, 150, 151, 152, 153, 154, 155, 156, 157, 158, 159, 160, 161, 162, 163, 164, 165, 166, 167, 168, 169, 170, 171, 172, 173, 174, 175, 176, 177, 178, 179, 180, 181, 182, 183, 184, 185, 186, 187, 188, 189, 190],
      "LargestImagePixelValue": [40278, 38896, 38547, 38188, 38539, 38332, 38307, 38052, 37490, 38160, 37764, 37864, 37970, 37610, 38089, 38188, 37973, 37314, 37499, 37856, 38243, 37988, 37543, 38085, 38034, 37826, 37713, 37991, 37575, 37565, 37875, 38289, 37967, 37655, 37578, 37692, 38293, 38194, 37736, 37700, 37937, 38110, 38531, 37865, 37402, 37908, 38217, 37827, 37433, 38092, 38187, 38130, 37893, 37901, 38002, 38130, 37894, 37908, 37530, 38149, 38322, 37517, 37659, 38098, 38239, 37998, 37948, 37582, 37624, 37991, 37740, 38082, 37696, 37481, 37587, 38051, 38005, 37873, 37437, 37450, 38091, 37660, 37419, 37570, 37553, 37648, 37518, 37539, 37707, 37779, 38319, 37795, 37588, 37727, 37691, 37955, 37556, 37446, 37721, 37526, 37415, 38067, 37723, 37807, 37794, 37871, 37518, 38045, 37779, 37627, 37609, 37761, 37336, 37709, 37330, 37705, 37602, 38198, 37193, 37569, 37568, 37684, 37361, 37323, 37235, 37354, 37849, 37368, 37184, 36756, 37145, 37746, 37667, 37504, 37708, 36604, 37001, 37321, 37343, 37576, 37510, 37662, 37390, 37598, 37443, 37682, 37332, 37021, 37272, 37204, 37548, 37205, 37081, 37578, 37281, 37890, 37504, 37479, 37118, 37045, 36799, 37291, 37269, 37743, 37701, 37726, 37848, 37014, 37194, 36973, 36928, 37387, 37586, 37614, 37221, 36597, 37212, 37290, 37612, 37587, 37589, 37684, 37960, 37465, 37793, 37576, 37394, 36722, 37658, 37706],
      "WindowCenter": [10290.0, 10229.0, 10215.0, 10197.0, 10209.0, 10209.0, 10232.0, 10219.0, 10222.0, 10217.0, 10211.0, 10209.0, 10210.0, 10186.0, 10185.0, 10188.0, 10191.0, 10185.0, 10194.0, 10174.0, 10182.0, 10181.0, 10192.0, 10198.0, 10174.0, 10180.0, 10166.0, 10172.0, 10182.0, 10175.0, 10175.0, 10187.0, 10196.0, 10192.0, 10185.0, 10182.0, 10190.0, 10202.0, 10199.0, 10191.0, 10173.0, 10169.0, 10167.0, 10173.0, 10182.0, 10198.0, 10206.0, 10199.0, 10176.0, 10173.0, 10171.0, 10187.0, 10180.0, 10188.0, 10188.0, 10191.0, 10183.0, 10191.0, 10199.0, 10205.0, 10205.0, 10193.0, 10183.0, 10186.0, 10185.0, 10188.0, 10203.0, 10185.0, 10190.0, 10190.0, 10207.0, 10204.0, 10198.0, 10182.0, 10175.0, 10186.0, 10212.0, 10209.0, 10204.0, 10194.0, 10188.0, 10174.0, 10174.0, 10174.0, 10175.0, 10166.0, 10166.0, 10164.0, 10172.0, 10170.0, 10178.0, 10178.0, 10175.0, 10180.0, 10180.0, 10180.0, 10166.0, 10164.0, 10185.0, 10182.0, 10193.0, 10180.0, 10179.0, 10180.0, 10181.0, 10173.0, 10166.0, 10163.0, 10173.0, 10172.0, 10175.0, 10170.0, 10167.0, 10165.0, 10174.0, 10182.0, 10198.0, 10192.0, 10177.0, 10167.0, 10165.0, 10172.0, 10188.0, 10199.0, 10187.0, 10184.0, 10189.0, 10192.0, 10194.0, 10189.0, 10161.0, 10164.0, 10163.0, 10174.0, 10182.0, 10180.0, 10186.0, 10176.0, 10161.0, 10150.0, 10157.0, 10163.0, 10172.0, 10156.0, 10162.0, 10169.0, 10173.0, 10159.0, 10164.0, 10164.0, 10197.0, 10185.0, 10170.0, 10148.0, 10145.0, 10143.0, 10153.0, 10154.0, 10165.0, 10166.0, 10185.0, 10184.0, 10161.0, 10150.0, 10145.0, 10160.0, 10170.0, 10176.0, 10173.0, 10168.0, 10153.0, 10162.0, 10170.0, 10194.0, 10208.0, 10181.0, 10158.0, 10134.0, 10126.0, 10138.0, 10155.0, 10171.0, 10163.0, 10148.0, 10153.0, 10164.0, 10159.0, 10136.0, 10136.0, 10127.0],
      "WindowWidth": [21958.0, 21796.0, 21752.0, 21703.0, 21723.0, 21721.0, 21774.0, 21746.0, 21755.0, 21738.0, 21724.0, 21717.0, 21723.0, 21665.0, 21665.0, 21668.0, 21678.0, 21667.0, 21687.0, 21637.0, 21656.0, 21654.0, 21680.0, 21694.0, 21636.0, 21649.0, 21619.0, 21633.0, 21656.0, 21643.0, 21641.0, 21664.0, 21687.0, 21681.0, 21665.0, 21655.0, 21673.0, 21697.0, 21693.0, 21677.0, 21633.0, 21623.0, 21616.0, 21637.0, 21660.0, 21694.0, 21709.0, 21694.0, 21643.0, 21634.0, 21628.0, 21666.0, 21650.0, 21668.0, 21670.0, 21676.0, 21659.0, 21678.0, 21694.0, 21707.0, 21706.0, 21681.0, 21658.0, 21663.0, 21658.0, 21667.0, 21700.0, 21665.0, 21675.0, 21674.0, 21714.0, 21706.0, 21692.0, 21655.0, 21640.0, 21662.0, 21723.0, 21720.0, 21710.0, 21682.0, 21665.0, 21634.0, 21638.0, 21636.0, 21639.0, 21618.0, 21616.0, 21610.0, 21630.0, 21625.0, 21641.0, 21641.0, 21638.0, 21647.0, 21646.0, 21648.0, 21618.0, 21613.0, 21657.0, 21655.0, 21679.0, 21646.0, 21644.0, 21647.0, 21651.0, 21631.0, 21616.0, 21609.0, 21631.0, 21629.0, 21637.0, 21623.0, 21621.0, 21615.0, 21636.0, 21653.0, 21689.0, 21675.0, 21643.0, 21618.0, 21614.0, 21628.0, 21666.0, 21692.0, 21665.0, 21656.0, 21665.0, 21676.0, 21681.0, 21672.0, 21605.0, 21608.0, 21607.0, 21636.0, 21654.0, 21654.0, 21662.0, 21638.0, 21604.0, 21578.0, 21593.0, 21607.0, 21626.0, 21590.0, 21601.0, 21618.0, 21630.0, 21599.0, 21607.0, 21610.0, 21684.0, 21657.0, 21624.0, 21571.0, 21564.0, 21557.0, 21585.0, 21588.0, 21613.0, 21614.0, 21660.0, 21655.0, 21603.0, 21575.0, 21562.0, 21596.0, 21622.0, 21641.0, 21632.0, 21622.0, 21587.0, 21602.0, 21619.0, 21677.0, 21711.0, 21650.0, 21594.0, 21539.0, 21516.0, 21550.0, 21588.0, 21624.0, 21604.0, 21570.0, 21578.0, 21604.0, 21594.0, 21544.0, 21539.0, 21519.0]
    },
    "slices": {}
  }
}