{
  "AcquisitionMatrixPE": 104,
  "AcquisitionNumber": 1,
  "AcquisitionTime": "13:44:45.497500",
  "BandwidthPerPixelPhaseEncode": 17.17,
  "BaseResolution": 104,
  "BodyPartExamined": "BRAIN",
  "CoilString": "HC1-7;NC1_2",
  "ConsistencyInfo": "N4_VE11C_LATEST_20160120",
  "ConversionSoftware": "dcm2niix",
  "ConversionSoftwareVersion": "v1.0.20190902",
  "DerivedVendorReportedEchoSpacing": 0.000560011,
  "DeviceSerialNumber": "167006",
  "DwellTime": 2.1e-06,
  "EchoTime": 0.037,
  "EchoTrainLength": 104,
  "EffectiveEchoSpacing": 0.000560011,
  "FlipAngle": 52,
  "ImageComments": "Unaliased_MB4_PE3_LB",
  "ImageOrientationPatientDICOM": [0.999608, 0.0208877, 0.0186663, -0.0167502, 0.979779, -0.199383],
  "ImageType": [
    "ORIGINAL",
    "PRIMARY",
    "M",
    "MB",
    "ND",
    "MOSAIC"
],
  "ImagingFrequency": 123.259,
  "InPlanePhaseEncodingDirectionDICOM": "COL",
  "InstitutionAddress": "Chemin_Queen-Mary_4565_Montreal_District_CA_H3W_1W5",
  "InstitutionName": "IUGM",
  "InstitutionalDepartmentName": "Department",
  "MRAcquisitionType": "2D",
  "MagneticFieldStrength": 3,
  "Manufacturer": "Siemens",
  "ManufacturersModelName": "Prisma_fit",
  "Modality": "MR",
  "MultibandAccelerationFactor": 4,
  "PartialFourier": 1,
  "PatientPosition": "HFS",
  "PercentPhaseFOV": 100,
  "PhaseEncodingDirection": "j",
  "PhaseEncodingSteps": 104,
  "PhaseResolution": 1,
  "PixelBandwidth": 2290,
  "ProcedureStepDescription": "memory_things",
  "ProtocolName": "func_task-things_run-2",
  "PulseSequenceDetails": "%CustomerSeq%_cmrr_mbep2d_bold",
  "ReceiveCoilActiveElements": "HC1-7;NC1,2",
  "ReceiveCoilName": "HeadNeck_64",
  "ReconMatrixPE": 104,
  "RepetitionTime": 1.49,
  "SAR": 0.0479141,
  "ScanOptions": "FS",
  "ScanningSequence": "EP",
  "SequenceName": "epfid2d1_104",
  "SequenceVariant": "SK_SS",
  "SeriesDescription": "func_task-things_run-2",
  "SeriesNumber": 13,
  "ShimSetting": [629, -7221, -8760, 712, 34, -3, 102, -11],
  "SliceThickness": 2,
  "SliceTiming": [0, 0.785, 0.0975, 0.8825, 0.1975, 0.98, 0.295, 1.0775, 0.3925, 1.1775, 0.49, 1.275, 0.5875, 1.3725, 0.6875, 0, 0.785, 0.0975, 0.8825, 0.1975, 0.98, 0.295, 1.0775, 0.3925, 1.1775, 0.49, 1.275, 0.5875, 1.3725, 0.6875, 0, 0.785, 0.0975, 0.8825, 0.1975, 0.98, 0.295, 1.0775, 0.3925, 1.1775, 0.49, 1.275, 0.5875, 1.3725, 0.6875, 0, 0.785, 0.0975, 0.8825, 0.1975, 0.98, 0.295, 1.0775, 0.3925, 1.1775, 0.49, 1.275, 0.5875, 1.3725, 0.6875],
  "SoftwareVersions": "syngo_MR_E11",
  "SpacingBetweenSlices": 2,
  "StationName": "MRC35049",
  "TaskName": "things",
  "TotalReadoutTime": 0.0576811,
  "TxRefAmp": 235.004,
  "WipMemBlock": "87d7b01b-4e45-464a-a2f6-7871c53b9463||Sequence: R016 ve11c/master r/e634e98; Dec 19 2017 11:00:25 by eja",
  "dcmmeta_affine": [
    [-1.9992151260375977, -0.033500369638204575, 0.04490705579519272, 109.66275787353516],
    [-0.04177546501159668, 1.959557056427002, -0.3979833126068115, -76.41864776611328],
    [0.037332676351070404, 0.3987651467323303, 1.959487795829773, -50.747371673583984],
    [0.0, 0.0, 0.0, 1.0]
],
  "dcmmeta_reorient_transform": [
    [0.0, -1.0, 0.0, 103.0],
    [1.0, 0.0, 0.0, 0.0],
    [0.0, 0.0, 1.0, 0.0],
    [0.0, 0.0, 0.0, 1.0]
],
  "dcmmeta_shape": [104, 104, 60, 190],
  "dcmmeta_slice_dim": 2,
  "dcmmeta_version": 0.6,
  "global": {
    "const": {
      "AcquisitionMatrix": [104, 0, 0, 104],
      "AngioFlag": "N",
      "BitsAllocated": 16,
      "BitsStored": 16,
      "BodyPartExamined": "BRAIN",
      "Columns": 832,
      "EchoNumbers": 1,
      "EchoTime": 37.0,
      "EchoTrainLength": 104,
      "FlipAngle": 52.0,
      "HighBit": 15,
      "ImageOrientationPatient": [0.99960755820857, 0.02088773318844, 0.018666338006, -0.0167501840601, 0.97977855711643, -0.1993825728312],
      "ImagePositionPatient": [-821.73239072864, -853.90079670992, 121.88685601349],
      "ImageType": [
        "ORIGINAL",
        "PRIMARY",
        "M",
        "MB",
        "ND",
        "MOSAIC"
],
      "ImagedNucleus": "1H",
      "ImagingFrequency": 123.25897,
      "InPlanePhaseEncodingDirection": "COL",
      "MRAcquisitionType": "2D",
      "MagneticFieldStrength": 3.0,
      "Manufacturer": "SIEMENS",
      "ManufacturerModelName": "Prisma_fit",
      "Modality": "MR",
      "NumberOfAverages": 1.0,
      "NumberOfPhaseEncodingSteps": 104,
      "PercentPhaseFieldOfView": 100.0,
      "PercentSampling": 100.0,
      "PerformedProcedureStepStartTime": "130051.167000",
      "PhotometricInterpretation": "MONOCHROME2",
      "PixelBandwidth": 2290.0,
      "PixelRepresentation": 0,
      "PixelSpacing": [2.0, 2.0],
      "ProtocolName": "func_task-things_run-2",
      "RepetitionTime": 1490.0,
      "Rows": 832,
      "SAR": 0.04791409207917,
      "SamplesPerPixel": 1,
      "ScanOptions": "FS",
      "ScanningSequence": "EP",
      "SequenceName": "epfid2d1_104",
      "SequenceVariant": [
        "SK",
        "SS"
],
      "SeriesDescription": "func_task-things_run-2",
      "SeriesNumber": 13,
      "SeriesTime": "134559.849000",
      "SliceLocation": -32.050441226932,
      "SliceThickness": 2.0,
      "SmallestImagePixelValue": 0,
      "SoftwareVersions": "syngo MR E11",
      "SpacingBetweenSlices": 2.0000000021981,
      "SpecificCharacterSet": "ISO_IR 100",
      "StudyID": "1",
      "StudyTime": "130051.070000",
      "TransmitCoilName": "Body",
      "VariableFlipAngleFlag": "N",
      "WindowCenterWidthExplanation": "Algo1",
      "dBdt": 0.0},
    "slices": {}
  },
  "time": {
    "samples": {
      "AcquisitionNumber": [1, 2, 3, 4, 5, 6, 7, 8, 9, 10, 11, 12, 13, 14, 15, 16, 17, 18, 19, 20, 21, 22, 23, 24, 25, 26, 27, 28, 29, 30, 31, 32, 33, 34, 35, 36, 37, 38, 39, 40, 41, 42, 43, 44, 45, 46, 47, 48, 49, 50, 51, 52, 53, 54, 55, 56, 57, 58, 59, 60, 61, 62, 63, 64, 65, 66, 67, 68, 69, 70, 71, 72, 73, 74, 75, 76, 77, 78, 79, 80, 81, 82, 83, 84, 85, 86, 87, 88, 89, 90, 91, 92, 93, 94, 95, 96, 97, 98, 99, 100, 101, 102, 103, 104, 105, 106, 107, 108, 109, 110, 111, 112, 113, 114, 115, 116, 117, 118, 119, 120, 121, 122, 123, 124, 125, 126, 127, 128, 129, 130, 131, 132, 133, 134, 135, 136, 137, 138, 139, 140, 141, 142, 143, 144, 145, 146, 147, 148, 149, 150, 151, 152, 153, 154, 155, 156, 157, 158, 159, 160, 161, 162, 163, 164, 165, 166, 167, 168, 169, 170, 171, 172, 173, 174, 175, 176, 177, 178, 179, 180, 181, 182, 183, 184, 185, 186, 187, 188, 189, 190],
      "AcquisitionTime": ["134445.497500", "134446.987500", "134448.477500", "134449.967500", "134451.457500", "134452.947500", "134454.437500", "134455.927500", "134457.417500", "134458.907500", "134500.397500", "134501.887500", "134503.377500", "134504.867500", "134506.357500", "134507.847500", "134509.337500", "134510.827500", "134512.317500", "134513.807500", "134515.297500", "134516.787500", "134518.277500", "134519.767500", "134521.257500", "134522.747500", "134524.237500", "134525.727500", "134527.217500", "134528.707500", "134530.197500", "134531.687500", "134533.177500", "134534.667500", "134536.157500", "134537.647500", "134539.137500", "134540.627500", "134542.117500", "134543.607500", "134545.097500", "134546.587500", "134548.077500", "134549.567500", "134551.057500", "134552.547500", "134554.037500", "134555.527500", "134557.017500", "134558.507500", "134559.997500", "134601.487500", "134602.977500", "134604.467500", "134605.957500", "134607.447500", "134608.937500", "134610.427500", "134611.917500", "134613.407500", "134614.897500", "134616.387500", "134617.877500", "134619.367500", "134620.857500", "134622.347500", "134623.837500", "134625.327500", "134626.817500", "134628.307500", "134629.797500", "134631.287500", "134632.777500", "134634.267500", "134635.757500", "134637.247500", "134638.737500", "134640.227500", "134641.717500", "134643.207500", "134644.697500", "134646.187500", "134647.677500", "134649.167500", "134650.657500", "134652.147500", "134653.637500", "134655.127500", "134656.617500", "134658.107500", "134659.597500", "134701.087500", "134702.577500", "134704.067500", "134705.557500", "134707.047500", "134708.537500", "134710.027500", "134711.517500", "134713.007500", "134714.497500", "134715.987500", "134717.477500", "134718.967500", "134720.457500", "134721.947500", "134723.437500", "134724.927500", "134726.417500", "134727.907500", "134729.397500", "134730.887500", "134732.377500", "134733.867500", "134735.357500", "134736.847500", "134738.337500", "134739.827500", "134741.317500", "134742.807500", "134744.297500", "134745.787500", "134747.277500", "134748.767500", "134750.257500", "134751.747500", "134753.237500", "134754.727500", "134756.217500", "134757.707500", "134759.197500", "134800.687500", "134802.177500", "134803.667500", "134805.157500", "134806.647500", "134808.137500", "134809.627500", "134811.117500", "134812.607500", "134814.097500", "134815.587500", "134817.077500", "134818.567500", "134820.057500", "134821.547500", "134823.037500", "134824.527500", "134826.017500", "134827.507500", "134828.997500", "134830.487500", "134831.977500", "134833.467500", "134834.957500", "134836.447500", "134837.937500", "134839.427500", "134840.917500", "134842.407500", "134843.897500", "134845.387500", "134846.877500", "134848.367500", "134849.857500", "134851.347500", "134852.837500", "134854.327500", "134855.817500", "134857.307500", "134858.797500", "134900.287500", "134901.777500", "134903.267500", "134904.757500", "134906.247500", "134907.737500", "134909.227500", "134910.717500", "134912.207500", "134913.697500", "134915.187500", "134916.677500", "134918.167500", "134919.657500", "134921.147500", "134922.637500", "134924.127500", "134925.617500", "134927.107500"],
      "ContentTime": ["134559.852000", "134559.859000", "134559.862000", "134559.866000", "134559.869000", "134559.872000", "134559.876000", "134559.879000", "134559.882000", "134559.886000", "134559.889000", "134559.892000", "134559.896000", "134559.905000", "134559.908000", "134559.911000", "134559.914000", "134559.918000", "134559.921000", "134619.812000", "134619.816000", "134619.819000", "134619.822000", "134619.825000", "134619.829000", "134619.832000", "134619.835000", "134619.839000", "134619.842000", "134619.845000", "134619.848000", "134619.852000", "134619.855000", "134619.874000", "134619.877000", "134619.881000", "134619.884000", "134619.887000", "134619.890000", "134639.812000", "134639.816000", "134639.819000", "134639.822000", "134639.826000", "134639.830000", "134639.834000", "134639.869000", "134639.873000", "134639.876000", "134639.879000", "134639.882000", "134639.886000", "134639.889000", "134639.892000", "134639.895000", "134639.899000", "134639.902000", "134639.905000", "134639.908000", "134659.812000", "134659.816000", "134659.819000", "134659.822000", "134659.825000", "134659.829000", "134659.832000", "134659.835000", "134659.839000", "134659.842000", "134659.845000", "134659.848000", "134659.852000", "134659.855000", "134659.858000", "134659.862000", "134659.865000", "134659.868000", "134659.871000", "134659.875000", "134659.878000", "134719.812000", "134719.816000", "134719.819000", "134719.822000", "134719.825000", "134719.829000", "134719.832000", "134719.835000", "134719.839000", "134719.842000", "134719.845000", "134719.848000", "134719.852000", "134719.855000", "134719.858000", "134719.862000", "134719.865000", "134719.868000", "134719.871000", "134719.875000", "134759.812000", "134759.816000", "134759.819000", "134759.822000", "134759.826000", "134759.829000", "134759.832000", "134759.836000", "134759.839000", "134759.842000", "134759.846000", "134759.849000", "134759.852000", "134759.856000", "134759.859000", "134759.863000", "134759.866000", "134759.869000", "134759.873000", "134759.876000", "134759.879000", "134759.883000", "134759.886000", "134759.889000", "134759.892000", "134759.896000", "134759.899000", "134759.902000", "134759.906000", "134839.812000", "134839.816000", "134839.819000", "134839.822000", "134839.826000", "134839.829000", "134839.832000", "134839.845000", "134839.849000", "134839.852000", "134839.855000", "134839.859000", "134839.862000", "134839.865000", "134839.869000", "134839.872000", "134839.875000", "134839.878000", "134839.882000", "134839.885000", "134839.888000", "134839.892000", "134839.895000", "134839.898000", "134839.902000", "134839.905000", "134839.908000", "134919.812000", "134919.816000", "134919.819000", "134919.822000", "134919.826000", "134919.829000", "134919.832000", "134919.835000", "134919.839000", "134919.842000", "134919.845000", "134919.849000", "134919.852000", "134919.855000", "134919.859000", "134919.862000", "134919.865000", "134919.868000", "134919.872000", "134919.875000", "134919.878000", "134919.882000", "134919.885000", "134919.888000", "134919.891000", "134919.895000", "134919.898000", "134929.739000", "134929.743000", "134929.746000", "134929.749000", "134929.753000", "134929.756000", "134929.760000"],
      "InstanceCreationTime": ["134559.852000", "134559.859000", "134559.862000", "134559.866000", "134559.869000", "134559.872000", "134559.876000", "134559.879000", "134559.882000", "134559.886000", "134559.889000", "134559.892000", "134559.896000", "134559.905000", "134559.908000", "134559.911000", "134559.914000", "134559.918000", "134559.921000", "134619.812000", "134619.816000", "134619.819000", "134619.822000", "134619.825000", "134619.829000", "134619.832000", "134619.835000", "134619.839000", "134619.842000", "134619.845000", "134619.848000", "134619.852000", "134619.855000", "134619.874000", "134619.877000", "134619.881000", "134619.884000", "134619.887000", "134619.890000", "134639.812000", "134639.816000", "134639.819000", "134639.822000", "134639.826000", "134639.830000", "134639.834000", "134639.869000", "134639.873000", "134639.876000", "134639.879000", "134639.882000", "134639.886000", "134639.889000", "134639.892000", "134639.895000", "134639.899000", "134639.902000", "134639.905000", "134639.908000", "134659.812000", "134659.816000", "134659.819000", "134659.822000", "134659.825000", "134659.829000", "134659.832000", "134659.835000", "134659.839000", "134659.842000", "134659.845000", "134659.848000", "134659.852000", "134659.855000", "134659.858000", "134659.862000", "134659.865000", "134659.868000", "134659.871000", "134659.875000", "134659.878000", "134719.812000", "134719.816000", "134719.819000", "134719.822000", "134719.825000", "134719.829000", "134719.832000", "134719.835000", "134719.839000", "134719.842000", "134719.845000", "134719.848000", "134719.852000", "134719.855000", "134719.858000", "134719.862000", "134719.865000", "134719.868000", "134719.871000", "134719.875000", "134759.812000", "134759.816000", "134759.819000", "134759.822000", "134759.826000", "134759.829000", "134759.832000", "134759.836000", "134759.839000", "134759.842000", "134759.846000", "134759.849000", "134759.852000", "134759.856000", "134759.859000", "134759.863000", "134759.866000", "134759.869000", "134759.873000", "134759.876000", "134759.879000", "134759.883000", "134759.886000", "134759.889000", "134759.892000", "134759.896000", "134759.899000", "134759.902000", "134759.906000", "134839.812000", "134839.816000", "134839.819000", "134839.822000", "134839.826000", "134839.829000", "134839.832000", "134839.845000", "134839.849000", "134839.852000", "134839.855000", "134839.859000", "134839.862000", "134839.865000", "134839.869000", "134839.872000", "134839.875000", "134839.878000", "134839.882000", "134839.885000", "134839.888000", "134839.892000", "134839.895000", "134839.898000", "134839.902000", "134839.905000", "134839.908000", "134919.812000", "134919.816000", "134919.819000", "134919.822000", "134919.826000", "134919.829000", "134919.832000", "134919.835000", "134919.839000", "134919.842000", "134919.845000", "134919.849000", "134919.852000", "134919.855000", "134919.859000", "134919.862000", "134919.865000", "134919.868000", "134919.872000", "134919.875000", "134919.878000", "134919.882000", "134919.885000", "134919.888000", "134919.891000", "134919.895000", "134919.898000", "134929.739000", "134929.743000", "134929.746000", "134929.749000", "134929.753000", "134929.756000", "134929.760000"],
      "InstanceNumber": [1, 2, 3, 4, 5, 6, 7, 8, 9, 10, 11, 12, 13, 14, 15, 16, 17, 18, 19, 20, 21, 22, 23, 24, 25, 26, 27, 28, 29, 30, 31, 32, 33, 34, 35, 36, 37, 38, 39, 40, 41, 42, 43, 44, 45, 46, 47, 48, 49, 50, 51, 52, 53, 54, 55, 56, 57, 58, 59, 60, 61, 62, 63, 64, 65, 66, 67, 68, 69, 70, 71, 72, 73, 74, 75, 76, 77, 78, 79, 80, 81, 82, 83, 84, 85, 86, 87, 88, 89, 90, 91, 92, 93, 94, 95, 96, 97, 98, 99, 100, 101, 102, 103, 104, 105, 106, 107, 108, 109, 110, 111, 112, 113, 114, 115, 116, 117, 118, 119, 120, 121, 122, 123, 124, 125, 126, 127, 128, 129, 130, 131, 132, 133, 134, 135, 136, 137, 138, 139, 140, 141, 142, 143, 144, 145, 146, 147, 148, 149, 150, 151, 152, 153, 154, 155, 156, 157, 158, 159, 160, 161, 162, 163, 164, 165, 166, 167, 168, 169, 170, 171, 172, 173, 174, 175, 176, 177, 178, 179, 180, 181, 182, 183, 184, 185, 186, 187, 188, 189, 190],
      "LargestImagePixelValue": [39714, 38877, 38510, 37384, 37606, 37740, 37501, 37197, 37150, 37337, 37428, 37239, 37428, 37615, 37430, 37246, 36914, 37004, 37361, 37428, 36984, 36945, 36952, 37440, 37320, 36825, 37322, 37390, 37540, 37285, 37220, 37002, 37566, 37436, 37531, 36777, 37290, 37318, 37225, 36807, 37433, 37388, 37313, 37360, 37144, 37374, 37594, 37336, 37348, 37223, 37687, 37610, 37310, 36985, 36972, 37616, 36995, 37521, 36998, 37357, 36912, 37229, 37365, 37604, 37212, 36754, 37110, 37569, 37406, 37381, 36969, 37546, 37464, 36902, 37075, 37514, 37070, 36961, 37113, 37589, 37206, 37098, 36892, 36816, 37441, 37274, 37315, 36910, 37143, 37360, 37367, 37433, 36974, 37299, 37283, 37157, 36725, 36896, 36671, 37101, 37400, 37042, 36879, 36892, 37316, 37415, 37398, 36781, 37016, 37036, 37399, 37914, 36961, 36835, 37161, 37251, 37212, 37408, 37038, 36677, 37222, 37383, 37124, 36865, 36812, 37448, 37484, 36837, 37015, 36762, 36782, 36912, 37202, 37078, 37392, 36920, 37093, 36932, 37286, 37275, 37240, 37007, 37028, 37476, 37743, 37167, 37417, 37027, 37558, 37396, 36830, 37311, 36881, 37147, 37513, 37117, 36940, 37155, 37147, 37550, 37289, 37191, 37029, 37362, 36928, 37034, 37010, 37528, 37492, 37169, 37412, 36952, 37409, 37376, 37782, 36821, 37128, 37423, 37214, 37027, 36906, 37042, 36815, 36927, 37554, 36804, 37246, 36815, 36934, 37187],
      "WindowCenter": [10205.0, 10197.0, 10197.0, 10202.0, 10175.0, 10182.0, 10152.0, 10148.0, 10157.0, 10165.0, 10179.0, 10167.0, 10149.0, 10139.0, 10136.0, 10150.0, 10150.0, 10157.0, 10154.0, 10146.0, 10148.0, 10127.0, 10124.0, 10135.0, 10138.0, 10139.0, 10139.0, 10137.0, 10135.0, 10145.0, 10147.0, 10148.0, 10137.0, 10138.0, 10151.0, 10151.0, 10138.0, 10129.0, 10120.0, 10123.0, 10144.0, 10154.0, 10145.0, 10131.0, 10130.0, 10145.0, 10152.0, 10154.0, 10137.0, 10129.0, 10127.0, 10135.0, 10135.0, 10137.0, 10130.0, 10126.0, 10119.0, 10128.0, 10143.0, 10146.0, 10142.0, 10129.0, 10134.0, 10133.0, 10137.0, 10131.0, 10137.0, 10120.0, 10129.0, 10129.0, 10130.0, 10120.0, 10129.0, 10112.0, 10129.0, 10136.0, 10138.0, 10129.0, 10129.0, 10126.0, 10131.0, 10132.0, 10142.0, 10141.0, 10145.0, 10144.0, 10146.0, 10124.0, 10122.0, 10128.0, 10155.0, 10161.0, 10174.0, 10156.0, 10140.0, 10129.0, 10124.0, 10124.0, 10149.0, 10156.0, 10155.0, 10124.0, 10123.0, 10121.0, 10136.0, 10137.0, 10136.0, 10125.0, 10139.0, 10122.0, 10135.0, 10144.0, 10139.0, 10133.0, 10137.0, 10129.0, 10140.0, 10140.0, 10141.0, 10131.0, 10137.0, 10139.0, 10142.0, 10133.0, 10132.0, 10144.0, 10154.0, 10155.0, 10166.0, 10142.0, 10139.0, 10122.0, 10114.0, 10119.0, 10135.0, 10143.0, 10146.0, 10140.0, 10139.0, 10131.0, 10131.0, 10117.0, 10114.0, 10119.0, 10126.0, 10115.0, 10128.0, 10124.0, 10127.0, 10120.0, 10116.0, 10121.0, 10132.0, 10147.0, 10130.0, 10116.0, 10106.0, 10110.0, 10119.0, 10138.0, 10146.0, 10148.0, 10148.0, 10130.0, 10123.0, 10123.0, 10129.0, 10129.0, 10134.0, 10121.0, 10130.0, 10119.0, 10128.0, 10126.0, 10118.0, 10107.0, 10111.0, 10118.0, 10112.0, 10113.0, 10105.0, 10120.0, 10127.0, 10147.0, 10138.0, 10130.0, 10113.0, 10113.0, 10110.0, 10109.0],
      "WindowWidth": [21753.0, 21712.0, 21700.0, 21708.0, 21640.0, 21652.0, 21586.0, 21574.0, 21595.0, 21615.0, 21644.0, 21619.0, 21574.0, 21552.0, 21543.0, 21580.0, 21582.0, 21594.0, 21586.0, 21567.0, 21573.0, 21526.0, 21519.0, 21538.0, 21551.0, 21554.0, 21550.0, 21543.0, 21539.0, 21562.0, 21570.0, 21572.0, 21544.0, 21545.0, 21572.0, 21581.0, 21545.0, 21526.0, 21504.0, 21516.0, 21561.0, 21583.0, 21563.0, 21532.0, 21529.0, 21564.0, 21578.0, 21585.0, 21544.0, 21526.0, 21520.0, 21537.0, 21539.0, 21543.0, 21528.0, 21516.0, 21504.0, 21524.0, 21558.0, 21565.0, 21559.0, 21523.0, 21533.0, 21532.0, 21545.0, 21530.0, 21544.0, 21505.0, 21525.0, 21526.0, 21527.0, 21502.0, 21524.0, 21487.0, 21526.0, 21540.0, 21548.0, 21524.0, 21526.0, 21515.0, 21535.0, 21536.0, 21557.0, 21555.0, 21562.0, 21555.0, 21561.0, 21514.0, 21509.0, 21520.0, 21585.0, 21599.0, 21630.0, 21585.0, 21551.0, 21524.0, 21515.0, 21515.0, 21574.0, 21589.0, 21584.0, 21515.0, 21511.0, 21508.0, 21541.0, 21544.0, 21538.0, 21517.0, 21547.0, 21507.0, 21536.0, 21558.0, 21549.0, 21536.0, 21542.0, 21521.0, 21550.0, 21549.0, 21554.0, 21530.0, 21541.0, 21547.0, 21558.0, 21537.0, 21536.0, 21558.0, 21582.0, 21584.0, 21612.0, 21555.0, 21545.0, 21507.0, 21488.0, 21500.0, 21535.0, 21559.0, 21562.0, 21548.0, 21546.0, 21528.0, 21528.0, 21496.0, 21489.0, 21498.0, 21516.0, 21493.0, 21518.0, 21514.0, 21516.0, 21501.0, 21493.0, 21502.0, 21534.0, 21565.0, 21525.0, 21492.0, 21470.0, 21475.0, 21498.0, 21543.0, 21561.0, 21567.0, 21566.0, 21521.0, 21511.0, 21512.0, 21525.0, 21523.0, 21531.0, 21502.0, 21522.0, 21498.0, 21517.0, 21513.0, 21495.0, 21472.0, 21480.0, 21495.0, 21482.0, 21486.0, 21468.0, 21501.0, 21518.0, 21564.0, 21540.0, 21517.0, 21480.0, 21481.0, 21474.0, 21473.0]
    },
    "slices": {}
  }
}