{
  "AcquisitionMatrixPE": 104,
  "AcquisitionNumber": 1,
  "AcquisitionTime": "14:04:14.087500",
  "BandwidthPerPixelPhaseEncode": 17.17,
  "BaseResolution": 104,
  "BodyPartExamined": "BRAIN",
  "CoilString": "HC1-7;NC1_2",
  "ConsistencyInfo": "N4_VE11C_LATEST_20160120",
  "ConversionSoftware": "dcm2niix",
  "ConversionSoftwareVersion": "v1.0.20190902",
  "DerivedVendorReportedEchoSpacing": 0.000560011,
  "DeviceSerialNumber": "167006",
  "DwellTime": 2.1e-06,
  "EchoTime": 0.037,
  "EchoTrainLength": 104,
  "EffectiveEchoSpacing": 0.000560011,
  "FlipAngle": 52,
  "ImageComments": "Unaliased_MB4_PE3_LB",
  "ImageOrientationPatientDICOM": [0.999608, 0.0208877, 0.0186663, -0.0167502, 0.979779, -0.199383],
  "ImageType": [
    "ORIGINAL",
    "PRIMARY",
    "M",
    "MB",
    "ND",
    "MOSAIC"
],
  "ImagingFrequency": 123.259,
  "InPlanePhaseEncodingDirectionDICOM": "COL",
  "InstitutionAddress": "Chemin_Queen-Mary_4565_Montreal_District_CA_H3W_1W5",
  "InstitutionName": "IUGM",
  "InstitutionalDepartmentName": "Department",
  "MRAcquisitionType": "2D",
  "MagneticFieldStrength": 3,
  "Manufacturer": "Siemens",
  "ManufacturersModelName": "Prisma_fit",
  "Modality": "MR",
  "MultibandAccelerationFactor": 4,
  "PartialFourier": 1,
  "PatientPosition": "HFS",
  "PercentPhaseFOV": 100,
  "PhaseEncodingDirection": "j",
  "PhaseEncodingSteps": 104,
  "PhaseResolution": 1,
  "PixelBandwidth": 2290,
  "ProcedureStepDescription": "memory_things",
  "ProtocolName": "func_task-things_run-5",
  "PulseSequenceDetails": "%CustomerSeq%_cmrr_mbep2d_bold",
  "ReceiveCoilActiveElements": "HC1-7;NC1,2",
  "ReceiveCoilName": "HeadNeck_64",
  "ReconMatrixPE": 104,
  "RepetitionTime": 1.49,
  "SAR": 0.0479141,
  "ScanOptions": "FS",
  "ScanningSequence": "EP",
  "SequenceName": "epfid2d1_104",
  "SequenceVariant": "SK_SS",
  "SeriesDescription": "func_task-things_run-5",
  "SeriesNumber": 22,
  "ShimSetting": [629, -7221, -8760, 712, 34, -3, 102, -11],
  "SliceThickness": 2,
  "SliceTiming": [0, 0.785, 0.1, 0.8825, 0.1975, 0.98, 0.295, 1.0775, 0.3925, 1.1775, 0.49, 1.275, 0.5875, 1.3725, 0.6875, 0, 0.785, 0.1, 0.8825, 0.1975, 0.98, 0.295, 1.0775, 0.3925, 1.1775, 0.49, 1.275, 0.5875, 1.3725, 0.6875, 0, 0.785, 0.1, 0.8825, 0.1975, 0.98, 0.295, 1.0775, 0.3925, 1.1775, 0.49, 1.275, 0.5875, 1.3725, 0.6875, 0, 0.785, 0.1, 0.8825, 0.1975, 0.98, 0.295, 1.0775, 0.3925, 1.1775, 0.49, 1.275, 0.5875, 1.3725, 0.6875],
  "SoftwareVersions": "syngo_MR_E11",
  "SpacingBetweenSlices": 2,
  "StationName": "MRC35049",
  "TaskName": "things",
  "TotalReadoutTime": 0.0576811,
  "TxRefAmp": 235.004,
  "WipMemBlock": "3578e5bd-272a-4a7f-a613-50cd06fd9e06||Sequence: R016 ve11c/master r/e634e98; Dec 19 2017 11:00:25 by eja",
  "dcmmeta_affine": [
    [-1.9992151260375977, -0.033500369638204575, 0.04490705579519272, 109.66275787353516],
    [-0.04177546501159668, 1.959557056427002, -0.3979833126068115, -76.41864776611328],
    [0.037332676351070404, 0.3987651467323303, 1.959487795829773, -50.747371673583984],
    [0.0, 0.0, 0.0, 1.0]
],
  "dcmmeta_reorient_transform": [
    [0.0, -1.0, 0.0, 103.0],
    [1.0, 0.0, 0.0, 0.0],
    [0.0, 0.0, 1.0, 0.0],
    [0.0, 0.0, 0.0, 1.0]
],
  "dcmmeta_shape": [104, 104, 60, 190],
  "dcmmeta_slice_dim": 2,
  "dcmmeta_version": 0.6,
  "global": {
    "const": {
      "AcquisitionMatrix": [104, 0, 0, 104],
      "AngioFlag": "N",
      "BitsAllocated": 16,
      "BitsStored": 16,
      "BodyPartExamined": "BRAIN",
      "Columns": 832,
      "EchoNumbers": 1,
      "EchoTime": 37.0,
      "EchoTrainLength": 104,
      "FlipAngle": 52.0,
      "HighBit": 15,
      "ImageOrientationPatient": [0.99960755820857, 0.02088773318844, 0.018666338006, -0.0167501840601, 0.97977855711643, -0.1993825728312],
      "ImagePositionPatient": [-821.73239072864, -853.90079670992, 121.88685601349],
      "ImageType": [
        "ORIGINAL",
        "PRIMARY",
        "M",
        "MB",
        "ND",
        "MOSAIC"
],
      "ImagedNucleus": "1H",
      "ImagingFrequency": 123.25898,
      "InPlanePhaseEncodingDirection": "COL",
      "MRAcquisitionType": "2D",
      "MagneticFieldStrength": 3.0,
      "Manufacturer": "SIEMENS",
      "ManufacturerModelName": "Prisma_fit",
      "Modality": "MR",
      "NumberOfAverages": 1.0,
      "NumberOfPhaseEncodingSteps": 104,
      "PercentPhaseFieldOfView": 100.0,
      "PercentSampling": 100.0,
      "PerformedProcedureStepStartTime": "130051.167000",
      "PhotometricInterpretation": "MONOCHROME2",
      "PixelBandwidth": 2290.0,
      "PixelRepresentation": 0,
      "PixelSpacing": [2.0, 2.0],
      "ProtocolName": "func_task-things_run-5",
      "RepetitionTime": 1490.0,
      "Rows": 832,
      "SAR": 0.04791409207917,
      "SamplesPerPixel": 1,
      "ScanOptions": "FS",
      "ScanningSequence": "EP",
      "SequenceName": "epfid2d1_104",
      "SequenceVariant": [
        "SK",
        "SS"
],
      "SeriesDescription": "func_task-things_run-5",
      "SeriesNumber": 22,
      "SeriesTime": "140519.844000",
      "SliceLocation": -32.050441226932,
      "SliceThickness": 2.0,
      "SmallestImagePixelValue": 0,
      "SoftwareVersions": "syngo MR E11",
      "SpacingBetweenSlices": 2.0000000021981,
      "SpecificCharacterSet": "ISO_IR 100",
      "StudyID": "1",
      "StudyTime": "130051.070000",
      "TransmitCoilName": "Body",
      "VariableFlipAngleFlag": "N",
      "WindowCenterWidthExplanation": "Algo1",
      "dBdt": 0.0},
    "slices": {}
  },
  "time": {
    "samples": {
      "AcquisitionNumber": [1, 2, 3, 4, 5, 6, 7, 8, 9, 10, 11, 12, 13, 14, 15, 16, 17, 18, 19, 20, 21, 22, 23, 24, 25, 26, 27, 28, 29, 30, 31, 32, 33, 34, 35, 36, 37, 38, 39, 40, 41, 42, 43, 44, 45, 46, 47, 48, 49, 50, 51, 52, 53, 54, 55, 56, 57, 58, 59, 60, 61, 62, 63, 64, 65, 66, 67, 68, 69, 70, 71, 72, 73, 74, 75, 76, 77, 78, 79, 80, 81, 82, 83, 84, 85, 86, 87, 88, 89, 90, 91, 92, 93, 94, 95, 96, 97, 98, 99, 100, 101, 102, 103, 104, 105, 106, 107, 108, 109, 110, 111, 112, 113, 114, 115, 116, 117, 118, 119, 120, 121, 122, 123, 124, 125, 126, 127, 128, 129, 130, 131, 132, 133, 134, 135, 136, 137, 138, 139, 140, 141, 142, 143, 144, 145, 146, 147, 148, 149, 150, 151, 152, 153, 154, 155, 156, 157, 158, 159, 160, 161, 162, 163, 164, 165, 166, 167, 168, 169, 170, 171, 172, 173, 174, 175, 176, 177, 178, 179, 180, 181, 182, 183, 184, 185, 186, 187, 188, 189, 190],
      "AcquisitionTime": ["140414.087500", "140415.577500", "140417.067500", "140418.557500", "140420.047500", "140421.537500", "140423.027500", "140424.517500", "140426.007500", "140427.497500", "140428.987500", "140430.477500", "140431.967500", "140433.457500", "140434.947500", "140436.437500", "140437.927500", "140439.417500", "140440.907500", "140442.397500", "140443.887500", "140445.377500", "140446.867500", "140448.357500", "140449.847500", "140451.337500", "140452.827500", "140454.317500", "140455.807500", "140457.297500", "140458.787500", "140500.277500", "140501.767500", "140503.257500", "140504.747500", "140506.237500", "140507.727500", "140509.217500", "140510.707500", "140512.197500", "140513.687500", "140515.177500", "140516.667500", "140518.157500", "140519.647500", "140521.137500", "140522.627500", "140524.117500", "140525.607500", "140527.097500", "140528.587500", "140530.077500", "140531.567500", "140533.057500", "140534.547500", "140536.037500", "140537.527500", "140539.017500", "140540.507500", "140541.997500", "140543.487500", "140544.977500", "140546.467500", "140547.957500", "140549.447500", "140550.937500", "140552.427500", "140553.917500", "140555.407500", "140556.897500", "140558.387500", "140559.877500", "140601.367500", "140602.857500", "140604.347500", "140605.837500", "140607.327500", "140608.817500", "140610.307500", "140611.797500", "140613.287500", "140614.777500", "140616.267500", "140617.757500", "140619.247500", "140620.737500", "140622.227500", "140623.717500", "140625.207500", "140626.697500", "140628.187500", "140629.677500", "140631.167500", "140632.657500", "140634.147500", "140635.637500", "140637.127500", "140638.617500", "140640.107500", "140641.597500", "140643.087500", "140644.577500", "140646.067500", "140647.557500", "140649.047500", "140650.537500", "140652.027500", "140653.517500", "140655.007500", "140656.497500", "140657.987500", "140659.477500", "140700.967500", "140702.457500", "140703.947500", "140705.437500", "140706.927500", "140708.417500", "140709.907500", "140711.397500", "140712.887500", "140714.377500", "140715.867500", "140717.357500", "140718.847500", "140720.337500", "140721.827500", "140723.317500", "140724.807500", "140726.297500", "140727.787500", "140729.277500", "140730.767500", "140732.257500", "140733.747500", "140735.237500", "140736.727500", "140738.217500", "140739.707500", "140741.197500", "140742.687500", "140744.177500", "140745.667500", "140747.157500", "140748.647500", "140750.137500", "140751.627500", "140753.117500", "140754.607500", "140756.097500", "140757.587500", "140759.077500", "140800.567500", "140802.057500", "140803.547500", "140805.037500", "140806.527500", "140808.017500", "140809.507500", "140810.997500", "140812.487500", "140813.977500", "140815.467500", "140816.957500", "140818.447500", "140819.937500", "140821.427500", "140822.917500", "140824.407500", "140825.897500", "140827.387500", "140828.877500", "140830.367500", "140831.857500", "140833.347500", "140834.837500", "140836.327500", "140837.817500", "140839.307500", "140840.797500", "140842.287500", "140843.777500", "140845.267500", "140846.757500", "140848.247500", "140849.737500", "140851.227500", "140852.717500", "140854.207500", "140855.697500"],
      "ContentTime": ["140519.847000", "140519.851000", "140519.854000", "140519.858000", "140519.863000", "140519.866000", "140519.874000", "140519.877000", "140519.880000", "140519.884000", "140519.887000", "140519.897000", "140539.812000", "140539.816000", "140539.819000", "140539.822000", "140539.825000", "140539.830000", "140539.834000", "140539.837000", "140539.840000", "140539.844000", "140539.847000", "140539.850000", "140539.853000", "140539.857000", "140539.880000", "140539.884000", "140539.887000", "140539.890000", "140539.893000", "140539.897000", "140559.812000", "140559.816000", "140559.819000", "140559.822000", "140559.825000", "140559.829000", "140559.832000", "140559.835000", "140559.839000", "140559.842000", "140559.845000", "140559.849000", "140559.852000", "140559.855000", "140559.859000", "140559.862000", "140559.865000", "140559.868000", "140559.872000", "140559.875000", "140619.812000", "140619.816000", "140619.819000", "140619.822000", "140619.826000", "140619.829000", "140619.832000", "140619.836000", "140619.839000", "140619.842000", "140619.845000", "140619.849000", "140619.852000", "140619.855000", "140619.859000", "140619.862000", "140619.865000", "140619.868000", "140619.872000", "140619.875000", "140639.812000", "140639.816000", "140639.819000", "140639.822000", "140639.826000", "140639.829000", "140639.832000", "140639.836000", "140639.839000", "140639.842000", "140639.845000", "140639.849000", "140639.852000", "140639.855000", "140639.859000", "140639.862000", "140639.865000", "140639.868000", "140639.872000", "140639.875000", "140719.813000", "140719.817000", "140719.820000", "140719.823000", "140719.827000", "140719.830000", "140719.833000", "140719.836000", "140719.840000", "140719.843000", "140719.846000", "140719.850000", "140719.853000", "140719.856000", "140719.860000", "140719.863000", "140719.866000", "140719.870000", "140719.873000", "140719.876000", "140719.880000", "140719.883000", "140719.886000", "140719.890000", "140719.893000", "140719.896000", "140719.899000", "140719.903000", "140719.906000", "140719.909000", "140719.913000", "140759.812000", "140759.816000", "140759.819000", "140759.822000", "140759.826000", "140759.829000", "140759.839000", "140759.843000", "140759.846000", "140759.849000", "140759.853000", "140759.856000", "140759.859000", "140759.862000", "140759.866000", "140759.869000", "140759.872000", "140759.876000", "140759.879000", "140759.882000", "140759.885000", "140759.889000", "140759.892000", "140759.895000", "140759.899000", "140759.902000", "140759.905000", "140839.812000", "140839.822000", "140839.825000", "140839.828000", "140839.832000", "140839.835000", "140839.839000", "140839.842000", "140839.846000", "140839.849000", "140839.852000", "140839.856000", "140839.859000", "140839.863000", "140839.866000", "140839.869000", "140839.873000", "140839.876000", "140839.879000", "140839.882000", "140839.886000", "140839.889000", "140839.892000", "140839.895000", "140839.899000", "140839.902000", "140839.905000", "140858.362000", "140858.366000", "140858.369000", "140858.373000", "140858.376000", "140858.379000", "140858.383000", "140858.386000", "140858.390000", "140858.393000", "140858.396000", "140858.400000", "140858.403000"],
      "InstanceCreationTime": ["140519.847000", "140519.851000", "140519.854000", "140519.858000", "140519.863000", "140519.866000", "140519.874000", "140519.877000", "140519.880000", "140519.884000", "140519.887000", "140519.897000", "140539.812000", "140539.816000", "140539.819000", "140539.822000", "140539.825000", "140539.830000", "140539.834000", "140539.837000", "140539.840000", "140539.844000", "140539.847000", "140539.850000", "140539.853000", "140539.857000", "140539.880000", "140539.884000", "140539.887000", "140539.890000", "140539.893000", "140539.897000", "140559.812000", "140559.816000", "140559.819000", "140559.822000", "140559.825000", "140559.829000", "140559.832000", "140559.835000", "140559.839000", "140559.842000", "140559.845000", "140559.849000", "140559.852000", "140559.855000", "140559.859000", "140559.862000", "140559.865000", "140559.868000", "140559.872000", "140559.875000", "140619.812000", "140619.816000", "140619.819000", "140619.822000", "140619.826000", "140619.829000", "140619.832000", "140619.836000", "140619.839000", "140619.842000", "140619.845000", "140619.849000", "140619.852000", "140619.855000", "140619.859000", "140619.862000", "140619.865000", "140619.868000", "140619.872000", "140619.875000", "140639.812000", "140639.816000", "140639.819000", "140639.822000", "140639.826000", "140639.829000", "140639.832000", "140639.836000", "140639.839000", "140639.842000", "140639.845000", "140639.849000", "140639.852000", "140639.855000", "140639.859000", "140639.862000", "140639.865000", "140639.868000", "140639.872000", "140639.875000", "140719.813000", "140719.817000", "140719.820000", "140719.823000", "140719.827000", "140719.830000", "140719.833000", "140719.836000", "140719.840000", "140719.843000", "140719.846000", "140719.850000", "140719.853000", "140719.856000", "140719.860000", "140719.863000", "140719.866000", "140719.870000", "140719.873000", "140719.876000", "140719.880000", "140719.883000", "140719.886000", "140719.890000", "140719.893000", "140719.896000", "140719.899000", "140719.903000", "140719.906000", "140719.909000", "140719.913000", "140759.812000", "140759.816000", "140759.819000", "140759.822000", "140759.826000", "140759.829000", "140759.839000", "140759.843000", "140759.846000", "140759.849000", "140759.853000", "140759.856000", "140759.859000", "140759.862000", "140759.866000", "140759.869000", "140759.872000", "140759.876000", "140759.879000", "140759.882000", "140759.885000", "140759.889000", "140759.892000", "140759.895000", "140759.899000", "140759.902000", "140759.905000", "140839.812000", "140839.822000", "140839.825000", "140839.828000", "140839.832000", "140839.835000", "140839.839000", "140839.842000", "140839.846000", "140839.849000", "140839.852000", "140839.856000", "140839.859000", "140839.863000", "140839.866000", "140839.869000", "140839.873000", "140839.876000", "140839.879000", "140839.882000", "140839.886000", "140839.889000", "140839.892000", "140839.895000", "140839.899000", "140839.902000", "140839.905000", "140858.362000", "140858.366000", "140858.369000", "140858.373000", "140858.376000", "140858.379000", "140858.383000", "140858.386000", "140858.390000", "140858.393000", "140858.396000", "140858.400000", "140858.403000"],
      "InstanceNumber": [1, 2, 3, 4, 5, 6, 7, 8, 9, 10, 11, 12, 13, 14, 15, 16, 17, 18, 19, 20, 21, 22, 23, 24, 25, 26, 27, 28, 29, 30, 31, 32, 33, 34, 35, 36, 37, 38, 39, 40, 41, 42, 43, 44, 45, 46, 47, 48, 49, 50, 51, 52, 53, 54, 55, 56, 57, 58, 59, 60, 61, 62, 63, 64, 65, 66, 67, 68, 69, 70, 71, 72, 73, 74, 75, 76, 77, 78, 79, 80, 81, 82, 83, 84, 85, 86, 87, 88, 89, 90, 91, 92, 93, 94, 95, 96, 97, 98, 99, 100, 101, 102, 103, 104, 105, 106, 107, 108, 109, 110, 111, 112, 113, 114, 115, 116, 117, 118, 119, 120, 121, 122, 123, 124, 125, 126, 127, 128, 129, 130, 131, 132, 133, 134, 135, 136, 137, 138, 139, 140, 141, 142, 143, 144, 145, 146, 147, 148, 149, 150, 151, 152, 153, 154, 155, 156, 157, 158, 159, 160, 161, 162, 163, 164, 165, 166, 167, 168, 169, 170, 171, 172, 173, 174, 175, 176, 177, 178, 179, 180, 181, 182, 183, 184, 185, 186, 187, 188, 189, 190],
      "LargestImagePixelValue": [39565, 38405, 38114, 37498, 37181, 37308, 37093, 37262, 37224, 36976, 37559, 37484, 37452, 37251, 37142, 37142, 37425, 37017, 37344, 37302, 36872, 37170, 37439, 37055, 37092, 37034, 37100, 36821, 37242, 37031, 37270, 37141, 36801, 37479, 36939, 37258, 37081, 37039, 37083, 37158, 37028, 37311, 37016, 37163, 37005, 37058, 37118, 36878, 37015, 37243, 37288, 37036, 37630, 37243, 37316, 37155, 37252, 37159, 36753, 36675, 36960, 36921, 37306, 36932, 36870, 36786, 36840, 36866, 36776, 36712, 36820, 37178, 36992, 36916, 36666, 37052, 36975, 36944, 36664, 36975, 36984, 37036, 37092, 36891, 37025, 36836, 36871, 37311, 37385, 37297, 36946, 36833, 37229, 36896, 37133, 37242, 37064, 37210, 36845, 37251, 36667, 36760, 36900, 36824, 36968, 36751, 37020, 37267, 36871, 36894, 36926, 36508, 37183, 36677, 36825, 36778, 36909, 36666, 36839, 36777, 37005, 36994, 36761, 37350, 36647, 37069, 37099, 36993, 37312, 37057, 36869, 36968, 37183, 37235, 37008, 37124, 36936, 37235, 37441, 36925, 37115, 36848, 37455, 37078, 36890, 36739, 36848, 36826, 36596, 36796, 36875, 37210, 36827, 37024, 36899, 37019, 37007, 36903, 36858, 36974, 36938, 36856, 36800, 36791, 36991, 37015, 37167, 37101, 37024, 36904, 36921, 36641, 36805, 37178, 36943, 36984, 36758, 36978, 37029, 36918, 37212, 37447, 36787, 37272, 36962, 36926, 36615, 36739, 37254, 37177],
      "WindowCenter": [10189.0, 10154.0, 10154.0, 10162.0, 10137.0, 10118.0, 10102.0, 10091.0, 10098.0, 10098.0, 10100.0, 10097.0, 10115.0, 10116.0, 10117.0, 10107.0, 10108.0, 10099.0, 10099.0, 10098.0, 10094.0, 10081.0, 10079.0, 10081.0, 10098.0, 10099.0, 10098.0, 10084.0, 10097.0, 10097.0, 10115.0, 10091.0, 10081.0, 10068.0, 10078.0, 10088.0, 10104.0, 10097.0, 10097.0, 10097.0, 10085.0, 10083.0, 10081.0, 10077.0, 10081.0, 10079.0, 10079.0, 10073.0, 10085.0, 10087.0, 10102.0, 10096.0, 10092.0, 10073.0, 10070.0, 10078.0, 10088.0, 10089.0, 10083.0, 10082.0, 10094.0, 10091.0, 10097.0, 10088.0, 10089.0, 10089.0, 10096.0, 10092.0, 10099.0, 10082.0, 10074.0, 10070.0, 10078.0, 10080.0, 10104.0, 10098.0, 10100.0, 10091.0, 10091.0, 10095.0, 10104.0, 10107.0, 10096.0, 10090.0, 10098.0, 10090.0, 10092.0, 10096.0, 10078.0, 10079.0, 10083.0, 10081.0, 10090.0, 10084.0, 10081.0, 10074.0, 10071.0, 10079.0, 10082.0, 10079.0, 10080.0, 10081.0, 10089.0, 10097.0, 10107.0, 10102.0, 10098.0, 10089.0, 10089.0, 10091.0, 10101.0, 10095.0, 10106.0, 10091.0, 10099.0, 10094.0, 10099.0, 10077.0, 10074.0, 10064.0, 10086.0, 10095.0, 10099.0, 10091.0, 10075.0, 10063.0, 10069.0, 10077.0, 10098.0, 10083.0, 10092.0, 10089.0, 10081.0, 10089.0, 10091.0, 10091.0, 10075.0, 10072.0, 10086.0, 10076.0, 10081.0, 10080.0, 10078.0, 10091.0, 10090.0, 10089.0, 10083.0, 10091.0, 10085.0, 10100.0, 10091.0, 10082.0, 10064.0, 10053.0, 10054.0, 10081.0, 10083.0, 10098.0, 10091.0, 10107.0, 10073.0, 10075.0, 10073.0, 10083.0, 10097.0, 10082.0, 10073.0, 10070.0, 10088.0, 10097.0, 10104.0, 10093.0, 10077.0, 10073.0, 10072.0, 10078.0, 10091.0, 10106.0, 10083.0, 10077.0, 10075.0, 10087.0, 10091.0, 10091.0, 10083.0, 10083.0, 10086.0, 10076.0, 10064.0, 10046.0],
      "WindowWidth": [21709.0, 21608.0, 21598.0, 21610.0, 21549.0, 21500.0, 21465.0, 21437.0, 21454.0, 21453.0, 21458.0, 21451.0, 21492.0, 21496.0, 21498.0, 21472.0, 21473.0, 21455.0, 21454.0, 21451.0, 21447.0, 21413.0, 21408.0, 21414.0, 21453.0, 21455.0, 21454.0, 21422.0, 21450.0, 21452.0, 21492.0, 21435.0, 21413.0, 21379.0, 21403.0, 21430.0, 21464.0, 21449.0, 21449.0, 21450.0, 21419.0, 21414.0, 21415.0, 21402.0, 21414.0, 21408.0, 21407.0, 21395.0, 21420.0, 21425.0, 21458.0, 21446.0, 21434.0, 21394.0, 21385.0, 21407.0, 21432.0, 21434.0, 21422.0, 21416.0, 21440.0, 21437.0, 21450.0, 21428.0, 21433.0, 21432.0, 21447.0, 21439.0, 21453.0, 21414.0, 21398.0, 21385.0, 21405.0, 21412.0, 21465.0, 21454.0, 21457.0, 21437.0, 21438.0, 21445.0, 21467.0, 21475.0, 21446.0, 21434.0, 21453.0, 21431.0, 21438.0, 21446.0, 21405.0, 21408.0, 21420.0, 21414.0, 21434.0, 21419.0, 21410.0, 21395.0, 21388.0, 21407.0, 21417.0, 21405.0, 21411.0, 21414.0, 21434.0, 21448.0, 21473.0, 21464.0, 21453.0, 21430.0, 21433.0, 21437.0, 21463.0, 21449.0, 21467.0, 21435.0, 21453.0, 21445.0, 21453.0, 21403.0, 21395.0, 21371.0, 21422.0, 21443.0, 21454.0, 21432.0, 21398.0, 21369.0, 21381.0, 21403.0, 21453.0, 21419.0, 21441.0, 21431.0, 21411.0, 21432.0, 21435.0, 21436.0, 21398.0, 21388.0, 21422.0, 21403.0, 21411.0, 21410.0, 21401.0, 21435.0, 21432.0, 21429.0, 21417.0, 21435.0, 21424.0, 21455.0, 21433.0, 21413.0, 21370.0, 21347.0, 21351.0, 21412.0, 21416.0, 21448.0, 21435.0, 21469.0, 21392.0, 21400.0, 21394.0, 21419.0, 21446.0, 21413.0, 21392.0, 21383.0, 21427.0, 21450.0, 21470.0, 21441.0, 21402.0, 21391.0, 21389.0, 21403.0, 21436.0, 21470.0, 21416.0, 21404.0, 21398.0, 21423.0, 21434.0, 21435.0, 21414.0, 21415.0, 21422.0, 21399.0, 21369.0, 21326.0]
    },
    "slices": {}
  }
}