{
  "AcquisitionMatrixPE": 104,
  "AcquisitionNumber": 1,
  "AcquisitionTime": "14:04:14.087500",
  "BandwidthPerPixelPhaseEncode": 17.17,
  "BaseResolution": 104,
  "BodyPartExamined": "BRAIN",
  "CoilString": "HC1-7;NC1_2",
  "ConsistencyInfo": "N4_VE11C_LATEST_20160120",
  "ConversionSoftware": "dcm2niix",
  "ConversionSoftwareVersion": "v1.0.20190902",
  "DerivedVendorReportedEchoSpacing": 0.000560011,
  "DeviceSerialNumber": "167006",
  "DwellTime": 2.1e-06,
  "EchoTime": 0.037,
  "EchoTrainLength": 104,
  "EffectiveEchoSpacing": 0.000560011,
  "FlipAngle": 52,
  "ImageComments": "Unaliased_MB4_PE3_LB",
  "ImageOrientationPatientDICOM": [0.999608, 0.0208877, 0.0186663, -0.0167502, 0.979779, -0.199383],
  "ImageType": [
    "ORIGINAL",
    "PRIMARY",
    "P",
    "MB",
    "ND",
    "MOSAIC"
],
  "ImagingFrequency": 123.259,
  "InPlanePhaseEncodingDirectionDICOM": "COL",
  "InstitutionAddress": "Chemin_Queen-Mary_4565_Montreal_District_CA_H3W_1W5",
  "InstitutionName": "IUGM",
  "InstitutionalDepartmentName": "Department",
  "MRAcquisitionType": "2D",
  "MagneticFieldStrength": 3,
  "Manufacturer": "Siemens",
  "ManufacturersModelName": "Prisma_fit",
  "Modality": "MR",
  "MultibandAccelerationFactor": 4,
  "PartialFourier": 1,
  "PatientPosition": "HFS",
  "PercentPhaseFOV": 100,
  "PhaseEncodingDirection": "j",
  "PhaseEncodingSteps": 104,
  "PhaseResolution": 1,
  "PixelBandwidth": 2290,
  "ProcedureStepDescription": "memory_things",
  "ProtocolName": "func_task-things_run-5",
  "PulseSequenceDetails": "%CustomerSeq%_cmrr_mbep2d_bold",
  "ReceiveCoilActiveElements": "HC1-7;NC1,2",
  "ReceiveCoilName": "HeadNeck_64",
  "ReconMatrixPE": 104,
  "RepetitionTime": 1.49,
  "SAR": 0.0479141,
  "ScanOptions": "FS",
  "ScanningSequence": "EP",
  "SequenceName": "epfid2d1_104",
  "SequenceVariant": "SK_SS",
  "SeriesDescription": "func_task-things_run-5",
  "SeriesNumber": 23,
  "ShimSetting": [629, -7221, -8760, 712, 34, -3, 102, -11],
  "SliceThickness": 2,
  "SliceTiming": [0, 0.785, 0.1, 0.8825, 0.1975, 0.98, 0.295, 1.0775, 0.3925, 1.1775, 0.49, 1.275, 0.5875, 1.3725, 0.6875, 0, 0.785, 0.1, 0.8825, 0.1975, 0.98, 0.295, 1.0775, 0.3925, 1.1775, 0.49, 1.275, 0.5875, 1.3725, 0.6875, 0, 0.785, 0.1, 0.8825, 0.1975, 0.98, 0.295, 1.0775, 0.3925, 1.1775, 0.49, 1.275, 0.5875, 1.3725, 0.6875, 0, 0.785, 0.1, 0.8825, 0.1975, 0.98, 0.295, 1.0775, 0.3925, 1.1775, 0.49, 1.275, 0.5875, 1.3725, 0.6875],
  "SoftwareVersions": "syngo_MR_E11",
  "SpacingBetweenSlices": 2,
  "StationName": "MRC35049",
  "TaskName": "things",
  "TotalReadoutTime": 0.0576811,
  "TxRefAmp": 235.004,
  "WipMemBlock": "3578e5bd-272a-4a7f-a613-50cd06fd9e06||Sequence: R016 ve11c/master r/e634e98; Dec 19 2017 11:00:25 by eja",
  "dcmmeta_affine": [
    [-1.9992151260375977, -0.033500369638204575, 0.04490705579519272, 109.66275787353516],
    [-0.04177546501159668, 1.959557056427002, -0.3979833126068115, -76.41864776611328],
    [0.037332676351070404, 0.3987651467323303, 1.959487795829773, -50.747371673583984],
    [0.0, 0.0, 0.0, 1.0]
],
  "dcmmeta_reorient_transform": [
    [0.0, -1.0, 0.0, 103.0],
    [1.0, 0.0, 0.0, 0.0],
    [0.0, 0.0, 1.0, 0.0],
    [0.0, 0.0, 0.0, 1.0]
],
  "dcmmeta_shape": [104, 104, 60, 190],
  "dcmmeta_slice_dim": 2,
  "dcmmeta_version": 0.6,
  "global": {
    "const": {
      "AcquisitionMatrix": [104, 0, 0, 104],
      "AngioFlag": "N",
      "BitsAllocated": 16,
      "BitsStored": 16,
      "BodyPartExamined": "BRAIN",
      "Columns": 832,
      "EchoNumbers": 1,
      "EchoTime": 37.0,
      "EchoTrainLength": 104,
      "FlipAngle": 52.0,
      "HighBit": 15,
      "ImageOrientationPatient": [0.99960755820857, 0.02088773318844, 0.018666338006, -0.0167501840601, 0.97977855711643, -0.1993825728312],
      "ImagePositionPatient": [-821.73239072864, -853.90079670992, 121.88685601349],
      "ImageType": [
        "ORIGINAL",
        "PRIMARY",
        "P",
        "MB",
        "ND",
        "MOSAIC"
],
      "ImagedNucleus": "1H",
      "ImagingFrequency": 123.25898,
      "InPlanePhaseEncodingDirection": "COL",
      "LargestImagePixelValue": 4095,
      "MRAcquisitionType": "2D",
      "MagneticFieldStrength": 3.0,
      "Manufacturer": "SIEMENS",
      "ManufacturerModelName": "Prisma_fit",
      "Modality": "MR",
      "NumberOfAverages": 1.0,
      "NumberOfPhaseEncodingSteps": 104,
      "PercentPhaseFieldOfView": 100.0,
      "PercentSampling": 100.0,
      "PerformedProcedureStepStartTime": "130051.167000",
      "PhotometricInterpretation": "MONOCHROME2",
      "PixelBandwidth": 2290.0,
      "PixelRepresentation": 0,
      "PixelSpacing": [2.0, 2.0],
      "ProtocolName": "func_task-things_run-5",
      "RepetitionTime": 1490.0,
      "RescaleIntercept": -4096.0,
      "RescaleSlope": 2.0,
      "RescaleType": "US",
      "Rows": 832,
      "SAR": 0.04791409207917,
      "SamplesPerPixel": 1,
      "ScanOptions": "FS",
      "ScanningSequence": "EP",
      "SequenceName": "epfid2d1_104",
      "SequenceVariant": [
        "SK",
        "SS"
],
      "SeriesDescription": "func_task-things_run-5",
      "SeriesNumber": 23,
      "SeriesTime": "140519.936000",
      "SliceLocation": -32.050441226932,
      "SliceThickness": 2.0,
      "SmallestImagePixelValue": 0,
      "SoftwareVersions": "syngo MR E11",
      "SpacingBetweenSlices": 2.0000000021981,
      "SpecificCharacterSet": "ISO_IR 100",
      "StudyID": "1",
      "StudyTime": "130051.070000",
      "TransmitCoilName": "Body",
      "VariableFlipAngleFlag": "N",
      "WindowCenterWidthExplanation": "Algo1",
      "dBdt": 0.0},
    "slices": {}
  },
  "time": {
    "samples": {
      "AcquisitionNumber": [1, 2, 3, 4, 5, 6, 7, 8, 9, 10, 11, 12, 13, 14, 15, 16, 17, 18, 19, 20, 21, 22, 23, 24, 25, 26, 27, 28, 29, 30, 31, 32, 33, 34, 35, 36, 37, 38, 39, 40, 41, 42, 43, 44, 45, 46, 47, 48, 49, 50, 51, 52, 53, 54, 55, 56, 57, 58, 59, 60, 61, 62, 63, 64, 65, 66, 67, 68, 69, 70, 71, 72, 73, 74, 75, 76, 77, 78, 79, 80, 81, 82, 83, 84, 85, 86, 87, 88, 89, 90, 91, 92, 93, 94, 95, 96, 97, 98, 99, 100, 101, 102, 103, 104, 105, 106, 107, 108, 109, 110, 111, 112, 113, 114, 115, 116, 117, 118, 119, 120, 121, 122, 123, 124, 125, 126, 127, 128, 129, 130, 131, 132, 133, 134, 135, 136, 137, 138, 139, 140, 141, 142, 143, 144, 145, 146, 147, 148, 149, 150, 151, 152, 153, 154, 155, 156, 157, 158, 159, 160, 161, 162, 163, 164, 165, 166, 167, 168, 169, 170, 171, 172, 173, 174, 175, 176, 177, 178, 179, 180, 181, 182, 183, 184, 185, 186, 187, 188, 189, 190],
      "AcquisitionTime": ["140414.087500", "140415.577500", "140417.067500", "140418.557500", "140420.047500", "140421.537500", "140423.027500", "140424.517500", "140426.007500", "140427.497500", "140428.987500", "140430.477500", "140431.967500", "140433.457500", "140434.947500", "140436.437500", "140437.927500", "140439.417500", "140440.907500", "140442.397500", "140443.887500", "140445.377500", "140446.867500", "140448.357500", "140449.847500", "140451.337500", "140452.827500", "140454.317500", "140455.807500", "140457.297500", "140458.787500", "140500.277500", "140501.767500", "140503.257500", "140504.747500", "140506.237500", "140507.727500", "140509.217500", "140510.707500", "140512.197500", "140513.687500", "140515.177500", "140516.667500", "140518.157500", "140519.647500", "140521.137500", "140522.627500", "140524.117500", "140525.607500", "140527.097500", "140528.587500", "140530.077500", "140531.567500", "140533.057500", "140534.547500", "140536.037500", "140537.527500", "140539.017500", "140540.507500", "140541.997500", "140543.487500", "140544.977500", "140546.467500", "140547.957500", "140549.447500", "140550.937500", "140552.427500", "140553.917500", "140555.407500", "140556.897500", "140558.387500", "140559.877500", "140601.367500", "140602.857500", "140604.347500", "140605.837500", "140607.327500", "140608.817500", "140610.307500", "140611.797500", "140613.287500", "140614.777500", "140616.267500", "140617.757500", "140619.247500", "140620.737500", "140622.227500", "140623.717500", "140625.207500", "140626.697500", "140628.187500", "140629.677500", "140631.167500", "140632.657500", "140634.147500", "140635.637500", "140637.127500", "140638.617500", "140640.107500", "140641.597500", "140643.087500", "140644.577500", "140646.067500", "140647.557500", "140649.047500", "140650.537500", "140652.027500", "140653.517500", "140655.007500", "140656.497500", "140657.987500", "140659.477500", "140700.967500", "140702.457500", "140703.947500", "140705.437500", "140706.927500", "140708.417500", "140709.907500", "140711.397500", "140712.887500", "140714.377500", "140715.867500", "140717.357500", "140718.847500", "140720.337500", "140721.827500", "140723.317500", "140724.807500", "140726.297500", "140727.787500", "140729.277500", "140730.767500", "140732.257500", "140733.747500", "140735.237500", "140736.727500", "140738.217500", "140739.707500", "140741.197500", "140742.687500", "140744.177500", "140745.667500", "140747.157500", "140748.647500", "140750.137500", "140751.627500", "140753.117500", "140754.607500", "140756.097500", "140757.587500", "140759.077500", "140800.567500", "140802.057500", "140803.547500", "140805.037500", "140806.527500", "140808.017500", "140809.507500", "140810.997500", "140812.487500", "140813.977500", "140815.467500", "140816.957500", "140818.447500", "140819.937500", "140821.427500", "140822.917500", "140824.407500", "140825.897500", "140827.387500", "140828.877500", "140830.367500", "140831.857500", "140833.347500", "140834.837500", "140836.327500", "140837.817500", "140839.307500", "140840.797500", "140842.287500", "140843.777500", "140845.267500", "140846.757500", "140848.247500", "140849.737500", "140851.227500", "140852.717500", "140854.207500", "140855.697500"],
      "ContentTime": ["140519.938000", "140519.941000", "140519.944000", "140519.946000", "140519.948000", "140519.951000", "140519.953000", "140519.956000", "140519.958000", "140519.961000", "140519.963000", "140519.966000", "140540.364000", "140540.367000", "140540.369000", "140540.372000", "140540.374000", "140540.377000", "140540.379000", "140540.381000", "140540.384000", "140540.386000", "140540.389000", "140540.391000", "140540.394000", "140540.396000", "140540.399000", "140540.401000", "140540.404000", "140540.406000", "140540.409000", "140540.411000", "140559.918000", "140559.920000", "140559.923000", "140559.925000", "140559.928000", "140559.930000", "140559.933000", "140559.935000", "140559.938000", "140559.940000", "140559.943000", "140559.945000", "140559.948000", "140559.950000", "140559.953000", "140559.955000", "140559.958000", "140559.960000", "140559.963000", "140559.965000", "140619.917000", "140619.919000", "140619.922000", "140619.924000", "140619.927000", "140619.929000", "140619.932000", "140619.934000", "140619.937000", "140619.939000", "140619.942000", "140619.944000", "140619.947000", "140619.949000", "140619.952000", "140619.954000", "140619.956000", "140619.959000", "140619.961000", "140619.964000", "140639.927000", "140639.930000", "140639.933000", "140639.935000", "140639.938000", "140639.940000", "140639.942000", "140639.945000", "140639.947000", "140639.950000", "140639.952000", "140639.955000", "140639.957000", "140639.960000", "140639.962000", "140639.964000", "140639.967000", "140639.969000", "140639.972000", "140639.974000", "140719.970000", "140719.973000", "140719.976000", "140719.978000", "140719.980000", "140719.983000", "140719.986000", "140719.988000", "140719.991000", "140719.993000", "140719.996000", "140719.998000", "140720.001000", "140720.003000", "140720.005000", "140720.008000", "140720.010000", "140720.013000", "140720.015000", "140720.018000", "140720.020000", "140720.023000", "140720.025000", "140720.028000", "140720.030000", "140720.033000", "140720.035000", "140720.038000", "140720.040000", "140720.043000", "140720.045000", "140759.955000", "140759.958000", "140759.961000", "140759.963000", "140759.966000", "140759.968000", "140759.971000", "140759.973000", "140759.976000", "140759.978000", "140759.980000", "140759.983000", "140759.985000", "140759.988000", "140759.990000", "140759.993000", "140759.995000", "140759.998000", "140800.000000", "140800.003000", "140800.005000", "140800.008000", "140800.010000", "140800.013000", "140800.015000", "140800.017000", "140800.020000", "140839.969000", "140839.971000", "140839.974000", "140839.976000", "140839.979000", "140839.981000", "140839.983000", "140839.986000", "140839.989000", "140839.991000", "140839.994000", "140839.996000", "140840.000000", "140840.002000", "140840.004000", "140840.007000", "140840.009000", "140840.012000", "140840.014000", "140840.017000", "140840.019000", "140840.022000", "140840.024000", "140840.027000", "140840.029000", "140840.032000", "140840.034000", "140858.455000", "140858.458000", "140858.461000", "140858.463000", "140858.466000", "140858.468000", "140858.471000", "140858.473000", "140858.476000", "140858.478000", "140858.481000", "140858.483000", "140858.486000"],
      "InstanceCreationTime": ["140519.938000", "140519.941000", "140519.944000", "140519.946000", "140519.948000", "140519.951000", "140519.953000", "140519.956000", "140519.958000", "140519.961000", "140519.963000", "140519.966000", "140540.364000", "140540.367000", "140540.369000", "140540.372000", "140540.374000", "140540.377000", "140540.379000", "140540.381000", "140540.384000", "140540.386000", "140540.389000", "140540.391000", "140540.394000", "140540.396000", "140540.399000", "140540.401000", "140540.404000", "140540.406000", "140540.409000", "140540.411000", "140559.918000", "140559.920000", "140559.923000", "140559.925000", "140559.928000", "140559.930000", "140559.933000", "140559.935000", "140559.938000", "140559.940000", "140559.943000", "140559.945000", "140559.948000", "140559.950000", "140559.953000", "140559.955000", "140559.958000", "140559.960000", "140559.963000", "140559.965000", "140619.917000", "140619.919000", "140619.922000", "140619.924000", "140619.927000", "140619.929000", "140619.932000", "140619.934000", "140619.937000", "140619.939000", "140619.942000", "140619.944000", "140619.947000", "140619.949000", "140619.952000", "140619.954000", "140619.956000", "140619.959000", "140619.961000", "140619.964000", "140639.927000", "140639.930000", "140639.933000", "140639.935000", "140639.938000", "140639.940000", "140639.942000", "140639.945000", "140639.947000", "140639.950000", "140639.952000", "140639.955000", "140639.957000", "140639.960000", "140639.962000", "140639.964000", "140639.967000", "140639.969000", "140639.972000", "140639.974000", "140719.970000", "140719.973000", "140719.976000", "140719.978000", "140719.980000", "140719.983000", "140719.986000", "140719.988000", "140719.991000", "140719.993000", "140719.996000", "140719.998000", "140720.001000", "140720.003000", "140720.005000", "140720.008000", "140720.010000", "140720.013000", "140720.015000", "140720.018000", "140720.020000", "140720.023000", "140720.025000", "140720.028000", "140720.030000", "140720.033000", "140720.035000", "140720.038000", "140720.040000", "140720.043000", "140720.045000", "140759.955000", "140759.958000", "140759.961000", "140759.963000", "140759.966000", "140759.968000", "140759.971000", "140759.973000", "140759.976000", "140759.978000", "140759.980000", "140759.983000", "140759.985000", "140759.988000", "140759.990000", "140759.993000", "140759.995000", "140759.998000", "140800.000000", "140800.003000", "140800.005000", "140800.008000", "140800.010000", "140800.013000", "140800.015000", "140800.017000", "140800.020000", "140839.969000", "140839.971000", "140839.974000", "140839.976000", "140839.979000", "140839.981000", "140839.983000", "140839.986000", "140839.989000", "140839.991000", "140839.994000", "140839.996000", "140840.000000", "140840.002000", "140840.004000", "140840.007000", "140840.009000", "140840.012000", "140840.014000", "140840.017000", "140840.019000", "140840.022000", "140840.024000", "140840.027000", "140840.029000", "140840.032000", "140840.034000", "140858.455000", "140858.458000", "140858.461000", "140858.463000", "140858.466000", "140858.468000", "140858.471000", "140858.473000", "140858.476000", "140858.478000", "140858.481000", "140858.483000", "140858.486000"],
      "InstanceNumber": [1, 2, 3, 4, 5, 6, 7, 8, 9, 10, 11, 12, 13, 14, 15, 16, 17, 18, 19, 20, 21, 22, 23, 24, 25, 26, 27, 28, 29, 30, 31, 32, 33, 34, 35, 36, 37, 38, 39, 40, 41, 42, 43, 44, 45, 46, 47, 48, 49, 50, 51, 52, 53, 54, 55, 56, 57, 58, 59, 60, 61, 62, 63, 64, 65, 66, 67, 68, 69, 70, 71, 72, 73, 74, 75, 76, 77, 78, 79, 80, 81, 82, 83, 84, 85, 86, 87, 88, 89, 90, 91, 92, 93, 94, 95, 96, 97, 98, 99, 100, 101, 102, 103, 104, 105, 106, 107, 108, 109, 110, 111, 112, 113, 114, 115, 116, 117, 118, 119, 120, 121, 122, 123, 124, 125, 126, 127, 128, 129, 130, 131, 132, 133, 134, 135, 136, 137, 138, 139, 140, 141, 142, 143, 144, 145, 146, 147, 148, 149, 150, 151, 152, 153, 154, 155, 156, 157, 158, 159, 160, 161, 162, 163, 164, 165, 166, 167, 168, 169, 170, 171, 172, 173, 174, 175, 176, 177, 178, 179, 180, 181, 182, 183, 184, 185, 186, 187, 188, 189, 190],
      "WindowCenter": [4770.0, 4774.0, 4770.0, 4770.0, 4770.0, 4770.0, 4768.0, 4768.0, 4768.0, 4768.0, 4768.0, 4792.0, 4768.0, 4770.0, 4770.0, 4768.0, 4770.0, 4770.0, 4772.0, 4770.0, 4770.0, 4768.0, 4772.0, 4792.0, 4792.0, 4794.0, 4772.0, 4770.0, 4770.0, 4768.0, 4766.0, 4770.0, 4770.0, 4770.0, 4770.0, 4770.0, 4770.0, 4772.0, 4772.0, 4768.0, 4766.0, 4768.0, 4768.0, 4770.0, 4770.0, 4768.0, 4766.0, 4770.0, 4770.0, 4770.0, 4772.0, 4766.0, 4768.0, 4772.0, 4770.0, 4768.0, 4770.0, 4768.0, 4768.0, 4770.0, 4770.0, 4768.0, 4768.0, 4768.0, 4770.0, 4770.0, 4766.0, 4766.0, 4772.0, 4794.0, 4770.0, 4766.0, 4770.0, 4772.0, 4768.0, 4770.0, 4768.0, 4770.0, 4768.0, 4768.0, 4766.0, 4768.0, 4772.0, 4768.0, 4770.0, 4770.0, 4770.0, 4764.0, 4764.0, 4768.0, 4772.0, 4772.0, 4768.0, 4772.0, 4770.0, 4770.0, 4770.0, 4772.0, 4772.0, 4794.0, 4766.0, 4772.0, 4768.0, 4768.0, 4768.0, 4768.0, 4770.0, 4768.0, 4770.0, 4770.0, 4768.0, 4770.0, 4770.0, 4766.0, 4768.0, 4770.0, 4772.0, 4766.0, 4768.0, 4770.0, 4768.0, 4770.0, 4770.0, 4768.0, 4768.0, 4766.0, 4772.0, 4770.0, 4770.0, 4770.0, 4772.0, 4772.0, 4770.0, 4762.0, 4768.0, 4770.0, 4768.0, 4770.0, 4770.0, 4768.0, 4770.0, 4768.0, 4768.0, 4768.0, 4772.0, 4770.0, 4768.0, 4768.0, 4772.0, 4770.0, 4770.0, 4766.0, 4768.0, 4768.0, 4770.0, 4768.0, 4770.0, 4770.0, 4794.0, 4772.0, 4770.0, 4766.0, 4770.0, 4770.0, 4770.0, 4770.0, 4766.0, 4770.0, 4764.0, 4774.0, 4768.0, 4770.0, 4768.0, 4772.0, 4770.0, 4768.0, 4768.0, 4770.0, 4768.0, 4766.0, 4768.0, 4768.0, 4766.0, 4772.0, 4766.0, 4770.0, 4768.0, 4792.0, 4766.0, 4768.0],
      "WindowWidth": [18582.0, 18582.0, 18578.0, 18582.0, 18580.0, 18580.0, 18576.0, 18578.0, 18582.0, 18580.0, 18580.0, 18608.0, 18580.0, 18580.0, 18584.0, 18580.0, 18586.0, 18578.0, 18580.0, 18582.0, 18582.0, 18576.0, 18584.0, 18610.0, 18610.0, 18612.0, 18580.0, 18582.0, 18582.0, 18578.0, 18574.0, 18586.0, 18582.0, 18580.0, 18582.0, 18582.0, 18584.0, 18582.0, 18582.0, 18578.0, 18574.0, 18580.0, 18584.0, 18584.0, 18582.0, 18580.0, 18574.0, 18580.0, 18582.0, 18586.0, 18582.0, 18580.0, 18578.0, 18578.0, 18578.0, 18582.0, 18586.0, 18578.0, 18576.0, 18580.0, 18578.0, 18580.0, 18582.0, 18580.0, 18580.0, 18582.0, 18576.0, 18578.0, 18580.0, 18612.0, 18582.0, 18578.0, 18578.0, 18580.0, 18584.0, 18582.0, 18582.0, 18584.0, 18578.0, 18578.0, 18576.0, 18582.0, 18576.0, 18578.0, 18578.0, 18580.0, 18582.0, 18574.0, 18576.0, 18582.0, 18582.0, 18584.0, 18580.0, 18580.0, 18582.0, 18582.0, 18578.0, 18580.0, 18580.0, 18614.0, 18576.0, 18582.0, 18582.0, 18580.0, 18576.0, 18574.0, 18580.0, 18580.0, 18584.0, 18586.0, 18584.0, 18580.0, 18578.0, 18576.0, 18580.0, 18584.0, 18586.0, 18578.0, 18582.0, 18586.0, 18580.0, 18580.0, 18580.0, 18580.0, 18578.0, 18574.0, 18582.0, 18582.0, 18580.0, 18580.0, 18584.0, 18588.0, 18580.0, 18578.0, 18582.0, 18584.0, 18580.0, 18582.0, 18580.0, 18578.0, 18578.0, 18582.0, 18574.0, 18578.0, 18584.0, 18580.0, 18578.0, 18580.0, 18582.0, 18584.0, 18580.0, 18578.0, 18584.0, 18578.0, 18584.0, 18580.0, 18578.0, 18582.0, 18612.0, 18586.0, 18578.0, 18578.0, 18582.0, 18582.0, 18584.0, 18580.0, 18576.0, 18582.0, 18574.0, 18584.0, 18576.0, 18582.0, 18578.0, 18584.0, 18582.0, 18580.0, 18580.0, 18580.0, 18580.0, 18578.0, 18576.0, 18576.0, 18580.0, 18582.0, 18578.0, 18582.0, 18582.0, 18614.0, 18576.0, 18580.0]
    },
    "slices": {}
  }
}