{
  "AcquisitionMatrixPE": 104,
  "AcquisitionNumber": 1,
  "AcquisitionTime": "13:38:44.867500",
  "BandwidthPerPixelPhaseEncode": 17.17,
  "BaseResolution": 104,
  "BodyPartExamined": "BRAIN",
  "CoilString": "HC1-7;NC1_2",
  "ConsistencyInfo": "N4_VE11C_LATEST_20160120",
  "ConversionSoftware": "dcm2niix",
  "ConversionSoftwareVersion": "v1.0.20190902",
  "DerivedVendorReportedEchoSpacing": 0.000560011,
  "DeviceSerialNumber": "167006",
  "DwellTime": 2.1e-06,
  "EchoTime": 0.037,
  "EchoTrainLength": 104,
  "EffectiveEchoSpacing": 0.000560011,
  "FlipAngle": 52,
  "ImageComments": "Unaliased_MB4_PE3_LB",
  "ImageOrientationPatientDICOM": [0.999608, 0.0208877, 0.0186663, -0.0167502, 0.979779, -0.199383],
  "ImageType": [
    "ORIGINAL",
    "PRIMARY",
    "P",
    "MB",
    "ND",
    "MOSAIC"
],
  "ImagingFrequency": 123.259,
  "InPlanePhaseEncodingDirectionDICOM": "COL",
  "InstitutionAddress": "Chemin_Queen-Mary_4565_Montreal_District_CA_H3W_1W5",
  "InstitutionName": "IUGM",
  "InstitutionalDepartmentName": "Department",
  "MRAcquisitionType": "2D",
  "MagneticFieldStrength": 3,
  "Manufacturer": "Siemens",
  "ManufacturersModelName": "Prisma_fit",
  "Modality": "MR",
  "MultibandAccelerationFactor": 4,
  "PartialFourier": 1,
  "PatientPosition": "HFS",
  "PercentPhaseFOV": 100,
  "PhaseEncodingDirection": "j",
  "PhaseEncodingSteps": 104,
  "PhaseResolution": 1,
  "PixelBandwidth": 2290,
  "ProcedureStepDescription": "memory_things",
  "ProtocolName": "func_task-things_run-1",
  "PulseSequenceDetails": "%CustomerSeq%_cmrr_mbep2d_bold",
  "ReceiveCoilActiveElements": "HC1-7;NC1,2",
  "ReceiveCoilName": "HeadNeck_64",
  "ReconMatrixPE": 104,
  "RepetitionTime": 1.49,
  "SAR": 0.0479141,
  "ScanOptions": "FS",
  "ScanningSequence": "EP",
  "SequenceName": "epfid2d1_104",
  "SequenceVariant": "SK_SS",
  "SeriesDescription": "func_task-things_run-1",
  "SeriesNumber": 11,
  "ShimSetting": [629, -7221, -8760, 712, 34, -3, 102, -11],
  "SliceThickness": 2,
  "SliceTiming": [0, 0.785, 0.1, 0.8825, 0.1975, 0.98, 0.295, 1.08, 0.3925, 1.1775, 0.49, 1.275, 0.59, 1.3725, 0.6875, 0, 0.785, 0.1, 0.8825, 0.1975, 0.98, 0.295, 1.08, 0.3925, 1.1775, 0.49, 1.275, 0.59, 1.3725, 0.6875, 0, 0.785, 0.1, 0.8825, 0.1975, 0.98, 0.295, 1.08, 0.3925, 1.1775, 0.49, 1.275, 0.59, 1.3725, 0.6875, 0, 0.785, 0.1, 0.8825, 0.1975, 0.98, 0.295, 1.08, 0.3925, 1.1775, 0.49, 1.275, 0.59, 1.3725, 0.6875],
  "SoftwareVersions": "syngo_MR_E11",
  "SpacingBetweenSlices": 2,
  "StationName": "MRC35049",
  "TaskName": "things",
  "TotalReadoutTime": 0.0576811,
  "TxRefAmp": 235.004,
  "WipMemBlock": "493832d0-9cf2-4dc1-9436-47b42e7b5d2a||Sequence: R016 ve11c/master r/e634e98; Dec 19 2017 11:00:25 by eja",
  "dcmmeta_affine": [
    [-1.9992151260375977, -0.033500369638204575, 0.04490705579519272, 109.66275787353516],
    [-0.04177546501159668, 1.959557056427002, -0.3979833126068115, -76.41864776611328],
    [0.037332676351070404, 0.3987651467323303, 1.959487795829773, -50.747371673583984],
    [0.0, 0.0, 0.0, 1.0]
],
  "dcmmeta_reorient_transform": [
    [0.0, -1.0, 0.0, 103.0],
    [1.0, 0.0, 0.0, 0.0],
    [0.0, 0.0, 1.0, 0.0],
    [0.0, 0.0, 0.0, 1.0]
],
  "dcmmeta_shape": [104, 104, 60, 190],
  "dcmmeta_slice_dim": 2,
  "dcmmeta_version": 0.6,
  "global": {
    "const": {
      "AcquisitionMatrix": [104, 0, 0, 104],
      "AngioFlag": "N",
      "BitsAllocated": 16,
      "BitsStored": 16,
      "BodyPartExamined": "BRAIN",
      "Columns": 832,
      "EchoNumbers": 1,
      "EchoTime": 37.0,
      "EchoTrainLength": 104,
      "FlipAngle": 52.0,
      "HighBit": 15,
      "ImageOrientationPatient": [0.99960755820857, 0.02088773318844, 0.018666338006, -0.0167501840601, 0.97977855711643, -0.1993825728312],
      "ImagePositionPatient": [-821.73239072864, -853.90079670992, 121.88685601349],
      "ImageType": [
        "ORIGINAL",
        "PRIMARY",
        "P",
        "MB",
        "ND",
        "MOSAIC"
],
      "ImagedNucleus": "1H",
      "ImagingFrequency": 123.258964,
      "InPlanePhaseEncodingDirection": "COL",
      "LargestImagePixelValue": 4095,
      "MRAcquisitionType": "2D",
      "MagneticFieldStrength": 3.0,
      "Manufacturer": "SIEMENS",
      "ManufacturerModelName": "Prisma_fit",
      "Modality": "MR",
      "NumberOfAverages": 1.0,
      "NumberOfPhaseEncodingSteps": 104,
      "PercentPhaseFieldOfView": 100.0,
      "PercentSampling": 100.0,
      "PerformedProcedureStepStartTime": "130051.167000",
      "PhotometricInterpretation": "MONOCHROME2",
      "PixelBandwidth": 2290.0,
      "PixelRepresentation": 0,
      "PixelSpacing": [2.0, 2.0],
      "ProtocolName": "func_task-things_run-1",
      "RepetitionTime": 1490.0,
      "RescaleIntercept": -4096.0,
      "RescaleSlope": 2.0,
      "RescaleType": "US",
      "Rows": 832,
      "SAR": 0.04791409207917,
      "SamplesPerPixel": 1,
      "ScanOptions": "FS",
      "ScanningSequence": "EP",
      "SequenceName": "epfid2d1_104",
      "SequenceVariant": [
        "SK",
        "SS"
],
      "SeriesDescription": "func_task-things_run-1",
      "SeriesNumber": 11,
      "SeriesTime": "134006.323000",
      "SliceLocation": -32.050441226932,
      "SliceThickness": 2.0,
      "SmallestImagePixelValue": 0,
      "SoftwareVersions": "syngo MR E11",
      "SpacingBetweenSlices": 2.0000000021981,
      "SpecificCharacterSet": "ISO_IR 100",
      "StudyID": "1",
      "StudyTime": "130051.070000",
      "TransmitCoilName": "Body",
      "VariableFlipAngleFlag": "N",
      "WindowCenterWidthExplanation": "Algo1",
      "dBdt": 0.0},
    "slices": {}
  },
  "time": {
    "samples": {
      "AcquisitionNumber": [1, 2, 3, 4, 5, 6, 7, 8, 9, 10, 11, 12, 13, 14, 15, 16, 17, 18, 19, 20, 21, 22, 23, 24, 25, 26, 27, 28, 29, 30, 31, 32, 33, 34, 35, 36, 37, 38, 39, 40, 41, 42, 43, 44, 45, 46, 47, 48, 49, 50, 51, 52, 53, 54, 55, 56, 57, 58, 59, 60, 61, 62, 63, 64, 65, 66, 67, 68, 69, 70, 71, 72, 73, 74, 75, 76, 77, 78, 79, 80, 81, 82, 83, 84, 85, 86, 87, 88, 89, 90, 91, 92, 93, 94, 95, 96, 97, 98, 99, 100, 101, 102, 103, 104, 105, 106, 107, 108, 109, 110, 111, 112, 113, 114, 115, 116, 117, 118, 119, 120, 121, 122, 123, 124, 125, 126, 127, 128, 129, 130, 131, 132, 133, 134, 135, 136, 137, 138, 139, 140, 141, 142, 143, 144, 145, 146, 147, 148, 149, 150, 151, 152, 153, 154, 155, 156, 157, 158, 159, 160, 161, 162, 163, 164, 165, 166, 167, 168, 169, 170, 171, 172, 173, 174, 175, 176, 177, 178, 179, 180, 181, 182, 183, 184, 185, 186, 187, 188, 189, 190],
      "AcquisitionTime": ["133844.867500", "133846.357500", "133847.847500", "133849.337500", "133850.827500", "133852.317500", "133853.807500", "133855.297500", "133856.787500", "133858.277500", "133859.767500", "133901.257500", "133902.747500", "133904.237500", "133905.727500", "133907.217500", "133908.707500", "133910.197500", "133911.687500", "133913.177500", "133914.667500", "133916.157500", "133917.647500", "133919.137500", "133920.627500", "133922.117500", "133923.607500", "133925.097500", "133926.587500", "133928.077500", "133929.567500", "133931.057500", "133932.547500", "133934.037500", "133935.527500", "133937.017500", "133938.507500", "133939.997500", "133941.487500", "133942.977500", "133944.467500", "133945.957500", "133947.447500", "133948.937500", "133950.427500", "133951.917500", "133953.407500", "133954.897500", "133956.387500", "133957.877500", "133959.367500", "134000.857500", "134002.347500", "134003.837500", "134005.327500", "134006.817500", "134008.307500", "134009.797500", "134011.287500", "134012.777500", "134014.267500", "134015.757500", "134017.247500", "134018.737500", "134020.227500", "134021.717500", "134023.207500", "134024.697500", "134026.187500", "134027.677500", "134029.167500", "134030.657500", "134032.147500", "134033.637500", "134035.127500", "134036.617500", "134038.107500", "134039.597500", "134041.087500", "134042.577500", "134044.067500", "134045.557500", "134047.047500", "134048.537500", "134050.027500", "134051.517500", "134053.007500", "134054.497500", "134055.987500", "134057.477500", "134058.967500", "134100.457500", "134101.947500", "134103.437500", "134104.927500", "134106.417500", "134107.907500", "134109.397500", "134110.887500", "134112.377500", "134113.867500", "134115.357500", "134116.847500", "134118.337500", "134119.827500", "134121.317500", "134122.807500", "134124.297500", "134125.787500", "134127.277500", "134128.767500", "134130.257500", "134131.747500", "134133.237500", "134134.727500", "134136.217500", "134137.707500", "134139.197500", "134140.687500", "134142.177500", "134143.667500", "134145.157500", "134146.647500", "134148.137500", "134149.627500", "134151.117500", "134152.607500", "134154.097500", "134155.587500", "134157.077500", "134158.567500", "134200.057500", "134201.547500", "134203.037500", "134204.527500", "134206.017500", "134207.507500", "134208.997500", "134210.487500", "134211.977500", "134213.467500", "134214.957500", "134216.447500", "134217.937500", "134219.427500", "134220.917500", "134222.407500", "134223.897500", "134225.387500", "134226.877500", "134228.367500", "134229.857500", "134231.347500", "134232.837500", "134234.327500", "134235.817500", "134237.307500", "134238.797500", "134240.287500", "134241.777500", "134243.267500", "134244.757500", "134246.247500", "134247.737500", "134249.227500", "134250.717500", "134252.207500", "134253.697500", "134255.187500", "134256.677500", "134258.167500", "134259.657500", "134301.147500", "134302.637500", "134304.127500", "134305.617500", "134307.107500", "134308.597500", "134310.087500", "134311.577500", "134313.067500", "134314.557500", "134316.047500", "134317.537500", "134319.027500", "134320.517500", "134322.007500", "134323.497500", "134324.987500", "134326.477500"],
      "ContentTime": ["134006.325000", "134006.328000", "134006.334000", "134006.337000", "134006.339000", "134006.342000", "134006.344000", "134006.347000", "134006.349000", "134006.352000", "134006.354000", "134006.357000", "134006.359000", "134006.361000", "134006.364000", "134006.366000", "134006.369000", "134006.384000", "134006.386000", "134006.389000", "134006.391000", "134006.394000", "134006.396000", "134006.398000", "134006.401000", "134006.403000", "134026.266000", "134026.268000", "134026.271000", "134026.273000", "134026.276000", "134026.278000", "134026.281000", "134026.289000", "134026.292000", "134026.294000", "134026.297000", "134026.299000", "134026.302000", "134026.304000", "134026.306000", "134026.309000", "134026.311000", "134026.314000", "134026.316000", "134026.319000", "134026.321000", "134046.259000", "134046.261000", "134046.264000", "134046.266000", "134046.269000", "134046.271000", "134046.274000", "134046.276000", "134046.279000", "134046.281000", "134046.284000", "134046.286000", "134046.288000", "134046.291000", "134046.293000", "134046.296000", "134046.298000", "134046.301000", "134046.303000", "134046.306000", "134106.258000", "134106.261000", "134106.263000", "134106.265000", "134106.268000", "134106.270000", "134106.280000", "134106.283000", "134106.285000", "134106.288000", "134106.290000", "134106.293000", "134106.295000", "134106.298000", "134106.300000", "134106.303000", "134106.305000", "134106.307000", "134106.310000", "134106.312000", "134126.262000", "134126.265000", "134126.268000", "134126.270000", "134126.273000", "134126.275000", "134126.278000", "134126.280000", "134126.282000", "134126.285000", "134126.287000", "134126.290000", "134126.292000", "134126.295000", "134126.297000", "134126.300000", "134126.302000", "134126.305000", "134126.313000", "134126.316000", "134206.316000", "134206.318000", "134206.321000", "134206.323000", "134206.326000", "134206.328000", "134206.331000", "134206.333000", "134206.336000", "134206.338000", "134206.341000", "134206.343000", "134206.345000", "134206.348000", "134206.356000", "134206.359000", "134206.361000", "134206.364000", "134206.366000", "134206.369000", "134206.371000", "134206.374000", "134206.376000", "134206.379000", "134206.381000", "134206.384000", "134206.386000", "134246.283000", "134246.286000", "134246.288000", "134246.291000", "134246.293000", "134246.296000", "134246.298000", "134246.301000", "134246.303000", "134246.306000", "134246.308000", "134246.311000", "134246.313000", "134246.315000", "134246.318000", "134246.320000", "134246.323000", "134246.325000", "134246.328000", "134246.330000", "134246.333000", "134246.335000", "134246.338000", "134246.340000", "134246.343000", "134246.345000", "134246.348000", "134326.285000", "134326.288000", "134326.290000", "134326.293000", "134326.295000", "134326.298000", "134326.300000", "134326.303000", "134326.305000", "134326.308000", "134326.310000", "134326.313000", "134326.315000", "134326.318000", "134326.320000", "134326.323000", "134326.325000", "134326.328000", "134326.330000", "134326.333000", "134326.335000", "134326.338000", "134326.340000", "134326.343000", "134326.345000", "134326.348000", "134326.350000", "134329.172000", "134329.174000"],
      "InstanceCreationTime": ["134006.325000", "134006.328000", "134006.334000", "134006.337000", "134006.339000", "134006.342000", "134006.344000", "134006.347000", "134006.349000", "134006.352000", "134006.354000", "134006.357000", "134006.359000", "134006.361000", "134006.364000", "134006.366000", "134006.369000", "134006.384000", "134006.386000", "134006.389000", "134006.391000", "134006.394000", "134006.396000", "134006.398000", "134006.401000", "134006.403000", "134026.266000", "134026.268000", "134026.271000", "134026.273000", "134026.276000", "134026.278000", "134026.281000", "134026.289000", "134026.292000", "134026.294000", "134026.297000", "134026.299000", "134026.302000", "134026.304000", "134026.306000", "134026.309000", "134026.311000", "134026.314000", "134026.316000", "134026.319000", "134026.321000", "134046.259000", "134046.261000", "134046.264000", "134046.266000", "134046.269000", "134046.271000", "134046.274000", "134046.276000", "134046.279000", "134046.281000", "134046.284000", "134046.286000", "134046.288000", "134046.291000", "134046.293000", "134046.296000", "134046.298000", "134046.301000", "134046.303000", "134046.306000", "134106.258000", "134106.261000", "134106.263000", "134106.265000", "134106.268000", "134106.270000", "134106.280000", "134106.283000", "134106.285000", "134106.288000", "134106.290000", "134106.293000", "134106.295000", "134106.298000", "134106.300000", "134106.303000", "134106.305000", "134106.307000", "134106.310000", "134106.312000", "134126.262000", "134126.265000", "134126.268000", "134126.270000", "134126.273000", "134126.275000", "134126.278000", "134126.280000", "134126.282000", "134126.285000", "134126.287000", "134126.290000", "134126.292000", "134126.295000", "134126.297000", "134126.300000", "134126.302000", "134126.305000", "134126.313000", "134126.316000", "134206.316000", "134206.318000", "134206.321000", "134206.323000", "134206.326000", "134206.328000", "134206.331000", "134206.333000", "134206.336000", "134206.338000", "134206.341000", "134206.343000", "134206.345000", "134206.348000", "134206.356000", "134206.359000", "134206.361000", "134206.364000", "134206.366000", "134206.369000", "134206.371000", "134206.374000", "134206.376000", "134206.379000", "134206.381000", "134206.384000", "134206.386000", "134246.283000", "134246.286000", "134246.288000", "134246.291000", "134246.293000", "134246.296000", "134246.298000", "134246.301000", "134246.303000", "134246.306000", "134246.308000", "134246.311000", "134246.313000", "134246.315000", "134246.318000", "134246.320000", "134246.323000", "134246.325000", "134246.328000", "134246.330000", "134246.333000", "134246.335000", "134246.338000", "134246.340000", "134246.343000", "134246.345000", "134246.348000", "134326.285000", "134326.288000", "134326.290000", "134326.293000", "134326.295000", "134326.298000", "134326.300000", "134326.303000", "134326.305000", "134326.308000", "134326.310000", "134326.313000", "134326.315000", "134326.318000", "134326.320000", "134326.323000", "134326.325000", "134326.328000", "134326.330000", "134326.333000", "134326.335000", "134326.338000", "134326.340000", "134326.343000", "134326.345000", "134326.348000", "134326.350000", "134329.172000", "134329.174000"],
      "InstanceNumber": [1, 2, 3, 4, 5, 6, 7, 8, 9, 10, 11, 12, 13, 14, 15, 16, 17, 18, 19, 20, 21, 22, 23, 24, 25, 26, 27, 28, 29, 30, 31, 32, 33, 34, 35, 36, 37, 38, 39, 40, 41, 42, 43, 44, 45, 46, 47, 48, 49, 50, 51, 52, 53, 54, 55, 56, 57, 58, 59, 60, 61, 62, 63, 64, 65, 66, 67, 68, 69, 70, 71, 72, 73, 74, 75, 76, 77, 78, 79, 80, 81, 82, 83, 84, 85, 86, 87, 88, 89, 90, 91, 92, 93, 94, 95, 96, 97, 98, 99, 100, 101, 102, 103, 104, 105, 106, 107, 108, 109, 110, 111, 112, 113, 114, 115, 116, 117, 118, 119, 120, 121, 122, 123, 124, 125, 126, 127, 128, 129, 130, 131, 132, 133, 134, 135, 136, 137, 138, 139, 140, 141, 142, 143, 144, 145, 146, 147, 148, 149, 150, 151, 152, 153, 154, 155, 156, 157, 158, 159, 160, 161, 162, 163, 164, 165, 166, 167, 168, 169, 170, 171, 172, 173, 174, 175, 176, 177, 178, 179, 180, 181, 182, 183, 184, 185, 186, 187, 188, 189, 190],
      "WindowCenter": [4774.0, 4752.0, 4752.0, 4752.0, 4750.0, 4752.0, 4754.0, 4776.0, 4750.0, 4752.0, 4774.0, 4752.0, 4752.0, 4774.0, 4754.0, 4754.0, 4752.0, 4752.0, 4754.0, 4752.0, 4756.0, 4752.0, 4754.0, 4754.0, 4756.0, 4756.0, 4776.0, 4754.0, 4754.0, 4756.0, 4754.0, 4752.0, 4754.0, 4776.0, 4754.0, 4752.0, 4752.0, 4756.0, 4754.0, 4756.0, 4752.0, 4754.0, 4754.0, 4758.0, 4754.0, 4756.0, 4750.0, 4752.0, 4754.0, 4754.0, 4754.0, 4756.0, 4752.0, 4754.0, 4752.0, 4754.0, 4754.0, 4754.0, 4752.0, 4758.0, 4752.0, 4754.0, 4752.0, 4754.0, 4754.0, 4756.0, 4752.0, 4756.0, 4756.0, 4754.0, 4756.0, 4754.0, 4754.0, 4750.0, 4752.0, 4752.0, 4752.0, 4756.0, 4754.0, 4778.0, 4754.0, 4756.0, 4754.0, 4780.0, 4754.0, 4750.0, 4752.0, 4752.0, 4756.0, 4756.0, 4754.0, 4754.0, 4756.0, 4780.0, 4754.0, 4754.0, 4750.0, 4780.0, 4754.0, 4756.0, 4756.0, 4756.0, 4752.0, 4756.0, 4756.0, 4752.0, 4752.0, 4752.0, 4754.0, 4756.0, 4758.0, 4754.0, 4754.0, 4776.0, 4756.0, 4754.0, 4758.0, 4756.0, 4750.0, 4754.0, 4756.0, 4756.0, 4752.0, 4756.0, 4756.0, 4758.0, 4756.0, 4754.0, 4756.0, 4778.0, 4758.0, 4754.0, 4754.0, 4756.0, 4752.0, 4756.0, 4756.0, 4756.0, 4756.0, 4754.0, 4754.0, 4756.0, 4752.0, 4750.0, 4754.0, 4754.0, 4754.0, 4756.0, 4754.0, 4756.0, 4754.0, 4754.0, 4780.0, 4754.0, 4760.0, 4756.0, 4758.0, 4758.0, 4758.0, 4754.0, 4756.0, 4752.0, 4756.0, 4756.0, 4780.0, 4756.0, 4754.0, 4756.0, 4752.0, 4754.0, 4756.0, 4756.0, 4756.0, 4758.0, 4752.0, 4754.0, 4754.0, 4752.0, 4756.0, 4758.0, 4756.0, 4756.0, 4756.0, 4754.0, 4756.0, 4750.0, 4752.0, 4754.0, 4756.0, 4754.0],
      "WindowWidth": [18564.0, 18536.0, 18538.0, 18538.0, 18534.0, 18536.0, 18538.0, 18574.0, 18534.0, 18540.0, 18568.0, 18538.0, 18536.0, 18570.0, 18540.0, 18534.0, 18538.0, 18536.0, 18540.0, 18542.0, 18540.0, 18544.0, 18536.0, 18538.0, 18542.0, 18538.0, 18572.0, 18536.0, 18540.0, 18536.0, 18540.0, 18538.0, 18536.0, 18568.0, 18542.0, 18538.0, 18538.0, 18538.0, 18540.0, 18540.0, 18536.0, 18540.0, 18536.0, 18542.0, 18540.0, 18542.0, 18540.0, 18536.0, 18540.0, 18536.0, 18538.0, 18540.0, 18540.0, 18536.0, 18536.0, 18536.0, 18540.0, 18540.0, 18534.0, 18542.0, 18536.0, 18540.0, 18532.0, 18540.0, 18538.0, 18540.0, 18540.0, 18542.0, 18538.0, 18534.0, 18540.0, 18538.0, 18536.0, 18540.0, 18538.0, 18540.0, 18534.0, 18538.0, 18536.0, 18574.0, 18538.0, 18538.0, 18536.0, 18570.0, 18540.0, 18538.0, 18536.0, 18538.0, 18536.0, 18538.0, 18540.0, 18538.0, 18540.0, 18572.0, 18540.0, 18544.0, 18530.0, 18568.0, 18536.0, 18544.0, 18538.0, 18536.0, 18532.0, 18538.0, 18540.0, 18538.0, 18530.0, 18538.0, 18538.0, 18540.0, 18538.0, 18536.0, 18536.0, 18570.0, 18540.0, 18538.0, 18542.0, 18536.0, 18528.0, 18540.0, 18538.0, 18538.0, 18534.0, 18540.0, 18534.0, 18536.0, 18538.0, 18540.0, 18544.0, 18572.0, 18540.0, 18536.0, 18542.0, 18538.0, 18534.0, 18540.0, 18536.0, 18542.0, 18540.0, 18538.0, 18540.0, 18538.0, 18536.0, 18538.0, 18532.0, 18538.0, 18534.0, 18542.0, 18536.0, 18540.0, 18538.0, 18540.0, 18568.0, 18540.0, 18538.0, 18538.0, 18536.0, 18542.0, 18538.0, 18538.0, 18536.0, 18536.0, 18540.0, 18536.0, 18572.0, 18534.0, 18538.0, 18538.0, 18532.0, 18536.0, 18538.0, 18536.0, 18538.0, 18542.0, 18538.0, 18536.0, 18538.0, 18532.0, 18542.0, 18542.0, 18536.0, 18536.0, 18542.0, 18536.0, 18538.0, 18534.0, 18534.0, 18542.0, 18536.0, 18536.0]
    },
    "slices": {}
  }
}