{
  "AcquisitionMatrixPE": 104,
  "AcquisitionNumber": 1,
  "AcquisitionTime": "13:51:4.590000",
  "BandwidthPerPixelPhaseEncode": 17.17,
  "BaseResolution": 104,
  "BodyPartExamined": "BRAIN",
  "CoilString": "HC1-7;NC1_2",
  "ConsistencyInfo": "N4_VE11C_LATEST_20160120",
  "ConversionSoftware": "dcm2niix",
  "ConversionSoftwareVersion": "v1.0.20190902",
  "DerivedVendorReportedEchoSpacing": 0.000560011,
  "DeviceSerialNumber": "167006",
  "DwellTime": 2.1e-06,
  "EchoTime": 0.037,
  "EchoTrainLength": 104,
  "EffectiveEchoSpacing": 0.000560011,
  "FlipAngle": 52,
  "ImageComments": "Unaliased_MB4_PE3_LB",
  "ImageOrientationPatientDICOM": [0.999608, 0.0208877, 0.0186663, -0.0167502, 0.979779, -0.199383],
  "ImageType": [
    "ORIGINAL",
    "PRIMARY",
    "P",
    "MB",
    "ND",
    "MOSAIC"
],
  "ImagingFrequency": 123.259,
  "InPlanePhaseEncodingDirectionDICOM": "COL",
  "InstitutionAddress": "Chemin_Queen-Mary_4565_Montreal_District_CA_H3W_1W5",
  "InstitutionName": "IUGM",
  "InstitutionalDepartmentName": "Department",
  "MRAcquisitionType": "2D",
  "MagneticFieldStrength": 3,
  "Manufacturer": "Siemens",
  "ManufacturersModelName": "Prisma_fit",
  "Modality": "MR",
  "MultibandAccelerationFactor": 4,
  "PartialFourier": 1,
  "PatientPosition": "HFS",
  "PercentPhaseFOV": 100,
  "PhaseEncodingDirection": "j",
  "PhaseEncodingSteps": 104,
  "PhaseResolution": 1,
  "PixelBandwidth": 2290,
  "ProcedureStepDescription": "memory_things",
  "ProtocolName": "func_task-things_run-3",
  "PulseSequenceDetails": "%CustomerSeq%_cmrr_mbep2d_bold",
  "ReceiveCoilActiveElements": "HC1-7;NC1,2",
  "ReceiveCoilName": "HeadNeck_64",
  "ReconMatrixPE": 104,
  "RepetitionTime": 1.49,
  "SAR": 0.0479141,
  "ScanOptions": "FS",
  "ScanningSequence": "EP",
  "SequenceName": "epfid2d1_104",
  "SequenceVariant": "SK_SS",
  "SeriesDescription": "func_task-things_run-3",
  "SeriesNumber": 17,
  "ShimSetting": [629, -7221, -8760, 712, 34, -3, 102, -11],
  "SliceThickness": 2,
  "SliceTiming": [0, 0.7825, 0.0975, 0.88, 0.195, 0.98, 0.2925, 1.0775, 0.39, 1.175, 0.49, 1.2725, 0.5875, 1.37, 0.685, 0, 0.7825, 0.0975, 0.88, 0.195, 0.98, 0.2925, 1.0775, 0.39, 1.175, 0.49, 1.2725, 0.5875, 1.37, 0.685, 0, 0.7825, 0.0975, 0.88, 0.195, 0.98, 0.2925, 1.0775, 0.39, 1.175, 0.49, 1.2725, 0.5875, 1.37, 0.685, 0, 0.7825, 0.0975, 0.88, 0.195, 0.98, 0.2925, 1.0775, 0.39, 1.175, 0.49, 1.2725, 0.5875, 1.37, 0.685],
  "SoftwareVersions": "syngo_MR_E11",
  "SpacingBetweenSlices": 2,
  "StationName": "MRC35049",
  "TaskName": "things",
  "TotalReadoutTime": 0.0576811,
  "TxRefAmp": 235.004,
  "WipMemBlock": "e37ec781-44d6-4622-8b4b-7fe6f7f95c5f||Sequence: R016 ve11c/master r/e634e98; Dec 19 2017 11:00:25 by eja",
  "dcmmeta_affine": [
    [-1.9992151260375977, -0.033500369638204575, 0.04490705579519272, 109.66275787353516],
    [-0.04177546501159668, 1.959557056427002, -0.3979833126068115, -76.41864776611328],
    [0.037332676351070404, 0.3987651467323303, 1.959487795829773, -50.747371673583984],
    [0.0, 0.0, 0.0, 1.0]
],
  "dcmmeta_reorient_transform": [
    [0.0, -1.0, 0.0, 103.0],
    [1.0, 0.0, 0.0, 0.0],
    [0.0, 0.0, 1.0, 0.0],
    [0.0, 0.0, 0.0, 1.0]
],
  "dcmmeta_shape": [104, 104, 60, 190],
  "dcmmeta_slice_dim": 2,
  "dcmmeta_version": 0.6,
  "global": {
    "const": {
      "AcquisitionMatrix": [104, 0, 0, 104],
      "AngioFlag": "N",
      "BitsAllocated": 16,
      "BitsStored": 16,
      "BodyPartExamined": "BRAIN",
      "Columns": 832,
      "EchoNumbers": 1,
      "EchoTime": 37.0,
      "EchoTrainLength": 104,
      "FlipAngle": 52.0,
      "HighBit": 15,
      "ImageOrientationPatient": [0.99960755820857, 0.02088773318844, 0.018666338006, -0.0167501840601, 0.97977855711643, -0.1993825728312],
      "ImagePositionPatient": [-821.73239072864, -853.90079670992, 121.88685601349],
      "ImageType": [
        "ORIGINAL",
        "PRIMARY",
        "P",
        "MB",
        "ND",
        "MOSAIC"
],
      "ImagedNucleus": "1H",
      "ImagingFrequency": 123.258974,
      "InPlanePhaseEncodingDirection": "COL",
      "LargestImagePixelValue": 4095,
      "MRAcquisitionType": "2D",
      "MagneticFieldStrength": 3.0,
      "Manufacturer": "SIEMENS",
      "ManufacturerModelName": "Prisma_fit",
      "Modality": "MR",
      "NumberOfAverages": 1.0,
      "NumberOfPhaseEncodingSteps": 104,
      "PercentPhaseFieldOfView": 100.0,
      "PercentSampling": 100.0,
      "PerformedProcedureStepStartTime": "130051.167000",
      "PhotometricInterpretation": "MONOCHROME2",
      "PixelBandwidth": 2290.0,
      "PixelRepresentation": 0,
      "PixelSpacing": [2.0, 2.0],
      "ProtocolName": "func_task-things_run-3",
      "RepetitionTime": 1490.0,
      "RescaleIntercept": -4096.0,
      "RescaleSlope": 2.0,
      "RescaleType": "US",
      "Rows": 832,
      "SAR": 0.04791409207917,
      "SamplesPerPixel": 1,
      "ScanOptions": "FS",
      "ScanningSequence": "EP",
      "SequenceName": "epfid2d1_104",
      "SequenceVariant": [
        "SK",
        "SS"
],
      "SeriesDescription": "func_task-things_run-3",
      "SeriesNumber": 17,
      "SeriesTime": "135226.902000",
      "SliceLocation": -32.050441226932,
      "SliceThickness": 2.0,
      "SmallestImagePixelValue": 0,
      "SoftwareVersions": "syngo MR E11",
      "SpacingBetweenSlices": 2.0000000021981,
      "SpecificCharacterSet": "ISO_IR 100",
      "StudyID": "1",
      "StudyTime": "130051.070000",
      "TransmitCoilName": "Body",
      "VariableFlipAngleFlag": "N",
      "WindowCenterWidthExplanation": "Algo1",
      "dBdt": 0.0},
    "slices": {}
  },
  "time": {
    "samples": {
      "AcquisitionNumber": [1, 2, 3, 4, 5, 6, 7, 8, 9, 10, 11, 12, 13, 14, 15, 16, 17, 18, 19, 20, 21, 22, 23, 24, 25, 26, 27, 28, 29, 30, 31, 32, 33, 34, 35, 36, 37, 38, 39, 40, 41, 42, 43, 44, 45, 46, 47, 48, 49, 50, 51, 52, 53, 54, 55, 56, 57, 58, 59, 60, 61, 62, 63, 64, 65, 66, 67, 68, 69, 70, 71, 72, 73, 74, 75, 76, 77, 78, 79, 80, 81, 82, 83, 84, 85, 86, 87, 88, 89, 90, 91, 92, 93, 94, 95, 96, 97, 98, 99, 100, 101, 102, 103, 104, 105, 106, 107, 108, 109, 110, 111, 112, 113, 114, 115, 116, 117, 118, 119, 120, 121, 122, 123, 124, 125, 126, 127, 128, 129, 130, 131, 132, 133, 134, 135, 136, 137, 138, 139, 140, 141, 142, 143, 144, 145, 146, 147, 148, 149, 150, 151, 152, 153, 154, 155, 156, 157, 158, 159, 160, 161, 162, 163, 164, 165, 166, 167, 168, 169, 170, 171, 172, 173, 174, 175, 176, 177, 178, 179, 180, 181, 182, 183, 184, 185, 186, 187, 188, 189, 190],
      "AcquisitionTime": ["135104.590000", "135106.080000", "135107.570000", "135109.060000", "135110.550000", "135112.040000", "135113.530000", "135115.020000", "135116.510000", "135118.000000", "135119.490000", "135120.980000", "135122.470000", "135123.960000", "135125.450000", "135126.940000", "135128.430000", "135129.920000", "135131.410000", "135132.900000", "135134.390000", "135135.880000", "135137.370000", "135138.860000", "135140.350000", "135141.840000", "135143.330000", "135144.820000", "135146.310000", "135147.800000", "135149.290000", "135150.780000", "135152.270000", "135153.760000", "135155.250000", "135156.740000", "135158.230000", "135159.720000", "135201.210000", "135202.700000", "135204.190000", "135205.680000", "135207.170000", "135208.660000", "135210.150000", "135211.640000", "135213.130000", "135214.620000", "135216.110000", "135217.600000", "135219.090000", "135220.580000", "135222.070000", "135223.560000", "135225.050000", "135226.540000", "135228.030000", "135229.520000", "135231.010000", "135232.500000", "135233.990000", "135235.480000", "135236.970000", "135238.460000", "135239.950000", "135241.440000", "135242.930000", "135244.420000", "135245.910000", "135247.400000", "135248.890000", "135250.380000", "135251.870000", "135253.360000", "135254.850000", "135256.340000", "135257.830000", "135259.320000", "135300.810000", "135302.300000", "135303.790000", "135305.280000", "135306.770000", "135308.260000", "135309.750000", "135311.240000", "135312.730000", "135314.220000", "135315.710000", "135317.200000", "135318.690000", "135320.180000", "135321.670000", "135323.160000", "135324.650000", "135326.140000", "135327.630000", "135329.120000", "135330.610000", "135332.100000", "135333.590000", "135335.080000", "135336.570000", "135338.060000", "135339.550000", "135341.040000", "135342.530000", "135344.020000", "135345.510000", "135347.000000", "135348.490000", "135349.980000", "135351.470000", "135352.960000", "135354.450000", "135355.940000", "135357.430000", "135358.920000", "135400.410000", "135401.900000", "135403.390000", "135404.880000", "135406.370000", "135407.860000", "135409.350000", "135410.840000", "135412.330000", "135413.820000", "135415.310000", "135416.800000", "135418.290000", "135419.780000", "135421.270000", "135422.760000", "135424.250000", "135425.740000", "135427.230000", "135428.720000", "135430.210000", "135431.700000", "135433.190000", "135434.680000", "135436.170000", "135437.660000", "135439.150000", "135440.640000", "135442.130000", "135443.620000", "135445.110000", "135446.600000", "135448.090000", "135449.580000", "135451.070000", "135452.560000", "135454.050000", "135455.540000", "135457.030000", "135458.520000", "135500.010000", "135501.500000", "135502.990000", "135504.480000", "135505.970000", "135507.460000", "135508.950000", "135510.440000", "135511.930000", "135513.420000", "135514.910000", "135516.400000", "135517.890000", "135519.380000", "135520.870000", "135522.360000", "135523.850000", "135525.340000", "135526.830000", "135528.320000", "135529.810000", "135531.300000", "135532.790000", "135534.280000", "135535.770000", "135537.260000", "135538.750000", "135540.240000", "135541.730000", "135543.220000", "135544.710000", "135546.200000"],
      "ContentTime": ["135226.904000", "135226.907000", "135226.909000", "135226.912000", "135226.914000", "135226.917000", "135226.919000", "135226.922000", "135226.924000", "135226.926000", "135226.929000", "135226.931000", "135226.934000", "135226.936000", "135226.939000", "135226.941000", "135226.944000", "135226.946000", "135226.949000", "135226.952000", "135226.955000", "135226.959000", "135226.961000", "135226.964000", "135226.966000", "135226.970000", "135226.982000", "135226.984000", "135226.987000", "135246.827000", "135246.830000", "135246.833000", "135246.835000", "135246.837000", "135246.840000", "135246.842000", "135246.845000", "135246.847000", "135246.850000", "135246.852000", "135246.854000", "135246.857000", "135246.859000", "135246.862000", "135246.864000", "135246.867000", "135246.869000", "135246.872000", "135246.874000", "135306.827000", "135306.830000", "135306.832000", "135306.835000", "135306.837000", "135306.840000", "135306.843000", "135306.845000", "135306.848000", "135306.850000", "135306.853000", "135306.855000", "135306.858000", "135306.860000", "135306.863000", "135306.865000", "135306.868000", "135306.870000", "135306.872000", "135306.875000", "135306.877000", "135326.821000", "135326.823000", "135326.826000", "135326.828000", "135326.831000", "135326.837000", "135326.840000", "135326.842000", "135326.845000", "135326.847000", "135326.850000", "135326.852000", "135326.855000", "135326.857000", "135326.860000", "135326.862000", "135326.865000", "135326.867000", "135326.870000", "135326.872000", "135406.875000", "135406.877000", "135406.880000", "135406.882000", "135406.885000", "135406.887000", "135406.890000", "135406.892000", "135406.895000", "135406.897000", "135406.900000", "135406.902000", "135406.905000", "135406.907000", "135406.909000", "135406.912000", "135406.916000", "135406.918000", "135406.921000", "135406.923000", "135406.926000", "135406.928000", "135406.931000", "135406.933000", "135406.936000", "135406.938000", "135406.941000", "135406.943000", "135406.946000", "135406.948000", "135406.951000", "135446.876000", "135446.879000", "135446.881000", "135446.884000", "135446.886000", "135446.889000", "135446.891000", "135446.894000", "135446.896000", "135446.899000", "135446.901000", "135446.904000", "135446.906000", "135446.908000", "135446.911000", "135446.913000", "135446.916000", "135446.918000", "135446.921000", "135446.923000", "135446.926000", "135446.928000", "135446.931000", "135446.933000", "135446.936000", "135446.938000", "135446.941000", "135526.856000", "135526.859000", "135526.861000", "135526.864000", "135526.866000", "135526.869000", "135526.871000", "135526.874000", "135526.876000", "135526.879000", "135526.881000", "135526.883000", "135526.886000", "135526.888000", "135526.898000", "135526.901000", "135526.903000", "135526.906000", "135526.908000", "135526.911000", "135526.913000", "135526.916000", "135526.918000", "135526.921000", "135526.923000", "135526.926000", "135526.928000", "135548.581000", "135548.584000", "135548.587000", "135548.590000", "135548.592000", "135548.595000", "135548.597000", "135548.600000", "135548.607000", "135548.609000", "135548.612000", "135548.620000", "135548.623000", "135548.626000", "135548.629000"],
      "InstanceCreationTime": ["135226.904000", "135226.907000", "135226.909000", "135226.912000", "135226.914000", "135226.917000", "135226.919000", "135226.922000", "135226.924000", "135226.926000", "135226.929000", "135226.931000", "135226.934000", "135226.936000", "135226.939000", "135226.941000", "135226.944000", "135226.946000", "135226.949000", "135226.952000", "135226.955000", "135226.959000", "135226.961000", "135226.964000", "135226.966000", "135226.970000", "135226.982000", "135226.984000", "135226.987000", "135246.827000", "135246.830000", "135246.833000", "135246.835000", "135246.837000", "135246.840000", "135246.842000", "135246.845000", "135246.847000", "135246.850000", "135246.852000", "135246.854000", "135246.857000", "135246.859000", "135246.862000", "135246.864000", "135246.867000", "135246.869000", "135246.872000", "135246.874000", "135306.827000", "135306.830000", "135306.832000", "135306.835000", "135306.837000", "135306.840000", "135306.843000", "135306.845000", "135306.848000", "135306.850000", "135306.853000", "135306.855000", "135306.858000", "135306.860000", "135306.863000", "135306.865000", "135306.868000", "135306.870000", "135306.872000", "135306.875000", "135306.877000", "135326.821000", "135326.823000", "135326.826000", "135326.828000", "135326.831000", "135326.837000", "135326.840000", "135326.842000", "135326.845000", "135326.847000", "135326.850000", "135326.852000", "135326.855000", "135326.857000", "135326.860000", "135326.862000", "135326.865000", "135326.867000", "135326.870000", "135326.872000", "135406.875000", "135406.877000", "135406.880000", "135406.882000", "135406.885000", "135406.887000", "135406.890000", "135406.892000", "135406.895000", "135406.897000", "135406.900000", "135406.902000", "135406.905000", "135406.907000", "135406.909000", "135406.912000", "135406.916000", "135406.918000", "135406.921000", "135406.923000", "135406.926000", "135406.928000", "135406.931000", "135406.933000", "135406.936000", "135406.938000", "135406.941000", "135406.943000", "135406.946000", "135406.948000", "135406.951000", "135446.876000", "135446.879000", "135446.881000", "135446.884000", "135446.886000", "135446.889000", "135446.891000", "135446.894000", "135446.896000", "135446.899000", "135446.901000", "135446.904000", "135446.906000", "135446.908000", "135446.911000", "135446.913000", "135446.916000", "135446.918000", "135446.921000", "135446.923000", "135446.926000", "135446.928000", "135446.931000", "135446.933000", "135446.936000", "135446.938000", "135446.941000", "135526.856000", "135526.859000", "135526.861000", "135526.864000", "135526.866000", "135526.869000", "135526.871000", "135526.874000", "135526.876000", "135526.879000", "135526.881000", "135526.883000", "135526.886000", "135526.888000", "135526.898000", "135526.901000", "135526.903000", "135526.906000", "135526.908000", "135526.911000", "135526.913000", "135526.916000", "135526.918000", "135526.921000", "135526.923000", "135526.926000", "135526.928000", "135548.581000", "135548.584000", "135548.587000", "135548.590000", "135548.592000", "135548.595000", "135548.597000", "135548.600000", "135548.607000", "135548.609000", "135548.612000", "135548.620000", "135548.623000", "135548.626000", "135548.629000"],
      "InstanceNumber": [1, 2, 3, 4, 5, 6, 7, 8, 9, 10, 11, 12, 13, 14, 15, 16, 17, 18, 19, 20, 21, 22, 23, 24, 25, 26, 27, 28, 29, 30, 31, 32, 33, 34, 35, 36, 37, 38, 39, 40, 41, 42, 43, 44, 45, 46, 47, 48, 49, 50, 51, 52, 53, 54, 55, 56, 57, 58, 59, 60, 61, 62, 63, 64, 65, 66, 67, 68, 69, 70, 71, 72, 73, 74, 75, 76, 77, 78, 79, 80, 81, 82, 83, 84, 85, 86, 87, 88, 89, 90, 91, 92, 93, 94, 95, 96, 97, 98, 99, 100, 101, 102, 103, 104, 105, 106, 107, 108, 109, 110, 111, 112, 113, 114, 115, 116, 117, 118, 119, 120, 121, 122, 123, 124, 125, 126, 127, 128, 129, 130, 131, 132, 133, 134, 135, 136, 137, 138, 139, 140, 141, 142, 143, 144, 145, 146, 147, 148, 149, 150, 151, 152, 153, 154, 155, 156, 157, 158, 159, 160, 161, 162, 163, 164, 165, 166, 167, 168, 169, 170, 171, 172, 173, 174, 175, 176, 177, 178, 179, 180, 181, 182, 183, 184, 185, 186, 187, 188, 189, 190],
      "WindowCenter": [4768.0, 4770.0, 4768.0, 4770.0, 4766.0, 4770.0, 4770.0, 4770.0, 4770.0, 4770.0, 4768.0, 4770.0, 4770.0, 4766.0, 4768.0, 4770.0, 4768.0, 4770.0, 4772.0, 4774.0, 4770.0, 4766.0, 4770.0, 4770.0, 4774.0, 4772.0, 4772.0, 4768.0, 4772.0, 4768.0, 4768.0, 4768.0, 4770.0, 4768.0, 4770.0, 4768.0, 4768.0, 4768.0, 4766.0, 4768.0, 4770.0, 4770.0, 4772.0, 4772.0, 4766.0, 4772.0, 4770.0, 4772.0, 4766.0, 4770.0, 4770.0, 4768.0, 4768.0, 4772.0, 4766.0, 4770.0, 4770.0, 4770.0, 4766.0, 4770.0, 4768.0, 4772.0, 4770.0, 4770.0, 4768.0, 4768.0, 4768.0, 4770.0, 4768.0, 4768.0, 4742.0, 4772.0, 4772.0, 4768.0, 4768.0, 4774.0, 4770.0, 4768.0, 4770.0, 4768.0, 4770.0, 4770.0, 4766.0, 4766.0, 4770.0, 4768.0, 4772.0, 4768.0, 4774.0, 4768.0, 4770.0, 4770.0, 4770.0, 4772.0, 4770.0, 4772.0, 4768.0, 4768.0, 4770.0, 4770.0, 4768.0, 4770.0, 4766.0, 4770.0, 4768.0, 4746.0, 4770.0, 4746.0, 4764.0, 4770.0, 4772.0, 4766.0, 4770.0, 4770.0, 4768.0, 4768.0, 4768.0, 4766.0, 4770.0, 4772.0, 4770.0, 4772.0, 4768.0, 4770.0, 4744.0, 4766.0, 4768.0, 4770.0, 4772.0, 4770.0, 4770.0, 4774.0, 4768.0, 4770.0, 4772.0, 4770.0, 4768.0, 4744.0, 4768.0, 4770.0, 4770.0, 4770.0, 4772.0, 4770.0, 4766.0, 4768.0, 4768.0, 4770.0, 4774.0, 4766.0, 4770.0, 4768.0, 4770.0, 4770.0, 4770.0, 4772.0, 4770.0, 4768.0, 4766.0, 4768.0, 4740.0, 4768.0, 4770.0, 4768.0, 4768.0, 4770.0, 4770.0, 4768.0, 4772.0, 4770.0, 4768.0, 4768.0, 4766.0, 4770.0, 4768.0, 4774.0, 4770.0, 4768.0, 4768.0, 4770.0, 4770.0, 4768.0, 4768.0, 4768.0, 4766.0, 4774.0, 4766.0, 4768.0, 4768.0, 4766.0],
      "WindowWidth": [18580.0, 18580.0, 18580.0, 18578.0, 18576.0, 18580.0, 18578.0, 18582.0, 18578.0, 18582.0, 18578.0, 18580.0, 18576.0, 18572.0, 18578.0, 18580.0, 18576.0, 18580.0, 18578.0, 18586.0, 18576.0, 18580.0, 18578.0, 18582.0, 18580.0, 18580.0, 18580.0, 18578.0, 18584.0, 18576.0, 18578.0, 18578.0, 18582.0, 18576.0, 18578.0, 18576.0, 18574.0, 18576.0, 18576.0, 18578.0, 18580.0, 18576.0, 18580.0, 18582.0, 18574.0, 18578.0, 18582.0, 18578.0, 18576.0, 18580.0, 18578.0, 18576.0, 18578.0, 18580.0, 18578.0, 18580.0, 18578.0, 18580.0, 18580.0, 18582.0, 18572.0, 18582.0, 18578.0, 18584.0, 18578.0, 18582.0, 18574.0, 18582.0, 18578.0, 18576.0, 18540.0, 18586.0, 18582.0, 18574.0, 18576.0, 18580.0, 18582.0, 18574.0, 18582.0, 18576.0, 18582.0, 18580.0, 18580.0, 18574.0, 18578.0, 18576.0, 18578.0, 18576.0, 18580.0, 18574.0, 18582.0, 18580.0, 18578.0, 18576.0, 18582.0, 18582.0, 18578.0, 18574.0, 18578.0, 18576.0, 18578.0, 18580.0, 18576.0, 18576.0, 18572.0, 18548.0, 18574.0, 18544.0, 18574.0, 18578.0, 18580.0, 18578.0, 18580.0, 18578.0, 18576.0, 18578.0, 18574.0, 18578.0, 18576.0, 18584.0, 18576.0, 18582.0, 18580.0, 18580.0, 18546.0, 18576.0, 18578.0, 18584.0, 18584.0, 18580.0, 18576.0, 18580.0, 18574.0, 18578.0, 18580.0, 18584.0, 18576.0, 18546.0, 18580.0, 18576.0, 18578.0, 18576.0, 18582.0, 18582.0, 18576.0, 18576.0, 18578.0, 18578.0, 18580.0, 18576.0, 18576.0, 18576.0, 18578.0, 18580.0, 18582.0, 18580.0, 18584.0, 18574.0, 18578.0, 18576.0, 18540.0, 18580.0, 18580.0, 18576.0, 18576.0, 18576.0, 18580.0, 18578.0, 18586.0, 18578.0, 18576.0, 18576.0, 18574.0, 18580.0, 18576.0, 18582.0, 18578.0, 18574.0, 18576.0, 18578.0, 18580.0, 18578.0, 18582.0, 18576.0, 18578.0, 18582.0, 18578.0, 18576.0, 18576.0, 18576.0]
    },
    "slices": {}
  }
}