{
  "AcquisitionMatrixPE": 104,
  "AcquisitionNumber": 1,
  "AcquisitionTime": "13:21:12.292500",
  "BandwidthPerPixelPhaseEncode": 17.17,
  "BaseResolution": 104,
  "BodyPartExamined": "BRAIN",
  "CoilCombinationMethod": "Sum of Squares",
  "ConsistencyInfo": "N4_VE11C_LATEST_20160120",
  "ConversionSoftware": "dcm2niix",
  "ConversionSoftwareVersion": "v1.0.20211006",
  "DerivedVendorReportedEchoSpacing": 0.000560011,
  "DeviceSerialNumber": "167006",
  "DwellTime": 2.1e-06,
  "EchoTime": 0.037,
  "EchoTrainLength": 104,
  "EffectiveEchoSpacing": 0.000560011,
  "FlipAngle": 52,
  "HeudiconvVersion": "0.10.0",
  "ImageComments": "Unaliased MB4/PE3/LB",
  "ImageOrientationPatientDICOM": [0.999423, 0.0122796, 0.0316554, -0.00540746, 0.977976, -0.208647],
  "ImageOrientationText": "Tra>Cor(-12.0)>Sag(1.9)",
  "ImageType": [
    "ORIGINAL",
    "PRIMARY",
    "M",
    "MB",
    "ND",
    "MOSAIC"
],
  "ImagingFrequency": 123.259,
  "InPlanePhaseEncodingDirectionDICOM": "COL",
  "InstitutionAddress": "Chemin Queen-Mary 4565,Montreal,District,CA,H3W 1W5",
  "InstitutionName": "IUGM",
  "InstitutionalDepartmentName": "Department",
  "MRAcquisitionType": "2D",
  "MagneticFieldStrength": 3,
  "Manufacturer": "Siemens",
  "ManufacturersModelName": "Prisma_fit",
  "MatrixCoilMode": "SENSE",
  "Modality": "MR",
  "MultibandAccelerationFactor": 4,
  "PartialFourier": 1,
  "PatientPosition": "HFS",
  "PercentPhaseFOV": 100,
  "PercentSampling": 100,
  "PhaseEncodingDirection": "j",
  "PhaseEncodingSteps": 104,
  "PhaseResolution": 1,
  "PixelBandwidth": 2290,
  "ProcedureStepDescription": "memory^things",
  "ProtocolName": "func_task-things_run-1",
  "PulseSequenceDetails": "%CustomerSeq%\\cmrr_mbep2d_bold",
  "ReceiveCoilActiveElements": "HC1-7;NC1,2",
  "ReceiveCoilName": "HeadNeck_64",
  "ReconMatrixPE": 104,
  "RepetitionTime": 1.49,
  "SAR": 0.0437856,
  "ScanOptions": "FS",
  "ScanningSequence": "EP",
  "SequenceName": "epfid2d1_104",
  "SequenceVariant": "SK\\SS",
  "SeriesDescription": "func_task-things_run-1",
  "SeriesNumber": 10,
  "ShimSetting": [628, -7232, -8796, 777, 22, -41, 120, 7],
  "SliceThickness": 2,
  "SliceTiming": [0, 0.785, 0.0975, 0.8825, 0.1975, 0.98, 0.295, 1.0775, 0.3925, 1.1775, 0.49, 1.275, 0.5875, 1.3725, 0.6875, 0, 0.785, 0.0975, 0.8825, 0.1975, 0.98, 0.295, 1.0775, 0.3925, 1.1775, 0.49, 1.275, 0.5875, 1.3725, 0.6875, 0, 0.785, 0.0975, 0.8825, 0.1975, 0.98, 0.295, 1.0775, 0.3925, 1.1775, 0.49, 1.275, 0.5875, 1.3725, 0.6875, 0, 0.785, 0.0975, 0.8825, 0.1975, 0.98, 0.295, 1.0775, 0.3925, 1.1775, 0.49, 1.275, 0.5875, 1.3725, 0.6875],
  "SoftwareVersions": "syngo MR E11",
  "SpacingBetweenSlices": 2,
  "StationName": "MRC35049",
  "TaskName": "things",
  "TotalReadoutTime": 0.0576811,
  "TxRefAmp": 228.318,
  "WipMemBlock": "e2e640cf-a7da-462d-9771-971cd31274d5||Sequence: R016 ve11c/master r/e634e98; Dec 19 2017 11:00:25 by eja",
  "dcmmeta_affine": [
    [-1.9988467693328857, -0.01081492006778717, 0.06704065948724747, 107.71097564697266],
    [-0.02455917000770569, 1.9559522867202759, -0.4167105555534363, -76.28675079345703],
    [0.06331081688404083, 0.417293518781662, 1.9549572467803955, -65.14054870605469],
    [0.0, 0.0, 0.0, 1.0]
],
  "dcmmeta_reorient_transform": [
    [0.0, -1.0, 0.0, 103.0],
    [1.0, 0.0, 0.0, 0.0],
    [0.0, 0.0, 1.0, 0.0],
    [0.0, 0.0, 0.0, 1.0]
],
  "dcmmeta_shape": [104, 104, 60, 190],
  "dcmmeta_slice_dim": 2,
  "dcmmeta_version": 0.6,
  "global": {
    "const": {
      "AcquisitionMatrix": [104, 0, 0, 104],
      "AngioFlag": "N",
      "BitsAllocated": 16,
      "BitsStored": 16,
      "BodyPartExamined": "BRAIN",
      "Columns": 832,
      "EchoNumbers": 1,
      "EchoTime": 37.0,
      "EchoTrainLength": 104,
      "FlipAngle": 52.0,
      "HighBit": 15,
      "ImageOrientationPatient": [0.99942340724205, 0.01227958456069, 0.03165540806432, -0.0054074600203, 0.97797611877551, -0.2086467600537],
      "ImagePositionPatient": [-830.24064489092, -846.08247868097, 106.69038716109],
      "ImageType": [
        "ORIGINAL",
        "PRIMARY",
        "M",
        "MB",
        "ND",
        "MOSAIC"
],
      "ImagedNucleus": "1H",
      "ImagingFrequency": 123.25889,
      "InPlanePhaseEncodingDirection": "COL",
      "MRAcquisitionType": "2D",
      "MagneticFieldStrength": 3.0,
      "Manufacturer": "SIEMENS",
      "ManufacturerModelName": "Prisma_fit",
      "Modality": "MR",
      "NumberOfAverages": 1.0,
      "NumberOfPhaseEncodingSteps": 104,
      "PercentPhaseFieldOfView": 100.0,
      "PercentSampling": 100.0,
      "PerformedProcedureStepStartTime": "111023.866000",
      "PhotometricInterpretation": "MONOCHROME2",
      "PixelBandwidth": 2290.0,
      "PixelRepresentation": 0,
      "PixelSpacing": [2.0, 2.0],
      "ProtocolName": "func_task-things_run-1",
      "RepetitionTime": 1490.0,
      "Rows": 832,
      "SAR": 0.04378557182504,
      "SamplesPerPixel": 1,
      "ScanOptions": "FS",
      "ScanningSequence": "EP",
      "SequenceName": "epfid2d1_104",
      "SequenceVariant": [
        "SK",
        "SS"
],
      "SeriesDescription": "func_task-things_run-1",
      "SeriesNumber": 10,
      "SeriesTime": "132239.528000",
      "SliceLocation": -44.168239817096,
      "SliceThickness": 2.0,
      "SmallestImagePixelValue": 0,
      "SoftwareVersions": "syngo MR E11",
      "SpacingBetweenSlices": 2.0000000301572,
      "SpecificCharacterSet": "ISO_IR 100",
      "StudyID": "1",
      "StudyTime": "111023.793000",
      "TransmitCoilName": "Body",
      "VariableFlipAngleFlag": "N",
      "WindowCenterWidthExplanation": "Algo1",
      "dBdt": 0.0},
    "slices": {}
  },
  "time": {
    "samples": {
      "AcquisitionNumber": [1, 2, 3, 4, 5, 6, 7, 8, 9, 10, 11, 12, 13, 14, 15, 16, 17, 18, 19, 20, 21, 22, 23, 24, 25, 26, 27, 28, 29, 30, 31, 32, 33, 34, 35, 36, 37, 38, 39, 40, 41, 42, 43, 44, 45, 46, 47, 48, 49, 50, 51, 52, 53, 54, 55, 56, 57, 58, 59, 60, 61, 62, 63, 64, 65, 66, 67, 68, 69, 70, 71, 72, 73, 74, 75, 76, 77, 78, 79, 80, 81, 82, 83, 84, 85, 86, 87, 88, 89, 90, 91, 92, 93, 94, 95, 96, 97, 98, 99, 100, 101, 102, 103, 104, 105, 106, 107, 108, 109, 110, 111, 112, 113, 114, 115, 116, 117, 118, 119, 120, 121, 122, 123, 124, 125, 126, 127, 128, 129, 130, 131, 132, 133, 134, 135, 136, 137, 138, 139, 140, 141, 142, 143, 144, 145, 146, 147, 148, 149, 150, 151, 152, 153, 154, 155, 156, 157, 158, 159, 160, 161, 162, 163, 164, 165, 166, 167, 168, 169, 170, 171, 172, 173, 174, 175, 176, 177, 178, 179, 180, 181, 182, 183, 184, 185, 186, 187, 188, 189, 190],
      "AcquisitionTime": ["132112.292500", "132113.782500", "132115.272500", "132116.762500", "132118.252500", "132119.742500", "132121.232500", "132122.722500", "132124.212500", "132125.702500", "132127.192500", "132128.682500", "132130.172500", "132131.662500", "132133.152500", "132134.642500", "132136.132500", "132137.622500", "132139.112500", "132140.602500", "132142.092500", "132143.582500", "132145.072500", "132146.562500", "132148.052500", "132149.542500", "132151.032500", "132152.522500", "132154.012500", "132155.502500", "132156.992500", "132158.482500", "132159.972500", "132201.462500", "132202.952500", "132204.442500", "132205.932500", "132207.422500", "132208.912500", "132210.402500", "132211.892500", "132213.382500", "132214.872500", "132216.362500", "132217.852500", "132219.342500", "132220.832500", "132222.322500", "132223.812500", "132225.302500", "132226.792500", "132228.282500", "132229.772500", "132231.262500", "132232.752500", "132234.242500", "132235.732500", "132237.222500", "132238.712500", "132240.202500", "132241.692500", "132243.182500", "132244.672500", "132246.162500", "132247.652500", "132249.142500", "132250.632500", "132252.122500", "132253.612500", "132255.102500", "132256.592500", "132258.082500", "132259.572500", "132301.062500", "132302.552500", "132304.042500", "132305.532500", "132307.022500", "132308.512500", "132310.002500", "132311.492500", "132312.982500", "132314.472500", "132315.962500", "132317.452500", "132318.942500", "132320.432500", "132321.922500", "132323.412500", "132324.902500", "132326.392500", "132327.882500", "132329.372500", "132330.862500", "132332.352500", "132333.842500", "132335.332500", "132336.822500", "132338.312500", "132339.802500", "132341.292500", "132342.782500", "132344.272500", "132345.762500", "132347.252500", "132348.742500", "132350.232500", "132351.722500", "132353.212500", "132354.702500", "132356.192500", "132357.682500", "132359.172500", "132400.662500", "132402.152500", "132403.642500", "132405.132500", "132406.622500", "132408.112500", "132409.602500", "132411.092500", "132412.582500", "132414.072500", "132415.562500", "132417.052500", "132418.542500", "132420.032500", "132421.522500", "132423.012500", "132424.502500", "132425.992500", "132427.482500", "132428.972500", "132430.462500", "132431.952500", "132433.442500", "132434.932500", "132436.422500", "132437.912500", "132439.402500", "132440.892500", "132442.382500", "132443.872500", "132445.362500", "132446.852500", "132448.342500", "132449.832500", "132451.322500", "132452.812500", "132454.302500", "132455.792500", "132457.282500", "132458.772500", "132500.262500", "132501.752500", "132503.242500", "132504.732500", "132506.222500", "132507.712500", "132509.202500", "132510.692500", "132512.182500", "132513.672500", "132515.162500", "132516.652500", "132518.142500", "132519.632500", "132521.122500", "132522.612500", "132524.102500", "132525.592500", "132527.082500", "132528.572500", "132530.062500", "132531.552500", "132533.042500", "132534.532500", "132536.022500", "132537.512500", "132539.002500", "132540.492500", "132541.982500", "132543.472500", "132544.962500", "132546.452500", "132547.942500", "132549.432500", "132550.922500", "132552.412500", "132553.902500"],
      "ContentTime": ["132239.531000", "132239.535000", "132239.538000", "132239.541000", "132239.549000", "132239.552000", "132239.556000", "132239.559000", "132239.562000", "132239.566000", "132239.569000", "132239.572000", "132239.576000", "132239.579000", "132239.582000", "132239.586000", "132239.589000", "132239.593000", "132239.596000", "132239.600000", "132239.603000", "132239.607000", "132239.610000", "132239.613000", "132239.617000", "132239.625000", "132239.628000", "132239.632000", "132239.635000", "132239.639000", "132239.642000", "132239.645000", "132239.649000", "132259.497000", "132259.501000", "132259.504000", "132259.508000", "132259.511000", "132259.514000", "132259.518000", "132259.521000", "132259.524000", "132259.528000", "132259.531000", "132259.535000", "132259.538000", "132259.541000", "132259.544000", "132259.548000", "132259.551000", "132259.555000", "132259.558000", "132259.561000", "132319.496000", "132319.500000", "132319.503000", "132319.507000", "132319.510000", "132319.513000", "132319.517000", "132319.520000", "132319.523000", "132319.527000", "132319.530000", "132319.533000", "132319.537000", "132319.540000", "132319.543000", "132319.547000", "132319.557000", "132319.560000", "132319.563000", "132319.567000", "132339.496000", "132339.500000", "132339.503000", "132339.507000", "132339.525000", "132339.528000", "132339.531000", "132339.535000", "132339.538000", "132339.541000", "132339.545000", "132339.548000", "132339.551000", "132339.555000", "132339.558000", "132339.562000", "132339.565000", "132339.568000", "132339.572000", "132339.575000", "132419.496000", "132419.500000", "132419.503000", "132419.507000", "132419.510000", "132419.514000", "132419.517000", "132419.521000", "132419.524000", "132419.527000", "132419.531000", "132419.534000", "132419.537000", "132419.541000", "132419.544000", "132419.547000", "132419.551000", "132419.554000", "132419.558000", "132419.561000", "132419.564000", "132419.568000", "132419.571000", "132419.575000", "132419.578000", "132419.581000", "132419.585000", "132419.588000", "132419.592000", "132419.595000", "132419.598000", "132419.602000", "132459.496000", "132459.500000", "132459.503000", "132459.507000", "132459.510000", "132459.514000", "132459.517000", "132459.520000", "132459.524000", "132459.527000", "132459.530000", "132459.534000", "132459.537000", "132459.540000", "132459.544000", "132459.547000", "132459.551000", "132459.554000", "132459.557000", "132459.561000", "132459.564000", "132459.568000", "132459.571000", "132459.574000", "132459.578000", "132459.581000", "132459.584000", "132539.496000", "132539.500000", "132539.503000", "132539.507000", "132539.510000", "132539.513000", "132539.517000", "132539.520000", "132539.523000", "132539.527000", "132539.530000", "132539.534000", "132539.537000", "132539.541000", "132539.544000", "132539.547000", "132539.551000", "132539.554000", "132539.558000", "132539.561000", "132539.564000", "132539.568000", "132539.571000", "132539.574000", "132539.578000", "132539.599000", "132539.602000", "132555.844000", "132555.848000", "132555.852000", "132555.855000", "132555.859000", "132555.862000", "132555.866000", "132555.869000", "132555.873000", "132555.877000", "132555.880000"],
      "InstanceCreationTime": ["132239.531000", "132239.535000", "132239.538000", "132239.541000", "132239.549000", "132239.552000", "132239.556000", "132239.559000", "132239.562000", "132239.566000", "132239.569000", "132239.572000", "132239.576000", "132239.579000", "132239.582000", "132239.586000", "132239.589000", "132239.593000", "132239.596000", "132239.600000", "132239.603000", "132239.607000", "132239.610000", "132239.613000", "132239.617000", "132239.625000", "132239.628000", "132239.632000", "132239.635000", "132239.639000", "132239.642000", "132239.645000", "132239.649000", "132259.497000", "132259.501000", "132259.504000", "132259.508000", "132259.511000", "132259.514000", "132259.518000", "132259.521000", "132259.524000", "132259.528000", "132259.531000", "132259.535000", "132259.538000", "132259.541000", "132259.544000", "132259.548000", "132259.551000", "132259.555000", "132259.558000", "132259.561000", "132319.496000", "132319.500000", "132319.503000", "132319.507000", "132319.510000", "132319.513000", "132319.517000", "132319.520000", "132319.523000", "132319.527000", "132319.530000", "132319.533000", "132319.537000", "132319.540000", "132319.543000", "132319.547000", "132319.557000", "132319.560000", "132319.563000", "132319.567000", "132339.496000", "132339.500000", "132339.503000", "132339.507000", "132339.525000", "132339.528000", "132339.531000", "132339.535000", "132339.538000", "132339.541000", "132339.545000", "132339.548000", "132339.551000", "132339.555000", "132339.558000", "132339.562000", "132339.565000", "132339.568000", "132339.572000", "132339.575000", "132419.496000", "132419.500000", "132419.503000", "132419.507000", "132419.510000", "132419.514000", "132419.517000", "132419.521000", "132419.524000", "132419.527000", "132419.531000", "132419.534000", "132419.537000", "132419.541000", "132419.544000", "132419.547000", "132419.551000", "132419.554000", "132419.558000", "132419.561000", "132419.564000", "132419.568000", "132419.571000", "132419.575000", "132419.578000", "132419.581000", "132419.585000", "132419.588000", "132419.592000", "132419.595000", "132419.598000", "132419.602000", "132459.496000", "132459.500000", "132459.503000", "132459.507000", "132459.510000", "132459.514000", "132459.517000", "132459.520000", "132459.524000", "132459.527000", "132459.530000", "132459.534000", "132459.537000", "132459.540000", "132459.544000", "132459.547000", "132459.551000", "132459.554000", "132459.557000", "132459.561000", "132459.564000", "132459.568000", "132459.571000", "132459.574000", "132459.578000", "132459.581000", "132459.584000", "132539.496000", "132539.500000", "132539.503000", "132539.507000", "132539.510000", "132539.513000", "132539.517000", "132539.520000", "132539.523000", "132539.527000", "132539.530000", "132539.534000", "132539.537000", "132539.541000", "132539.544000", "132539.547000", "132539.551000", "132539.554000", "132539.558000", "132539.561000", "132539.564000", "132539.568000", "132539.571000", "132539.574000", "132539.578000", "132539.599000", "132539.602000", "132555.844000", "132555.848000", "132555.852000", "132555.855000", "132555.859000", "132555.862000", "132555.866000", "132555.869000", "132555.873000", "132555.877000", "132555.880000"],
      "InstanceNumber": [1, 2, 3, 4, 5, 6, 7, 8, 9, 10, 11, 12, 13, 14, 15, 16, 17, 18, 19, 20, 21, 22, 23, 24, 25, 26, 27, 28, 29, 30, 31, 32, 33, 34, 35, 36, 37, 38, 39, 40, 41, 42, 43, 44, 45, 46, 47, 48, 49, 50, 51, 52, 53, 54, 55, 56, 57, 58, 59, 60, 61, 62, 63, 64, 65, 66, 67, 68, 69, 70, 71, 72, 73, 74, 75, 76, 77, 78, 79, 80, 81, 82, 83, 84, 85, 86, 87, 88, 89, 90, 91, 92, 93, 94, 95, 96, 97, 98, 99, 100, 101, 102, 103, 104, 105, 106, 107, 108, 109, 110, 111, 112, 113, 114, 115, 116, 117, 118, 119, 120, 121, 122, 123, 124, 125, 126, 127, 128, 129, 130, 131, 132, 133, 134, 135, 136, 137, 138, 139, 140, 141, 142, 143, 144, 145, 146, 147, 148, 149, 150, 151, 152, 153, 154, 155, 156, 157, 158, 159, 160, 161, 162, 163, 164, 165, 166, 167, 168, 169, 170, 171, 172, 173, 174, 175, 176, 177, 178, 179, 180, 181, 182, 183, 184, 185, 186, 187, 188, 189, 190],
      "LargestImagePixelValue": [40869, 39906, 39467, 38576, 38708, 38626, 38198, 38465, 38255, 39205, 38041, 38299, 38258, 38342, 38505, 38768, 38683, 38707, 38568, 38438, 38506, 38398, 38056, 38219, 38158, 38083, 38666, 38747, 38424, 38443, 38857, 38491, 38373, 38077, 38795, 38033, 38626, 38631, 38570, 38474, 38262, 38516, 38755, 38338, 38132, 38338, 38294, 38335, 38489, 38541, 38556, 38033, 38273, 38531, 38526, 38077, 38215, 38551, 38496, 38788, 38371, 38041, 38258, 38422, 38277, 38070, 38535, 38225, 38143, 38634, 38311, 38066, 38070, 37851, 38971, 38206, 38185, 38150, 38198, 38039, 38219, 38203, 38309, 38159, 38165, 38349, 37780, 38372, 38448, 38273, 38232, 38212, 38238, 38544, 38099, 38116, 37954, 38489, 37871, 38161, 37773, 38197, 38109, 38234, 37842, 38239, 38028, 38183, 37893, 37911, 38111, 38468, 37860, 38052, 37764, 37704, 37526, 38045, 37654, 37997, 37853, 37878, 38015, 38037, 37793, 37712, 37854, 37845, 37795, 37633, 37475, 37726, 38126, 37995, 38051, 37566, 37813, 37934, 37753, 38065, 37866, 37728, 38069, 37826, 37649, 37699, 37821, 37660, 37597, 37359, 37995, 37666, 37634, 37477, 37452, 37778, 37347, 37215, 37696, 37627, 37528, 37204, 37811, 37421, 37554, 37858, 37164, 37421, 37967, 37447, 37902, 37465, 37802, 37438, 37090, 37622, 37395, 37360, 37935, 37717, 37541, 37408, 37419, 37217, 37494, 37524, 37395, 37025, 37610, 37474],
      "WindowCenter": [10188.0, 10149.0, 10132.0, 10131.0, 10120.0, 10119.0, 10108.0, 10110.0, 10115.0, 10123.0, 10113.0, 10113.0, 10127.0, 10128.0, 10121.0, 10115.0, 10115.0, 10119.0, 10111.0, 10087.0, 10076.0, 10075.0, 10091.0, 10100.0, 10102.0, 10103.0, 10101.0, 10100.0, 10098.0, 10108.0, 10115.0, 10111.0, 10103.0, 10101.0, 10107.0, 10096.0, 10108.0, 10114.0, 10115.0, 10117.0, 10109.0, 10103.0, 10100.0, 10094.0, 10087.0, 10085.0, 10084.0, 10091.0, 10098.0, 10099.0, 10095.0, 10087.0, 10092.0, 10092.0, 10085.0, 10078.0, 10078.0, 10081.0, 10090.0, 10104.0, 10115.0, 10105.0, 10103.0, 10102.0, 10114.0, 10112.0, 10117.0, 10104.0, 10095.0, 10092.0, 10086.0, 10086.0, 10086.0, 10087.0, 10090.0, 10070.0, 10070.0, 10079.0, 10086.0, 10095.0, 10096.0, 10095.0, 10100.0, 10103.0, 10095.0, 10086.0, 10071.0, 10081.0, 10090.0, 10094.0, 10092.0, 10080.0, 10085.0, 10086.0, 10086.0, 10087.0, 10079.0, 10083.0, 10079.0, 10092.0, 10094.0, 10109.0, 10111.0, 10107.0, 10090.0, 10073.0, 10068.0, 10077.0, 10080.0, 10081.0, 10078.0, 10083.0, 10087.0, 10095.0, 10080.0, 10079.0, 10073.0, 10085.0, 10079.0, 10086.0, 10079.0, 10078.0, 10085.0, 10087.0, 10080.0, 10078.0, 10070.0, 10078.0, 10080.0, 10080.0, 10066.0, 10069.0, 10068.0, 10076.0, 10070.0, 10056.0, 10061.0, 10077.0, 10077.0, 10079.0, 10080.0, 10086.0, 10086.0, 10073.0, 10070.0, 10077.0, 10081.0, 10072.0, 10065.0, 10063.0, 10069.0, 10085.0, 10098.0, 10092.0, 10083.0, 10071.0, 10065.0, 10081.0, 10103.0, 10084.0, 10075.0, 10060.0, 10072.0, 10074.0, 10089.0, 10090.0, 10086.0, 10083.0, 10081.0, 10068.0, 10090.0, 10086.0, 10083.0, 10074.0, 10066.0, 10064.0, 10065.0, 10058.0, 10064.0, 10070.0, 10072.0, 10072.0, 10075.0, 10070.0, 10074.0, 10059.0, 10057.0, 10056.0, 10063.0, 10057.0],
      "WindowWidth": [21732.0, 21617.0, 21570.0, 21562.0, 21529.0, 21526.0, 21502.0, 21503.0, 21516.0, 21531.0, 21514.0, 21513.0, 21541.0, 21544.0, 21528.0, 21510.0, 21510.0, 21521.0, 21503.0, 21446.0, 21420.0, 21419.0, 21455.0, 21477.0, 21484.0, 21485.0, 21479.0, 21476.0, 21472.0, 21496.0, 21509.0, 21502.0, 21484.0, 21479.0, 21493.0, 21470.0, 21496.0, 21504.0, 21509.0, 21514.0, 21498.0, 21484.0, 21475.0, 21465.0, 21449.0, 21442.0, 21443.0, 21455.0, 21472.0, 21473.0, 21466.0, 21448.0, 21457.0, 21456.0, 21443.0, 21428.0, 21428.0, 21431.0, 21452.0, 21483.0, 21510.0, 21489.0, 21484.0, 21481.0, 21505.0, 21504.0, 21515.0, 21485.0, 21464.0, 21456.0, 21444.0, 21446.0, 21445.0, 21449.0, 21448.0, 21408.0, 21406.0, 21429.0, 21446.0, 21466.0, 21467.0, 21465.0, 21476.0, 21485.0, 21466.0, 21444.0, 21411.0, 21429.0, 21450.0, 21463.0, 21454.0, 21430.0, 21442.0, 21447.0, 21443.0, 21444.0, 21428.0, 21435.0, 21429.0, 21457.0, 21461.0, 21496.0, 21502.0, 21495.0, 21456.0, 21416.0, 21401.0, 21424.0, 21432.0, 21436.0, 21425.0, 21434.0, 21444.0, 21461.0, 21431.0, 21425.0, 21416.0, 21438.0, 21429.0, 21443.0, 21427.0, 21426.0, 21439.0, 21446.0, 21432.0, 21423.0, 21407.0, 21425.0, 21432.0, 21431.0, 21402.0, 21403.0, 21402.0, 21419.0, 21406.0, 21376.0, 21384.0, 21420.0, 21423.0, 21427.0, 21430.0, 21441.0, 21443.0, 21414.0, 21407.0, 21423.0, 21432.0, 21411.0, 21396.0, 21390.0, 21403.0, 21438.0, 21472.0, 21460.0, 21437.0, 21406.0, 21395.0, 21434.0, 21482.0, 21440.0, 21420.0, 21387.0, 21410.0, 21418.0, 21452.0, 21455.0, 21447.0, 21439.0, 21431.0, 21406.0, 21454.0, 21447.0, 21438.0, 21416.0, 21399.0, 21393.0, 21396.0, 21382.0, 21394.0, 21405.0, 21409.0, 21411.0, 21419.0, 21413.0, 21415.0, 21382.0, 21375.0, 21373.0, 21386.0, 21375.0]
    },
    "slices": {}
  }
}