{
  "AcquisitionMatrixPE": 104,
  "AcquisitionNumber": 1,
  "AcquisitionTime": "13:39:58.860000",
  "BandwidthPerPixelPhaseEncode": 17.17,
  "BaseResolution": 104,
  "BodyPartExamined": "BRAIN",
  "CoilCombinationMethod": "Sum of Squares",
  "ConsistencyInfo": "N4_VE11C_LATEST_20160120",
  "ConversionSoftware": "dcm2niix",
  "ConversionSoftwareVersion": "v1.0.20211006",
  "DerivedVendorReportedEchoSpacing": 0.000560011,
  "DeviceSerialNumber": "167006",
  "DwellTime": 2.1e-06,
  "EchoTime": 0.037,
  "EchoTrainLength": 104,
  "EffectiveEchoSpacing": 0.000560011,
  "FlipAngle": 52,
  "HeudiconvVersion": "0.10.0",
  "ImageComments": "Unaliased MB4/PE3/LB",
  "ImageOrientationPatientDICOM": [0.999423, 0.0122796, 0.0316554, -0.00540746, 0.977976, -0.208647],
  "ImageOrientationText": "Tra>Cor(-12.0)>Sag(1.9)",
  "ImageType": [
    "ORIGINAL",
    "PRIMARY",
    "M",
    "MB",
    "ND",
    "MOSAIC"
],
  "ImagingFrequency": 123.259,
  "InPlanePhaseEncodingDirectionDICOM": "COL",
  "InstitutionAddress": "Chemin Queen-Mary 4565,Montreal,District,CA,H3W 1W5",
  "InstitutionName": "IUGM",
  "InstitutionalDepartmentName": "Department",
  "MRAcquisitionType": "2D",
  "MagneticFieldStrength": 3,
  "Manufacturer": "Siemens",
  "ManufacturersModelName": "Prisma_fit",
  "MatrixCoilMode": "SENSE",
  "Modality": "MR",
  "MultibandAccelerationFactor": 4,
  "PartialFourier": 1,
  "PatientPosition": "HFS",
  "PercentPhaseFOV": 100,
  "PercentSampling": 100,
  "PhaseEncodingDirection": "j",
  "PhaseEncodingSteps": 104,
  "PhaseResolution": 1,
  "PixelBandwidth": 2290,
  "ProcedureStepDescription": "memory^things",
  "ProtocolName": "func_task-things_run-4",
  "PulseSequenceDetails": "%CustomerSeq%\\cmrr_mbep2d_bold",
  "ReceiveCoilActiveElements": "HC1-7;NC1,2",
  "ReceiveCoilName": "HeadNeck_64",
  "ReconMatrixPE": 104,
  "RepetitionTime": 1.49,
  "SAR": 0.0437856,
  "ScanOptions": "FS",
  "ScanningSequence": "EP",
  "SequenceName": "epfid2d1_104",
  "SequenceVariant": "SK\\SS",
  "SeriesDescription": "func_task-things_run-4",
  "SeriesNumber": 19,
  "ShimSetting": [628, -7232, -8796, 777, 22, -41, 120, 7],
  "SliceThickness": 2,
  "SliceTiming": [0, 0.785, 0.0975, 0.8825, 0.195, 0.98, 0.295, 1.0775, 0.3925, 1.175, 0.49, 1.275, 0.5875, 1.3725, 0.685, 0, 0.785, 0.0975, 0.8825, 0.195, 0.98, 0.295, 1.0775, 0.3925, 1.175, 0.49, 1.275, 0.5875, 1.3725, 0.685, 0, 0.785, 0.0975, 0.8825, 0.195, 0.98, 0.295, 1.0775, 0.3925, 1.175, 0.49, 1.275, 0.5875, 1.3725, 0.685, 0, 0.785, 0.0975, 0.8825, 0.195, 0.98, 0.295, 1.0775, 0.3925, 1.175, 0.49, 1.275, 0.5875, 1.3725, 0.685],
  "SoftwareVersions": "syngo MR E11",
  "SpacingBetweenSlices": 2,
  "StationName": "MRC35049",
  "TaskName": "things",
  "TotalReadoutTime": 0.0576811,
  "TxRefAmp": 228.318,
  "WipMemBlock": "9899ad0b-94ac-40e1-b31a-6fc8a120a034||Sequence: R016 ve11c/master r/e634e98; Dec 19 2017 11:00:25 by eja",
  "dcmmeta_affine": [
    [-1.9988467693328857, -0.01081492006778717, 0.06704065948724747, 107.71097564697266],
    [-0.02455917000770569, 1.9559522867202759, -0.4167105555534363, -76.28675079345703],
    [0.06331081688404083, 0.417293518781662, 1.9549572467803955, -65.14054870605469],
    [0.0, 0.0, 0.0, 1.0]
],
  "dcmmeta_reorient_transform": [
    [0.0, -1.0, 0.0, 103.0],
    [1.0, 0.0, 0.0, 0.0],
    [0.0, 0.0, 1.0, 0.0],
    [0.0, 0.0, 0.0, 1.0]
],
  "dcmmeta_shape": [104, 104, 60, 190],
  "dcmmeta_slice_dim": 2,
  "dcmmeta_version": 0.6,
  "global": {
    "const": {
      "AcquisitionMatrix": [104, 0, 0, 104],
      "AngioFlag": "N",
      "BitsAllocated": 16,
      "BitsStored": 16,
      "BodyPartExamined": "BRAIN",
      "Columns": 832,
      "EchoNumbers": 1,
      "EchoTime": 37.0,
      "EchoTrainLength": 104,
      "FlipAngle": 52.0,
      "HighBit": 15,
      "ImageOrientationPatient": [0.99942340724205, 0.01227958456069, 0.03165540806432, -0.0054074600203, 0.97797611877551, -0.2086467600537],
      "ImagePositionPatient": [-830.24064489092, -846.08247868097, 106.69038716109],
      "ImageType": [
        "ORIGINAL",
        "PRIMARY",
        "M",
        "MB",
        "ND",
        "MOSAIC"
],
      "ImagedNucleus": "1H",
      "ImagingFrequency": 123.258902,
      "InPlanePhaseEncodingDirection": "COL",
      "MRAcquisitionType": "2D",
      "MagneticFieldStrength": 3.0,
      "Manufacturer": "SIEMENS",
      "ManufacturerModelName": "Prisma_fit",
      "Modality": "MR",
      "NumberOfAverages": 1.0,
      "NumberOfPhaseEncodingSteps": 104,
      "PercentPhaseFieldOfView": 100.0,
      "PercentSampling": 100.0,
      "PerformedProcedureStepStartTime": "111023.866000",
      "PhotometricInterpretation": "MONOCHROME2",
      "PixelBandwidth": 2290.0,
      "PixelRepresentation": 0,
      "PixelSpacing": [2.0, 2.0],
      "ProtocolName": "func_task-things_run-4",
      "RepetitionTime": 1490.0,
      "Rows": 832,
      "SAR": 0.04378557182504,
      "SamplesPerPixel": 1,
      "ScanOptions": "FS",
      "ScanningSequence": "EP",
      "SequenceName": "epfid2d1_104",
      "SequenceVariant": [
        "SK",
        "SS"
],
      "SeriesDescription": "func_task-things_run-4",
      "SeriesNumber": 19,
      "SeriesTime": "134059.530000",
      "SliceLocation": -44.168239817096,
      "SliceThickness": 2.0,
      "SmallestImagePixelValue": 0,
      "SoftwareVersions": "syngo MR E11",
      "SpacingBetweenSlices": 2.0000000301572,
      "SpecificCharacterSet": "ISO_IR 100",
      "StudyID": "1",
      "StudyTime": "111023.793000",
      "TransmitCoilName": "Body",
      "VariableFlipAngleFlag": "N",
      "WindowCenterWidthExplanation": "Algo1",
      "dBdt": 0.0},
    "slices": {}
  },
  "time": {
    "samples": {
      "AcquisitionNumber": [1, 2, 3, 4, 5, 6, 7, 8, 9, 10, 11, 12, 13, 14, 15, 16, 17, 18, 19, 20, 21, 22, 23, 24, 25, 26, 27, 28, 29, 30, 31, 32, 33, 34, 35, 36, 37, 38, 39, 40, 41, 42, 43, 44, 45, 46, 47, 48, 49, 50, 51, 52, 53, 54, 55, 56, 57, 58, 59, 60, 61, 62, 63, 64, 65, 66, 67, 68, 69, 70, 71, 72, 73, 74, 75, 76, 77, 78, 79, 80, 81, 82, 83, 84, 85, 86, 87, 88, 89, 90, 91, 92, 93, 94, 95, 96, 97, 98, 99, 100, 101, 102, 103, 104, 105, 106, 107, 108, 109, 110, 111, 112, 113, 114, 115, 116, 117, 118, 119, 120, 121, 122, 123, 124, 125, 126, 127, 128, 129, 130, 131, 132, 133, 134, 135, 136, 137, 138, 139, 140, 141, 142, 143, 144, 145, 146, 147, 148, 149, 150, 151, 152, 153, 154, 155, 156, 157, 158, 159, 160, 161, 162, 163, 164, 165, 166, 167, 168, 169, 170, 171, 172, 173, 174, 175, 176, 177, 178, 179, 180, 181, 182, 183, 184, 185, 186, 187, 188, 189, 190],
      "AcquisitionTime": ["133958.860000", "134000.350000", "134001.840000", "134003.330000", "134004.820000", "134006.310000", "134007.800000", "134009.290000", "134010.780000", "134012.270000", "134013.760000", "134015.250000", "134016.740000", "134018.230000", "134019.720000", "134021.210000", "134022.700000", "134024.190000", "134025.680000", "134027.170000", "134028.660000", "134030.150000", "134031.640000", "134033.130000", "134034.620000", "134036.110000", "134037.600000", "134039.090000", "134040.580000", "134042.070000", "134043.560000", "134045.050000", "134046.540000", "134048.030000", "134049.520000", "134051.010000", "134052.500000", "134053.990000", "134055.480000", "134056.970000", "134058.460000", "134059.950000", "134101.440000", "134102.930000", "134104.420000", "134105.910000", "134107.400000", "134108.890000", "134110.380000", "134111.870000", "134113.360000", "134114.850000", "134116.340000", "134117.830000", "134119.320000", "134120.810000", "134122.300000", "134123.790000", "134125.280000", "134126.770000", "134128.260000", "134129.750000", "134131.240000", "134132.730000", "134134.220000", "134135.710000", "134137.200000", "134138.690000", "134140.180000", "134141.670000", "134143.160000", "134144.650000", "134146.140000", "134147.630000", "134149.120000", "134150.610000", "134152.100000", "134153.590000", "134155.080000", "134156.570000", "134158.060000", "134159.550000", "134201.040000", "134202.530000", "134204.020000", "134205.510000", "134207.000000", "134208.490000", "134209.980000", "134211.470000", "134212.960000", "134214.450000", "134215.940000", "134217.430000", "134218.920000", "134220.410000", "134221.900000", "134223.390000", "134224.880000", "134226.370000", "134227.860000", "134229.350000", "134230.840000", "134232.330000", "134233.820000", "134235.310000", "134236.800000", "134238.290000", "134239.780000", "134241.270000", "134242.760000", "134244.250000", "134245.740000", "134247.230000", "134248.720000", "134250.210000", "134251.700000", "134253.190000", "134254.680000", "134256.170000", "134257.660000", "134259.150000", "134300.640000", "134302.130000", "134303.620000", "134305.110000", "134306.600000", "134308.090000", "134309.580000", "134311.070000", "134312.560000", "134314.050000", "134315.540000", "134317.030000", "134318.520000", "134320.010000", "134321.500000", "134322.990000", "134324.480000", "134325.970000", "134327.460000", "134328.950000", "134330.440000", "134331.930000", "134333.420000", "134334.910000", "134336.400000", "134337.890000", "134339.380000", "134340.870000", "134342.360000", "134343.850000", "134345.340000", "134346.830000", "134348.320000", "134349.810000", "134351.300000", "134352.790000", "134354.280000", "134355.770000", "134357.260000", "134358.750000", "134400.240000", "134401.730000", "134403.220000", "134404.710000", "134406.200000", "134407.690000", "134409.180000", "134410.670000", "134412.160000", "134413.650000", "134415.140000", "134416.630000", "134418.120000", "134419.610000", "134421.100000", "134422.590000", "134424.080000", "134425.570000", "134427.060000", "134428.550000", "134430.040000", "134431.530000", "134433.020000", "134434.510000", "134436.000000", "134437.490000", "134438.980000", "134440.470000"],
      "ContentTime": ["134059.533000", "134059.537000", "134059.540000", "134059.543000", "134059.547000", "134119.496000", "134119.505000", "134119.509000", "134119.512000", "134119.515000", "134119.519000", "134119.522000", "134119.526000", "134119.529000", "134119.532000", "134119.541000", "134119.544000", "134119.547000", "134119.551000", "134119.554000", "134119.557000", "134119.561000", "134119.564000", "134119.568000", "134119.571000", "134119.574000", "134139.497000", "134139.501000", "134139.504000", "134139.508000", "134139.511000", "134139.514000", "134139.518000", "134139.521000", "134139.524000", "134139.528000", "134139.531000", "134139.534000", "134139.538000", "134139.541000", "134139.544000", "134139.548000", "134139.551000", "134139.554000", "134139.558000", "134139.561000", "134159.496000", "134159.500000", "134159.503000", "134159.507000", "134159.510000", "134159.513000", "134159.517000", "134159.520000", "134159.524000", "134159.527000", "134159.530000", "134159.534000", "134159.537000", "134159.540000", "134159.543000", "134159.547000", "134159.550000", "134159.554000", "134159.557000", "134159.571000", "134219.496000", "134219.500000", "134219.503000", "134219.507000", "134219.510000", "134219.514000", "134219.517000", "134219.521000", "134219.524000", "134219.527000", "134219.531000", "134219.534000", "134219.550000", "134219.553000", "134219.556000", "134219.561000", "134219.564000", "134219.568000", "134219.571000", "134219.574000", "134219.578000", "134239.496000", "134239.500000", "134239.503000", "134239.507000", "134239.510000", "134239.514000", "134239.517000", "134239.520000", "134239.524000", "134239.527000", "134239.530000", "134239.534000", "134239.537000", "134239.540000", "134239.544000", "134239.547000", "134239.550000", "134239.560000", "134239.563000", "134239.566000", "134319.496000", "134319.500000", "134319.504000", "134319.508000", "134319.513000", "134319.517000", "134319.520000", "134319.525000", "134319.529000", "134319.532000", "134319.536000", "134319.540000", "134319.544000", "134319.547000", "134319.551000", "134319.554000", "134319.557000", "134319.561000", "134319.565000", "134319.568000", "134319.571000", "134319.575000", "134319.578000", "134319.581000", "134319.585000", "134319.589000", "134359.497000", "134359.501000", "134359.505000", "134359.508000", "134359.511000", "134359.515000", "134359.518000", "134359.521000", "134359.525000", "134359.528000", "134359.532000", "134359.535000", "134359.538000", "134359.542000", "134359.545000", "134359.549000", "134359.552000", "134359.556000", "134359.559000", "134359.562000", "134359.566000", "134359.569000", "134359.572000", "134359.575000", "134359.579000", "134359.582000", "134359.586000", "134439.496000", "134439.500000", "134439.503000", "134439.507000", "134439.510000", "134439.513000", "134439.517000", "134439.520000", "134439.523000", "134439.527000", "134439.530000", "134439.533000", "134439.537000", "134439.540000", "134439.543000", "134439.547000", "134439.558000", "134439.562000", "134439.565000", "134439.568000", "134439.572000", "134439.575000", "134439.578000", "134439.582000", "134439.585000", "134439.589000", "134439.592000", "134443.016000", "134443.020000", "134443.023000"],
      "InstanceCreationTime": ["134059.533000", "134059.537000", "134059.540000", "134059.543000", "134059.547000", "134119.496000", "134119.505000", "134119.509000", "134119.512000", "134119.515000", "134119.519000", "134119.522000", "134119.526000", "134119.529000", "134119.532000", "134119.541000", "134119.544000", "134119.547000", "134119.551000", "134119.554000", "134119.557000", "134119.561000", "134119.564000", "134119.568000", "134119.571000", "134119.574000", "134139.497000", "134139.501000", "134139.504000", "134139.508000", "134139.511000", "134139.514000", "134139.518000", "134139.521000", "134139.524000", "134139.528000", "134139.531000", "134139.534000", "134139.538000", "134139.541000", "134139.544000", "134139.548000", "134139.551000", "134139.554000", "134139.558000", "134139.561000", "134159.496000", "134159.500000", "134159.503000", "134159.507000", "134159.510000", "134159.513000", "134159.517000", "134159.520000", "134159.524000", "134159.527000", "134159.530000", "134159.534000", "134159.537000", "134159.540000", "134159.543000", "134159.547000", "134159.550000", "134159.554000", "134159.557000", "134159.571000", "134219.496000", "134219.500000", "134219.503000", "134219.507000", "134219.510000", "134219.514000", "134219.517000", "134219.521000", "134219.524000", "134219.527000", "134219.531000", "134219.534000", "134219.550000", "134219.553000", "134219.556000", "134219.561000", "134219.564000", "134219.568000", "134219.571000", "134219.574000", "134219.578000", "134239.496000", "134239.500000", "134239.503000", "134239.507000", "134239.510000", "134239.514000", "134239.517000", "134239.520000", "134239.524000", "134239.527000", "134239.530000", "134239.534000", "134239.537000", "134239.540000", "134239.544000", "134239.547000", "134239.550000", "134239.560000", "134239.563000", "134239.566000", "134319.496000", "134319.500000", "134319.504000", "134319.508000", "134319.513000", "134319.517000", "134319.520000", "134319.525000", "134319.529000", "134319.532000", "134319.536000", "134319.540000", "134319.544000", "134319.547000", "134319.551000", "134319.554000", "134319.557000", "134319.561000", "134319.565000", "134319.568000", "134319.571000", "134319.575000", "134319.578000", "134319.581000", "134319.585000", "134319.589000", "134359.497000", "134359.501000", "134359.505000", "134359.508000", "134359.511000", "134359.515000", "134359.518000", "134359.521000", "134359.525000", "134359.528000", "134359.532000", "134359.535000", "134359.538000", "134359.542000", "134359.545000", "134359.549000", "134359.552000", "134359.556000", "134359.559000", "134359.562000", "134359.566000", "134359.569000", "134359.572000", "134359.575000", "134359.579000", "134359.582000", "134359.586000", "134439.496000", "134439.500000", "134439.503000", "134439.507000", "134439.510000", "134439.513000", "134439.517000", "134439.520000", "134439.523000", "134439.527000", "134439.530000", "134439.533000", "134439.537000", "134439.540000", "134439.543000", "134439.547000", "134439.558000", "134439.562000", "134439.565000", "134439.568000", "134439.572000", "134439.575000", "134439.578000", "134439.582000", "134439.585000", "134439.589000", "134439.592000", "134443.016000", "134443.020000", "134443.023000"],
      "InstanceNumber": [1, 2, 3, 4, 5, 6, 7, 8, 9, 10, 11, 12, 13, 14, 15, 16, 17, 18, 19, 20, 21, 22, 23, 24, 25, 26, 27, 28, 29, 30, 31, 32, 33, 34, 35, 36, 37, 38, 39, 40, 41, 42, 43, 44, 45, 46, 47, 48, 49, 50, 51, 52, 53, 54, 55, 56, 57, 58, 59, 60, 61, 62, 63, 64, 65, 66, 67, 68, 69, 70, 71, 72, 73, 74, 75, 76, 77, 78, 79, 80, 81, 82, 83, 84, 85, 86, 87, 88, 89, 90, 91, 92, 93, 94, 95, 96, 97, 98, 99, 100, 101, 102, 103, 104, 105, 106, 107, 108, 109, 110, 111, 112, 113, 114, 115, 116, 117, 118, 119, 120, 121, 122, 123, 124, 125, 126, 127, 128, 129, 130, 131, 132, 133, 134, 135, 136, 137, 138, 139, 140, 141, 142, 143, 144, 145, 146, 147, 148, 149, 150, 151, 152, 153, 154, 155, 156, 157, 158, 159, 160, 161, 162, 163, 164, 165, 166, 167, 168, 169, 170, 171, 172, 173, 174, 175, 176, 177, 178, 179, 180, 181, 182, 183, 184, 185, 186, 187, 188, 189, 190],
      "LargestImagePixelValue": [40748, 39345, 38959, 38715, 38318, 38556, 38627, 38174, 38139, 38449, 38176, 37943, 37750, 38458, 37923, 38392, 38065, 38231, 38002, 38310, 37846, 37942, 37997, 38439, 37269, 38273, 37938, 38194, 38042, 37983, 37865, 38147, 38072, 38144, 37912, 37763, 38395, 38098, 38048, 38135, 38413, 38424, 38446, 38099, 38497, 38341, 38160, 38231, 38125, 37780, 38274, 37492, 38191, 37847, 38147, 38194, 37811, 37748, 38051, 38437, 38353, 38091, 38519, 38339, 38047, 38436, 38066, 38279, 38368, 38052, 38378, 38032, 38386, 38292, 38118, 38085, 37876, 38176, 37983, 38349, 38413, 38202, 38313, 38420, 38336, 38046, 38337, 38175, 38255, 38389, 38316, 37854, 38559, 38198, 38395, 38086, 38796, 38262, 38344, 37998, 38359, 38490, 37995, 37893, 38250, 38685, 38262, 38101, 38268, 38407, 38085, 38275, 37969, 38298, 38489, 38478, 38796, 38323, 38385, 38283, 38561, 38565, 37769, 38432, 38430, 38102, 38758, 38530, 37855, 38179, 38192, 38251, 38195, 38256, 38220, 37926, 38201, 38064, 38033, 38134, 38252, 38592, 38147, 38132, 38366, 38019, 38457, 38189, 38142, 38479, 38069, 38411, 38162, 38044, 38273, 38523, 38384, 38524, 38077, 38725, 38511, 38562, 38252, 38166, 37766, 38333, 38162, 38463, 38053, 37947, 38051, 38387, 38127, 38587, 38485, 38315, 37953, 37870, 38409, 38387, 38216, 38062, 38056, 37885, 38477, 38205, 38298, 38404, 38057, 38180],
      "WindowCenter": [10103.0, 10059.0, 10061.0, 10062.0, 10056.0, 10046.0, 10037.0, 10030.0, 10044.0, 10053.0, 10062.0, 10057.0, 10050.0, 10047.0, 10045.0, 10046.0, 10047.0, 10055.0, 10053.0, 10052.0, 10040.0, 10048.0, 10054.0, 10053.0, 10033.0, 10045.0, 10045.0, 10046.0, 10053.0, 10062.0, 10054.0, 10038.0, 10029.0, 10027.0, 10028.0, 10030.0, 10026.0, 10019.0, 10026.0, 10028.0, 10033.0, 10032.0, 10026.0, 10020.0, 10025.0, 10026.0, 10021.0, 10029.0, 10034.0, 10038.0, 10048.0, 10034.0, 10037.0, 10022.0, 10020.0, 10026.0, 10028.0, 10036.0, 10038.0, 10037.0, 10028.0, 10029.0, 10030.0, 10029.0, 10020.0, 10016.0, 10002.0, 10015.0, 10027.0, 10022.0, 10017.0, 10003.0, 10016.0, 10034.0, 10053.0, 10039.0, 10022.0, 10013.0, 10020.0, 10027.0, 10037.0, 10031.0, 10037.0, 10030.0, 10018.0, 10004.0, 10017.0, 10018.0, 10034.0, 10044.0, 10045.0, 10038.0, 10036.0, 10039.0, 10055.0, 10047.0, 10036.0, 10026.0, 10035.0, 10042.0, 10043.0, 10037.0, 10023.0, 10025.0, 10028.0, 10024.0, 10017.0, 10026.0, 10036.0, 10045.0, 10038.0, 10023.0, 10019.0, 10026.0, 10028.0, 10028.0, 10033.0, 10018.0, 10012.0, 10017.0, 10022.0, 10030.0, 10030.0, 10036.0, 10035.0, 10029.0, 10035.0, 10043.0, 10040.0, 10038.0, 10029.0, 10020.0, 10027.0, 10043.0, 10040.0, 10030.0, 10029.0, 10023.0, 10021.0, 10013.0, 10019.0, 10024.0, 10021.0, 10029.0, 10030.0, 10028.0, 10035.0, 10037.0, 10040.0, 10029.0, 10006.0, 10010.0, 10020.0, 10027.0, 10042.0, 10045.0, 10039.0, 10020.0, 10004.0, 9999.0, 10008.0, 10024.0, 10034.0, 10027.0, 10031.0, 10038.0, 10030.0, 10011.0, 9988.0, 9986.0, 9992.0, 10006.0, 10012.0, 10027.0, 10043.0, 10054.0, 10047.0, 10031.0, 10021.0, 10019.0, 10019.0, 10021.0, 10029.0, 10022.0, 10019.0, 10020.0, 10028.0, 10043.0, 10046.0, 10031.0],
      "WindowWidth": [21527.0, 21409.0, 21399.0, 21394.0, 21378.0, 21352.0, 21331.0, 21319.0, 21350.0, 21370.0, 21388.0, 21380.0, 21364.0, 21356.0, 21351.0, 21350.0, 21355.0, 21372.0, 21368.0, 21364.0, 21342.0, 21358.0, 21369.0, 21367.0, 21325.0, 21349.0, 21350.0, 21352.0, 21366.0, 21388.0, 21368.0, 21331.0, 21311.0, 21307.0, 21310.0, 21315.0, 21303.0, 21288.0, 21303.0, 21312.0, 21319.0, 21314.0, 21303.0, 21292.0, 21301.0, 21303.0, 21294.0, 21312.0, 21323.0, 21335.0, 21356.0, 21324.0, 21328.0, 21296.0, 21291.0, 21302.0, 21310.0, 21328.0, 21331.0, 21327.0, 21308.0, 21311.0, 21315.0, 21313.0, 21289.0, 21278.0, 21249.0, 21275.0, 21307.0, 21297.0, 21282.0, 21254.0, 21282.0, 21324.0, 21367.0, 21334.0, 21296.0, 21274.0, 21289.0, 21308.0, 21331.0, 21319.0, 21331.0, 21313.0, 21283.0, 21253.0, 21282.0, 21286.0, 21321.0, 21346.0, 21349.0, 21332.0, 21326.0, 21337.0, 21372.0, 21354.0, 21323.0, 21302.0, 21321.0, 21337.0, 21343.0, 21327.0, 21297.0, 21303.0, 21305.0, 21295.0, 21281.0, 21303.0, 21326.0, 21345.0, 21331.0, 21298.0, 21286.0, 21302.0, 21309.0, 21310.0, 21316.0, 21284.0, 21274.0, 21281.0, 21293.0, 21310.0, 21316.0, 21326.0, 21324.0, 21312.0, 21325.0, 21343.0, 21339.0, 21331.0, 21310.0, 21291.0, 21304.0, 21342.0, 21338.0, 21315.0, 21310.0, 21299.0, 21295.0, 21277.0, 21288.0, 21297.0, 21295.0, 21314.0, 21314.0, 21310.0, 21323.0, 21330.0, 21338.0, 21310.0, 21260.0, 21266.0, 21292.0, 21309.0, 21339.0, 21348.0, 21335.0, 21290.0, 21255.0, 21240.0, 21261.0, 21297.0, 21322.0, 21306.0, 21318.0, 21331.0, 21313.0, 21267.0, 21217.0, 21211.0, 21227.0, 21255.0, 21273.0, 21307.0, 21343.0, 21368.0, 21353.0, 21315.0, 21290.0, 21286.0, 21286.0, 21294.0, 21310.0, 21296.0, 21287.0, 21289.0, 21307.0, 21341.0, 21348.0, 21315.0]
    },
    "slices": {}
  }
}