{
  "AcquisitionMatrixPE": 104,
  "AcquisitionNumber": 1,
  "AcquisitionTime": "13:33:17.835000",
  "BandwidthPerPixelPhaseEncode": 17.17,
  "BaseResolution": 104,
  "BodyPartExamined": "BRAIN",
  "CoilCombinationMethod": "Sum of Squares",
  "ConsistencyInfo": "N4_VE11C_LATEST_20160120",
  "ConversionSoftware": "dcm2niix",
  "ConversionSoftwareVersion": "v1.0.20211006",
  "DerivedVendorReportedEchoSpacing": 0.000560011,
  "DeviceSerialNumber": "167006",
  "DwellTime": 2.1e-06,
  "EchoTime": 0.037,
  "EchoTrainLength": 104,
  "EffectiveEchoSpacing": 0.000560011,
  "FlipAngle": 52,
  "HeudiconvVersion": "0.10.0",
  "ImageComments": "Unaliased MB4/PE3/LB",
  "ImageOrientationPatientDICOM": [0.999423, 0.0122796, 0.0316554, -0.00540746, 0.977976, -0.208647],
  "ImageOrientationText": "Tra>Cor(-12.0)>Sag(1.9)",
  "ImageType": [
    "ORIGINAL",
    "PRIMARY",
    "M",
    "MB",
    "ND",
    "MOSAIC"
],
  "ImagingFrequency": 123.259,
  "InPlanePhaseEncodingDirectionDICOM": "COL",
  "InstitutionAddress": "Chemin Queen-Mary 4565,Montreal,District,CA,H3W 1W5",
  "InstitutionName": "IUGM",
  "InstitutionalDepartmentName": "Department",
  "MRAcquisitionType": "2D",
  "MagneticFieldStrength": 3,
  "Manufacturer": "Siemens",
  "ManufacturersModelName": "Prisma_fit",
  "MatrixCoilMode": "SENSE",
  "Modality": "MR",
  "MultibandAccelerationFactor": 4,
  "PartialFourier": 1,
  "PatientPosition": "HFS",
  "PercentPhaseFOV": 100,
  "PercentSampling": 100,
  "PhaseEncodingDirection": "j",
  "PhaseEncodingSteps": 104,
  "PhaseResolution": 1,
  "PixelBandwidth": 2290,
  "ProcedureStepDescription": "memory^things",
  "ProtocolName": "func_task-things_run-3",
  "PulseSequenceDetails": "%CustomerSeq%\\cmrr_mbep2d_bold",
  "ReceiveCoilActiveElements": "HC1-7;NC1,2",
  "ReceiveCoilName": "HeadNeck_64",
  "ReconMatrixPE": 104,
  "RepetitionTime": 1.49,
  "SAR": 0.0437856,
  "ScanOptions": "FS",
  "ScanningSequence": "EP",
  "SequenceName": "epfid2d1_104",
  "SequenceVariant": "SK\\SS",
  "SeriesDescription": "func_task-things_run-3",
  "SeriesNumber": 16,
  "ShimSetting": [628, -7232, -8796, 777, 22, -41, 120, 7],
  "SliceThickness": 2,
  "SliceTiming": [0, 0.785, 0.0975, 0.8825, 0.195, 0.98, 0.295, 1.0775, 0.3925, 1.175, 0.49, 1.2725, 0.5875, 1.3725, 0.685, 0, 0.785, 0.0975, 0.8825, 0.195, 0.98, 0.295, 1.0775, 0.3925, 1.175, 0.49, 1.2725, 0.5875, 1.3725, 0.685, 0, 0.785, 0.0975, 0.8825, 0.195, 0.98, 0.295, 1.0775, 0.3925, 1.175, 0.49, 1.2725, 0.5875, 1.3725, 0.685, 0, 0.785, 0.0975, 0.8825, 0.195, 0.98, 0.295, 1.0775, 0.3925, 1.175, 0.49, 1.2725, 0.5875, 1.3725, 0.685],
  "SoftwareVersions": "syngo MR E11",
  "SpacingBetweenSlices": 2,
  "StationName": "MRC35049",
  "TaskName": "things",
  "TotalReadoutTime": 0.0576811,
  "TxRefAmp": 228.318,
  "WipMemBlock": "855f3a86-ef32-4264-96f3-967dbbbc24e7||Sequence: R016 ve11c/master r/e634e98; Dec 19 2017 11:00:25 by eja",
  "dcmmeta_affine": [
    [-1.9988467693328857, -0.01081492006778717, 0.06704065948724747, 107.71097564697266],
    [-0.02455917000770569, 1.9559522867202759, -0.4167105555534363, -76.28675079345703],
    [0.06331081688404083, 0.417293518781662, 1.9549572467803955, -65.14054870605469],
    [0.0, 0.0, 0.0, 1.0]
],
  "dcmmeta_reorient_transform": [
    [0.0, -1.0, 0.0, 103.0],
    [1.0, 0.0, 0.0, 0.0],
    [0.0, 0.0, 1.0, 0.0],
    [0.0, 0.0, 0.0, 1.0]
],
  "dcmmeta_shape": [104, 104, 60, 190],
  "dcmmeta_slice_dim": 2,
  "dcmmeta_version": 0.6,
  "global": {
    "const": {
      "AcquisitionMatrix": [104, 0, 0, 104],
      "AngioFlag": "N",
      "BitsAllocated": 16,
      "BitsStored": 16,
      "BodyPartExamined": "BRAIN",
      "Columns": 832,
      "EchoNumbers": 1,
      "EchoTime": 37.0,
      "EchoTrainLength": 104,
      "FlipAngle": 52.0,
      "HighBit": 15,
      "ImageOrientationPatient": [0.99942340724205, 0.01227958456069, 0.03165540806432, -0.0054074600203, 0.97797611877551, -0.2086467600537],
      "ImagePositionPatient": [-830.24064489092, -846.08247868097, 106.69038716109],
      "ImageType": [
        "ORIGINAL",
        "PRIMARY",
        "M",
        "MB",
        "ND",
        "MOSAIC"
],
      "ImagedNucleus": "1H",
      "ImagingFrequency": 123.258899,
      "InPlanePhaseEncodingDirection": "COL",
      "MRAcquisitionType": "2D",
      "MagneticFieldStrength": 3.0,
      "Manufacturer": "SIEMENS",
      "ManufacturerModelName": "Prisma_fit",
      "Modality": "MR",
      "NumberOfAverages": 1.0,
      "NumberOfPhaseEncodingSteps": 104,
      "PercentPhaseFieldOfView": 100.0,
      "PercentSampling": 100.0,
      "PerformedProcedureStepStartTime": "111023.866000",
      "PhotometricInterpretation": "MONOCHROME2",
      "PixelBandwidth": 2290.0,
      "PixelRepresentation": 0,
      "PixelSpacing": [2.0, 2.0],
      "ProtocolName": "func_task-things_run-3",
      "RepetitionTime": 1490.0,
      "Rows": 832,
      "SAR": 0.04378557182504,
      "SamplesPerPixel": 1,
      "ScanOptions": "FS",
      "ScanningSequence": "EP",
      "SequenceName": "epfid2d1_104",
      "SequenceVariant": [
        "SK",
        "SS"
],
      "SeriesDescription": "func_task-things_run-3",
      "SeriesNumber": 16,
      "SeriesTime": "133452.745000",
      "SliceLocation": -44.168239817096,
      "SliceThickness": 2.0,
      "SmallestImagePixelValue": 0,
      "SoftwareVersions": "syngo MR E11",
      "SpacingBetweenSlices": 2.0000000301572,
      "SpecificCharacterSet": "ISO_IR 100",
      "StudyID": "1",
      "StudyTime": "111023.793000",
      "TransmitCoilName": "Body",
      "VariableFlipAngleFlag": "N",
      "WindowCenterWidthExplanation": "Algo1",
      "dBdt": 0.0},
    "slices": {}
  },
  "time": {
    "samples": {
      "AcquisitionNumber": [1, 2, 3, 4, 5, 6, 7, 8, 9, 10, 11, 12, 13, 14, 15, 16, 17, 18, 19, 20, 21, 22, 23, 24, 25, 26, 27, 28, 29, 30, 31, 32, 33, 34, 35, 36, 37, 38, 39, 40, 41, 42, 43, 44, 45, 46, 47, 48, 49, 50, 51, 52, 53, 54, 55, 56, 57, 58, 59, 60, 61, 62, 63, 64, 65, 66, 67, 68, 69, 70, 71, 72, 73, 74, 75, 76, 77, 78, 79, 80, 81, 82, 83, 84, 85, 86, 87, 88, 89, 90, 91, 92, 93, 94, 95, 96, 97, 98, 99, 100, 101, 102, 103, 104, 105, 106, 107, 108, 109, 110, 111, 112, 113, 114, 115, 116, 117, 118, 119, 120, 121, 122, 123, 124, 125, 126, 127, 128, 129, 130, 131, 132, 133, 134, 135, 136, 137, 138, 139, 140, 141, 142, 143, 144, 145, 146, 147, 148, 149, 150, 151, 152, 153, 154, 155, 156, 157, 158, 159, 160, 161, 162, 163, 164, 165, 166, 167, 168, 169, 170, 171, 172, 173, 174, 175, 176, 177, 178, 179, 180, 181, 182, 183, 184, 185, 186, 187, 188, 189, 190],
      "AcquisitionTime": ["133317.835000", "133319.325000", "133320.815000", "133322.305000", "133323.795000", "133325.285000", "133326.775000", "133328.265000", "133329.755000", "133331.245000", "133332.735000", "133334.225000", "133335.715000", "133337.205000", "133338.695000", "133340.185000", "133341.675000", "133343.165000", "133344.655000", "133346.145000", "133347.635000", "133349.125000", "133350.615000", "133352.105000", "133353.595000", "133355.085000", "133356.575000", "133358.065000", "133359.555000", "133401.045000", "133402.535000", "133404.025000", "133405.515000", "133407.005000", "133408.495000", "133409.985000", "133411.475000", "133412.965000", "133414.455000", "133415.945000", "133417.435000", "133418.925000", "133420.415000", "133421.905000", "133423.395000", "133424.885000", "133426.375000", "133427.865000", "133429.355000", "133430.845000", "133432.335000", "133433.825000", "133435.315000", "133436.805000", "133438.295000", "133439.785000", "133441.275000", "133442.765000", "133444.255000", "133445.745000", "133447.235000", "133448.725000", "133450.215000", "133451.705000", "133453.195000", "133454.685000", "133456.175000", "133457.665000", "133459.155000", "133500.645000", "133502.135000", "133503.625000", "133505.115000", "133506.605000", "133508.095000", "133509.585000", "133511.075000", "133512.565000", "133514.055000", "133515.545000", "133517.035000", "133518.525000", "133520.015000", "133521.505000", "133522.995000", "133524.485000", "133525.975000", "133527.465000", "133528.955000", "133530.445000", "133531.935000", "133533.425000", "133534.915000", "133536.405000", "133537.895000", "133539.385000", "133540.875000", "133542.365000", "133543.855000", "133545.345000", "133546.835000", "133548.325000", "133549.815000", "133551.305000", "133552.795000", "133554.285000", "133555.775000", "133557.265000", "133558.755000", "133600.245000", "133601.735000", "133603.225000", "133604.715000", "133606.205000", "133607.695000", "133609.185000", "133610.675000", "133612.165000", "133613.655000", "133615.145000", "133616.635000", "133618.125000", "133619.615000", "133621.105000", "133622.595000", "133624.085000", "133625.575000", "133627.065000", "133628.555000", "133630.045000", "133631.535000", "133633.025000", "133634.515000", "133636.005000", "133637.495000", "133638.985000", "133640.475000", "133641.965000", "133643.455000", "133644.945000", "133646.435000", "133647.925000", "133649.415000", "133650.905000", "133652.395000", "133653.885000", "133655.375000", "133656.865000", "133658.355000", "133659.845000", "133701.335000", "133702.825000", "133704.315000", "133705.805000", "133707.295000", "133708.785000", "133710.275000", "133711.765000", "133713.255000", "133714.745000", "133716.235000", "133717.725000", "133719.215000", "133720.705000", "133722.195000", "133723.685000", "133725.175000", "133726.665000", "133728.155000", "133729.645000", "133731.135000", "133732.625000", "133734.115000", "133735.605000", "133737.095000", "133738.585000", "133740.075000", "133741.565000", "133743.055000", "133744.545000", "133746.035000", "133747.525000", "133749.015000", "133750.505000", "133751.995000", "133753.485000", "133754.975000", "133756.465000", "133757.955000", "133759.445000"],
      "ContentTime": ["133452.748000", "133452.752000", "133452.755000", "133452.758000", "133452.762000", "133452.765000", "133452.773000", "133452.777000", "133452.780000", "133452.783000", "133452.787000", "133452.790000", "133452.793000", "133452.797000", "133452.800000", "133452.803000", "133452.807000", "133452.810000", "133452.813000", "133452.817000", "133452.820000", "133452.823000", "133452.827000", "133452.830000", "133452.833000", "133452.837000", "133452.840000", "133452.852000", "133452.855000", "133452.859000", "133452.862000", "133452.865000", "133452.869000", "133452.872000", "133452.875000", "133452.879000", "133452.882000", "133452.886000", "133452.889000", "133452.893000", "133512.703000", "133512.707000", "133512.710000", "133512.714000", "133512.717000", "133512.720000", "133512.724000", "133512.727000", "133512.730000", "133512.734000", "133512.737000", "133512.740000", "133512.744000", "133512.747000", "133512.750000", "133512.754000", "133512.757000", "133512.760000", "133512.764000", "133512.767000", "133532.702000", "133532.706000", "133532.709000", "133532.713000", "133532.716000", "133532.719000", "133532.723000", "133532.726000", "133532.729000", "133532.733000", "133532.736000", "133532.739000", "133532.743000", "133532.746000", "133532.749000", "133532.752000", "133532.756000", "133532.759000", "133532.762000", "133532.777000", "133552.702000", "133552.706000", "133552.709000", "133552.713000", "133552.716000", "133552.720000", "133552.723000", "133552.726000", "133552.729000", "133552.733000", "133552.736000", "133552.739000", "133552.743000", "133552.746000", "133552.749000", "133552.753000", "133552.756000", "133552.759000", "133552.763000", "133552.766000", "133632.702000", "133632.706000", "133632.709000", "133632.713000", "133632.716000", "133632.719000", "133632.723000", "133632.726000", "133632.729000", "133632.733000", "133632.736000", "133632.740000", "133632.743000", "133632.746000", "133632.750000", "133632.753000", "133632.756000", "133632.760000", "133632.763000", "133632.767000", "133632.770000", "133632.773000", "133632.777000", "133632.780000", "133632.783000", "133632.787000", "133632.790000", "133632.794000", "133632.797000", "133632.801000", "133712.702000", "133712.706000", "133712.710000", "133712.713000", "133712.716000", "133712.720000", "133712.723000", "133712.727000", "133712.731000", "133712.735000", "133712.738000", "133712.741000", "133712.744000", "133712.748000", "133712.751000", "133712.755000", "133712.758000", "133712.762000", "133712.765000", "133712.768000", "133712.772000", "133712.775000", "133712.779000", "133712.782000", "133712.786000", "133712.789000", "133752.702000", "133752.706000", "133752.709000", "133752.713000", "133752.716000", "133752.720000", "133752.723000", "133752.726000", "133752.730000", "133752.733000", "133752.737000", "133752.740000", "133752.743000", "133752.747000", "133752.750000", "133752.754000", "133752.757000", "133752.760000", "133752.764000", "133752.767000", "133752.770000", "133752.788000", "133752.791000", "133752.794000", "133752.798000", "133752.801000", "133752.805000", "133802.102000", "133802.106000", "133802.109000", "133802.113000", "133802.116000", "133802.120000", "133802.124000"],
      "InstanceCreationTime": ["133452.748000", "133452.752000", "133452.755000", "133452.758000", "133452.762000", "133452.765000", "133452.773000", "133452.777000", "133452.780000", "133452.783000", "133452.787000", "133452.790000", "133452.793000", "133452.797000", "133452.800000", "133452.803000", "133452.807000", "133452.810000", "133452.813000", "133452.817000", "133452.820000", "133452.823000", "133452.827000", "133452.830000", "133452.833000", "133452.837000", "133452.840000", "133452.852000", "133452.855000", "133452.859000", "133452.862000", "133452.865000", "133452.869000", "133452.872000", "133452.875000", "133452.879000", "133452.882000", "133452.886000", "133452.889000", "133452.893000", "133512.703000", "133512.707000", "133512.710000", "133512.714000", "133512.717000", "133512.720000", "133512.724000", "133512.727000", "133512.730000", "133512.734000", "133512.737000", "133512.740000", "133512.744000", "133512.747000", "133512.750000", "133512.754000", "133512.757000", "133512.760000", "133512.764000", "133512.767000", "133532.702000", "133532.706000", "133532.709000", "133532.713000", "133532.716000", "133532.719000", "133532.723000", "133532.726000", "133532.729000", "133532.733000", "133532.736000", "133532.739000", "133532.743000", "133532.746000", "133532.749000", "133532.752000", "133532.756000", "133532.759000", "133532.762000", "133532.777000", "133552.702000", "133552.706000", "133552.709000", "133552.713000", "133552.716000", "133552.720000", "133552.723000", "133552.726000", "133552.729000", "133552.733000", "133552.736000", "133552.739000", "133552.743000", "133552.746000", "133552.749000", "133552.753000", "133552.756000", "133552.759000", "133552.763000", "133552.766000", "133632.702000", "133632.706000", "133632.709000", "133632.713000", "133632.716000", "133632.719000", "133632.723000", "133632.726000", "133632.729000", "133632.733000", "133632.736000", "133632.740000", "133632.743000", "133632.746000", "133632.750000", "133632.753000", "133632.756000", "133632.760000", "133632.763000", "133632.767000", "133632.770000", "133632.773000", "133632.777000", "133632.780000", "133632.783000", "133632.787000", "133632.790000", "133632.794000", "133632.797000", "133632.801000", "133712.702000", "133712.706000", "133712.710000", "133712.713000", "133712.716000", "133712.720000", "133712.723000", "133712.727000", "133712.731000", "133712.735000", "133712.738000", "133712.741000", "133712.744000", "133712.748000", "133712.751000", "133712.755000", "133712.758000", "133712.762000", "133712.765000", "133712.768000", "133712.772000", "133712.775000", "133712.779000", "133712.782000", "133712.786000", "133712.789000", "133752.702000", "133752.706000", "133752.709000", "133752.713000", "133752.716000", "133752.720000", "133752.723000", "133752.726000", "133752.730000", "133752.733000", "133752.737000", "133752.740000", "133752.743000", "133752.747000", "133752.750000", "133752.754000", "133752.757000", "133752.760000", "133752.764000", "133752.767000", "133752.770000", "133752.788000", "133752.791000", "133752.794000", "133752.798000", "133752.801000", "133752.805000", "133802.102000", "133802.106000", "133802.109000", "133802.113000", "133802.116000", "133802.120000", "133802.124000"],
      "InstanceNumber": [1, 2, 3, 4, 5, 6, 7, 8, 9, 10, 11, 12, 13, 14, 15, 16, 17, 18, 19, 20, 21, 22, 23, 24, 25, 26, 27, 28, 29, 30, 31, 32, 33, 34, 35, 36, 37, 38, 39, 40, 41, 42, 43, 44, 45, 46, 47, 48, 49, 50, 51, 52, 53, 54, 55, 56, 57, 58, 59, 60, 61, 62, 63, 64, 65, 66, 67, 68, 69, 70, 71, 72, 73, 74, 75, 76, 77, 78, 79, 80, 81, 82, 83, 84, 85, 86, 87, 88, 89, 90, 91, 92, 93, 94, 95, 96, 97, 98, 99, 100, 101, 102, 103, 104, 105, 106, 107, 108, 109, 110, 111, 112, 113, 114, 115, 116, 117, 118, 119, 120, 121, 122, 123, 124, 125, 126, 127, 128, 129, 130, 131, 132, 133, 134, 135, 136, 137, 138, 139, 140, 141, 142, 143, 144, 145, 146, 147, 148, 149, 150, 151, 152, 153, 154, 155, 156, 157, 158, 159, 160, 161, 162, 163, 164, 165, 166, 167, 168, 169, 170, 171, 172, 173, 174, 175, 176, 177, 178, 179, 180, 181, 182, 183, 184, 185, 186, 187, 188, 189, 190],
      "LargestImagePixelValue": [40567, 39414, 38646, 38192, 38393, 37951, 38583, 37780, 37939, 37478, 37953, 37793, 37878, 37822, 38198, 38342, 37633, 38036, 37665, 38044, 37956, 38118, 37948, 37997, 37979, 37998, 38125, 37685, 37705, 37666, 38054, 37847, 37600, 37975, 37885, 37788, 38041, 37857, 37589, 37617, 38073, 37992, 37631, 37993, 37709, 38200, 37773, 38020, 37887, 38574, 37434, 38199, 37440, 37716, 37746, 37927, 37884, 37642, 38145, 37965, 38276, 37865, 37916, 37912, 37883, 37940, 37739, 37860, 37583, 38223, 37884, 38035, 38002, 37589, 38311, 37987, 38034, 37970, 38485, 38171, 37680, 38180, 38030, 38127, 37579, 37860, 38031, 38523, 38359, 38664, 37733, 37995, 38263, 38265, 37897, 38107, 37760, 37956, 37860, 37796, 37788, 37676, 37946, 37756, 38026, 37972, 38413, 37917, 37944, 38373, 38133, 37983, 38277, 37818, 38000, 38045, 37740, 38190, 38126, 37766, 38013, 38379, 37709, 38004, 38075, 38049, 38532, 38396, 38349, 38239, 38022, 38163, 38049, 38173, 38504, 38161, 38194, 37893, 38200, 38234, 38244, 38143, 38182, 38321, 38186, 38129, 38191, 37995, 38425, 38703, 38284, 38912, 37970, 37841, 38280, 38066, 38608, 38409, 38169, 38416, 38189, 38101, 38121, 38058, 38203, 38126, 38114, 38120, 38429, 38450, 38139, 38353, 38757, 38461, 38074, 38606, 38500, 38687, 38539, 38124, 38172, 37835, 38117, 38655, 38076, 38132, 38160, 38318, 38377, 38202],
      "WindowCenter": [10102.0, 10062.0, 10046.0, 10038.0, 10043.0, 10044.0, 10051.0, 10046.0, 10045.0, 10037.0, 10049.0, 10061.0, 10071.0, 10063.0, 10061.0, 10051.0, 10043.0, 10036.0, 10042.0, 10051.0, 10059.0, 10053.0, 10043.0, 10033.0, 10026.0, 10031.0, 10035.0, 10037.0, 10036.0, 10034.0, 10032.0, 10034.0, 10035.0, 10040.0, 10041.0, 10043.0, 10042.0, 10042.0, 10027.0, 10016.0, 10013.0, 10021.0, 10025.0, 10040.0, 10042.0, 10041.0, 10028.0, 10024.0, 10016.0, 10029.0, 10027.0, 10027.0, 10011.0, 10015.0, 10024.0, 10049.0, 10045.0, 10043.0, 10033.0, 10025.0, 10023.0, 10027.0, 10034.0, 10028.0, 10034.0, 10034.0, 10035.0, 10042.0, 10038.0, 10041.0, 10043.0, 10044.0, 10044.0, 10052.0, 10061.0, 10052.0, 10034.0, 10018.0, 10015.0, 10017.0, 10024.0, 10036.0, 10039.0, 10045.0, 10038.0, 10043.0, 10050.0, 10066.0, 10059.0, 10043.0, 10018.0, 10017.0, 10023.0, 10039.0, 10044.0, 10038.0, 10028.0, 10032.0, 10042.0, 10052.0, 10052.0, 10043.0, 10035.0, 10034.0, 10035.0, 10035.0, 10040.0, 10036.0, 10043.0, 10050.0, 10044.0, 10034.0, 10025.0, 10018.0, 10026.0, 10034.0, 10029.0, 10027.0, 10034.0, 10045.0, 10043.0, 10048.0, 10043.0, 10051.0, 10051.0, 10050.0, 10042.0, 10033.0, 10024.0, 10025.0, 10033.0, 10034.0, 10026.0, 10018.0, 10016.0, 10015.0, 10017.0, 10026.0, 10033.0, 10035.0, 10040.0, 10036.0, 10042.0, 10050.0, 10044.0, 10043.0, 10037.0, 10037.0, 10035.0, 10041.0, 10033.0, 10038.0, 10025.0, 10019.0, 10033.0, 10041.0, 10032.0, 10031.0, 10025.0, 10041.0, 10045.0, 10044.0, 10028.0, 10027.0, 10035.0, 10043.0, 10044.0, 10037.0, 10021.0, 10017.0, 10018.0, 10033.0, 10034.0, 10033.0, 10026.0, 10041.0, 10042.0, 10034.0, 10031.0, 10021.0, 10019.0, 10028.0, 10044.0, 10059.0, 10045.0, 10036.0, 10031.0, 10031.0, 10033.0, 10026.0],
      "WindowWidth": [21526.0, 21414.0, 21367.0, 21344.0, 21351.0, 21351.0, 21365.0, 21357.0, 21354.0, 21337.0, 21360.0, 21389.0, 21411.0, 21394.0, 21385.0, 21362.0, 21344.0, 21329.0, 21343.0, 21362.0, 21380.0, 21368.0, 21343.0, 21320.0, 21306.0, 21315.0, 21326.0, 21332.0, 21330.0, 21323.0, 21318.0, 21325.0, 21328.0, 21337.0, 21340.0, 21344.0, 21340.0, 21338.0, 21306.0, 21280.0, 21272.0, 21292.0, 21304.0, 21336.0, 21342.0, 21337.0, 21311.0, 21299.0, 21281.0, 21308.0, 21309.0, 21307.0, 21273.0, 21279.0, 21302.0, 21359.0, 21352.0, 21344.0, 21318.0, 21301.0, 21295.0, 21308.0, 21324.0, 21313.0, 21323.0, 21322.0, 21326.0, 21344.0, 21337.0, 21337.0, 21344.0, 21347.0, 21345.0, 21364.0, 21383.0, 21362.0, 21317.0, 21284.0, 21274.0, 21282.0, 21300.0, 21329.0, 21337.0, 21348.0, 21335.0, 21343.0, 21359.0, 21394.0, 21377.0, 21340.0, 21286.0, 21282.0, 21295.0, 21331.0, 21346.0, 21334.0, 21308.0, 21317.0, 21342.0, 21364.0, 21363.0, 21342.0, 21322.0, 21321.0, 21325.0, 21325.0, 21332.0, 21326.0, 21343.0, 21356.0, 21345.0, 21321.0, 21299.0, 21288.0, 21304.0, 21322.0, 21311.0, 21308.0, 21323.0, 21349.0, 21344.0, 21350.0, 21345.0, 21360.0, 21360.0, 21357.0, 21337.0, 21315.0, 21296.0, 21298.0, 21316.0, 21321.0, 21301.0, 21284.0, 21279.0, 21278.0, 21284.0, 21302.0, 21318.0, 21324.0, 21334.0, 21326.0, 21340.0, 21357.0, 21344.0, 21340.0, 21329.0, 21327.0, 21324.0, 21336.0, 21319.0, 21326.0, 21300.0, 21289.0, 21318.0, 21334.0, 21313.0, 21310.0, 21302.0, 21335.0, 21348.0, 21345.0, 21306.0, 21305.0, 21326.0, 21344.0, 21344.0, 21330.0, 21291.0, 21279.0, 21285.0, 21316.0, 21319.0, 21316.0, 21303.0, 21335.0, 21339.0, 21321.0, 21310.0, 21295.0, 21289.0, 21310.0, 21347.0, 21378.0, 21347.0, 21325.0, 21310.0, 21311.0, 21316.0, 21298.0]
    },
    "slices": {}
  }
}