{
  "AcquisitionMatrixPE": 104,
  "AcquisitionNumber": 1,
  "AcquisitionTime": "13:21:12.292500",
  "BandwidthPerPixelPhaseEncode": 17.17,
  "BaseResolution": 104,
  "BodyPartExamined": "BRAIN",
  "CoilCombinationMethod": "Sum of Squares",
  "ConsistencyInfo": "N4_VE11C_LATEST_20160120",
  "ConversionSoftware": "dcm2niix",
  "ConversionSoftwareVersion": "v1.0.20211006",
  "DerivedVendorReportedEchoSpacing": 0.000560011,
  "DeviceSerialNumber": "167006",
  "DwellTime": 2.1e-06,
  "EchoTime": 0.037,
  "EchoTime1": 0.037,
  "EchoTime2": 0.001,
  "EchoTrainLength": 104,
  "EffectiveEchoSpacing": 0.000560011,
  "FlipAngle": 52,
  "HeudiconvVersion": "0.10.0",
  "ImageComments": "Unaliased MB4/PE3/LB",
  "ImageOrientationPatientDICOM": [0.999423, 0.0122796, 0.0316554, -0.00540746, 0.977976, -0.208647],
  "ImageOrientationText": "Tra>Cor(-12.0)>Sag(1.9)",
  "ImageType": [
    "ORIGINAL",
    "PRIMARY",
    "P",
    "MB",
    "ND",
    "MOSAIC",
    "PHASE"
],
  "ImagingFrequency": 123.259,
  "InPlanePhaseEncodingDirectionDICOM": "COL",
  "InstitutionAddress": "Chemin Queen-Mary 4565,Montreal,District,CA,H3W 1W5",
  "InstitutionName": "IUGM",
  "InstitutionalDepartmentName": "Department",
  "MRAcquisitionType": "2D",
  "MagneticFieldStrength": 3,
  "Manufacturer": "Siemens",
  "ManufacturersModelName": "Prisma_fit",
  "MatrixCoilMode": "SENSE",
  "Modality": "MR",
  "MultibandAccelerationFactor": 4,
  "PartialFourier": 1,
  "PatientPosition": "HFS",
  "PercentPhaseFOV": 100,
  "PercentSampling": 100,
  "PhaseEncodingDirection": "j",
  "PhaseEncodingSteps": 104,
  "PhaseResolution": 1,
  "PixelBandwidth": 2290,
  "ProcedureStepDescription": "memory^things",
  "ProtocolName": "func_task-things_run-1",
  "PulseSequenceDetails": "%CustomerSeq%\\cmrr_mbep2d_bold",
  "ReceiveCoilActiveElements": "HC1-7;NC1,2",
  "ReceiveCoilName": "HeadNeck_64",
  "ReconMatrixPE": 104,
  "RepetitionTime": 1.49,
  "SAR": 0.0437856,
  "ScanOptions": "FS",
  "ScanningSequence": "EP",
  "SequenceName": "epfid2d1_104",
  "SequenceVariant": "SK\\SS",
  "SeriesDescription": "func_task-things_run-1",
  "SeriesNumber": 11,
  "ShimSetting": [628, -7232, -8796, 777, 22, -41, 120, 7],
  "SliceThickness": 2,
  "SliceTiming": [0, 0.785, 0.0975, 0.8825, 0.1975, 0.98, 0.295, 1.0775, 0.3925, 1.1775, 0.49, 1.275, 0.5875, 1.3725, 0.6875, 0, 0.785, 0.0975, 0.8825, 0.1975, 0.98, 0.295, 1.0775, 0.3925, 1.1775, 0.49, 1.275, 0.5875, 1.3725, 0.6875, 0, 0.785, 0.0975, 0.8825, 0.1975, 0.98, 0.295, 1.0775, 0.3925, 1.1775, 0.49, 1.275, 0.5875, 1.3725, 0.6875, 0, 0.785, 0.0975, 0.8825, 0.1975, 0.98, 0.295, 1.0775, 0.3925, 1.1775, 0.49, 1.275, 0.5875, 1.3725, 0.6875],
  "SoftwareVersions": "syngo MR E11",
  "SpacingBetweenSlices": 2,
  "StationName": "MRC35049",
  "TaskName": "things",
  "TotalReadoutTime": 0.0576811,
  "TxRefAmp": 228.318,
  "WipMemBlock": "e2e640cf-a7da-462d-9771-971cd31274d5||Sequence: R016 ve11c/master r/e634e98; Dec 19 2017 11:00:25 by eja",
  "dcmmeta_affine": [
    [-1.9988467693328857, -0.01081492006778717, 0.06704065948724747, 107.71097564697266],
    [-0.02455917000770569, 1.9559522867202759, -0.4167105555534363, -76.28675079345703],
    [0.06331081688404083, 0.417293518781662, 1.9549572467803955, -65.14054870605469],
    [0.0, 0.0, 0.0, 1.0]
],
  "dcmmeta_reorient_transform": [
    [0.0, -1.0, 0.0, 103.0],
    [1.0, 0.0, 0.0, 0.0],
    [0.0, 0.0, 1.0, 0.0],
    [0.0, 0.0, 0.0, 1.0]
],
  "dcmmeta_shape": [104, 104, 60, 190],
  "dcmmeta_slice_dim": 2,
  "dcmmeta_version": 0.6,
  "global": {
    "const": {
      "AcquisitionMatrix": [104, 0, 0, 104],
      "AngioFlag": "N",
      "BitsAllocated": 16,
      "BitsStored": 16,
      "BodyPartExamined": "BRAIN",
      "Columns": 832,
      "EchoNumbers": 1,
      "EchoTime": 37.0,
      "EchoTrainLength": 104,
      "FlipAngle": 52.0,
      "HighBit": 15,
      "ImageOrientationPatient": [0.99942340724205, 0.01227958456069, 0.03165540806432, -0.0054074600203, 0.97797611877551, -0.2086467600537],
      "ImagePositionPatient": [-830.24064489092, -846.08247868097, 106.69038716109],
      "ImageType": [
        "ORIGINAL",
        "PRIMARY",
        "P",
        "MB",
        "ND",
        "MOSAIC"
],
      "ImagedNucleus": "1H",
      "ImagingFrequency": 123.25889,
      "InPlanePhaseEncodingDirection": "COL",
      "LargestImagePixelValue": 4095,
      "MRAcquisitionType": "2D",
      "MagneticFieldStrength": 3.0,
      "Manufacturer": "SIEMENS",
      "ManufacturerModelName": "Prisma_fit",
      "Modality": "MR",
      "NumberOfAverages": 1.0,
      "NumberOfPhaseEncodingSteps": 104,
      "PercentPhaseFieldOfView": 100.0,
      "PercentSampling": 100.0,
      "PerformedProcedureStepStartTime": "111023.866000",
      "PhotometricInterpretation": "MONOCHROME2",
      "PixelBandwidth": 2290.0,
      "PixelRepresentation": 0,
      "PixelSpacing": [2.0, 2.0],
      "ProtocolName": "func_task-things_run-1",
      "RepetitionTime": 1490.0,
      "RescaleIntercept": -4096.0,
      "RescaleSlope": 2.0,
      "RescaleType": "US",
      "Rows": 832,
      "SAR": 0.04378557182504,
      "SamplesPerPixel": 1,
      "ScanOptions": "FS",
      "ScanningSequence": "EP",
      "SequenceName": "epfid2d1_104",
      "SequenceVariant": [
        "SK",
        "SS"
],
      "SeriesDescription": "func_task-things_run-1",
      "SeriesNumber": 11,
      "SeriesTime": "132239.703000",
      "SliceLocation": -44.168239817096,
      "SliceThickness": 2.0,
      "SmallestImagePixelValue": 0,
      "SoftwareVersions": "syngo MR E11",
      "SpacingBetweenSlices": 2.0000000301572,
      "SpecificCharacterSet": "ISO_IR 100",
      "StudyID": "1",
      "StudyTime": "111023.793000",
      "TransmitCoilName": "Body",
      "VariableFlipAngleFlag": "N",
      "WindowCenterWidthExplanation": "Algo1",
      "dBdt": 0.0},
    "slices": {}
  },
  "time": {
    "samples": {
      "AcquisitionNumber": [1, 2, 3, 4, 5, 6, 7, 8, 9, 10, 11, 12, 13, 14, 15, 16, 17, 18, 19, 20, 21, 22, 23, 24, 25, 26, 27, 28, 29, 30, 31, 32, 33, 34, 35, 36, 37, 38, 39, 40, 41, 42, 43, 44, 45, 46, 47, 48, 49, 50, 51, 52, 53, 54, 55, 56, 57, 58, 59, 60, 61, 62, 63, 64, 65, 66, 67, 68, 69, 70, 71, 72, 73, 74, 75, 76, 77, 78, 79, 80, 81, 82, 83, 84, 85, 86, 87, 88, 89, 90, 91, 92, 93, 94, 95, 96, 97, 98, 99, 100, 101, 102, 103, 104, 105, 106, 107, 108, 109, 110, 111, 112, 113, 114, 115, 116, 117, 118, 119, 120, 121, 122, 123, 124, 125, 126, 127, 128, 129, 130, 131, 132, 133, 134, 135, 136, 137, 138, 139, 140, 141, 142, 143, 144, 145, 146, 147, 148, 149, 150, 151, 152, 153, 154, 155, 156, 157, 158, 159, 160, 161, 162, 163, 164, 165, 166, 167, 168, 169, 170, 171, 172, 173, 174, 175, 176, 177, 178, 179, 180, 181, 182, 183, 184, 185, 186, 187, 188, 189, 190],
      "AcquisitionTime": ["132112.292500", "132113.782500", "132115.272500", "132116.762500", "132118.252500", "132119.742500", "132121.232500", "132122.722500", "132124.212500", "132125.702500", "132127.192500", "132128.682500", "132130.172500", "132131.662500", "132133.152500", "132134.642500", "132136.132500", "132137.622500", "132139.112500", "132140.602500", "132142.092500", "132143.582500", "132145.072500", "132146.562500", "132148.052500", "132149.542500", "132151.032500", "132152.522500", "132154.012500", "132155.502500", "132156.992500", "132158.482500", "132159.972500", "132201.462500", "132202.952500", "132204.442500", "132205.932500", "132207.422500", "132208.912500", "132210.402500", "132211.892500", "132213.382500", "132214.872500", "132216.362500", "132217.852500", "132219.342500", "132220.832500", "132222.322500", "132223.812500", "132225.302500", "132226.792500", "132228.282500", "132229.772500", "132231.262500", "132232.752500", "132234.242500", "132235.732500", "132237.222500", "132238.712500", "132240.202500", "132241.692500", "132243.182500", "132244.672500", "132246.162500", "132247.652500", "132249.142500", "132250.632500", "132252.122500", "132253.612500", "132255.102500", "132256.592500", "132258.082500", "132259.572500", "132301.062500", "132302.552500", "132304.042500", "132305.532500", "132307.022500", "132308.512500", "132310.002500", "132311.492500", "132312.982500", "132314.472500", "132315.962500", "132317.452500", "132318.942500", "132320.432500", "132321.922500", "132323.412500", "132324.902500", "132326.392500", "132327.882500", "132329.372500", "132330.862500", "132332.352500", "132333.842500", "132335.332500", "132336.822500", "132338.312500", "132339.802500", "132341.292500", "132342.782500", "132344.272500", "132345.762500", "132347.252500", "132348.742500", "132350.232500", "132351.722500", "132353.212500", "132354.702500", "132356.192500", "132357.682500", "132359.172500", "132400.662500", "132402.152500", "132403.642500", "132405.132500", "132406.622500", "132408.112500", "132409.602500", "132411.092500", "132412.582500", "132414.072500", "132415.562500", "132417.052500", "132418.542500", "132420.032500", "132421.522500", "132423.012500", "132424.502500", "132425.992500", "132427.482500", "132428.972500", "132430.462500", "132431.952500", "132433.442500", "132434.932500", "132436.422500", "132437.912500", "132439.402500", "132440.892500", "132442.382500", "132443.872500", "132445.362500", "132446.852500", "132448.342500", "132449.832500", "132451.322500", "132452.812500", "132454.302500", "132455.792500", "132457.282500", "132458.772500", "132500.262500", "132501.752500", "132503.242500", "132504.732500", "132506.222500", "132507.712500", "132509.202500", "132510.692500", "132512.182500", "132513.672500", "132515.162500", "132516.652500", "132518.142500", "132519.632500", "132521.122500", "132522.612500", "132524.102500", "132525.592500", "132527.082500", "132528.572500", "132530.062500", "132531.552500", "132533.042500", "132534.532500", "132536.022500", "132537.512500", "132539.002500", "132540.492500", "132541.982500", "132543.472500", "132544.962500", "132546.452500", "132547.942500", "132549.432500", "132550.922500", "132552.412500", "132553.902500"],
      "ContentTime": ["132239.706000", "132239.708000", "132239.711000", "132239.713000", "132239.716000", "132239.718000", "132239.721000", "132239.723000", "132239.726000", "132239.728000", "132239.731000", "132239.733000", "132239.736000", "132239.738000", "132239.741000", "132239.743000", "132239.746000", "132239.753000", "132239.755000", "132239.758000", "132239.761000", "132239.763000", "132239.766000", "132239.768000", "132239.771000", "132239.774000", "132239.776000", "132239.779000", "132239.781000", "132239.784000", "132239.787000", "132239.789000", "132239.792000", "132259.601000", "132259.604000", "132259.606000", "132259.609000", "132259.612000", "132259.614000", "132259.617000", "132259.620000", "132259.622000", "132259.625000", "132259.627000", "132259.630000", "132259.632000", "132259.635000", "132259.637000", "132259.640000", "132259.642000", "132259.645000", "132259.647000", "132259.650000", "132319.606000", "132319.609000", "132319.611000", "132319.614000", "132319.617000", "132319.619000", "132319.622000", "132319.624000", "132319.627000", "132319.629000", "132319.632000", "132319.635000", "132319.637000", "132319.640000", "132319.642000", "132319.645000", "132319.648000", "132319.650000", "132319.653000", "132319.655000", "132339.623000", "132339.627000", "132339.630000", "132339.633000", "132339.635000", "132339.638000", "132339.641000", "132339.643000", "132339.646000", "132339.648000", "132339.651000", "132339.654000", "132339.656000", "132339.659000", "132339.661000", "132339.664000", "132339.667000", "132339.669000", "132339.672000", "132339.674000", "132419.671000", "132419.673000", "132419.676000", "132419.679000", "132419.681000", "132419.684000", "132419.686000", "132419.689000", "132419.692000", "132419.695000", "132419.697000", "132419.700000", "132419.702000", "132419.705000", "132419.708000", "132419.710000", "132419.713000", "132419.715000", "132419.718000", "132419.721000", "132419.723000", "132419.726000", "132419.729000", "132419.731000", "132419.734000", "132419.736000", "132419.739000", "132419.742000", "132419.744000", "132419.747000", "132419.749000", "132419.752000", "132459.649000", "132459.652000", "132459.654000", "132459.657000", "132459.660000", "132459.662000", "132459.665000", "132459.667000", "132459.670000", "132459.672000", "132459.675000", "132459.677000", "132459.680000", "132459.683000", "132459.685000", "132459.688000", "132459.690000", "132459.693000", "132459.695000", "132459.698000", "132459.700000", "132459.703000", "132459.706000", "132459.708000", "132459.711000", "132459.713000", "132459.716000", "132539.652000", "132539.655000", "132539.657000", "132539.660000", "132539.662000", "132539.665000", "132539.668000", "132539.670000", "132539.673000", "132539.675000", "132539.678000", "132539.681000", "132539.683000", "132539.686000", "132539.688000", "132539.691000", "132539.693000", "132539.696000", "132539.698000", "132539.701000", "132539.703000", "132539.706000", "132539.708000", "132539.711000", "132539.713000", "132539.716000", "132539.718000", "132555.926000", "132555.928000", "132555.931000", "132555.934000", "132555.936000", "132555.939000", "132555.942000", "132555.944000", "132555.947000", "132555.949000", "132555.952000"],
      "InstanceCreationTime": ["132239.706000", "132239.708000", "132239.711000", "132239.713000", "132239.716000", "132239.718000", "132239.721000", "132239.723000", "132239.726000", "132239.728000", "132239.731000", "132239.733000", "132239.736000", "132239.738000", "132239.741000", "132239.743000", "132239.746000", "132239.753000", "132239.755000", "132239.758000", "132239.761000", "132239.763000", "132239.766000", "132239.768000", "132239.771000", "132239.774000", "132239.776000", "132239.779000", "132239.781000", "132239.784000", "132239.787000", "132239.789000", "132239.792000", "132259.601000", "132259.604000", "132259.606000", "132259.609000", "132259.612000", "132259.614000", "132259.617000", "132259.620000", "132259.622000", "132259.625000", "132259.627000", "132259.630000", "132259.632000", "132259.635000", "132259.637000", "132259.640000", "132259.642000", "132259.645000", "132259.647000", "132259.650000", "132319.606000", "132319.609000", "132319.611000", "132319.614000", "132319.617000", "132319.619000", "132319.622000", "132319.624000", "132319.627000", "132319.629000", "132319.632000", "132319.635000", "132319.637000", "132319.640000", "132319.642000", "132319.645000", "132319.648000", "132319.650000", "132319.653000", "132319.655000", "132339.623000", "132339.627000", "132339.630000", "132339.633000", "132339.635000", "132339.638000", "132339.641000", "132339.643000", "132339.646000", "132339.648000", "132339.651000", "132339.654000", "132339.656000", "132339.659000", "132339.661000", "132339.664000", "132339.667000", "132339.669000", "132339.672000", "132339.674000", "132419.671000", "132419.673000", "132419.676000", "132419.679000", "132419.681000", "132419.684000", "132419.686000", "132419.689000", "132419.692000", "132419.695000", "132419.697000", "132419.700000", "132419.702000", "132419.705000", "132419.708000", "132419.710000", "132419.713000", "132419.715000", "132419.718000", "132419.721000", "132419.723000", "132419.726000", "132419.729000", "132419.731000", "132419.734000", "132419.736000", "132419.739000", "132419.742000", "132419.744000", "132419.747000", "132419.749000", "132419.752000", "132459.649000", "132459.652000", "132459.654000", "132459.657000", "132459.660000", "132459.662000", "132459.665000", "132459.667000", "132459.670000", "132459.672000", "132459.675000", "132459.677000", "132459.680000", "132459.683000", "132459.685000", "132459.688000", "132459.690000", "132459.693000", "132459.695000", "132459.698000", "132459.700000", "132459.703000", "132459.706000", "132459.708000", "132459.711000", "132459.713000", "132459.716000", "132539.652000", "132539.655000", "132539.657000", "132539.660000", "132539.662000", "132539.665000", "132539.668000", "132539.670000", "132539.673000", "132539.675000", "132539.678000", "132539.681000", "132539.683000", "132539.686000", "132539.688000", "132539.691000", "132539.693000", "132539.696000", "132539.698000", "132539.701000", "132539.703000", "132539.706000", "132539.708000", "132539.711000", "132539.713000", "132539.716000", "132539.718000", "132555.926000", "132555.928000", "132555.931000", "132555.934000", "132555.936000", "132555.939000", "132555.942000", "132555.944000", "132555.947000", "132555.949000", "132555.952000"],
      "InstanceNumber": [1, 2, 3, 4, 5, 6, 7, 8, 9, 10, 11, 12, 13, 14, 15, 16, 17, 18, 19, 20, 21, 22, 23, 24, 25, 26, 27, 28, 29, 30, 31, 32, 33, 34, 35, 36, 37, 38, 39, 40, 41, 42, 43, 44, 45, 46, 47, 48, 49, 50, 51, 52, 53, 54, 55, 56, 57, 58, 59, 60, 61, 62, 63, 64, 65, 66, 67, 68, 69, 70, 71, 72, 73, 74, 75, 76, 77, 78, 79, 80, 81, 82, 83, 84, 85, 86, 87, 88, 89, 90, 91, 92, 93, 94, 95, 96, 97, 98, 99, 100, 101, 102, 103, 104, 105, 106, 107, 108, 109, 110, 111, 112, 113, 114, 115, 116, 117, 118, 119, 120, 121, 122, 123, 124, 125, 126, 127, 128, 129, 130, 131, 132, 133, 134, 135, 136, 137, 138, 139, 140, 141, 142, 143, 144, 145, 146, 147, 148, 149, 150, 151, 152, 153, 154, 155, 156, 157, 158, 159, 160, 161, 162, 163, 164, 165, 166, 167, 168, 169, 170, 171, 172, 173, 174, 175, 176, 177, 178, 179, 180, 181, 182, 183, 184, 185, 186, 187, 188, 189, 190],
      "WindowCenter": [4872.0, 4896.0, 4870.0, 4872.0, 4896.0, 4896.0, 4890.0, 4896.0, 4894.0, 4898.0, 4894.0, 4896.0, 4894.0, 4898.0, 4894.0, 4894.0, 4896.0, 4898.0, 4892.0, 4892.0, 4894.0, 4894.0, 4896.0, 4894.0, 4898.0, 4892.0, 4896.0, 4894.0, 4890.0, 4896.0, 4898.0, 4894.0, 4898.0, 4872.0, 4894.0, 4898.0, 4896.0, 4894.0, 4894.0, 4896.0, 4896.0, 4870.0, 4872.0, 4894.0, 4896.0, 4896.0, 4894.0, 4894.0, 4894.0, 4896.0, 4896.0, 4896.0, 4898.0, 4894.0, 4894.0, 4894.0, 4894.0, 4896.0, 4892.0, 4896.0, 4898.0, 4896.0, 4894.0, 4896.0, 4896.0, 4898.0, 4894.0, 4896.0, 4894.0, 4896.0, 4870.0, 4896.0, 4894.0, 4896.0, 4896.0, 4894.0, 4894.0, 4898.0, 4894.0, 4896.0, 4894.0, 4896.0, 4894.0, 4894.0, 4896.0, 4896.0, 4896.0, 4894.0, 4870.0, 4896.0, 4892.0, 4892.0, 4892.0, 4894.0, 4894.0, 4896.0, 4894.0, 4894.0, 4872.0, 4894.0, 4894.0, 4894.0, 4898.0, 4892.0, 4894.0, 4892.0, 4870.0, 4896.0, 4894.0, 4892.0, 4896.0, 4892.0, 4894.0, 4894.0, 4896.0, 4898.0, 4896.0, 4898.0, 4894.0, 4892.0, 4896.0, 4896.0, 4894.0, 4888.0, 4898.0, 4896.0, 4894.0, 4892.0, 4896.0, 4896.0, 4870.0, 4894.0, 4896.0, 4896.0, 4892.0, 4894.0, 4890.0, 4896.0, 4896.0, 4894.0, 4892.0, 4894.0, 4894.0, 4896.0, 4896.0, 4896.0, 4892.0, 4894.0, 4896.0, 4872.0, 4892.0, 4894.0, 4894.0, 4894.0, 4894.0, 4892.0, 4894.0, 4898.0, 4894.0, 4894.0, 4890.0, 4892.0, 4894.0, 4894.0, 4894.0, 4896.0, 4896.0, 4894.0, 4898.0, 4896.0, 4896.0, 4896.0, 4896.0, 4894.0, 4892.0, 4894.0, 4896.0, 4898.0, 4896.0, 4892.0, 4890.0, 4894.0, 4890.0, 4896.0, 4896.0, 4894.0, 4896.0, 4896.0, 4896.0, 4896.0],
      "WindowWidth": [18674.0, 18700.0, 18678.0, 18678.0, 18708.0, 18702.0, 18710.0, 18702.0, 18708.0, 18702.0, 18710.0, 18702.0, 18708.0, 18708.0, 18704.0, 18698.0, 18704.0, 18700.0, 18702.0, 18702.0, 18708.0, 18706.0, 18710.0, 18710.0, 18708.0, 18708.0, 18706.0, 18708.0, 18698.0, 18706.0, 18704.0, 18712.0, 18706.0, 18680.0, 18708.0, 18716.0, 18716.0, 18712.0, 18710.0, 18704.0, 18706.0, 18674.0, 18678.0, 18710.0, 18712.0, 18708.0, 18710.0, 18702.0, 18706.0, 18700.0, 18708.0, 18706.0, 18712.0, 18712.0, 18716.0, 18708.0, 18714.0, 18712.0, 18710.0, 18704.0, 18714.0, 18704.0, 18716.0, 18712.0, 18708.0, 18710.0, 18712.0, 18710.0, 18708.0, 18706.0, 18678.0, 18708.0, 18708.0, 18714.0, 18710.0, 18708.0, 18710.0, 18714.0, 18710.0, 18712.0, 18704.0, 18700.0, 18700.0, 18704.0, 18706.0, 18706.0, 18706.0, 18710.0, 18678.0, 18712.0, 18708.0, 18712.0, 18708.0, 18712.0, 18714.0, 18710.0, 18706.0, 18714.0, 18672.0, 18714.0, 18708.0, 18714.0, 18708.0, 18714.0, 18706.0, 18710.0, 18676.0, 18714.0, 18712.0, 18712.0, 18712.0, 18706.0, 18706.0, 18716.0, 18706.0, 18712.0, 18714.0, 18720.0, 18714.0, 18708.0, 18710.0, 18710.0, 18704.0, 18706.0, 18710.0, 18718.0, 18706.0, 18716.0, 18710.0, 18712.0, 18676.0, 18712.0, 18708.0, 18716.0, 18714.0, 18714.0, 18716.0, 18714.0, 18712.0, 18714.0, 18710.0, 18708.0, 18710.0, 18710.0, 18712.0, 18710.0, 18710.0, 18710.0, 18712.0, 18680.0, 18712.0, 18702.0, 18716.0, 18710.0, 18712.0, 18710.0, 18712.0, 18708.0, 18714.0, 18704.0, 18710.0, 18710.0, 18714.0, 18710.0, 18720.0, 18710.0, 18716.0, 18710.0, 18716.0, 18706.0, 18712.0, 18712.0, 18712.0, 18708.0, 18712.0, 18708.0, 18710.0, 18708.0, 18714.0, 18712.0, 18714.0, 18710.0, 18714.0, 18710.0, 18716.0, 18708.0, 18718.0, 18708.0, 18712.0, 18710.0]
    },
    "slices": {}
  }
}