{
  "AcquisitionMatrixPE": 104,
  "AcquisitionNumber": 1,
  "AcquisitionTime": "13:45:59.352500",
  "BandwidthPerPixelPhaseEncode": 17.17,
  "BaseResolution": 104,
  "BodyPartExamined": "BRAIN",
  "CoilCombinationMethod": "Sum of Squares",
  "ConsistencyInfo": "N4_VE11C_LATEST_20160120",
  "ConversionSoftware": "dcm2niix",
  "ConversionSoftwareVersion": "v1.0.20211006",
  "DerivedVendorReportedEchoSpacing": 0.000560011,
  "DeviceSerialNumber": "167006",
  "DwellTime": 2.1e-06,
  "EchoTime": 0.037,
  "EchoTrainLength": 104,
  "EffectiveEchoSpacing": 0.000560011,
  "FlipAngle": 52,
  "HeudiconvVersion": "0.10.0",
  "ImageComments": "Unaliased MB4/PE3/LB",
  "ImageOrientationPatientDICOM": [0.999423, 0.0122796, 0.0316554, -0.00540746, 0.977976, -0.208647],
  "ImageOrientationText": "Tra>Cor(-12.0)>Sag(1.9)",
  "ImageType": [
    "ORIGINAL",
    "PRIMARY",
    "M",
    "MB",
    "ND",
    "MOSAIC"
],
  "ImagingFrequency": 123.259,
  "InPlanePhaseEncodingDirectionDICOM": "COL",
  "InstitutionAddress": "Chemin Queen-Mary 4565,Montreal,District,CA,H3W 1W5",
  "InstitutionName": "IUGM",
  "InstitutionalDepartmentName": "Department",
  "MRAcquisitionType": "2D",
  "MagneticFieldStrength": 3,
  "Manufacturer": "Siemens",
  "ManufacturersModelName": "Prisma_fit",
  "MatrixCoilMode": "SENSE",
  "Modality": "MR",
  "MultibandAccelerationFactor": 4,
  "PartialFourier": 1,
  "PatientPosition": "HFS",
  "PercentPhaseFOV": 100,
  "PercentSampling": 100,
  "PhaseEncodingDirection": "j",
  "PhaseEncodingSteps": 104,
  "PhaseResolution": 1,
  "PixelBandwidth": 2290,
  "ProcedureStepDescription": "memory^things",
  "ProtocolName": "func_task-things_run-5",
  "PulseSequenceDetails": "%CustomerSeq%\\cmrr_mbep2d_bold",
  "ReceiveCoilActiveElements": "HC1-7;NC1,2",
  "ReceiveCoilName": "HeadNeck_64",
  "ReconMatrixPE": 104,
  "RepetitionTime": 1.49,
  "SAR": 0.0437856,
  "ScanOptions": "FS",
  "ScanningSequence": "EP",
  "SequenceName": "epfid2d1_104",
  "SequenceVariant": "SK\\SS",
  "SeriesDescription": "func_task-things_run-5",
  "SeriesNumber": 22,
  "ShimSetting": [628, -7232, -8796, 777, 22, -41, 120, 7],
  "SliceThickness": 2,
  "SliceTiming": [0, 0.785, 0.0975, 0.8825, 0.1975, 0.98, 0.295, 1.0775, 0.3925, 1.175, 0.49, 1.275, 0.5875, 1.3725, 0.6875, 0, 0.785, 0.0975, 0.8825, 0.1975, 0.98, 0.295, 1.0775, 0.3925, 1.175, 0.49, 1.275, 0.5875, 1.3725, 0.6875, 0, 0.785, 0.0975, 0.8825, 0.1975, 0.98, 0.295, 1.0775, 0.3925, 1.175, 0.49, 1.275, 0.5875, 1.3725, 0.6875, 0, 0.785, 0.0975, 0.8825, 0.1975, 0.98, 0.295, 1.0775, 0.3925, 1.175, 0.49, 1.275, 0.5875, 1.3725, 0.6875],
  "SoftwareVersions": "syngo MR E11",
  "SpacingBetweenSlices": 2,
  "StationName": "MRC35049",
  "TaskName": "things",
  "TotalReadoutTime": 0.0576811,
  "TxRefAmp": 228.318,
  "WipMemBlock": "88c2bca6-9e84-41a0-a065-078bc73b2ff8||Sequence: R016 ve11c/master r/e634e98; Dec 19 2017 11:00:25 by eja",
  "dcmmeta_affine": [
    [-1.9988467693328857, -0.01081492006778717, 0.06704065948724747, 107.71097564697266],
    [-0.02455917000770569, 1.9559522867202759, -0.4167105555534363, -76.28675079345703],
    [0.06331081688404083, 0.417293518781662, 1.9549572467803955, -65.14054870605469],
    [0.0, 0.0, 0.0, 1.0]
],
  "dcmmeta_reorient_transform": [
    [0.0, -1.0, 0.0, 103.0],
    [1.0, 0.0, 0.0, 0.0],
    [0.0, 0.0, 1.0, 0.0],
    [0.0, 0.0, 0.0, 1.0]
],
  "dcmmeta_shape": [104, 104, 60, 190],
  "dcmmeta_slice_dim": 2,
  "dcmmeta_version": 0.6,
  "global": {
    "const": {
      "AcquisitionMatrix": [104, 0, 0, 104],
      "AngioFlag": "N",
      "BitsAllocated": 16,
      "BitsStored": 16,
      "BodyPartExamined": "BRAIN",
      "Columns": 832,
      "EchoNumbers": 1,
      "EchoTime": 37.0,
      "EchoTrainLength": 104,
      "FlipAngle": 52.0,
      "HighBit": 15,
      "ImageOrientationPatient": [0.99942340724205, 0.01227958456069, 0.03165540806432, -0.0054074600203, 0.97797611877551, -0.2086467600537],
      "ImagePositionPatient": [-830.24064489092, -846.08247868097, 106.69038716109],
      "ImageType": [
        "ORIGINAL",
        "PRIMARY",
        "M",
        "MB",
        "ND",
        "MOSAIC"
],
      "ImagedNucleus": "1H",
      "ImagingFrequency": 123.258904,
      "InPlanePhaseEncodingDirection": "COL",
      "MRAcquisitionType": "2D",
      "MagneticFieldStrength": 3.0,
      "Manufacturer": "SIEMENS",
      "ManufacturerModelName": "Prisma_fit",
      "Modality": "MR",
      "NumberOfAverages": 1.0,
      "NumberOfPhaseEncodingSteps": 104,
      "PercentPhaseFieldOfView": 100.0,
      "PercentSampling": 100.0,
      "PerformedProcedureStepStartTime": "111023.866000",
      "PhotometricInterpretation": "MONOCHROME2",
      "PixelBandwidth": 2290.0,
      "PixelRepresentation": 0,
      "PixelSpacing": [2.0, 2.0],
      "ProtocolName": "func_task-things_run-5",
      "RepetitionTime": 1490.0,
      "Rows": 832,
      "SAR": 0.04378557182504,
      "SamplesPerPixel": 1,
      "ScanOptions": "FS",
      "ScanningSequence": "EP",
      "SequenceName": "epfid2d1_104",
      "SequenceVariant": [
        "SK",
        "SS"
],
      "SeriesDescription": "func_task-things_run-5",
      "SeriesNumber": 22,
      "SeriesTime": "134721.217000",
      "SliceLocation": -44.168239817096,
      "SliceThickness": 2.0,
      "SmallestImagePixelValue": 0,
      "SoftwareVersions": "syngo MR E11",
      "SpacingBetweenSlices": 2.0000000301572,
      "SpecificCharacterSet": "ISO_IR 100",
      "StudyID": "1",
      "StudyTime": "111023.793000",
      "TransmitCoilName": "Body",
      "VariableFlipAngleFlag": "N",
      "WindowCenterWidthExplanation": "Algo1",
      "dBdt": 0.0},
    "slices": {}
  },
  "time": {
    "samples": {
      "AcquisitionNumber": [1, 2, 3, 4, 5, 6, 7, 8, 9, 10, 11, 12, 13, 14, 15, 16, 17, 18, 19, 20, 21, 22, 23, 24, 25, 26, 27, 28, 29, 30, 31, 32, 33, 34, 35, 36, 37, 38, 39, 40, 41, 42, 43, 44, 45, 46, 47, 48, 49, 50, 51, 52, 53, 54, 55, 56, 57, 58, 59, 60, 61, 62, 63, 64, 65, 66, 67, 68, 69, 70, 71, 72, 73, 74, 75, 76, 77, 78, 79, 80, 81, 82, 83, 84, 85, 86, 87, 88, 89, 90, 91, 92, 93, 94, 95, 96, 97, 98, 99, 100, 101, 102, 103, 104, 105, 106, 107, 108, 109, 110, 111, 112, 113, 114, 115, 116, 117, 118, 119, 120, 121, 122, 123, 124, 125, 126, 127, 128, 129, 130, 131, 132, 133, 134, 135, 136, 137, 138, 139, 140, 141, 142, 143, 144, 145, 146, 147, 148, 149, 150, 151, 152, 153, 154, 155, 156, 157, 158, 159, 160, 161, 162, 163, 164, 165, 166, 167, 168, 169, 170, 171, 172, 173, 174, 175, 176, 177, 178, 179, 180, 181, 182, 183, 184, 185, 186, 187, 188, 189, 190],
      "AcquisitionTime": ["134559.352500", "134600.842500", "134602.332500", "134603.822500", "134605.312500", "134606.802500", "134608.292500", "134609.782500", "134611.272500", "134612.762500", "134614.252500", "134615.742500", "134617.232500", "134618.722500", "134620.212500", "134621.702500", "134623.192500", "134624.682500", "134626.172500", "134627.662500", "134629.152500", "134630.642500", "134632.132500", "134633.622500", "134635.112500", "134636.602500", "134638.092500", "134639.582500", "134641.072500", "134642.562500", "134644.052500", "134645.542500", "134647.032500", "134648.522500", "134650.012500", "134651.502500", "134652.992500", "134654.482500", "134655.972500", "134657.462500", "134658.952500", "134700.442500", "134701.932500", "134703.422500", "134704.912500", "134706.402500", "134707.892500", "134709.382500", "134710.872500", "134712.362500", "134713.852500", "134715.342500", "134716.832500", "134718.322500", "134719.812500", "134721.302500", "134722.792500", "134724.282500", "134725.772500", "134727.262500", "134728.752500", "134730.242500", "134731.732500", "134733.222500", "134734.712500", "134736.202500", "134737.692500", "134739.182500", "134740.672500", "134742.162500", "134743.652500", "134745.142500", "134746.632500", "134748.122500", "134749.612500", "134751.102500", "134752.592500", "134754.082500", "134755.572500", "134757.062500", "134758.552500", "134800.042500", "134801.532500", "134803.022500", "134804.512500", "134806.002500", "134807.492500", "134808.982500", "134810.472500", "134811.962500", "134813.452500", "134814.942500", "134816.432500", "134817.922500", "134819.412500", "134820.902500", "134822.392500", "134823.882500", "134825.372500", "134826.862500", "134828.352500", "134829.842500", "134831.332500", "134832.822500", "134834.312500", "134835.802500", "134837.292500", "134838.782500", "134840.272500", "134841.762500", "134843.252500", "134844.742500", "134846.232500", "134847.722500", "134849.212500", "134850.702500", "134852.192500", "134853.682500", "134855.172500", "134856.662500", "134858.152500", "134859.642500", "134901.132500", "134902.622500", "134904.112500", "134905.602500", "134907.092500", "134908.582500", "134910.072500", "134911.562500", "134913.052500", "134914.542500", "134916.032500", "134917.522500", "134919.012500", "134920.502500", "134921.992500", "134923.482500", "134924.972500", "134926.462500", "134927.952500", "134929.442500", "134930.932500", "134932.422500", "134933.912500", "134935.402500", "134936.892500", "134938.382500", "134939.872500", "134941.362500", "134942.852500", "134944.342500", "134945.832500", "134947.322500", "134948.812500", "134950.302500", "134951.792500", "134953.282500", "134954.772500", "134956.262500", "134957.752500", "134959.242500", "135000.732500", "135002.222500", "135003.712500", "135005.202500", "135006.692500", "135008.182500", "135009.672500", "135011.162500", "135012.652500", "135014.142500", "135015.632500", "135017.122500", "135018.612500", "135020.102500", "135021.592500", "135023.082500", "135024.572500", "135026.062500", "135027.552500", "135029.042500", "135030.532500", "135032.022500", "135033.512500", "135035.002500", "135036.492500", "135037.982500", "135039.472500", "135040.962500"],
      "ContentTime": ["134721.220000", "134721.224000", "134721.227000", "134721.230000", "134721.234000", "134721.237000", "134721.240000", "134721.244000", "134721.253000", "134721.257000", "134721.260000", "134721.263000", "134721.267000", "134721.270000", "134721.273000", "134721.277000", "134721.280000", "134721.283000", "134721.287000", "134721.290000", "134721.293000", "134721.297000", "134721.300000", "134721.303000", "134721.307000", "134721.310000", "134721.313000", "134721.317000", "134741.176000", "134741.180000", "134741.183000", "134741.186000", "134741.190000", "134741.193000", "134741.196000", "134741.200000", "134741.203000", "134741.206000", "134741.216000", "134741.219000", "134741.223000", "134741.226000", "134741.229000", "134741.233000", "134741.236000", "134741.239000", "134741.243000", "134741.246000", "134801.176000", "134801.180000", "134801.183000", "134801.187000", "134801.190000", "134801.193000", "134801.197000", "134801.200000", "134801.203000", "134801.207000", "134801.210000", "134801.213000", "134801.217000", "134801.220000", "134801.224000", "134801.227000", "134801.230000", "134801.234000", "134801.237000", "134801.240000", "134801.244000", "134821.177000", "134821.181000", "134821.184000", "134821.188000", "134821.191000", "134821.194000", "134821.198000", "134821.201000", "134821.204000", "134821.214000", "134821.218000", "134821.221000", "134821.224000", "134821.227000", "134821.231000", "134821.234000", "134821.237000", "134821.241000", "134821.244000", "134821.247000", "134901.176000", "134901.180000", "134901.183000", "134901.186000", "134901.190000", "134901.193000", "134901.197000", "134901.200000", "134901.204000", "134901.207000", "134901.210000", "134901.214000", "134901.217000", "134901.220000", "134901.224000", "134901.227000", "134901.231000", "134901.234000", "134901.237000", "134901.241000", "134901.244000", "134901.247000", "134901.251000", "134901.254000", "134901.257000", "134901.261000", "134901.264000", "134901.267000", "134901.271000", "134901.274000", "134901.277000", "134901.281000", "134941.176000", "134941.180000", "134941.183000", "134941.187000", "134941.190000", "134941.194000", "134941.197000", "134941.200000", "134941.204000", "134941.207000", "134941.210000", "134941.214000", "134941.217000", "134941.221000", "134941.224000", "134941.227000", "134941.231000", "134941.234000", "134941.237000", "134941.241000", "134941.244000", "134941.248000", "134941.251000", "134941.255000", "134941.258000", "134941.261000", "134941.265000", "135021.176000", "135021.180000", "135021.183000", "135021.187000", "135021.190000", "135021.193000", "135021.197000", "135021.200000", "135021.204000", "135021.207000", "135021.210000", "135021.214000", "135021.217000", "135021.220000", "135021.224000", "135021.227000", "135021.231000", "135021.234000", "135021.238000", "135021.241000", "135021.244000", "135021.248000", "135021.251000", "135021.255000", "135021.258000", "135021.261000", "135021.265000", "135043.452000", "135043.456000", "135043.460000", "135043.463000", "135043.466000", "135043.470000", "135043.473000", "135043.477000", "135043.480000", "135043.483000", "135043.487000", "135043.490000", "135043.493000", "135043.497000", "135043.500000"],
      "InstanceCreationTime": ["134721.220000", "134721.224000", "134721.227000", "134721.230000", "134721.234000", "134721.237000", "134721.240000", "134721.244000", "134721.253000", "134721.257000", "134721.260000", "134721.263000", "134721.267000", "134721.270000", "134721.273000", "134721.277000", "134721.280000", "134721.283000", "134721.287000", "134721.290000", "134721.293000", "134721.297000", "134721.300000", "134721.303000", "134721.307000", "134721.310000", "134721.313000", "134721.317000", "134741.176000", "134741.180000", "134741.183000", "134741.186000", "134741.190000", "134741.193000", "134741.196000", "134741.200000", "134741.203000", "134741.206000", "134741.216000", "134741.219000", "134741.223000", "134741.226000", "134741.229000", "134741.233000", "134741.236000", "134741.239000", "134741.243000", "134741.246000", "134801.176000", "134801.180000", "134801.183000", "134801.187000", "134801.190000", "134801.193000", "134801.197000", "134801.200000", "134801.203000", "134801.207000", "134801.210000", "134801.213000", "134801.217000", "134801.220000", "134801.224000", "134801.227000", "134801.230000", "134801.234000", "134801.237000", "134801.240000", "134801.244000", "134821.177000", "134821.181000", "134821.184000", "134821.188000", "134821.191000", "134821.194000", "134821.198000", "134821.201000", "134821.204000", "134821.214000", "134821.218000", "134821.221000", "134821.224000", "134821.227000", "134821.231000", "134821.234000", "134821.237000", "134821.241000", "134821.244000", "134821.247000", "134901.176000", "134901.180000", "134901.183000", "134901.186000", "134901.190000", "134901.193000", "134901.197000", "134901.200000", "134901.204000", "134901.207000", "134901.210000", "134901.214000", "134901.217000", "134901.220000", "134901.224000", "134901.227000", "134901.231000", "134901.234000", "134901.237000", "134901.241000", "134901.244000", "134901.247000", "134901.251000", "134901.254000", "134901.257000", "134901.261000", "134901.264000", "134901.267000", "134901.271000", "134901.274000", "134901.277000", "134901.281000", "134941.176000", "134941.180000", "134941.183000", "134941.187000", "134941.190000", "134941.194000", "134941.197000", "134941.200000", "134941.204000", "134941.207000", "134941.210000", "134941.214000", "134941.217000", "134941.221000", "134941.224000", "134941.227000", "134941.231000", "134941.234000", "134941.237000", "134941.241000", "134941.244000", "134941.248000", "134941.251000", "134941.255000", "134941.258000", "134941.261000", "134941.265000", "135021.176000", "135021.180000", "135021.183000", "135021.187000", "135021.190000", "135021.193000", "135021.197000", "135021.200000", "135021.204000", "135021.207000", "135021.210000", "135021.214000", "135021.217000", "135021.220000", "135021.224000", "135021.227000", "135021.231000", "135021.234000", "135021.238000", "135021.241000", "135021.244000", "135021.248000", "135021.251000", "135021.255000", "135021.258000", "135021.261000", "135021.265000", "135043.452000", "135043.456000", "135043.460000", "135043.463000", "135043.466000", "135043.470000", "135043.473000", "135043.477000", "135043.480000", "135043.483000", "135043.487000", "135043.490000", "135043.493000", "135043.497000", "135043.500000"],
      "InstanceNumber": [1, 2, 3, 4, 5, 6, 7, 8, 9, 10, 11, 12, 13, 14, 15, 16, 17, 18, 19, 20, 21, 22, 23, 24, 25, 26, 27, 28, 29, 30, 31, 32, 33, 34, 35, 36, 37, 38, 39, 40, 41, 42, 43, 44, 45, 46, 47, 48, 49, 50, 51, 52, 53, 54, 55, 56, 57, 58, 59, 60, 61, 62, 63, 64, 65, 66, 67, 68, 69, 70, 71, 72, 73, 74, 75, 76, 77, 78, 79, 80, 81, 82, 83, 84, 85, 86, 87, 88, 89, 90, 91, 92, 93, 94, 95, 96, 97, 98, 99, 100, 101, 102, 103, 104, 105, 106, 107, 108, 109, 110, 111, 112, 113, 114, 115, 116, 117, 118, 119, 120, 121, 122, 123, 124, 125, 126, 127, 128, 129, 130, 131, 132, 133, 134, 135, 136, 137, 138, 139, 140, 141, 142, 143, 144, 145, 146, 147, 148, 149, 150, 151, 152, 153, 154, 155, 156, 157, 158, 159, 160, 161, 162, 163, 164, 165, 166, 167, 168, 169, 170, 171, 172, 173, 174, 175, 176, 177, 178, 179, 180, 181, 182, 183, 184, 185, 186, 187, 188, 189, 190],
      "LargestImagePixelValue": [40504, 39503, 38915, 38515, 38359, 38224, 37911, 37881, 38549, 38048, 38366, 38070, 38138, 38074, 38175, 37899, 38140, 38033, 37977, 37994, 38341, 38008, 37678, 37770, 37829, 38017, 37575, 38127, 37793, 38253, 37933, 38056, 38642, 38353, 38050, 38254, 37962, 38378, 38390, 38263, 38106, 38118, 38406, 38173, 38121, 38163, 38790, 38210, 38107, 38228, 38369, 38188, 37974, 37796, 38101, 38117, 37966, 38087, 38360, 38012, 38398, 37733, 37978, 38190, 38305, 38043, 37921, 38218, 38044, 37895, 38178, 37821, 37885, 38139, 38155, 38097, 38379, 38085, 37506, 38578, 38442, 37697, 37876, 37919, 37973, 37998, 38342, 38548, 38195, 38402, 38588, 37762, 37597, 38343, 38409, 38328, 38132, 37948, 38159, 38030, 38179, 38061, 38651, 38248, 38418, 38071, 38117, 38431, 38299, 37879, 38251, 38235, 37921, 38172, 38021, 38244, 37730, 37729, 38707, 38039, 38157, 38410, 38664, 37997, 38408, 37972, 38081, 38150, 38179, 38350, 38517, 37799, 37827, 38087, 38112, 38232, 38079, 37749, 38008, 37940, 37861, 37568, 38247, 38191, 38054, 38309, 38328, 37948, 38383, 38084, 38183, 37795, 37916, 38038, 38122, 38096, 37918, 38578, 37877, 38096, 38249, 37822, 37690, 38148, 38150, 38354, 38560, 37998, 38238, 38151, 38569, 37639, 38072, 37617, 38182, 37915, 38573, 38106, 38072, 37542, 38290, 37827, 37952, 37990, 38172, 37992, 37669, 37454, 37992, 37976],
      "WindowCenter": [10108.0, 10063.0, 10057.0, 10056.0, 10059.0, 10052.0, 10029.0, 10024.0, 10029.0, 10032.0, 10038.0, 10039.0, 10040.0, 10049.0, 10050.0, 10035.0, 10031.0, 10023.0, 10029.0, 10039.0, 10038.0, 10015.0, 9997.0, 10004.0, 10029.0, 10049.0, 10037.0, 10024.0, 9997.0, 9985.0, 9984.0, 9994.0, 10009.0, 10010.0, 10011.0, 10012.0, 10012.0, 10010.0, 10006.0, 10011.0, 10013.0, 10014.0, 10019.0, 10005.0, 9997.0, 9987.0, 10006.0, 10011.0, 10026.0, 10021.0, 10029.0, 10021.0, 10030.0, 10047.0, 10051.0, 10025.0, 10007.0, 10001.0, 10017.0, 10028.0, 10029.0, 10017.0, 10012.0, 10021.0, 10038.0, 10033.0, 10008.0, 10002.0, 9996.0, 10013.0, 10031.0, 10034.0, 10026.0, 10022.0, 10014.0, 10013.0, 10014.0, 10022.0, 10016.0, 10026.0, 10022.0, 10017.0, 10024.0, 10026.0, 10014.0, 10004.0, 10010.0, 10019.0, 10031.0, 10047.0, 10039.0, 10025.0, 10018.0, 10021.0, 10019.0, 10022.0, 10032.0, 10033.0, 10018.0, 10007.0, 10006.0, 10021.0, 10037.0, 10040.0, 10040.0, 10033.0, 10031.0, 10024.0, 10022.0, 10025.0, 10039.0, 10041.0, 10034.0, 10026.0, 10039.0, 10056.0, 10038.0, 10025.0, 10027.0, 10015.0, 10022.0, 10029.0, 10037.0, 10023.0, 10014.0, 10006.0, 10004.0, 10004.0, 10030.0, 10039.0, 10023.0, 10004.0, 10006.0, 10031.0, 10034.0, 10026.0, 10015.0, 10022.0, 10039.0, 10042.0, 10020.0, 10002.0, 9996.0, 9987.0, 9981.0, 9994.0, 10004.0, 10005.0, 10004.0, 9996.0, 10003.0, 10006.0, 10027.0, 10041.0, 10026.0, 10005.0, 9989.0, 10001.0, 10008.0, 10023.0, 10032.0, 10027.0, 10011.0, 9999.0, 9997.0, 9998.0, 10009.0, 9998.0, 9998.0, 10004.0, 10028.0, 10026.0, 10025.0, 10016.0, 10008.0, 10015.0, 10029.0, 10024.0, 10023.0, 10027.0, 10038.0, 10024.0, 10007.0, 10006.0, 10015.0, 10031.0, 10028.0, 10028.0, 10007.0, 9998.0],
      "WindowWidth": [21540.0, 21420.0, 21393.0, 21384.0, 21387.0, 21370.0, 21318.0, 21303.0, 21310.0, 21319.0, 21332.0, 21336.0, 21338.0, 21361.0, 21361.0, 21328.0, 21316.0, 21297.0, 21312.0, 21338.0, 21330.0, 21280.0, 21238.0, 21254.0, 21311.0, 21359.0, 21336.0, 21298.0, 21237.0, 21206.0, 21205.0, 21233.0, 21266.0, 21267.0, 21270.0, 21271.0, 21274.0, 21267.0, 21260.0, 21269.0, 21274.0, 21278.0, 21285.0, 21257.0, 21238.0, 21217.0, 21254.0, 21270.0, 21304.0, 21297.0, 21311.0, 21296.0, 21314.0, 21355.0, 21364.0, 21303.0, 21260.0, 21245.0, 21283.0, 21310.0, 21311.0, 21289.0, 21274.0, 21294.0, 21333.0, 21322.0, 21264.0, 21248.0, 21237.0, 21277.0, 21318.0, 21327.0, 21307.0, 21295.0, 21278.0, 21274.0, 21279.0, 21296.0, 21284.0, 21301.0, 21297.0, 21285.0, 21302.0, 21305.0, 21276.0, 21254.0, 21266.0, 21289.0, 21318.0, 21352.0, 21334.0, 21303.0, 21290.0, 21293.0, 21287.0, 21294.0, 21320.0, 21321.0, 21289.0, 21263.0, 21261.0, 21292.0, 21329.0, 21338.0, 21338.0, 21323.0, 21317.0, 21301.0, 21299.0, 21307.0, 21337.0, 21342.0, 21325.0, 21308.0, 21334.0, 21374.0, 21337.0, 21302.0, 21300.0, 21281.0, 21295.0, 21310.0, 21326.0, 21296.0, 21274.0, 21258.0, 21254.0, 21256.0, 21315.0, 21334.0, 21296.0, 21254.0, 21261.0, 21319.0, 21326.0, 21305.0, 21280.0, 21297.0, 21334.0, 21342.0, 21293.0, 21251.0, 21233.0, 21214.0, 21202.0, 21230.0, 21254.0, 21257.0, 21251.0, 21234.0, 21250.0, 21263.0, 21311.0, 21340.0, 21304.0, 21254.0, 21217.0, 21243.0, 21268.0, 21299.0, 21319.0, 21308.0, 21273.0, 21243.0, 21237.0, 21241.0, 21263.0, 21240.0, 21242.0, 21255.0, 21307.0, 21308.0, 21304.0, 21282.0, 21266.0, 21280.0, 21311.0, 21300.0, 21299.0, 21311.0, 21329.0, 21302.0, 21261.0, 21261.0, 21280.0, 21314.0, 21313.0, 21310.0, 21260.0, 21236.0]
    },
    "slices": {}
  }
}