{
  "AcquisitionMatrixPE": 104,
  "AcquisitionNumber": 1,
  "AcquisitionTime": "15:38:48.912500",
  "BandwidthPerPixelPhaseEncode": 17.17,
  "BaseResolution": 104,
  "BodyPartExamined": "BRAIN",
  "CoilString": "HC1-7;NC1_2",
  "ConsistencyInfo": "N4_VE11C_LATEST_20160120",
  "ConversionSoftware": "dcm2niix",
  "ConversionSoftwareVersion": "v1.0.20190902",
  "DerivedVendorReportedEchoSpacing": 0.000560011,
  "DeviceSerialNumber": "167006",
  "DwellTime": 2.1e-06,
  "EchoTime": 0.037,
  "EchoTrainLength": 104,
  "EffectiveEchoSpacing": 0.000560011,
  "FlipAngle": 52,
  "ImageComments": "Unaliased_MB4_PE3_LB",
  "ImageOrientationPatientDICOM": [0.99739, -0.0656255, 0.0300959, 0.0718437, 0.943373, -0.32386],
  "ImageType": [
    "ORIGINAL",
    "PRIMARY",
    "P",
    "MB",
    "ND",
    "MOSAIC"
],
  "ImagingFrequency": 123.259,
  "InPlanePhaseEncodingDirectionDICOM": "COL",
  "InstitutionAddress": "Chemin_Queen-Mary_4565_Montreal_District_CA_H3W_1W5",
  "InstitutionName": "IUGM",
  "InstitutionalDepartmentName": "Department",
  "MRAcquisitionType": "2D",
  "MagneticFieldStrength": 3,
  "Manufacturer": "Siemens",
  "ManufacturersModelName": "Prisma_fit",
  "Modality": "MR",
  "MultibandAccelerationFactor": 4,
  "PartialFourier": 1,
  "PatientPosition": "HFS",
  "PercentPhaseFOV": 100,
  "PhaseEncodingDirection": "j",
  "PhaseEncodingSteps": 104,
  "PhaseResolution": 1,
  "PixelBandwidth": 2290,
  "ProcedureStepDescription": "memory_things",
  "ProtocolName": "func_task-things_run-3",
  "PulseSequenceDetails": "%CustomerSeq%_cmrr_mbep2d_bold",
  "ReceiveCoilActiveElements": "HC1-7;NC1,2",
  "ReceiveCoilName": "HeadNeck_64",
  "ReconMatrixPE": 104,
  "RepetitionTime": 1.49,
  "SAR": 0.0537257,
  "ScanOptions": "FS",
  "ScanningSequence": "EP",
  "SequenceName": "epfid2d1_104",
  "SequenceVariant": "SK_SS",
  "SeriesDescription": "func_task-things_run-3",
  "SeriesNumber": 17,
  "ShimSetting": [629, -7252, -8813, 590, 5, -210, -34, -15],
  "SliceThickness": 2,
  "SliceTiming": [0, 0.7825, 0.0975, 0.88, 0.195, 0.98, 0.2925, 1.0775, 0.39, 1.175, 0.49, 1.2725, 0.5875, 1.37, 0.685, 0, 0.7825, 0.0975, 0.88, 0.195, 0.98, 0.2925, 1.0775, 0.39, 1.175, 0.49, 1.2725, 0.5875, 1.37, 0.685, 0, 0.7825, 0.0975, 0.88, 0.195, 0.98, 0.2925, 1.0775, 0.39, 1.175, 0.49, 1.2725, 0.5875, 1.37, 0.685, 0, 0.7825, 0.0975, 0.88, 0.195, 0.98, 0.2925, 1.0775, 0.39, 1.175, 0.49, 1.2725, 0.5875, 1.37, 0.685],
  "SoftwareVersions": "syngo_MR_E11",
  "SpacingBetweenSlices": 2,
  "StationName": "MRC35049",
  "TaskName": "things",
  "TotalReadoutTime": 0.0576811,
  "TxRefAmp": 261.482,
  "WipMemBlock": "fa13b262-6c47-4d07-a55e-481ca8f3c803||Sequence: R016 ve11c/master r/e634e98; Dec 19 2017 11:00:25 by eja",
  "dcmmeta_affine": [
    [-1.9947806596755981, 0.14368745684623718, 0.014276471920311451, 100.20156860351562],
    [0.13125106692314148, 1.886746883392334, -0.6503533124923706, -72.78343200683594],
    [0.06019185483455658, 0.6477192640304565, 1.8912526369094849, -67.61815643310547],
    [0.0, 0.0, 0.0, 1.0]
],
  "dcmmeta_reorient_transform": [
    [0.0, -1.0, 0.0, 103.0],
    [1.0, 0.0, 0.0, 0.0],
    [0.0, 0.0, 1.0, 0.0],
    [0.0, 0.0, 0.0, 1.0]
],
  "dcmmeta_shape": [104, 104, 60, 190],
  "dcmmeta_slice_dim": 2,
  "dcmmeta_version": 0.6,
  "global": {
    "const": {
      "AcquisitionMatrix": [104, 0, 0, 104],
      "AngioFlag": "N",
      "BitsAllocated": 16,
      "BitsStored": 16,
      "BodyPartExamined": "BRAIN",
      "Columns": 832,
      "EchoNumbers": 1,
      "EchoTime": 37.0,
      "EchoTrainLength": 104,
      "FlipAngle": 52.0,
      "HighBit": 15,
      "ImageOrientationPatient": [0.99739035716299, -0.0656255334838, 0.03009592652278, 0.07184372641588, 0.94337342363707, -0.3238596340237],
      "ImagePositionPatient": [-893.40379031922, -760.55195353089, 212.95691016443],
      "ImageType": [
        "ORIGINAL",
        "PRIMARY",
        "P",
        "MB",
        "ND",
        "MOSAIC"
],
      "ImagedNucleus": "1H",
      "ImagingFrequency": 123.258951,
      "InPlanePhaseEncodingDirection": "COL",
      "LargestImagePixelValue": 4095,
      "MRAcquisitionType": "2D",
      "MagneticFieldStrength": 3.0,
      "Manufacturer": "SIEMENS",
      "ManufacturerModelName": "Prisma_fit",
      "Modality": "MR",
      "NumberOfAverages": 1.0,
      "NumberOfPhaseEncodingSteps": 104,
      "PercentPhaseFieldOfView": 100.0,
      "PercentSampling": 100.0,
      "PerformedProcedureStepStartTime": "151420.844000",
      "PhotometricInterpretation": "MONOCHROME2",
      "PixelBandwidth": 2290.0,
      "PixelRepresentation": 0,
      "PixelSpacing": [2.0, 2.0],
      "ProtocolName": "func_task-things_run-3",
      "RepetitionTime": 1490.0,
      "RescaleIntercept": -4096.0,
      "RescaleSlope": 2.0,
      "RescaleType": "US",
      "Rows": 832,
      "SAR": 0.05372570294834,
      "SamplesPerPixel": 1,
      "ScanOptions": "FS",
      "ScanningSequence": "EP",
      "SequenceName": "epfid2d1_104",
      "SequenceVariant": [
        "SK",
        "SS"
],
      "SeriesDescription": "func_task-things_run-3",
      "SeriesNumber": 17,
      "SeriesTime": "154006.774000",
      "SliceLocation": -39.558768514121,
      "SliceThickness": 2.0,
      "SmallestImagePixelValue": 0,
      "SoftwareVersions": "syngo MR E11",
      "SpacingBetweenSlices": 1.9999999429145,
      "SpecificCharacterSet": "ISO_IR 100",
      "StudyID": "1",
      "StudyTime": "151420.769000",
      "TransmitCoilName": "Body",
      "VariableFlipAngleFlag": "N",
      "WindowCenterWidthExplanation": "Algo1",
      "dBdt": 0.0},
    "slices": {}
  },
  "time": {
    "samples": {
      "AcquisitionNumber": [1, 2, 3, 4, 5, 6, 7, 8, 9, 10, 11, 12, 13, 14, 15, 16, 17, 18, 19, 20, 21, 22, 23, 24, 25, 26, 27, 28, 29, 30, 31, 32, 33, 34, 35, 36, 37, 38, 39, 40, 41, 42, 43, 44, 45, 46, 47, 48, 49, 50, 51, 52, 53, 54, 55, 56, 57, 58, 59, 60, 61, 62, 63, 64, 65, 66, 67, 68, 69, 70, 71, 72, 73, 74, 75, 76, 77, 78, 79, 80, 81, 82, 83, 84, 85, 86, 87, 88, 89, 90, 91, 92, 93, 94, 95, 96, 97, 98, 99, 100, 101, 102, 103, 104, 105, 106, 107, 108, 109, 110, 111, 112, 113, 114, 115, 116, 117, 118, 119, 120, 121, 122, 123, 124, 125, 126, 127, 128, 129, 130, 131, 132, 133, 134, 135, 136, 137, 138, 139, 140, 141, 142, 143, 144, 145, 146, 147, 148, 149, 150, 151, 152, 153, 154, 155, 156, 157, 158, 159, 160, 161, 162, 163, 164, 165, 166, 167, 168, 169, 170, 171, 172, 173, 174, 175, 176, 177, 178, 179, 180, 181, 182, 183, 184, 185, 186, 187, 188, 189, 190],
      "AcquisitionTime": ["153848.912500", "153850.402500", "153851.892500", "153853.382500", "153854.872500", "153856.362500", "153857.852500", "153859.342500", "153900.832500", "153902.322500", "153903.812500", "153905.302500", "153906.792500", "153908.282500", "153909.772500", "153911.262500", "153912.752500", "153914.242500", "153915.732500", "153917.222500", "153918.712500", "153920.202500", "153921.692500", "153923.182500", "153924.672500", "153926.162500", "153927.652500", "153929.142500", "153930.632500", "153932.122500", "153933.612500", "153935.102500", "153936.592500", "153938.082500", "153939.572500", "153941.062500", "153942.552500", "153944.042500", "153945.532500", "153947.022500", "153948.512500", "153950.002500", "153951.492500", "153952.982500", "153954.472500", "153955.962500", "153957.452500", "153958.942500", "154000.432500", "154001.922500", "154003.412500", "154004.902500", "154006.392500", "154007.882500", "154009.372500", "154010.862500", "154012.352500", "154013.842500", "154015.332500", "154016.822500", "154018.312500", "154019.802500", "154021.292500", "154022.782500", "154024.272500", "154025.762500", "154027.252500", "154028.742500", "154030.232500", "154031.722500", "154033.212500", "154034.702500", "154036.192500", "154037.682500", "154039.172500", "154040.662500", "154042.152500", "154043.642500", "154045.132500", "154046.622500", "154048.112500", "154049.602500", "154051.092500", "154052.582500", "154054.072500", "154055.562500", "154057.052500", "154058.542500", "154100.032500", "154101.522500", "154103.012500", "154104.502500", "154105.992500", "154107.482500", "154108.972500", "154110.462500", "154111.952500", "154113.442500", "154114.932500", "154116.422500", "154117.912500", "154119.402500", "154120.892500", "154122.382500", "154123.872500", "154125.362500", "154126.852500", "154128.342500", "154129.832500", "154131.322500", "154132.812500", "154134.302500", "154135.792500", "154137.282500", "154138.772500", "154140.262500", "154141.752500", "154143.242500", "154144.732500", "154146.222500", "154147.712500", "154149.202500", "154150.692500", "154152.182500", "154153.672500", "154155.162500", "154156.652500", "154158.142500", "154159.632500", "154201.122500", "154202.612500", "154204.102500", "154205.592500", "154207.082500", "154208.572500", "154210.062500", "154211.552500", "154213.042500", "154214.532500", "154216.022500", "154217.512500", "154219.002500", "154220.492500", "154221.982500", "154223.472500", "154224.962500", "154226.452500", "154227.942500", "154229.432500", "154230.922500", "154232.412500", "154233.902500", "154235.392500", "154236.882500", "154238.372500", "154239.862500", "154241.352500", "154242.842500", "154244.332500", "154245.822500", "154247.312500", "154248.802500", "154250.292500", "154251.782500", "154253.272500", "154254.762500", "154256.252500", "154257.742500", "154259.232500", "154300.722500", "154302.212500", "154303.702500", "154305.192500", "154306.682500", "154308.172500", "154309.662500", "154311.152500", "154312.642500", "154314.132500", "154315.622500", "154317.112500", "154318.602500", "154320.092500", "154321.582500", "154323.072500", "154324.562500", "154326.052500", "154327.542500", "154329.032500", "154330.522500"],
      "ContentTime": ["154006.776000", "154006.779000", "154006.782000", "154006.793000", "154006.796000", "154006.798000", "154006.810000", "154006.813000", "154006.815000", "154006.818000", "154006.820000", "154006.823000", "154006.825000", "154006.828000", "154006.830000", "154006.833000", "154006.835000", "154006.838000", "154006.840000", "154006.843000", "154006.845000", "154006.847000", "154006.850000", "154026.247000", "154026.250000", "154026.253000", "154026.255000", "154026.257000", "154026.260000", "154026.262000", "154026.265000", "154026.267000", "154026.270000", "154026.272000", "154026.275000", "154026.277000", "154026.279000", "154026.282000", "154026.284000", "154026.287000", "154026.289000", "154026.292000", "154026.294000", "154046.258000", "154046.261000", "154046.263000", "154046.266000", "154046.268000", "154046.271000", "154046.273000", "154046.276000", "154046.278000", "154046.280000", "154046.283000", "154046.285000", "154046.288000", "154046.290000", "154046.293000", "154046.307000", "154046.309000", "154046.312000", "154046.314000", "154046.317000", "154106.245000", "154106.248000", "154106.251000", "154106.253000", "154106.256000", "154106.258000", "154106.260000", "154106.263000", "154106.265000", "154106.268000", "154106.270000", "154106.273000", "154106.275000", "154106.278000", "154106.280000", "154106.282000", "154106.285000", "154106.287000", "154106.290000", "154106.292000", "154126.273000", "154126.276000", "154126.278000", "154126.281000", "154126.283000", "154126.286000", "154126.288000", "154126.291000", "154126.293000", "154126.296000", "154126.298000", "154126.301000", "154126.303000", "154126.306000", "154126.308000", "154126.310000", "154126.313000", "154126.315000", "154126.318000", "154126.320000", "154126.323000", "154206.293000", "154206.296000", "154206.299000", "154206.301000", "154206.304000", "154206.307000", "154206.309000", "154206.312000", "154206.314000", "154206.317000", "154206.319000", "154206.322000", "154206.324000", "154206.327000", "154206.329000", "154206.332000", "154206.334000", "154206.337000", "154206.339000", "154206.342000", "154206.344000", "154206.347000", "154206.350000", "154206.352000", "154206.355000", "154206.358000", "154206.361000", "154246.278000", "154246.281000", "154246.283000", "154246.286000", "154246.288000", "154246.291000", "154246.293000", "154246.296000", "154246.298000", "154246.301000", "154246.303000", "154246.306000", "154246.308000", "154246.311000", "154246.313000", "154246.316000", "154246.318000", "154246.321000", "154246.323000", "154246.326000", "154246.328000", "154246.331000", "154246.333000", "154246.336000", "154246.338000", "154246.341000", "154246.343000", "154326.291000", "154326.294000", "154326.296000", "154326.299000", "154326.301000", "154326.304000", "154326.307000", "154326.309000", "154326.312000", "154326.314000", "154326.317000", "154326.319000", "154326.322000", "154326.324000", "154326.327000", "154326.329000", "154326.332000", "154326.334000", "154326.337000", "154326.339000", "154326.342000", "154326.344000", "154326.347000", "154326.349000", "154326.352000", "154326.354000", "154326.357000", "154332.902000", "154332.905000", "154332.916000", "154332.919000", "154332.921000"],
      "InstanceCreationTime": ["154006.776000", "154006.779000", "154006.782000", "154006.793000", "154006.796000", "154006.798000", "154006.810000", "154006.813000", "154006.815000", "154006.818000", "154006.820000", "154006.823000", "154006.825000", "154006.828000", "154006.830000", "154006.833000", "154006.835000", "154006.838000", "154006.840000", "154006.843000", "154006.845000", "154006.847000", "154006.850000", "154026.247000", "154026.250000", "154026.253000", "154026.255000", "154026.257000", "154026.260000", "154026.262000", "154026.265000", "154026.267000", "154026.270000", "154026.272000", "154026.275000", "154026.277000", "154026.279000", "154026.282000", "154026.284000", "154026.287000", "154026.289000", "154026.292000", "154026.294000", "154046.258000", "154046.261000", "154046.263000", "154046.266000", "154046.268000", "154046.271000", "154046.273000", "154046.276000", "154046.278000", "154046.280000", "154046.283000", "154046.285000", "154046.288000", "154046.290000", "154046.293000", "154046.307000", "154046.309000", "154046.312000", "154046.314000", "154046.317000", "154106.245000", "154106.248000", "154106.251000", "154106.253000", "154106.256000", "154106.258000", "154106.260000", "154106.263000", "154106.265000", "154106.268000", "154106.270000", "154106.273000", "154106.275000", "154106.278000", "154106.280000", "154106.282000", "154106.285000", "154106.287000", "154106.290000", "154106.292000", "154126.273000", "154126.276000", "154126.278000", "154126.281000", "154126.283000", "154126.286000", "154126.288000", "154126.291000", "154126.293000", "154126.296000", "154126.298000", "154126.301000", "154126.303000", "154126.306000", "154126.308000", "154126.310000", "154126.313000", "154126.315000", "154126.318000", "154126.320000", "154126.323000", "154206.293000", "154206.296000", "154206.299000", "154206.301000", "154206.304000", "154206.307000", "154206.309000", "154206.312000", "154206.314000", "154206.317000", "154206.319000", "154206.322000", "154206.324000", "154206.327000", "154206.329000", "154206.332000", "154206.334000", "154206.337000", "154206.339000", "154206.342000", "154206.344000", "154206.347000", "154206.350000", "154206.352000", "154206.355000", "154206.358000", "154206.361000", "154246.278000", "154246.281000", "154246.283000", "154246.286000", "154246.288000", "154246.291000", "154246.293000", "154246.296000", "154246.298000", "154246.301000", "154246.303000", "154246.306000", "154246.308000", "154246.311000", "154246.313000", "154246.316000", "154246.318000", "154246.321000", "154246.323000", "154246.326000", "154246.328000", "154246.331000", "154246.333000", "154246.336000", "154246.338000", "154246.341000", "154246.343000", "154326.291000", "154326.294000", "154326.296000", "154326.299000", "154326.301000", "154326.304000", "154326.307000", "154326.309000", "154326.312000", "154326.314000", "154326.317000", "154326.319000", "154326.322000", "154326.324000", "154326.327000", "154326.329000", "154326.332000", "154326.334000", "154326.337000", "154326.339000", "154326.342000", "154326.344000", "154326.347000", "154326.349000", "154326.352000", "154326.354000", "154326.357000", "154332.902000", "154332.905000", "154332.916000", "154332.919000", "154332.921000"],
      "InstanceNumber": [1, 2, 3, 4, 5, 6, 7, 8, 9, 10, 11, 12, 13, 14, 15, 16, 17, 18, 19, 20, 21, 22, 23, 24, 25, 26, 27, 28, 29, 30, 31, 32, 33, 34, 35, 36, 37, 38, 39, 40, 41, 42, 43, 44, 45, 46, 47, 48, 49, 50, 51, 52, 53, 54, 55, 56, 57, 58, 59, 60, 61, 62, 63, 64, 65, 66, 67, 68, 69, 70, 71, 72, 73, 74, 75, 76, 77, 78, 79, 80, 81, 82, 83, 84, 85, 86, 87, 88, 89, 90, 91, 92, 93, 94, 95, 96, 97, 98, 99, 100, 101, 102, 103, 104, 105, 106, 107, 108, 109, 110, 111, 112, 113, 114, 115, 116, 117, 118, 119, 120, 121, 122, 123, 124, 125, 126, 127, 128, 129, 130, 131, 132, 133, 134, 135, 136, 137, 138, 139, 140, 141, 142, 143, 144, 145, 146, 147, 148, 149, 150, 151, 152, 153, 154, 155, 156, 157, 158, 159, 160, 161, 162, 163, 164, 165, 166, 167, 168, 169, 170, 171, 172, 173, 174, 175, 176, 177, 178, 179, 180, 181, 182, 183, 184, 185, 186, 187, 188, 189, 190],
      "WindowCenter": [4800.0, 4834.0, 4836.0, 4828.0, 4794.0, 4794.0, 4796.0, 4794.0, 4792.0, 4802.0, 4798.0, 4800.0, 4834.0, 4828.0, 4830.0, 4806.0, 4798.0, 4800.0, 4794.0, 4798.0, 4800.0, 4798.0, 4802.0, 4830.0, 4794.0, 4828.0, 4826.0, 4830.0, 4798.0, 4802.0, 4806.0, 4796.0, 4802.0, 4802.0, 4802.0, 4828.0, 4798.0, 4826.0, 4828.0, 4834.0, 4806.0, 4806.0, 4802.0, 4774.0, 4802.0, 4800.0, 4830.0, 4802.0, 4828.0, 4830.0, 4806.0, 4804.0, 4794.0, 4802.0, 4798.0, 4794.0, 4830.0, 4800.0, 4830.0, 4802.0, 4830.0, 4798.0, 4802.0, 4796.0, 4794.0, 4800.0, 4796.0, 4826.0, 4800.0, 4800.0, 4832.0, 4800.0, 4806.0, 4802.0, 4796.0, 4796.0, 4774.0, 4800.0, 4798.0, 4828.0, 4796.0, 4832.0, 4802.0, 4804.0, 4802.0, 4802.0, 4828.0, 4806.0, 4800.0, 4796.0, 4802.0, 4798.0, 4802.0, 4796.0, 4802.0, 4826.0, 4802.0, 4822.0, 4798.0, 4802.0, 4798.0, 4798.0, 4804.0, 4794.0, 4828.0, 4802.0, 4826.0, 4800.0, 4802.0, 4798.0, 4802.0, 4802.0, 4834.0, 4828.0, 4832.0, 4860.0, 4834.0, 4828.0, 4796.0, 4798.0, 4796.0, 4772.0, 4800.0, 4800.0, 4828.0, 4830.0, 4800.0, 4828.0, 4800.0, 4830.0, 4798.0, 4826.0, 4798.0, 4798.0, 4798.0, 4796.0, 4800.0, 4802.0, 4804.0, 4796.0, 4804.0, 4802.0, 4800.0, 4804.0, 4796.0, 4804.0, 4798.0, 4804.0, 4800.0, 4802.0, 4802.0, 4794.0, 4828.0, 4800.0, 4798.0, 4800.0, 4796.0, 4804.0, 4800.0, 4826.0, 4794.0, 4828.0, 4802.0, 4804.0, 4806.0, 4804.0, 4800.0, 4800.0, 4830.0, 4796.0, 4802.0, 4800.0, 4798.0, 4800.0, 4802.0, 4806.0, 4802.0, 4828.0, 4802.0, 4826.0, 4798.0, 4804.0, 4800.0, 4798.0, 4804.0, 4798.0, 4828.0, 4800.0, 4826.0, 4800.0],
      "WindowWidth": [18590.0, 18636.0, 18638.0, 18632.0, 18590.0, 18590.0, 18594.0, 18594.0, 18592.0, 18598.0, 18592.0, 18600.0, 18642.0, 18634.0, 18636.0, 18602.0, 18592.0, 18596.0, 18590.0, 18592.0, 18596.0, 18598.0, 18600.0, 18636.0, 18590.0, 18634.0, 18630.0, 18636.0, 18596.0, 18598.0, 18598.0, 18590.0, 18598.0, 18596.0, 18600.0, 18638.0, 18592.0, 18628.0, 18634.0, 18636.0, 18602.0, 18606.0, 18604.0, 18564.0, 18600.0, 18598.0, 18634.0, 18604.0, 18636.0, 18636.0, 18606.0, 18598.0, 18592.0, 18600.0, 18596.0, 18596.0, 18634.0, 18596.0, 18636.0, 18596.0, 18626.0, 18596.0, 18596.0, 18598.0, 18596.0, 18600.0, 18592.0, 18630.0, 18600.0, 18600.0, 18636.0, 18598.0, 18598.0, 18598.0, 18596.0, 18592.0, 18566.0, 18600.0, 18592.0, 18634.0, 18592.0, 18640.0, 18598.0, 18600.0, 18600.0, 18598.0, 18632.0, 18604.0, 18594.0, 18598.0, 18602.0, 18592.0, 18602.0, 18598.0, 18598.0, 18634.0, 18598.0, 18626.0, 18600.0, 18596.0, 18592.0, 18596.0, 18600.0, 18596.0, 18632.0, 18604.0, 18628.0, 18598.0, 18596.0, 18598.0, 18610.0, 18598.0, 18638.0, 18630.0, 18636.0, 18670.0, 18640.0, 18630.0, 18596.0, 18590.0, 18590.0, 18560.0, 18594.0, 18598.0, 18630.0, 18634.0, 18592.0, 18628.0, 18596.0, 18634.0, 18596.0, 18632.0, 18594.0, 18594.0, 18590.0, 18584.0, 18598.0, 18600.0, 18600.0, 18600.0, 18598.0, 18600.0, 18598.0, 18600.0, 18594.0, 18602.0, 18596.0, 18602.0, 18596.0, 18600.0, 18598.0, 18592.0, 18630.0, 18594.0, 18598.0, 18596.0, 18598.0, 18598.0, 18594.0, 18630.0, 18592.0, 18628.0, 18600.0, 18596.0, 18602.0, 18598.0, 18600.0, 18596.0, 18634.0, 18592.0, 18596.0, 18592.0, 18594.0, 18596.0, 18600.0, 18598.0, 18598.0, 18632.0, 18602.0, 18632.0, 18598.0, 18600.0, 18592.0, 18596.0, 18596.0, 18594.0, 18630.0, 18596.0, 18622.0, 18600.0]
    },
    "slices": {}
  }
}