{
  "AcquisitionMatrixPE": 104,
  "AcquisitionNumber": 1,
  "AcquisitionTime": "15:58:26.275000",
  "BandwidthPerPixelPhaseEncode": 17.17,
  "BaseResolution": 104,
  "BodyPartExamined": "BRAIN",
  "CoilString": "HC1-7;NC1_2",
  "ConsistencyInfo": "N4_VE11C_LATEST_20160120",
  "ConversionSoftware": "dcm2niix",
  "ConversionSoftwareVersion": "v1.0.20190902",
  "DerivedVendorReportedEchoSpacing": 0.000560011,
  "DeviceSerialNumber": "167006",
  "DwellTime": 2.1e-06,
  "EchoTime": 0.037,
  "EchoTrainLength": 104,
  "EffectiveEchoSpacing": 0.000560011,
  "FlipAngle": 52,
  "ImageComments": "Unaliased_MB4_PE3_LB",
  "ImageOrientationPatientDICOM": [0.99739, -0.0656255, 0.0300959, 0.0718437, 0.943373, -0.32386],
  "ImageType": [
    "ORIGINAL",
    "PRIMARY",
    "P",
    "MB",
    "ND",
    "MOSAIC"
],
  "ImagingFrequency": 123.259,
  "InPlanePhaseEncodingDirectionDICOM": "COL",
  "InstitutionAddress": "Chemin_Queen-Mary_4565_Montreal_District_CA_H3W_1W5",
  "InstitutionName": "IUGM",
  "InstitutionalDepartmentName": "Department",
  "MRAcquisitionType": "2D",
  "MagneticFieldStrength": 3,
  "Manufacturer": "Siemens",
  "ManufacturersModelName": "Prisma_fit",
  "Modality": "MR",
  "MultibandAccelerationFactor": 4,
  "PartialFourier": 1,
  "PatientPosition": "HFS",
  "PercentPhaseFOV": 100,
  "PhaseEncodingDirection": "j",
  "PhaseEncodingSteps": 104,
  "PhaseResolution": 1,
  "PixelBandwidth": 2290,
  "ProcedureStepDescription": "memory_things",
  "ProtocolName": "func_task-things_run-6",
  "PulseSequenceDetails": "%CustomerSeq%_cmrr_mbep2d_bold",
  "ReceiveCoilActiveElements": "HC1-7;NC1,2",
  "ReceiveCoilName": "HeadNeck_64",
  "ReconMatrixPE": 104,
  "RepetitionTime": 1.49,
  "SAR": 0.0537257,
  "ScanOptions": "FS",
  "ScanningSequence": "EP",
  "SequenceName": "epfid2d1_104",
  "SequenceVariant": "SK_SS",
  "SeriesDescription": "func_task-things_run-6",
  "SeriesNumber": 26,
  "ShimSetting": [629, -7252, -8813, 590, 5, -210, -34, -15],
  "SliceThickness": 2,
  "SliceTiming": [0, 0.785, 0.0975, 0.8825, 0.1975, 0.98, 0.295, 1.0775, 0.3925, 1.1775, 0.49, 1.275, 0.5875, 1.3725, 0.6875, 0, 0.785, 0.0975, 0.8825, 0.1975, 0.98, 0.295, 1.0775, 0.3925, 1.1775, 0.49, 1.275, 0.5875, 1.3725, 0.6875, 0, 0.785, 0.0975, 0.8825, 0.1975, 0.98, 0.295, 1.0775, 0.3925, 1.1775, 0.49, 1.275, 0.5875, 1.3725, 0.6875, 0, 0.785, 0.0975, 0.8825, 0.1975, 0.98, 0.295, 1.0775, 0.3925, 1.1775, 0.49, 1.275, 0.5875, 1.3725, 0.6875],
  "SoftwareVersions": "syngo_MR_E11",
  "SpacingBetweenSlices": 2,
  "StationName": "MRC35049",
  "TaskName": "things",
  "TotalReadoutTime": 0.0576811,
  "TxRefAmp": 261.482,
  "WipMemBlock": "4955ba78-b5bb-4565-997f-f731a971fe61||Sequence: R016 ve11c/master r/e634e98; Dec 19 2017 11:00:25 by eja",
  "dcmmeta_affine": [
    [-1.9947806596755981, 0.14368745684623718, 0.014276471920311451, 100.20156860351562],
    [0.13125106692314148, 1.886746883392334, -0.6503533124923706, -72.78343200683594],
    [0.06019185483455658, 0.6477192640304565, 1.8912526369094849, -67.61815643310547],
    [0.0, 0.0, 0.0, 1.0]
],
  "dcmmeta_reorient_transform": [
    [0.0, -1.0, 0.0, 103.0],
    [1.0, 0.0, 0.0, 0.0],
    [0.0, 0.0, 1.0, 0.0],
    [0.0, 0.0, 0.0, 1.0]
],
  "dcmmeta_shape": [104, 104, 60, 190],
  "dcmmeta_slice_dim": 2,
  "dcmmeta_version": 0.6,
  "global": {
    "const": {
      "AcquisitionMatrix": [104, 0, 0, 104],
      "AngioFlag": "N",
      "BitsAllocated": 16,
      "BitsStored": 16,
      "BodyPartExamined": "BRAIN",
      "Columns": 832,
      "EchoNumbers": 1,
      "EchoTime": 37.0,
      "EchoTrainLength": 104,
      "FlipAngle": 52.0,
      "HighBit": 15,
      "ImageOrientationPatient": [0.99739035716299, -0.0656255334838, 0.03009592652278, 0.07184372641588, 0.94337342363707, -0.3238596340237],
      "ImagePositionPatient": [-893.40379031922, -760.55195353089, 212.95691016443],
      "ImageType": [
        "ORIGINAL",
        "PRIMARY",
        "P",
        "MB",
        "ND",
        "MOSAIC"
],
      "ImagedNucleus": "1H",
      "ImagingFrequency": 123.258958,
      "InPlanePhaseEncodingDirection": "COL",
      "LargestImagePixelValue": 4095,
      "MRAcquisitionType": "2D",
      "MagneticFieldStrength": 3.0,
      "Manufacturer": "SIEMENS",
      "ManufacturerModelName": "Prisma_fit",
      "Modality": "MR",
      "NumberOfAverages": 1.0,
      "NumberOfPhaseEncodingSteps": 104,
      "PercentPhaseFieldOfView": 100.0,
      "PercentSampling": 100.0,
      "PerformedProcedureStepStartTime": "151420.844000",
      "PhotometricInterpretation": "MONOCHROME2",
      "PixelBandwidth": 2290.0,
      "PixelRepresentation": 0,
      "PixelSpacing": [2.0, 2.0],
      "ProtocolName": "func_task-things_run-6",
      "RepetitionTime": 1490.0,
      "RescaleIntercept": -4096.0,
      "RescaleSlope": 2.0,
      "RescaleType": "US",
      "Rows": 832,
      "SAR": 0.05372570294834,
      "SamplesPerPixel": 1,
      "ScanOptions": "FS",
      "ScanningSequence": "EP",
      "SequenceName": "epfid2d1_104",
      "SequenceVariant": [
        "SK",
        "SS"
],
      "SeriesDescription": "func_task-things_run-6",
      "SeriesNumber": 26,
      "SeriesTime": "155946.307000",
      "SliceLocation": -39.558768514121,
      "SliceThickness": 2.0,
      "SmallestImagePixelValue": 0,
      "SoftwareVersions": "syngo MR E11",
      "SpacingBetweenSlices": 1.9999999429145,
      "SpecificCharacterSet": "ISO_IR 100",
      "StudyID": "1",
      "StudyTime": "151420.769000",
      "TransmitCoilName": "Body",
      "VariableFlipAngleFlag": "N",
      "WindowCenterWidthExplanation": "Algo1",
      "dBdt": 0.0},
    "slices": {}
  },
  "time": {
    "samples": {
      "AcquisitionNumber": [1, 2, 3, 4, 5, 6, 7, 8, 9, 10, 11, 12, 13, 14, 15, 16, 17, 18, 19, 20, 21, 22, 23, 24, 25, 26, 27, 28, 29, 30, 31, 32, 33, 34, 35, 36, 37, 38, 39, 40, 41, 42, 43, 44, 45, 46, 47, 48, 49, 50, 51, 52, 53, 54, 55, 56, 57, 58, 59, 60, 61, 62, 63, 64, 65, 66, 67, 68, 69, 70, 71, 72, 73, 74, 75, 76, 77, 78, 79, 80, 81, 82, 83, 84, 85, 86, 87, 88, 89, 90, 91, 92, 93, 94, 95, 96, 97, 98, 99, 100, 101, 102, 103, 104, 105, 106, 107, 108, 109, 110, 111, 112, 113, 114, 115, 116, 117, 118, 119, 120, 121, 122, 123, 124, 125, 126, 127, 128, 129, 130, 131, 132, 133, 134, 135, 136, 137, 138, 139, 140, 141, 142, 143, 144, 145, 146, 147, 148, 149, 150, 151, 152, 153, 154, 155, 156, 157, 158, 159, 160, 161, 162, 163, 164, 165, 166, 167, 168, 169, 170, 171, 172, 173, 174, 175, 176, 177, 178, 179, 180, 181, 182, 183, 184, 185, 186, 187, 188, 189, 190],
      "AcquisitionTime": ["155826.275000", "155827.765000", "155829.255000", "155830.745000", "155832.235000", "155833.725000", "155835.215000", "155836.705000", "155838.195000", "155839.685000", "155841.175000", "155842.665000", "155844.155000", "155845.645000", "155847.135000", "155848.625000", "155850.115000", "155851.605000", "155853.095000", "155854.585000", "155856.075000", "155857.565000", "155859.055000", "155900.545000", "155902.035000", "155903.525000", "155905.015000", "155906.505000", "155907.995000", "155909.485000", "155910.975000", "155912.465000", "155913.955000", "155915.445000", "155916.935000", "155918.425000", "155919.915000", "155921.405000", "155922.895000", "155924.385000", "155925.875000", "155927.365000", "155928.855000", "155930.345000", "155931.835000", "155933.325000", "155934.815000", "155936.305000", "155937.795000", "155939.285000", "155940.775000", "155942.265000", "155943.755000", "155945.245000", "155946.735000", "155948.225000", "155949.715000", "155951.205000", "155952.695000", "155954.185000", "155955.675000", "155957.165000", "155958.655000", "160000.145000", "160001.635000", "160003.125000", "160004.615000", "160006.105000", "160007.595000", "160009.085000", "160010.575000", "160012.065000", "160013.555000", "160015.045000", "160016.535000", "160018.025000", "160019.515000", "160021.005000", "160022.495000", "160023.985000", "160025.475000", "160026.965000", "160028.455000", "160029.945000", "160031.435000", "160032.925000", "160034.415000", "160035.905000", "160037.395000", "160038.885000", "160040.375000", "160041.865000", "160043.355000", "160044.845000", "160046.335000", "160047.825000", "160049.315000", "160050.805000", "160052.295000", "160053.785000", "160055.275000", "160056.765000", "160058.255000", "160059.745000", "160101.235000", "160102.725000", "160104.215000", "160105.705000", "160107.195000", "160108.685000", "160110.175000", "160111.665000", "160113.155000", "160114.645000", "160116.135000", "160117.625000", "160119.115000", "160120.605000", "160122.095000", "160123.585000", "160125.075000", "160126.565000", "160128.055000", "160129.545000", "160131.035000", "160132.525000", "160134.015000", "160135.505000", "160136.995000", "160138.485000", "160139.975000", "160141.465000", "160142.955000", "160144.445000", "160145.935000", "160147.425000", "160148.915000", "160150.405000", "160151.895000", "160153.385000", "160154.875000", "160156.365000", "160157.855000", "160159.345000", "160200.835000", "160202.325000", "160203.815000", "160205.305000", "160206.795000", "160208.285000", "160209.775000", "160211.265000", "160212.755000", "160214.245000", "160215.735000", "160217.225000", "160218.715000", "160220.205000", "160221.695000", "160223.185000", "160224.675000", "160226.165000", "160227.655000", "160229.145000", "160230.635000", "160232.125000", "160233.615000", "160235.105000", "160236.595000", "160238.085000", "160239.575000", "160241.065000", "160242.555000", "160244.045000", "160245.535000", "160247.025000", "160248.515000", "160250.005000", "160251.495000", "160252.985000", "160254.475000", "160255.965000", "160257.455000", "160258.945000", "160300.435000", "160301.925000", "160303.415000", "160304.905000", "160306.395000", "160307.885000"],
      "ContentTime": ["155946.309000", "155946.312000", "155946.314000", "155946.317000", "155946.319000", "155946.322000", "155946.324000", "155946.327000", "155946.329000", "155946.332000", "155946.334000", "155946.337000", "155946.339000", "155946.342000", "155946.344000", "155946.346000", "155946.349000", "155946.351000", "155946.362000", "155946.365000", "155946.367000", "155946.370000", "155946.372000", "155946.375000", "155946.377000", "160006.244000", "160006.246000", "160006.249000", "160006.257000", "160006.259000", "160006.262000", "160006.264000", "160006.267000", "160006.269000", "160006.272000", "160006.274000", "160006.277000", "160006.279000", "160006.282000", "160006.284000", "160006.287000", "160006.289000", "160006.291000", "160006.294000", "160006.296000", "160026.250000", "160026.252000", "160026.255000", "160026.257000", "160026.260000", "160026.262000", "160026.265000", "160026.267000", "160026.284000", "160026.286000", "160026.289000", "160026.291000", "160026.294000", "160026.296000", "160026.299000", "160026.301000", "160026.304000", "160026.306000", "160026.309000", "160026.311000", "160046.255000", "160046.258000", "160046.260000", "160046.263000", "160046.266000", "160046.269000", "160046.271000", "160046.274000", "160046.276000", "160046.279000", "160046.281000", "160046.284000", "160046.287000", "160046.289000", "160046.292000", "160046.294000", "160046.297000", "160046.299000", "160046.302000", "160046.304000", "160106.265000", "160106.268000", "160106.270000", "160106.273000", "160106.275000", "160106.278000", "160106.280000", "160106.283000", "160106.285000", "160106.288000", "160106.290000", "160106.293000", "160106.295000", "160106.298000", "160106.300000", "160106.302000", "160106.305000", "160106.307000", "160106.310000", "160106.312000", "160106.315000", "160146.284000", "160146.286000", "160146.289000", "160146.291000", "160146.294000", "160146.296000", "160146.299000", "160146.301000", "160146.304000", "160146.306000", "160146.309000", "160146.311000", "160146.313000", "160146.316000", "160146.318000", "160146.321000", "160146.323000", "160146.326000", "160146.328000", "160146.331000", "160146.333000", "160146.336000", "160146.338000", "160146.341000", "160146.343000", "160146.346000", "160146.348000", "160226.286000", "160226.289000", "160226.291000", "160226.293000", "160226.296000", "160226.298000", "160226.301000", "160226.303000", "160226.306000", "160226.308000", "160226.311000", "160226.313000", "160226.316000", "160226.318000", "160226.321000", "160226.323000", "160226.326000", "160226.328000", "160226.331000", "160226.333000", "160226.336000", "160226.338000", "160226.341000", "160226.343000", "160226.346000", "160226.348000", "160226.350000", "160306.306000", "160306.308000", "160306.311000", "160306.313000", "160306.316000", "160306.318000", "160306.321000", "160306.323000", "160306.326000", "160306.328000", "160306.331000", "160306.333000", "160306.336000", "160306.338000", "160306.341000", "160306.343000", "160306.346000", "160306.348000", "160306.351000", "160306.353000", "160306.356000", "160306.358000", "160306.360000", "160306.363000", "160306.365000", "160306.368000", "160306.370000", "160310.167000", "160310.170000", "160310.172000"],
      "InstanceCreationTime": ["155946.309000", "155946.312000", "155946.314000", "155946.317000", "155946.319000", "155946.322000", "155946.324000", "155946.327000", "155946.329000", "155946.332000", "155946.334000", "155946.337000", "155946.339000", "155946.342000", "155946.344000", "155946.346000", "155946.349000", "155946.351000", "155946.362000", "155946.365000", "155946.367000", "155946.370000", "155946.372000", "155946.375000", "155946.377000", "160006.244000", "160006.246000", "160006.249000", "160006.257000", "160006.259000", "160006.262000", "160006.264000", "160006.267000", "160006.269000", "160006.272000", "160006.274000", "160006.277000", "160006.279000", "160006.282000", "160006.284000", "160006.287000", "160006.289000", "160006.291000", "160006.294000", "160006.296000", "160026.250000", "160026.252000", "160026.255000", "160026.257000", "160026.260000", "160026.262000", "160026.265000", "160026.267000", "160026.284000", "160026.286000", "160026.289000", "160026.291000", "160026.294000", "160026.296000", "160026.299000", "160026.301000", "160026.304000", "160026.306000", "160026.309000", "160026.311000", "160046.255000", "160046.258000", "160046.260000", "160046.263000", "160046.266000", "160046.269000", "160046.271000", "160046.274000", "160046.276000", "160046.279000", "160046.281000", "160046.284000", "160046.287000", "160046.289000", "160046.292000", "160046.294000", "160046.297000", "160046.299000", "160046.302000", "160046.304000", "160106.265000", "160106.268000", "160106.270000", "160106.273000", "160106.275000", "160106.278000", "160106.280000", "160106.283000", "160106.285000", "160106.288000", "160106.290000", "160106.293000", "160106.295000", "160106.298000", "160106.300000", "160106.302000", "160106.305000", "160106.307000", "160106.310000", "160106.312000", "160106.315000", "160146.284000", "160146.286000", "160146.289000", "160146.291000", "160146.294000", "160146.296000", "160146.299000", "160146.301000", "160146.304000", "160146.306000", "160146.309000", "160146.311000", "160146.313000", "160146.316000", "160146.318000", "160146.321000", "160146.323000", "160146.326000", "160146.328000", "160146.331000", "160146.333000", "160146.336000", "160146.338000", "160146.341000", "160146.343000", "160146.346000", "160146.348000", "160226.286000", "160226.289000", "160226.291000", "160226.293000", "160226.296000", "160226.298000", "160226.301000", "160226.303000", "160226.306000", "160226.308000", "160226.311000", "160226.313000", "160226.316000", "160226.318000", "160226.321000", "160226.323000", "160226.326000", "160226.328000", "160226.331000", "160226.333000", "160226.336000", "160226.338000", "160226.341000", "160226.343000", "160226.346000", "160226.348000", "160226.350000", "160306.306000", "160306.308000", "160306.311000", "160306.313000", "160306.316000", "160306.318000", "160306.321000", "160306.323000", "160306.326000", "160306.328000", "160306.331000", "160306.333000", "160306.336000", "160306.338000", "160306.341000", "160306.343000", "160306.346000", "160306.348000", "160306.351000", "160306.353000", "160306.356000", "160306.358000", "160306.360000", "160306.363000", "160306.365000", "160306.368000", "160306.370000", "160310.167000", "160310.170000", "160310.172000"],
      "InstanceNumber": [1, 2, 3, 4, 5, 6, 7, 8, 9, 10, 11, 12, 13, 14, 15, 16, 17, 18, 19, 20, 21, 22, 23, 24, 25, 26, 27, 28, 29, 30, 31, 32, 33, 34, 35, 36, 37, 38, 39, 40, 41, 42, 43, 44, 45, 46, 47, 48, 49, 50, 51, 52, 53, 54, 55, 56, 57, 58, 59, 60, 61, 62, 63, 64, 65, 66, 67, 68, 69, 70, 71, 72, 73, 74, 75, 76, 77, 78, 79, 80, 81, 82, 83, 84, 85, 86, 87, 88, 89, 90, 91, 92, 93, 94, 95, 96, 97, 98, 99, 100, 101, 102, 103, 104, 105, 106, 107, 108, 109, 110, 111, 112, 113, 114, 115, 116, 117, 118, 119, 120, 121, 122, 123, 124, 125, 126, 127, 128, 129, 130, 131, 132, 133, 134, 135, 136, 137, 138, 139, 140, 141, 142, 143, 144, 145, 146, 147, 148, 149, 150, 151, 152, 153, 154, 155, 156, 157, 158, 159, 160, 161, 162, 163, 164, 165, 166, 167, 168, 169, 170, 171, 172, 173, 174, 175, 176, 177, 178, 179, 180, 181, 182, 183, 184, 185, 186, 187, 188, 189, 190],
      "WindowCenter": [4824.0, 4826.0, 4860.0, 4798.0, 4802.0, 4808.0, 4828.0, 4802.0, 4800.0, 4804.0, 4828.0, 4832.0, 4826.0, 4800.0, 4828.0, 4834.0, 4804.0, 4832.0, 4834.0, 4804.0, 4832.0, 4804.0, 4798.0, 4798.0, 4772.0, 4802.0, 4860.0, 4836.0, 4838.0, 4802.0, 4832.0, 4834.0, 4830.0, 4800.0, 4806.0, 4776.0, 4802.0, 4804.0, 4804.0, 4860.0, 4900.0, 4864.0, 4870.0, 4834.0, 4776.0, 4776.0, 4774.0, 4796.0, 4776.0, 4826.0, 4834.0, 4896.0, 4872.0, 4830.0, 4800.0, 4774.0, 4800.0, 4776.0, 4826.0, 4868.0, 4872.0, 4872.0, 4864.0, 4828.0, 4796.0, 4770.0, 4774.0, 4772.0, 4800.0, 4830.0, 4862.0, 4864.0, 4828.0, 4770.0, 4774.0, 4774.0, 4802.0, 4832.0, 4828.0, 4796.0, 4808.0, 4828.0, 4800.0, 4772.0, 4798.0, 4828.0, 4832.0, 4832.0, 4802.0, 4774.0, 4802.0, 4800.0, 4798.0, 4774.0, 4830.0, 4858.0, 4828.0, 4830.0, 4830.0, 4798.0, 4804.0, 4802.0, 4804.0, 4794.0, 4776.0, 4800.0, 4808.0, 4832.0, 4828.0, 4798.0, 4798.0, 4802.0, 4828.0, 4830.0, 4802.0, 4796.0, 4800.0, 4772.0, 4796.0, 4802.0, 4828.0, 4802.0, 4798.0, 4800.0, 4798.0, 4802.0, 4772.0, 4798.0, 4800.0, 4826.0, 4826.0, 4800.0, 4828.0, 4798.0, 4798.0, 4798.0, 4804.0, 4804.0, 4828.0, 4800.0, 4800.0, 4802.0, 4798.0, 4806.0, 4800.0, 4800.0, 4804.0, 4804.0, 4826.0, 4802.0, 4802.0, 4806.0, 4796.0, 4798.0, 4804.0, 4826.0, 4800.0, 4826.0, 4826.0, 4774.0, 4796.0, 4802.0, 4828.0, 4826.0, 4796.0, 4800.0, 4822.0, 4828.0, 4774.0, 4800.0, 4804.0, 4826.0, 4796.0, 4800.0, 4800.0, 4796.0, 4804.0, 4828.0, 4798.0, 4804.0, 4798.0, 4772.0, 4798.0, 4826.0, 4836.0, 4826.0, 4778.0, 4780.0, 4776.0, 4832.0],
      "WindowWidth": [18630.0, 18634.0, 18674.0, 18600.0, 18600.0, 18604.0, 18636.0, 18602.0, 18600.0, 18604.0, 18632.0, 18638.0, 18636.0, 18602.0, 18636.0, 18642.0, 18604.0, 18642.0, 18640.0, 18604.0, 18638.0, 18600.0, 18592.0, 18596.0, 18562.0, 18598.0, 18674.0, 18640.0, 18644.0, 18596.0, 18634.0, 18638.0, 18636.0, 18594.0, 18612.0, 18564.0, 18598.0, 18598.0, 18602.0, 18662.0, 18712.0, 18674.0, 18688.0, 18640.0, 18564.0, 18564.0, 18566.0, 18590.0, 18566.0, 18636.0, 18638.0, 18716.0, 18682.0, 18638.0, 18604.0, 18564.0, 18602.0, 18570.0, 18630.0, 18678.0, 18684.0, 18680.0, 18680.0, 18636.0, 18594.0, 18566.0, 18568.0, 18560.0, 18602.0, 18640.0, 18680.0, 18682.0, 18638.0, 18562.0, 18566.0, 18562.0, 18610.0, 18642.0, 18640.0, 18596.0, 18608.0, 18638.0, 18600.0, 18564.0, 18596.0, 18640.0, 18646.0, 18640.0, 18604.0, 18562.0, 18598.0, 18604.0, 18596.0, 18566.0, 18634.0, 18676.0, 18636.0, 18636.0, 18636.0, 18598.0, 18598.0, 18604.0, 18604.0, 18592.0, 18568.0, 18598.0, 18602.0, 18640.0, 18636.0, 18600.0, 18598.0, 18606.0, 18632.0, 18638.0, 18604.0, 18596.0, 18594.0, 18564.0, 18594.0, 18600.0, 18634.0, 18602.0, 18598.0, 18598.0, 18598.0, 18600.0, 18568.0, 18594.0, 18596.0, 18628.0, 18630.0, 18600.0, 18632.0, 18598.0, 18598.0, 18596.0, 18596.0, 18602.0, 18632.0, 18592.0, 18600.0, 18600.0, 18598.0, 18606.0, 18594.0, 18600.0, 18600.0, 18598.0, 18630.0, 18602.0, 18600.0, 18602.0, 18598.0, 18598.0, 18602.0, 18630.0, 18602.0, 18636.0, 18634.0, 18564.0, 18598.0, 18602.0, 18636.0, 18636.0, 18596.0, 18592.0, 18630.0, 18632.0, 18566.0, 18598.0, 18598.0, 18634.0, 18594.0, 18598.0, 18602.0, 18594.0, 18606.0, 18634.0, 18596.0, 18600.0, 18602.0, 18566.0, 18594.0, 18630.0, 18638.0, 18634.0, 18574.0, 18570.0, 18566.0, 18638.0]
    },
    "slices": {}
  }
}