{
  "AcquisitionMatrixPE": 104,
  "AcquisitionNumber": 1,
  "AcquisitionTime": "15:32:40.882500",
  "BandwidthPerPixelPhaseEncode": 17.17,
  "BaseResolution": 104,
  "BodyPartExamined": "BRAIN",
  "CoilString": "HC1-7;NC1_2",
  "ConsistencyInfo": "N4_VE11C_LATEST_20160120",
  "ConversionSoftware": "dcm2niix",
  "ConversionSoftwareVersion": "v1.0.20190902",
  "DerivedVendorReportedEchoSpacing": 0.000560011,
  "DeviceSerialNumber": "167006",
  "DwellTime": 2.1e-06,
  "EchoTime": 0.037,
  "EchoTrainLength": 104,
  "EffectiveEchoSpacing": 0.000560011,
  "FlipAngle": 52,
  "ImageComments": "Unaliased_MB4_PE3_LB",
  "ImageOrientationPatientDICOM": [0.99739, -0.0656255, 0.0300959, 0.0718437, 0.943373, -0.32386],
  "ImageType": [
    "ORIGINAL",
    "PRIMARY",
    "M",
    "MB",
    "ND",
    "MOSAIC"
],
  "ImagingFrequency": 123.259,
  "InPlanePhaseEncodingDirectionDICOM": "COL",
  "InstitutionAddress": "Chemin_Queen-Mary_4565_Montreal_District_CA_H3W_1W5",
  "InstitutionName": "IUGM",
  "InstitutionalDepartmentName": "Department",
  "MRAcquisitionType": "2D",
  "MagneticFieldStrength": 3,
  "Manufacturer": "Siemens",
  "ManufacturersModelName": "Prisma_fit",
  "Modality": "MR",
  "MultibandAccelerationFactor": 4,
  "PartialFourier": 1,
  "PatientPosition": "HFS",
  "PercentPhaseFOV": 100,
  "PhaseEncodingDirection": "j",
  "PhaseEncodingSteps": 104,
  "PhaseResolution": 1,
  "PixelBandwidth": 2290,
  "ProcedureStepDescription": "memory_things",
  "ProtocolName": "func_task-things_run-2",
  "PulseSequenceDetails": "%CustomerSeq%_cmrr_mbep2d_bold",
  "ReceiveCoilActiveElements": "HC1-7;NC1,2",
  "ReceiveCoilName": "HeadNeck_64",
  "ReconMatrixPE": 104,
  "RepetitionTime": 1.49,
  "SAR": 0.0537257,
  "ScanOptions": "FS",
  "ScanningSequence": "EP",
  "SequenceName": "epfid2d1_104",
  "SequenceVariant": "SK_SS",
  "SeriesDescription": "func_task-things_run-2",
  "SeriesNumber": 13,
  "ShimSetting": [629, -7252, -8813, 590, 5, -210, -34, -15],
  "SliceThickness": 2,
  "SliceTiming": [0, 0.7825, 0.0975, 0.8825, 0.195, 0.98, 0.2925, 1.0775, 0.3925, 1.175, 0.49, 1.2725, 0.5875, 1.37, 0.685, 0, 0.7825, 0.0975, 0.8825, 0.195, 0.98, 0.2925, 1.0775, 0.3925, 1.175, 0.49, 1.2725, 0.5875, 1.37, 0.685, 0, 0.7825, 0.0975, 0.8825, 0.195, 0.98, 0.2925, 1.0775, 0.3925, 1.175, 0.49, 1.2725, 0.5875, 1.37, 0.685, 0, 0.7825, 0.0975, 0.8825, 0.195, 0.98, 0.2925, 1.0775, 0.3925, 1.175, 0.49, 1.2725, 0.5875, 1.37, 0.685],
  "SoftwareVersions": "syngo_MR_E11",
  "SpacingBetweenSlices": 2,
  "StationName": "MRC35049",
  "TaskName": "things",
  "TotalReadoutTime": 0.0576811,
  "TxRefAmp": 261.482,
  "WipMemBlock": "c539f650-dc2e-4b54-9209-bffedccb778d||Sequence: R016 ve11c/master r/e634e98; Dec 19 2017 11:00:25 by eja",
  "dcmmeta_affine": [
    [-1.9947806596755981, 0.14368745684623718, 0.014276471920311451, 100.20156860351562],
    [0.13125106692314148, 1.886746883392334, -0.6503533124923706, -72.78343200683594],
    [0.06019185483455658, 0.6477192640304565, 1.8912526369094849, -67.61815643310547],
    [0.0, 0.0, 0.0, 1.0]
],
  "dcmmeta_reorient_transform": [
    [0.0, -1.0, 0.0, 103.0],
    [1.0, 0.0, 0.0, 0.0],
    [0.0, 0.0, 1.0, 0.0],
    [0.0, 0.0, 0.0, 1.0]
],
  "dcmmeta_shape": [104, 104, 60, 190],
  "dcmmeta_slice_dim": 2,
  "dcmmeta_version": 0.6,
  "global": {
    "const": {
      "AcquisitionMatrix": [104, 0, 0, 104],
      "AngioFlag": "N",
      "BitsAllocated": 16,
      "BitsStored": 16,
      "BodyPartExamined": "BRAIN",
      "Columns": 832,
      "EchoNumbers": 1,
      "EchoTime": 37.0,
      "EchoTrainLength": 104,
      "FlipAngle": 52.0,
      "HighBit": 15,
      "ImageOrientationPatient": [0.99739035716299, -0.0656255334838, 0.03009592652278, 0.07184372641588, 0.94337342363707, -0.3238596340237],
      "ImagePositionPatient": [-893.40379031922, -760.55195353089, 212.95691016443],
      "ImageType": [
        "ORIGINAL",
        "PRIMARY",
        "M",
        "MB",
        "ND",
        "MOSAIC"
],
      "ImagedNucleus": "1H",
      "ImagingFrequency": 123.258948,
      "InPlanePhaseEncodingDirection": "COL",
      "MRAcquisitionType": "2D",
      "MagneticFieldStrength": 3.0,
      "Manufacturer": "SIEMENS",
      "ManufacturerModelName": "Prisma_fit",
      "Modality": "MR",
      "NumberOfAverages": 1.0,
      "NumberOfPhaseEncodingSteps": 104,
      "PercentPhaseFieldOfView": 100.0,
      "PercentSampling": 100.0,
      "PerformedProcedureStepStartTime": "151420.844000",
      "PhotometricInterpretation": "MONOCHROME2",
      "PixelBandwidth": 2290.0,
      "PixelRepresentation": 0,
      "PixelSpacing": [2.0, 2.0],
      "ProtocolName": "func_task-things_run-2",
      "RepetitionTime": 1490.0,
      "Rows": 832,
      "SAR": 0.05372570294834,
      "SamplesPerPixel": 1,
      "ScanOptions": "FS",
      "ScanningSequence": "EP",
      "SequenceName": "epfid2d1_104",
      "SequenceVariant": [
        "SK",
        "SS"
],
      "SeriesDescription": "func_task-things_run-2",
      "SeriesNumber": 13,
      "SeriesTime": "153406.743000",
      "SliceLocation": -39.558768514121,
      "SliceThickness": 2.0,
      "SmallestImagePixelValue": 0,
      "SoftwareVersions": "syngo MR E11",
      "SpacingBetweenSlices": 1.9999999429145,
      "SpecificCharacterSet": "ISO_IR 100",
      "StudyID": "1",
      "StudyTime": "151420.769000",
      "TransmitCoilName": "Body",
      "VariableFlipAngleFlag": "N",
      "WindowCenterWidthExplanation": "Algo1",
      "dBdt": 0.0},
    "slices": {}
  },
  "time": {
    "samples": {
      "AcquisitionNumber": [1, 2, 3, 4, 5, 6, 7, 8, 9, 10, 11, 12, 13, 14, 15, 16, 17, 18, 19, 20, 21, 22, 23, 24, 25, 26, 27, 28, 29, 30, 31, 32, 33, 34, 35, 36, 37, 38, 39, 40, 41, 42, 43, 44, 45, 46, 47, 48, 49, 50, 51, 52, 53, 54, 55, 56, 57, 58, 59, 60, 61, 62, 63, 64, 65, 66, 67, 68, 69, 70, 71, 72, 73, 74, 75, 76, 77, 78, 79, 80, 81, 82, 83, 84, 85, 86, 87, 88, 89, 90, 91, 92, 93, 94, 95, 96, 97, 98, 99, 100, 101, 102, 103, 104, 105, 106, 107, 108, 109, 110, 111, 112, 113, 114, 115, 116, 117, 118, 119, 120, 121, 122, 123, 124, 125, 126, 127, 128, 129, 130, 131, 132, 133, 134, 135, 136, 137, 138, 139, 140, 141, 142, 143, 144, 145, 146, 147, 148, 149, 150, 151, 152, 153, 154, 155, 156, 157, 158, 159, 160, 161, 162, 163, 164, 165, 166, 167, 168, 169, 170, 171, 172, 173, 174, 175, 176, 177, 178, 179, 180, 181, 182, 183, 184, 185, 186, 187, 188, 189, 190],
      "AcquisitionTime": ["153240.882500", "153242.372500", "153243.862500", "153245.352500", "153246.842500", "153248.332500", "153249.822500", "153251.312500", "153252.802500", "153254.292500", "153255.782500", "153257.272500", "153258.762500", "153300.252500", "153301.742500", "153303.232500", "153304.722500", "153306.212500", "153307.702500", "153309.192500", "153310.682500", "153312.172500", "153313.662500", "153315.152500", "153316.642500", "153318.132500", "153319.622500", "153321.112500", "153322.602500", "153324.092500", "153325.582500", "153327.072500", "153328.562500", "153330.052500", "153331.542500", "153333.032500", "153334.522500", "153336.012500", "153337.502500", "153338.992500", "153340.482500", "153341.972500", "153343.462500", "153344.952500", "153346.442500", "153347.932500", "153349.422500", "153350.912500", "153352.402500", "153353.892500", "153355.382500", "153356.872500", "153358.362500", "153359.852500", "153401.342500", "153402.832500", "153404.322500", "153405.812500", "153407.302500", "153408.792500", "153410.282500", "153411.772500", "153413.262500", "153414.752500", "153416.242500", "153417.732500", "153419.222500", "153420.712500", "153422.202500", "153423.692500", "153425.182500", "153426.672500", "153428.162500", "153429.652500", "153431.142500", "153432.632500", "153434.122500", "153435.612500", "153437.102500", "153438.592500", "153440.082500", "153441.572500", "153443.062500", "153444.552500", "153446.042500", "153447.532500", "153449.022500", "153450.512500", "153452.002500", "153453.492500", "153454.982500", "153456.472500", "153457.962500", "153459.452500", "153500.942500", "153502.432500", "153503.922500", "153505.412500", "153506.902500", "153508.392500", "153509.882500", "153511.372500", "153512.862500", "153514.352500", "153515.842500", "153517.332500", "153518.822500", "153520.312500", "153521.802500", "153523.292500", "153524.782500", "153526.272500", "153527.762500", "153529.252500", "153530.742500", "153532.232500", "153533.722500", "153535.212500", "153536.702500", "153538.192500", "153539.682500", "153541.172500", "153542.662500", "153544.152500", "153545.642500", "153547.132500", "153548.622500", "153550.112500", "153551.602500", "153553.092500", "153554.582500", "153556.072500", "153557.562500", "153559.052500", "153600.542500", "153602.032500", "153603.522500", "153605.012500", "153606.502500", "153607.992500", "153609.482500", "153610.972500", "153612.462500", "153613.952500", "153615.442500", "153616.932500", "153618.422500", "153619.912500", "153621.402500", "153622.892500", "153624.382500", "153625.872500", "153627.362500", "153628.852500", "153630.342500", "153631.832500", "153633.322500", "153634.812500", "153636.302500", "153637.792500", "153639.282500", "153640.772500", "153642.262500", "153643.752500", "153645.242500", "153646.732500", "153648.222500", "153649.712500", "153651.202500", "153652.692500", "153654.182500", "153655.672500", "153657.162500", "153658.652500", "153700.142500", "153701.632500", "153703.122500", "153704.612500", "153706.102500", "153707.592500", "153709.082500", "153710.572500", "153712.062500", "153713.552500", "153715.042500", "153716.532500", "153718.022500", "153719.512500", "153721.002500", "153722.492500"],
      "ContentTime": ["153406.746000", "153406.750000", "153406.753000", "153406.757000", "153406.760000", "153406.763000", "153406.767000", "153406.770000", "153406.773000", "153406.777000", "153406.780000", "153406.783000", "153406.786000", "153406.790000", "153406.793000", "153406.800000", "153406.803000", "153406.806000", "153406.810000", "153406.813000", "153406.816000", "153406.820000", "153406.823000", "153406.826000", "153406.829000", "153406.833000", "153406.836000", "153406.839000", "153406.842000", "153406.846000", "153406.849000", "153426.716000", "153426.720000", "153426.723000", "153426.726000", "153426.729000", "153426.733000", "153426.736000", "153426.739000", "153426.742000", "153426.745000", "153426.749000", "153426.762000", "153426.765000", "153426.768000", "153426.772000", "153426.775000", "153426.778000", "153426.781000", "153426.785000", "153426.788000", "153446.716000", "153446.720000", "153446.723000", "153446.726000", "153446.729000", "153446.733000", "153446.736000", "153446.750000", "153446.753000", "153446.756000", "153446.760000", "153446.763000", "153446.766000", "153446.770000", "153446.773000", "153446.776000", "153446.779000", "153446.783000", "153446.786000", "153446.789000", "153506.716000", "153506.720000", "153506.723000", "153506.726000", "153506.729000", "153506.733000", "153506.736000", "153506.739000", "153506.742000", "153506.746000", "153506.749000", "153506.752000", "153506.755000", "153506.760000", "153506.763000", "153506.766000", "153506.770000", "153506.773000", "153506.776000", "153506.779000", "153526.716000", "153526.720000", "153526.723000", "153526.726000", "153526.730000", "153526.733000", "153526.736000", "153526.740000", "153526.743000", "153526.746000", "153526.750000", "153526.753000", "153526.756000", "153526.760000", "153526.763000", "153526.766000", "153526.769000", "153526.773000", "153526.776000", "153606.716000", "153606.720000", "153606.723000", "153606.726000", "153606.730000", "153606.733000", "153606.736000", "153606.740000", "153606.743000", "153606.746000", "153606.749000", "153606.753000", "153606.756000", "153606.759000", "153606.762000", "153606.766000", "153606.769000", "153606.772000", "153606.775000", "153606.779000", "153606.782000", "153606.785000", "153606.789000", "153606.792000", "153606.795000", "153606.798000", "153606.802000", "153646.716000", "153646.720000", "153646.723000", "153646.727000", "153646.730000", "153646.733000", "153646.737000", "153646.740000", "153646.743000", "153646.747000", "153646.750000", "153646.753000", "153646.756000", "153646.760000", "153646.763000", "153646.766000", "153646.770000", "153646.773000", "153646.776000", "153646.779000", "153646.783000", "153646.786000", "153646.789000", "153646.793000", "153646.796000", "153646.799000", "153646.802000", "153724.820000", "153724.824000", "153724.827000", "153724.831000", "153724.846000", "153724.849000", "153724.853000", "153724.856000", "153724.859000", "153724.862000", "153724.866000", "153724.869000", "153724.872000", "153724.875000", "153724.879000", "153724.882000", "153724.885000", "153724.888000", "153724.892000", "153724.895000", "153724.898000", "153724.902000", "153724.905000", "153724.908000", "153724.911000", "153724.915000"],
      "InstanceCreationTime": ["153406.746000", "153406.750000", "153406.753000", "153406.757000", "153406.760000", "153406.763000", "153406.767000", "153406.770000", "153406.773000", "153406.777000", "153406.780000", "153406.783000", "153406.786000", "153406.790000", "153406.793000", "153406.800000", "153406.803000", "153406.806000", "153406.810000", "153406.813000", "153406.816000", "153406.820000", "153406.823000", "153406.826000", "153406.829000", "153406.833000", "153406.836000", "153406.839000", "153406.842000", "153406.846000", "153406.849000", "153426.716000", "153426.720000", "153426.723000", "153426.726000", "153426.729000", "153426.733000", "153426.736000", "153426.739000", "153426.742000", "153426.745000", "153426.749000", "153426.762000", "153426.765000", "153426.768000", "153426.772000", "153426.775000", "153426.778000", "153426.781000", "153426.785000", "153426.788000", "153446.716000", "153446.720000", "153446.723000", "153446.726000", "153446.729000", "153446.733000", "153446.736000", "153446.750000", "153446.753000", "153446.756000", "153446.760000", "153446.763000", "153446.766000", "153446.770000", "153446.773000", "153446.776000", "153446.779000", "153446.783000", "153446.786000", "153446.789000", "153506.716000", "153506.720000", "153506.723000", "153506.726000", "153506.729000", "153506.733000", "153506.736000", "153506.739000", "153506.742000", "153506.746000", "153506.749000", "153506.752000", "153506.755000", "153506.760000", "153506.763000", "153506.766000", "153506.770000", "153506.773000", "153506.776000", "153506.779000", "153526.716000", "153526.720000", "153526.723000", "153526.726000", "153526.730000", "153526.733000", "153526.736000", "153526.740000", "153526.743000", "153526.746000", "153526.750000", "153526.753000", "153526.756000", "153526.760000", "153526.763000", "153526.766000", "153526.769000", "153526.773000", "153526.776000", "153606.716000", "153606.720000", "153606.723000", "153606.726000", "153606.730000", "153606.733000", "153606.736000", "153606.740000", "153606.743000", "153606.746000", "153606.749000", "153606.753000", "153606.756000", "153606.759000", "153606.762000", "153606.766000", "153606.769000", "153606.772000", "153606.775000", "153606.779000", "153606.782000", "153606.785000", "153606.789000", "153606.792000", "153606.795000", "153606.798000", "153606.802000", "153646.716000", "153646.720000", "153646.723000", "153646.727000", "153646.730000", "153646.733000", "153646.737000", "153646.740000", "153646.743000", "153646.747000", "153646.750000", "153646.753000", "153646.756000", "153646.760000", "153646.763000", "153646.766000", "153646.770000", "153646.773000", "153646.776000", "153646.779000", "153646.783000", "153646.786000", "153646.789000", "153646.793000", "153646.796000", "153646.799000", "153646.802000", "153724.820000", "153724.824000", "153724.827000", "153724.831000", "153724.846000", "153724.849000", "153724.853000", "153724.856000", "153724.859000", "153724.862000", "153724.866000", "153724.869000", "153724.872000", "153724.875000", "153724.879000", "153724.882000", "153724.885000", "153724.888000", "153724.892000", "153724.895000", "153724.898000", "153724.902000", "153724.905000", "153724.908000", "153724.911000", "153724.915000"],
      "InstanceNumber": [1, 2, 3, 4, 5, 6, 7, 8, 9, 10, 11, 12, 13, 14, 15, 16, 17, 18, 19, 20, 21, 22, 23, 24, 25, 26, 27, 28, 29, 30, 31, 32, 33, 34, 35, 36, 37, 38, 39, 40, 41, 42, 43, 44, 45, 46, 47, 48, 49, 50, 51, 52, 53, 54, 55, 56, 57, 58, 59, 60, 61, 62, 63, 64, 65, 66, 67, 68, 69, 70, 71, 72, 73, 74, 75, 76, 77, 78, 79, 80, 81, 82, 83, 84, 85, 86, 87, 88, 89, 90, 91, 92, 93, 94, 95, 96, 97, 98, 99, 100, 101, 102, 103, 104, 105, 106, 107, 108, 109, 110, 111, 112, 113, 114, 115, 116, 117, 118, 119, 120, 121, 122, 123, 124, 125, 126, 127, 128, 129, 130, 131, 132, 133, 134, 135, 136, 137, 138, 139, 140, 141, 142, 143, 144, 145, 146, 147, 148, 149, 150, 151, 152, 153, 154, 155, 156, 157, 158, 159, 160, 161, 162, 163, 164, 165, 166, 167, 168, 169, 170, 171, 172, 173, 174, 175, 176, 177, 178, 179, 180, 181, 182, 183, 184, 185, 186, 187, 188, 189, 190],
      "LargestImagePixelValue": [44146, 42788, 41165, 41199, 40705, 40586, 41030, 39995, 40332, 40206, 40119, 40462, 40377, 41068, 40360, 41133, 41189, 41310, 40355, 39799, 40965, 41577, 40042, 40884, 40706, 39986, 39976, 40492, 40564, 39893, 39919, 41167, 39961, 40223, 40062, 40971, 40869, 40310, 39901, 40362, 39873, 40071, 40073, 40197, 40482, 40011, 40660, 40702, 39956, 40712, 40252, 39854, 39876, 39794, 40581, 40359, 40287, 40939, 40054, 40217, 40124, 39643, 40928, 39926, 40262, 39684, 40055, 41169, 40440, 41456, 39909, 39925, 39654, 40038, 39936, 39571, 40266, 39987, 40445, 40104, 39935, 40598, 40760, 40996, 40921, 40455, 41476, 40925, 41162, 40808, 40631, 40437, 40197, 40407, 41797, 40335, 40934, 41030, 40608, 41359, 40249, 41203, 40854, 39890, 41233, 40560, 39725, 40451, 40470, 40997, 40283, 41771, 40662, 40607, 41326, 40295, 40889, 41024, 39848, 41028, 40475, 41328, 40693, 40468, 40440, 40058, 41306, 39982, 41029, 40816, 39983, 40224, 41382, 41383, 40542, 41452, 40183, 40264, 41291, 39869, 40143, 40576, 40041, 41326, 40579, 40264, 40370, 41114, 40046, 39869, 40837, 40348, 40673, 40991, 40564, 41612, 41101, 40751, 41018, 40640, 41579, 41101, 41322, 42343, 42164, 39960, 41382, 41410, 41862, 42063, 40801, 41887, 40755, 40487, 40997, 40445, 41200, 40690, 40412, 41144, 41345, 41961, 41380, 41900, 41664, 41231, 41172, 41445, 41224, 41603],
      "WindowCenter": [10450.0, 10389.0, 10366.0, 10347.0, 10322.0, 10318.0, 10316.0, 10305.0, 10304.0, 10302.0, 10298.0, 10303.0, 10309.0, 10310.0, 10305.0, 10318.0, 10328.0, 10341.0, 10346.0, 10330.0, 10332.0, 10331.0, 10310.0, 10307.0, 10331.0, 10335.0, 10331.0, 10327.0, 10312.0, 10307.0, 10306.0, 10322.0, 10320.0, 10319.0, 10321.0, 10338.0, 10319.0, 10311.0, 10307.0, 10304.0, 10301.0, 10296.0, 10303.0, 10310.0, 10317.0, 10306.0, 10309.0, 10317.0, 10313.0, 10318.0, 10325.0, 10314.0, 10312.0, 10306.0, 10316.0, 10317.0, 10319.0, 10349.0, 10346.0, 10345.0, 10323.0, 10307.0, 10318.0, 10296.0, 10291.0, 10280.0, 10301.0, 10327.0, 10326.0, 10316.0, 10279.0, 10270.0, 10284.0, 10300.0, 10295.0, 10272.0, 10275.0, 10291.0, 10337.0, 10340.0, 10335.0, 10317.0, 10311.0, 10324.0, 10317.0, 10296.0, 10297.0, 10277.0, 10283.0, 10292.0, 10308.0, 10297.0, 10288.0, 10302.0, 10335.0, 10328.0, 10327.0, 10323.0, 10318.0, 10324.0, 10321.0, 10339.0, 10327.0, 10323.0, 10332.0, 10311.0, 10291.0, 10304.0, 10310.0, 10323.0, 10314.0, 10329.0, 10327.0, 10345.0, 10348.0, 10328.0, 10319.0, 10315.0, 10311.0, 10323.0, 10312.0, 10314.0, 10287.0, 10280.0, 10293.0, 10312.0, 10341.0, 10324.0, 10319.0, 10309.0, 10298.0, 10303.0, 10292.0, 10290.0, 10317.0, 10336.0, 10306.0, 10297.0, 10307.0, 10298.0, 10307.0, 10310.0, 10298.0, 10314.0, 10304.0, 10299.0, 10297.0, 10306.0, 10313.0, 10324.0, 10318.0, 10296.0, 10300.0, 10294.0, 10294.0, 10298.0, 10279.0, 10279.0, 10294.0, 10305.0, 10330.0, 10326.0, 10325.0, 10329.0, 10342.0, 10326.0, 10334.0, 10313.0, 10314.0, 10315.0, 10327.0, 10340.0, 10314.0, 10305.0, 10305.0, 10305.0, 10316.0, 10306.0, 10300.0, 10271.0, 10295.0, 10359.0, 10370.0, 10351.0, 10315.0, 10305.0, 10312.0, 10311.0, 10318.0, 10332.0],
      "WindowWidth": [22614.0, 22431.0, 22354.0, 22294.0, 22232.0, 22215.0, 22209.0, 22184.0, 22181.0, 22177.0, 22170.0, 22181.0, 22194.0, 22196.0, 22185.0, 22209.0, 22230.0, 22262.0, 22281.0, 22245.0, 22245.0, 22243.0, 22199.0, 22189.0, 22241.0, 22253.0, 22246.0, 22237.0, 22200.0, 22193.0, 22193.0, 22223.0, 22222.0, 22217.0, 22221.0, 22258.0, 22218.0, 22200.0, 22195.0, 22185.0, 22178.0, 22167.0, 22184.0, 22196.0, 22213.0, 22194.0, 22196.0, 22211.0, 22207.0, 22214.0, 22232.0, 22209.0, 22201.0, 22190.0, 22209.0, 22218.0, 22221.0, 22287.0, 22286.0, 22282.0, 22232.0, 22197.0, 22213.0, 22169.0, 22155.0, 22130.0, 22178.0, 22233.0, 22236.0, 22213.0, 22132.0, 22108.0, 22139.0, 22174.0, 22162.0, 22114.0, 22123.0, 22157.0, 22258.0, 22269.0, 22259.0, 22217.0, 22201.0, 22227.0, 22214.0, 22168.0, 22164.0, 22122.0, 22134.0, 22155.0, 22192.0, 22170.0, 22149.0, 22179.0, 22249.0, 22239.0, 22236.0, 22226.0, 22215.0, 22228.0, 22225.0, 22261.0, 22238.0, 22232.0, 22247.0, 22200.0, 22154.0, 22183.0, 22198.0, 22228.0, 22211.0, 22240.0, 22241.0, 22283.0, 22286.0, 22240.0, 22220.0, 22206.0, 22200.0, 22226.0, 22203.0, 22202.0, 22147.0, 22132.0, 22161.0, 22208.0, 22270.0, 22236.0, 22221.0, 22195.0, 22174.0, 22183.0, 22157.0, 22151.0, 22212.0, 22255.0, 22191.0, 22171.0, 22190.0, 22176.0, 22196.0, 22198.0, 22173.0, 22205.0, 22185.0, 22176.0, 22170.0, 22187.0, 22208.0, 22236.0, 22217.0, 22168.0, 22177.0, 22164.0, 22163.0, 22170.0, 22129.0, 22127.0, 22163.0, 22192.0, 22245.0, 22236.0, 22232.0, 22237.0, 22265.0, 22243.0, 22253.0, 22208.0, 22209.0, 22210.0, 22241.0, 22266.0, 22212.0, 22191.0, 22193.0, 22194.0, 22216.0, 22197.0, 22187.0, 22116.0, 22165.0, 22308.0, 22339.0, 22293.0, 22212.0, 22190.0, 22206.0, 22205.0, 22222.0, 22252.0]
    },
    "slices": {}
  }
}