{
  "AcquisitionMatrixPE": 104,
  "AcquisitionNumber": 1,
  "AcquisitionTime": "15:38:48.912500",
  "BandwidthPerPixelPhaseEncode": 17.17,
  "BaseResolution": 104,
  "BodyPartExamined": "BRAIN",
  "CoilString": "HC1-7;NC1_2",
  "ConsistencyInfo": "N4_VE11C_LATEST_20160120",
  "ConversionSoftware": "dcm2niix",
  "ConversionSoftwareVersion": "v1.0.20190902",
  "DerivedVendorReportedEchoSpacing": 0.000560011,
  "DeviceSerialNumber": "167006",
  "DwellTime": 2.1e-06,
  "EchoTime": 0.037,
  "EchoTrainLength": 104,
  "EffectiveEchoSpacing": 0.000560011,
  "FlipAngle": 52,
  "ImageComments": "Unaliased_MB4_PE3_LB",
  "ImageOrientationPatientDICOM": [0.99739, -0.0656255, 0.0300959, 0.0718437, 0.943373, -0.32386],
  "ImageType": [
    "ORIGINAL",
    "PRIMARY",
    "M",
    "MB",
    "ND",
    "MOSAIC"
],
  "ImagingFrequency": 123.259,
  "InPlanePhaseEncodingDirectionDICOM": "COL",
  "InstitutionAddress": "Chemin_Queen-Mary_4565_Montreal_District_CA_H3W_1W5",
  "InstitutionName": "IUGM",
  "InstitutionalDepartmentName": "Department",
  "MRAcquisitionType": "2D",
  "MagneticFieldStrength": 3,
  "Manufacturer": "Siemens",
  "ManufacturersModelName": "Prisma_fit",
  "Modality": "MR",
  "MultibandAccelerationFactor": 4,
  "PartialFourier": 1,
  "PatientPosition": "HFS",
  "PercentPhaseFOV": 100,
  "PhaseEncodingDirection": "j",
  "PhaseEncodingSteps": 104,
  "PhaseResolution": 1,
  "PixelBandwidth": 2290,
  "ProcedureStepDescription": "memory_things",
  "ProtocolName": "func_task-things_run-3",
  "PulseSequenceDetails": "%CustomerSeq%_cmrr_mbep2d_bold",
  "ReceiveCoilActiveElements": "HC1-7;NC1,2",
  "ReceiveCoilName": "HeadNeck_64",
  "ReconMatrixPE": 104,
  "RepetitionTime": 1.49,
  "SAR": 0.0537257,
  "ScanOptions": "FS",
  "ScanningSequence": "EP",
  "SequenceName": "epfid2d1_104",
  "SequenceVariant": "SK_SS",
  "SeriesDescription": "func_task-things_run-3",
  "SeriesNumber": 16,
  "ShimSetting": [629, -7252, -8813, 590, 5, -210, -34, -15],
  "SliceThickness": 2,
  "SliceTiming": [0, 0.7825, 0.0975, 0.88, 0.195, 0.98, 0.2925, 1.0775, 0.39, 1.175, 0.49, 1.2725, 0.5875, 1.37, 0.685, 0, 0.7825, 0.0975, 0.88, 0.195, 0.98, 0.2925, 1.0775, 0.39, 1.175, 0.49, 1.2725, 0.5875, 1.37, 0.685, 0, 0.7825, 0.0975, 0.88, 0.195, 0.98, 0.2925, 1.0775, 0.39, 1.175, 0.49, 1.2725, 0.5875, 1.37, 0.685, 0, 0.7825, 0.0975, 0.88, 0.195, 0.98, 0.2925, 1.0775, 0.39, 1.175, 0.49, 1.2725, 0.5875, 1.37, 0.685],
  "SoftwareVersions": "syngo_MR_E11",
  "SpacingBetweenSlices": 2,
  "StationName": "MRC35049",
  "TaskName": "things",
  "TotalReadoutTime": 0.0576811,
  "TxRefAmp": 261.482,
  "WipMemBlock": "fa13b262-6c47-4d07-a55e-481ca8f3c803||Sequence: R016 ve11c/master r/e634e98; Dec 19 2017 11:00:25 by eja",
  "dcmmeta_affine": [
    [-1.9947806596755981, 0.14368745684623718, 0.014276471920311451, 100.20156860351562],
    [0.13125106692314148, 1.886746883392334, -0.6503533124923706, -72.78343200683594],
    [0.06019185483455658, 0.6477192640304565, 1.8912526369094849, -67.61815643310547],
    [0.0, 0.0, 0.0, 1.0]
],
  "dcmmeta_reorient_transform": [
    [0.0, -1.0, 0.0, 103.0],
    [1.0, 0.0, 0.0, 0.0],
    [0.0, 0.0, 1.0, 0.0],
    [0.0, 0.0, 0.0, 1.0]
],
  "dcmmeta_shape": [104, 104, 60, 190],
  "dcmmeta_slice_dim": 2,
  "dcmmeta_version": 0.6,
  "global": {
    "const": {
      "AcquisitionMatrix": [104, 0, 0, 104],
      "AngioFlag": "N",
      "BitsAllocated": 16,
      "BitsStored": 16,
      "BodyPartExamined": "BRAIN",
      "Columns": 832,
      "EchoNumbers": 1,
      "EchoTime": 37.0,
      "EchoTrainLength": 104,
      "FlipAngle": 52.0,
      "HighBit": 15,
      "ImageOrientationPatient": [0.99739035716299, -0.0656255334838, 0.03009592652278, 0.07184372641588, 0.94337342363707, -0.3238596340237],
      "ImagePositionPatient": [-893.40379031922, -760.55195353089, 212.95691016443],
      "ImageType": [
        "ORIGINAL",
        "PRIMARY",
        "M",
        "MB",
        "ND",
        "MOSAIC"
],
      "ImagedNucleus": "1H",
      "ImagingFrequency": 123.258951,
      "InPlanePhaseEncodingDirection": "COL",
      "MRAcquisitionType": "2D",
      "MagneticFieldStrength": 3.0,
      "Manufacturer": "SIEMENS",
      "ManufacturerModelName": "Prisma_fit",
      "Modality": "MR",
      "NumberOfAverages": 1.0,
      "NumberOfPhaseEncodingSteps": 104,
      "PercentPhaseFieldOfView": 100.0,
      "PercentSampling": 100.0,
      "PerformedProcedureStepStartTime": "151420.844000",
      "PhotometricInterpretation": "MONOCHROME2",
      "PixelBandwidth": 2290.0,
      "PixelRepresentation": 0,
      "PixelSpacing": [2.0, 2.0],
      "ProtocolName": "func_task-things_run-3",
      "RepetitionTime": 1490.0,
      "Rows": 832,
      "SAR": 0.05372570294834,
      "SamplesPerPixel": 1,
      "ScanOptions": "FS",
      "ScanningSequence": "EP",
      "SequenceName": "epfid2d1_104",
      "SequenceVariant": [
        "SK",
        "SS"
],
      "SeriesDescription": "func_task-things_run-3",
      "SeriesNumber": 16,
      "SeriesTime": "154006.190000",
      "SliceLocation": -39.558768514121,
      "SliceThickness": 2.0,
      "SmallestImagePixelValue": 0,
      "SoftwareVersions": "syngo MR E11",
      "SpacingBetweenSlices": 1.9999999429145,
      "SpecificCharacterSet": "ISO_IR 100",
      "StudyID": "1",
      "StudyTime": "151420.769000",
      "TransmitCoilName": "Body",
      "VariableFlipAngleFlag": "N",
      "WindowCenterWidthExplanation": "Algo1",
      "dBdt": 0.0},
    "slices": {}
  },
  "time": {
    "samples": {
      "AcquisitionNumber": [1, 2, 3, 4, 5, 6, 7, 8, 9, 10, 11, 12, 13, 14, 15, 16, 17, 18, 19, 20, 21, 22, 23, 24, 25, 26, 27, 28, 29, 30, 31, 32, 33, 34, 35, 36, 37, 38, 39, 40, 41, 42, 43, 44, 45, 46, 47, 48, 49, 50, 51, 52, 53, 54, 55, 56, 57, 58, 59, 60, 61, 62, 63, 64, 65, 66, 67, 68, 69, 70, 71, 72, 73, 74, 75, 76, 77, 78, 79, 80, 81, 82, 83, 84, 85, 86, 87, 88, 89, 90, 91, 92, 93, 94, 95, 96, 97, 98, 99, 100, 101, 102, 103, 104, 105, 106, 107, 108, 109, 110, 111, 112, 113, 114, 115, 116, 117, 118, 119, 120, 121, 122, 123, 124, 125, 126, 127, 128, 129, 130, 131, 132, 133, 134, 135, 136, 137, 138, 139, 140, 141, 142, 143, 144, 145, 146, 147, 148, 149, 150, 151, 152, 153, 154, 155, 156, 157, 158, 159, 160, 161, 162, 163, 164, 165, 166, 167, 168, 169, 170, 171, 172, 173, 174, 175, 176, 177, 178, 179, 180, 181, 182, 183, 184, 185, 186, 187, 188, 189, 190],
      "AcquisitionTime": ["153848.912500", "153850.402500", "153851.892500", "153853.382500", "153854.872500", "153856.362500", "153857.852500", "153859.342500", "153900.832500", "153902.322500", "153903.812500", "153905.302500", "153906.792500", "153908.282500", "153909.772500", "153911.262500", "153912.752500", "153914.242500", "153915.732500", "153917.222500", "153918.712500", "153920.202500", "153921.692500", "153923.182500", "153924.672500", "153926.162500", "153927.652500", "153929.142500", "153930.632500", "153932.122500", "153933.612500", "153935.102500", "153936.592500", "153938.082500", "153939.572500", "153941.062500", "153942.552500", "153944.042500", "153945.532500", "153947.022500", "153948.512500", "153950.002500", "153951.492500", "153952.982500", "153954.472500", "153955.962500", "153957.452500", "153958.942500", "154000.432500", "154001.922500", "154003.412500", "154004.902500", "154006.392500", "154007.882500", "154009.372500", "154010.862500", "154012.352500", "154013.842500", "154015.332500", "154016.822500", "154018.312500", "154019.802500", "154021.292500", "154022.782500", "154024.272500", "154025.762500", "154027.252500", "154028.742500", "154030.232500", "154031.722500", "154033.212500", "154034.702500", "154036.192500", "154037.682500", "154039.172500", "154040.662500", "154042.152500", "154043.642500", "154045.132500", "154046.622500", "154048.112500", "154049.602500", "154051.092500", "154052.582500", "154054.072500", "154055.562500", "154057.052500", "154058.542500", "154100.032500", "154101.522500", "154103.012500", "154104.502500", "154105.992500", "154107.482500", "154108.972500", "154110.462500", "154111.952500", "154113.442500", "154114.932500", "154116.422500", "154117.912500", "154119.402500", "154120.892500", "154122.382500", "154123.872500", "154125.362500", "154126.852500", "154128.342500", "154129.832500", "154131.322500", "154132.812500", "154134.302500", "154135.792500", "154137.282500", "154138.772500", "154140.262500", "154141.752500", "154143.242500", "154144.732500", "154146.222500", "154147.712500", "154149.202500", "154150.692500", "154152.182500", "154153.672500", "154155.162500", "154156.652500", "154158.142500", "154159.632500", "154201.122500", "154202.612500", "154204.102500", "154205.592500", "154207.082500", "154208.572500", "154210.062500", "154211.552500", "154213.042500", "154214.532500", "154216.022500", "154217.512500", "154219.002500", "154220.492500", "154221.982500", "154223.472500", "154224.962500", "154226.452500", "154227.942500", "154229.432500", "154230.922500", "154232.412500", "154233.902500", "154235.392500", "154236.882500", "154238.372500", "154239.862500", "154241.352500", "154242.842500", "154244.332500", "154245.822500", "154247.312500", "154248.802500", "154250.292500", "154251.782500", "154253.272500", "154254.762500", "154256.252500", "154257.742500", "154259.232500", "154300.722500", "154302.212500", "154303.702500", "154305.192500", "154306.682500", "154308.172500", "154309.662500", "154311.152500", "154312.642500", "154314.132500", "154315.622500", "154317.112500", "154318.602500", "154320.092500", "154321.582500", "154323.072500", "154324.562500", "154326.052500", "154327.542500", "154329.032500", "154330.522500"],
      "ContentTime": ["154006.193000", "154006.196000", "154006.200000", "154006.203000", "154006.206000", "154006.209000", "154006.213000", "154006.216000", "154006.225000", "154006.228000", "154006.232000", "154006.235000", "154006.238000", "154006.242000", "154006.245000", "154006.248000", "154006.251000", "154006.255000", "154006.258000", "154006.261000", "154006.265000", "154006.268000", "154006.271000", "154026.144000", "154026.148000", "154026.151000", "154026.154000", "154026.157000", "154026.161000", "154026.164000", "154026.167000", "154026.170000", "154026.174000", "154026.177000", "154026.180000", "154026.183000", "154026.187000", "154026.190000", "154026.193000", "154026.196000", "154026.200000", "154026.203000", "154026.206000", "154046.144000", "154046.148000", "154046.151000", "154046.154000", "154046.157000", "154046.161000", "154046.164000", "154046.167000", "154046.170000", "154046.174000", "154046.177000", "154046.180000", "154046.183000", "154046.187000", "154046.190000", "154046.193000", "154046.196000", "154046.200000", "154046.203000", "154046.206000", "154106.144000", "154106.148000", "154106.151000", "154106.154000", "154106.157000", "154106.161000", "154106.164000", "154106.167000", "154106.170000", "154106.174000", "154106.177000", "154106.180000", "154106.183000", "154106.187000", "154106.190000", "154106.199000", "154106.203000", "154106.206000", "154106.209000", "154106.212000", "154126.143000", "154126.147000", "154126.150000", "154126.158000", "154126.162000", "154126.165000", "154126.168000", "154126.172000", "154126.175000", "154126.178000", "154126.182000", "154126.185000", "154126.188000", "154126.192000", "154126.195000", "154126.198000", "154126.201000", "154126.205000", "154126.218000", "154126.221000", "154126.224000", "154206.144000", "154206.149000", "154206.152000", "154206.156000", "154206.159000", "154206.163000", "154206.166000", "154206.169000", "154206.172000", "154206.176000", "154206.179000", "154206.182000", "154206.186000", "154206.189000", "154206.192000", "154206.196000", "154206.200000", "154206.204000", "154206.207000", "154206.211000", "154206.214000", "154206.217000", "154206.221000", "154206.225000", "154206.229000", "154206.232000", "154206.236000", "154246.144000", "154246.148000", "154246.151000", "154246.155000", "154246.158000", "154246.161000", "154246.164000", "154246.168000", "154246.171000", "154246.174000", "154246.178000", "154246.181000", "154246.184000", "154246.188000", "154246.191000", "154246.194000", "154246.198000", "154246.201000", "154246.204000", "154246.208000", "154246.211000", "154246.214000", "154246.217000", "154246.221000", "154246.224000", "154246.227000", "154246.231000", "154326.144000", "154326.148000", "154326.151000", "154326.155000", "154326.158000", "154326.161000", "154326.165000", "154326.168000", "154326.171000", "154326.175000", "154326.178000", "154326.182000", "154326.185000", "154326.188000", "154326.191000", "154326.195000", "154326.198000", "154326.202000", "154326.205000", "154326.223000", "154326.226000", "154326.230000", "154326.233000", "154326.236000", "154326.239000", "154326.243000", "154326.246000", "154332.845000", "154332.848000", "154332.852000", "154332.855000", "154332.859000"],
      "InstanceCreationTime": ["154006.193000", "154006.196000", "154006.200000", "154006.203000", "154006.206000", "154006.209000", "154006.213000", "154006.216000", "154006.225000", "154006.228000", "154006.232000", "154006.235000", "154006.238000", "154006.242000", "154006.245000", "154006.248000", "154006.251000", "154006.255000", "154006.258000", "154006.261000", "154006.265000", "154006.268000", "154006.271000", "154026.144000", "154026.148000", "154026.151000", "154026.154000", "154026.157000", "154026.161000", "154026.164000", "154026.167000", "154026.170000", "154026.174000", "154026.177000", "154026.180000", "154026.183000", "154026.187000", "154026.190000", "154026.193000", "154026.196000", "154026.200000", "154026.203000", "154026.206000", "154046.144000", "154046.148000", "154046.151000", "154046.154000", "154046.157000", "154046.161000", "154046.164000", "154046.167000", "154046.170000", "154046.174000", "154046.177000", "154046.180000", "154046.183000", "154046.187000", "154046.190000", "154046.193000", "154046.196000", "154046.200000", "154046.203000", "154046.206000", "154106.144000", "154106.148000", "154106.151000", "154106.154000", "154106.157000", "154106.161000", "154106.164000", "154106.167000", "154106.170000", "154106.174000", "154106.177000", "154106.180000", "154106.183000", "154106.187000", "154106.190000", "154106.199000", "154106.203000", "154106.206000", "154106.209000", "154106.212000", "154126.143000", "154126.147000", "154126.150000", "154126.158000", "154126.162000", "154126.165000", "154126.168000", "154126.172000", "154126.175000", "154126.178000", "154126.182000", "154126.185000", "154126.188000", "154126.192000", "154126.195000", "154126.198000", "154126.201000", "154126.205000", "154126.218000", "154126.221000", "154126.224000", "154206.144000", "154206.149000", "154206.152000", "154206.156000", "154206.159000", "154206.163000", "154206.166000", "154206.169000", "154206.172000", "154206.176000", "154206.179000", "154206.182000", "154206.186000", "154206.189000", "154206.192000", "154206.196000", "154206.200000", "154206.204000", "154206.207000", "154206.211000", "154206.214000", "154206.217000", "154206.221000", "154206.225000", "154206.229000", "154206.232000", "154206.236000", "154246.144000", "154246.148000", "154246.151000", "154246.155000", "154246.158000", "154246.161000", "154246.164000", "154246.168000", "154246.171000", "154246.174000", "154246.178000", "154246.181000", "154246.184000", "154246.188000", "154246.191000", "154246.194000", "154246.198000", "154246.201000", "154246.204000", "154246.208000", "154246.211000", "154246.214000", "154246.217000", "154246.221000", "154246.224000", "154246.227000", "154246.231000", "154326.144000", "154326.148000", "154326.151000", "154326.155000", "154326.158000", "154326.161000", "154326.165000", "154326.168000", "154326.171000", "154326.175000", "154326.178000", "154326.182000", "154326.185000", "154326.188000", "154326.191000", "154326.195000", "154326.198000", "154326.202000", "154326.205000", "154326.223000", "154326.226000", "154326.230000", "154326.233000", "154326.236000", "154326.239000", "154326.243000", "154326.246000", "154332.845000", "154332.848000", "154332.852000", "154332.855000", "154332.859000"],
      "InstanceNumber": [1, 2, 3, 4, 5, 6, 7, 8, 9, 10, 11, 12, 13, 14, 15, 16, 17, 18, 19, 20, 21, 22, 23, 24, 25, 26, 27, 28, 29, 30, 31, 32, 33, 34, 35, 36, 37, 38, 39, 40, 41, 42, 43, 44, 45, 46, 47, 48, 49, 50, 51, 52, 53, 54, 55, 56, 57, 58, 59, 60, 61, 62, 63, 64, 65, 66, 67, 68, 69, 70, 71, 72, 73, 74, 75, 76, 77, 78, 79, 80, 81, 82, 83, 84, 85, 86, 87, 88, 89, 90, 91, 92, 93, 94, 95, 96, 97, 98, 99, 100, 101, 102, 103, 104, 105, 106, 107, 108, 109, 110, 111, 112, 113, 114, 115, 116, 117, 118, 119, 120, 121, 122, 123, 124, 125, 126, 127, 128, 129, 130, 131, 132, 133, 134, 135, 136, 137, 138, 139, 140, 141, 142, 143, 144, 145, 146, 147, 148, 149, 150, 151, 152, 153, 154, 155, 156, 157, 158, 159, 160, 161, 162, 163, 164, 165, 166, 167, 168, 169, 170, 171, 172, 173, 174, 175, 176, 177, 178, 179, 180, 181, 182, 183, 184, 185, 186, 187, 188, 189, 190],
      "LargestImagePixelValue": [44162, 42732, 41209, 41338, 40699, 40662, 40467, 40730, 40944, 40912, 40837, 40993, 40393, 40906, 40732, 40651, 40246, 40626, 40513, 40577, 40887, 40526, 40483, 40750, 40361, 40789, 40625, 40257, 40362, 40295, 40699, 40266, 40384, 40576, 40320, 40264, 40298, 40101, 40086, 39827, 40160, 40049, 40708, 39895, 40480, 40488, 40319, 39968, 39849, 39783, 39660, 39962, 39964, 40152, 40262, 40318, 40411, 40476, 40184, 39727, 40308, 39547, 39877, 39644, 39814, 39952, 39700, 40041, 39804, 39730, 39876, 39811, 39984, 39771, 39772, 39847, 40180, 40317, 40038, 39928, 39967, 39717, 40036, 40009, 40324, 39983, 39666, 39745, 39829, 39609, 39918, 39845, 40247, 39918, 39625, 40071, 40819, 41000, 40045, 40635, 39654, 39824, 40977, 40427, 40327, 41303, 41149, 40541, 39996, 40312, 40147, 40635, 40122, 40310, 40226, 40370, 40195, 40122, 40062, 39918, 39567, 40216, 39885, 39819, 39746, 40039, 40130, 39921, 39888, 39976, 40272, 40494, 39996, 41007, 40105, 40231, 40004, 40215, 39716, 39996, 39896, 40003, 39707, 39966, 39935, 39684, 39667, 39740, 40213, 39934, 39725, 39908, 39693, 40244, 39738, 40057, 40044, 39842, 39800, 39774, 40183, 40022, 39865, 39738, 39774, 39963, 39928, 39752, 39821, 40258, 40219, 39632, 40162, 40061, 39594, 39697, 40192, 39623, 39844, 39582, 39578, 39915, 39652, 39958, 39732, 40073, 39758, 40373, 41179, 39924],
      "WindowCenter": [10406.0, 10344.0, 10302.0, 10281.0, 10278.0, 10308.0, 10315.0, 10307.0, 10309.0, 10310.0, 10309.0, 10314.0, 10328.0, 10342.0, 10328.0, 10319.0, 10304.0, 10317.0, 10334.0, 10335.0, 10326.0, 10303.0, 10307.0, 10334.0, 10344.0, 10344.0, 10329.0, 10304.0, 10287.0, 10293.0, 10316.0, 10313.0, 10304.0, 10300.0, 10295.0, 10309.0, 10309.0, 10304.0, 10313.0, 10306.0, 10297.0, 10295.0, 10306.0, 10304.0, 10325.0, 10334.0, 10313.0, 10289.0, 10273.0, 10266.0, 10272.0, 10280.0, 10302.0, 10307.0, 10299.0, 10288.0, 10308.0, 10334.0, 10335.0, 10314.0, 10289.0, 10271.0, 10264.0, 10272.0, 10282.0, 10288.0, 10282.0, 10287.0, 10289.0, 10281.0, 10273.0, 10271.0, 10278.0, 10295.0, 10306.0, 10315.0, 10313.0, 10326.0, 10324.0, 10315.0, 10304.0, 10282.0, 10279.0, 10293.0, 10312.0, 10312.0, 10299.0, 10277.0, 10274.0, 10287.0, 10325.0, 10337.0, 10323.0, 10285.0, 10260.0, 10263.0, 10280.0, 10288.0, 10288.0, 10294.0, 10282.0, 10274.0, 10291.0, 10294.0, 10316.0, 10331.0, 10315.0, 10293.0, 10279.0, 10300.0, 10325.0, 10328.0, 10302.0, 10289.0, 10281.0, 10265.0, 10247.0, 10238.0, 10261.0, 10280.0, 10290.0, 10295.0, 10291.0, 10302.0, 10308.0, 10315.0, 10313.0, 10314.0, 10314.0, 10294.0, 10283.0, 10295.0, 10318.0, 10339.0, 10334.0, 10324.0, 10286.0, 10278.0, 10287.0, 10306.0, 10308.0, 10291.0, 10269.0, 10266.0, 10277.0, 10298.0, 10326.0, 10319.0, 10301.0, 10285.0, 10292.0, 10313.0, 10325.0, 10325.0, 10297.0, 10285.0, 10288.0, 10311.0, 10331.0, 10313.0, 10293.0, 10283.0, 10297.0, 10292.0, 10284.0, 10281.0, 10288.0, 10305.0, 10303.0, 10305.0, 10303.0, 10299.0, 10297.0, 10289.0, 10287.0, 10291.0, 10283.0, 10260.0, 10263.0, 10279.0, 10284.0, 10283.0, 10270.0, 10273.0, 10282.0, 10305.0, 10301.0, 10293.0, 10301.0, 10288.0],
      "WindowWidth": [22507.0, 22327.0, 22211.0, 22148.0, 22134.0, 22197.0, 22213.0, 22193.0, 22193.0, 22199.0, 22197.0, 22206.0, 22240.0, 22269.0, 22238.0, 22216.0, 22186.0, 22211.0, 22251.0, 22252.0, 22233.0, 22184.0, 22189.0, 22253.0, 22279.0, 22275.0, 22241.0, 22183.0, 22147.0, 22160.0, 22210.0, 22207.0, 22185.0, 22176.0, 22163.0, 22195.0, 22196.0, 22187.0, 22209.0, 22193.0, 22171.0, 22165.0, 22188.0, 22190.0, 22235.0, 22255.0, 22206.0, 22153.0, 22117.0, 22105.0, 22117.0, 22135.0, 22183.0, 22196.0, 22179.0, 22157.0, 22199.0, 22258.0, 22258.0, 22211.0, 22151.0, 22112.0, 22097.0, 22115.0, 22138.0, 22150.0, 22139.0, 22149.0, 22153.0, 22134.0, 22117.0, 22113.0, 22126.0, 22166.0, 22192.0, 22213.0, 22209.0, 22236.0, 22233.0, 22214.0, 22186.0, 22138.0, 22129.0, 22159.0, 22203.0, 22204.0, 22177.0, 22128.0, 22120.0, 22150.0, 22233.0, 22263.0, 22229.0, 22148.0, 22088.0, 22095.0, 22130.0, 22151.0, 22151.0, 22161.0, 22136.0, 22121.0, 22157.0, 22168.0, 22214.0, 22248.0, 22212.0, 22163.0, 22132.0, 22179.0, 22235.0, 22240.0, 22186.0, 22151.0, 22134.0, 22097.0, 22058.0, 22039.0, 22089.0, 22133.0, 22158.0, 22166.0, 22160.0, 22188.0, 22199.0, 22215.0, 22211.0, 22213.0, 22212.0, 22169.0, 22142.0, 22168.0, 22228.0, 22272.0, 22264.0, 22237.0, 22154.0, 22131.0, 22153.0, 22199.0, 22204.0, 22164.0, 22113.0, 22105.0, 22131.0, 22183.0, 22249.0, 22229.0, 22189.0, 22153.0, 22168.0, 22216.0, 22243.0, 22244.0, 22182.0, 22153.0, 22159.0, 22211.0, 22259.0, 22220.0, 22170.0, 22144.0, 22177.0, 22167.0, 22152.0, 22142.0, 22161.0, 22197.0, 22195.0, 22200.0, 22192.0, 22186.0, 22174.0, 22158.0, 22154.0, 22165.0, 22146.0, 22097.0, 22101.0, 22136.0, 22152.0, 22147.0, 22121.0, 22125.0, 22147.0, 22195.0, 22190.0, 22171.0, 22191.0, 22160.0]
    },
    "slices": {}
  }
}