{
  "AcquisitionMatrixPE": 104,
  "AcquisitionNumber": 1,
  "AcquisitionTime": "15:58:26.275000",
  "BandwidthPerPixelPhaseEncode": 17.17,
  "BaseResolution": 104,
  "BodyPartExamined": "BRAIN",
  "CoilString": "HC1-7;NC1_2",
  "ConsistencyInfo": "N4_VE11C_LATEST_20160120",
  "ConversionSoftware": "dcm2niix",
  "ConversionSoftwareVersion": "v1.0.20190902",
  "DerivedVendorReportedEchoSpacing": 0.000560011,
  "DeviceSerialNumber": "167006",
  "DwellTime": 2.1e-06,
  "EchoTime": 0.037,
  "EchoTrainLength": 104,
  "EffectiveEchoSpacing": 0.000560011,
  "FlipAngle": 52,
  "ImageComments": "Unaliased_MB4_PE3_LB",
  "ImageOrientationPatientDICOM": [0.99739, -0.0656255, 0.0300959, 0.0718437, 0.943373, -0.32386],
  "ImageType": [
    "ORIGINAL",
    "PRIMARY",
    "M",
    "MB",
    "ND",
    "MOSAIC"
],
  "ImagingFrequency": 123.259,
  "InPlanePhaseEncodingDirectionDICOM": "COL",
  "InstitutionAddress": "Chemin_Queen-Mary_4565_Montreal_District_CA_H3W_1W5",
  "InstitutionName": "IUGM",
  "InstitutionalDepartmentName": "Department",
  "MRAcquisitionType": "2D",
  "MagneticFieldStrength": 3,
  "Manufacturer": "Siemens",
  "ManufacturersModelName": "Prisma_fit",
  "Modality": "MR",
  "MultibandAccelerationFactor": 4,
  "PartialFourier": 1,
  "PatientPosition": "HFS",
  "PercentPhaseFOV": 100,
  "PhaseEncodingDirection": "j",
  "PhaseEncodingSteps": 104,
  "PhaseResolution": 1,
  "PixelBandwidth": 2290,
  "ProcedureStepDescription": "memory_things",
  "ProtocolName": "func_task-things_run-6",
  "PulseSequenceDetails": "%CustomerSeq%_cmrr_mbep2d_bold",
  "ReceiveCoilActiveElements": "HC1-7;NC1,2",
  "ReceiveCoilName": "HeadNeck_64",
  "ReconMatrixPE": 104,
  "RepetitionTime": 1.49,
  "SAR": 0.0537257,
  "ScanOptions": "FS",
  "ScanningSequence": "EP",
  "SequenceName": "epfid2d1_104",
  "SequenceVariant": "SK_SS",
  "SeriesDescription": "func_task-things_run-6",
  "SeriesNumber": 25,
  "ShimSetting": [629, -7252, -8813, 590, 5, -210, -34, -15],
  "SliceThickness": 2,
  "SliceTiming": [0, 0.785, 0.0975, 0.8825, 0.1975, 0.98, 0.295, 1.0775, 0.3925, 1.1775, 0.49, 1.275, 0.5875, 1.3725, 0.6875, 0, 0.785, 0.0975, 0.8825, 0.1975, 0.98, 0.295, 1.0775, 0.3925, 1.1775, 0.49, 1.275, 0.5875, 1.3725, 0.6875, 0, 0.785, 0.0975, 0.8825, 0.1975, 0.98, 0.295, 1.0775, 0.3925, 1.1775, 0.49, 1.275, 0.5875, 1.3725, 0.6875, 0, 0.785, 0.0975, 0.8825, 0.1975, 0.98, 0.295, 1.0775, 0.3925, 1.1775, 0.49, 1.275, 0.5875, 1.3725, 0.6875],
  "SoftwareVersions": "syngo_MR_E11",
  "SpacingBetweenSlices": 2,
  "StationName": "MRC35049",
  "TaskName": "things",
  "TotalReadoutTime": 0.0576811,
  "TxRefAmp": 261.482,
  "WipMemBlock": "4955ba78-b5bb-4565-997f-f731a971fe61||Sequence: R016 ve11c/master r/e634e98; Dec 19 2017 11:00:25 by eja",
  "dcmmeta_affine": [
    [-1.9947806596755981, 0.14368745684623718, 0.014276471920311451, 100.20156860351562],
    [0.13125106692314148, 1.886746883392334, -0.6503533124923706, -72.78343200683594],
    [0.06019185483455658, 0.6477192640304565, 1.8912526369094849, -67.61815643310547],
    [0.0, 0.0, 0.0, 1.0]
],
  "dcmmeta_reorient_transform": [
    [0.0, -1.0, 0.0, 103.0],
    [1.0, 0.0, 0.0, 0.0],
    [0.0, 0.0, 1.0, 0.0],
    [0.0, 0.0, 0.0, 1.0]
],
  "dcmmeta_shape": [104, 104, 60, 190],
  "dcmmeta_slice_dim": 2,
  "dcmmeta_version": 0.6,
  "global": {
    "const": {
      "AcquisitionMatrix": [104, 0, 0, 104],
      "AngioFlag": "N",
      "BitsAllocated": 16,
      "BitsStored": 16,
      "BodyPartExamined": "BRAIN",
      "Columns": 832,
      "EchoNumbers": 1,
      "EchoTime": 37.0,
      "EchoTrainLength": 104,
      "FlipAngle": 52.0,
      "HighBit": 15,
      "ImageOrientationPatient": [0.99739035716299, -0.0656255334838, 0.03009592652278, 0.07184372641588, 0.94337342363707, -0.3238596340237],
      "ImagePositionPatient": [-893.40379031922, -760.55195353089, 212.95691016443],
      "ImageType": [
        "ORIGINAL",
        "PRIMARY",
        "M",
        "MB",
        "ND",
        "MOSAIC"
],
      "ImagedNucleus": "1H",
      "ImagingFrequency": 123.258958,
      "InPlanePhaseEncodingDirection": "COL",
      "MRAcquisitionType": "2D",
      "MagneticFieldStrength": 3.0,
      "Manufacturer": "SIEMENS",
      "ManufacturerModelName": "Prisma_fit",
      "Modality": "MR",
      "NumberOfAverages": 1.0,
      "NumberOfPhaseEncodingSteps": 104,
      "PercentPhaseFieldOfView": 100.0,
      "PercentSampling": 100.0,
      "PerformedProcedureStepStartTime": "151420.844000",
      "PhotometricInterpretation": "MONOCHROME2",
      "PixelBandwidth": 2290.0,
      "PixelRepresentation": 0,
      "PixelSpacing": [2.0, 2.0],
      "ProtocolName": "func_task-things_run-6",
      "RepetitionTime": 1490.0,
      "Rows": 832,
      "SAR": 0.05372570294834,
      "SamplesPerPixel": 1,
      "ScanOptions": "FS",
      "ScanningSequence": "EP",
      "SequenceName": "epfid2d1_104",
      "SequenceVariant": [
        "SK",
        "SS"
],
      "SeriesDescription": "func_task-things_run-6",
      "SeriesNumber": 25,
      "SeriesTime": "155946.173000",
      "SliceLocation": -39.558768514121,
      "SliceThickness": 2.0,
      "SmallestImagePixelValue": 0,
      "SoftwareVersions": "syngo MR E11",
      "SpacingBetweenSlices": 1.9999999429145,
      "SpecificCharacterSet": "ISO_IR 100",
      "StudyID": "1",
      "StudyTime": "151420.769000",
      "TransmitCoilName": "Body",
      "VariableFlipAngleFlag": "N",
      "WindowCenterWidthExplanation": "Algo1",
      "dBdt": 0.0},
    "slices": {}
  },
  "time": {
    "samples": {
      "AcquisitionNumber": [1, 2, 3, 4, 5, 6, 7, 8, 9, 10, 11, 12, 13, 14, 15, 16, 17, 18, 19, 20, 21, 22, 23, 24, 25, 26, 27, 28, 29, 30, 31, 32, 33, 34, 35, 36, 37, 38, 39, 40, 41, 42, 43, 44, 45, 46, 47, 48, 49, 50, 51, 52, 53, 54, 55, 56, 57, 58, 59, 60, 61, 62, 63, 64, 65, 66, 67, 68, 69, 70, 71, 72, 73, 74, 75, 76, 77, 78, 79, 80, 81, 82, 83, 84, 85, 86, 87, 88, 89, 90, 91, 92, 93, 94, 95, 96, 97, 98, 99, 100, 101, 102, 103, 104, 105, 106, 107, 108, 109, 110, 111, 112, 113, 114, 115, 116, 117, 118, 119, 120, 121, 122, 123, 124, 125, 126, 127, 128, 129, 130, 131, 132, 133, 134, 135, 136, 137, 138, 139, 140, 141, 142, 143, 144, 145, 146, 147, 148, 149, 150, 151, 152, 153, 154, 155, 156, 157, 158, 159, 160, 161, 162, 163, 164, 165, 166, 167, 168, 169, 170, 171, 172, 173, 174, 175, 176, 177, 178, 179, 180, 181, 182, 183, 184, 185, 186, 187, 188, 189, 190],
      "AcquisitionTime": ["155826.275000", "155827.765000", "155829.255000", "155830.745000", "155832.235000", "155833.725000", "155835.215000", "155836.705000", "155838.195000", "155839.685000", "155841.175000", "155842.665000", "155844.155000", "155845.645000", "155847.135000", "155848.625000", "155850.115000", "155851.605000", "155853.095000", "155854.585000", "155856.075000", "155857.565000", "155859.055000", "155900.545000", "155902.035000", "155903.525000", "155905.015000", "155906.505000", "155907.995000", "155909.485000", "155910.975000", "155912.465000", "155913.955000", "155915.445000", "155916.935000", "155918.425000", "155919.915000", "155921.405000", "155922.895000", "155924.385000", "155925.875000", "155927.365000", "155928.855000", "155930.345000", "155931.835000", "155933.325000", "155934.815000", "155936.305000", "155937.795000", "155939.285000", "155940.775000", "155942.265000", "155943.755000", "155945.245000", "155946.735000", "155948.225000", "155949.715000", "155951.205000", "155952.695000", "155954.185000", "155955.675000", "155957.165000", "155958.655000", "160000.145000", "160001.635000", "160003.125000", "160004.615000", "160006.105000", "160007.595000", "160009.085000", "160010.575000", "160012.065000", "160013.555000", "160015.045000", "160016.535000", "160018.025000", "160019.515000", "160021.005000", "160022.495000", "160023.985000", "160025.475000", "160026.965000", "160028.455000", "160029.945000", "160031.435000", "160032.925000", "160034.415000", "160035.905000", "160037.395000", "160038.885000", "160040.375000", "160041.865000", "160043.355000", "160044.845000", "160046.335000", "160047.825000", "160049.315000", "160050.805000", "160052.295000", "160053.785000", "160055.275000", "160056.765000", "160058.255000", "160059.745000", "160101.235000", "160102.725000", "160104.215000", "160105.705000", "160107.195000", "160108.685000", "160110.175000", "160111.665000", "160113.155000", "160114.645000", "160116.135000", "160117.625000", "160119.115000", "160120.605000", "160122.095000", "160123.585000", "160125.075000", "160126.565000", "160128.055000", "160129.545000", "160131.035000", "160132.525000", "160134.015000", "160135.505000", "160136.995000", "160138.485000", "160139.975000", "160141.465000", "160142.955000", "160144.445000", "160145.935000", "160147.425000", "160148.915000", "160150.405000", "160151.895000", "160153.385000", "160154.875000", "160156.365000", "160157.855000", "160159.345000", "160200.835000", "160202.325000", "160203.815000", "160205.305000", "160206.795000", "160208.285000", "160209.775000", "160211.265000", "160212.755000", "160214.245000", "160215.735000", "160217.225000", "160218.715000", "160220.205000", "160221.695000", "160223.185000", "160224.675000", "160226.165000", "160227.655000", "160229.145000", "160230.635000", "160232.125000", "160233.615000", "160235.105000", "160236.595000", "160238.085000", "160239.575000", "160241.065000", "160242.555000", "160244.045000", "160245.535000", "160247.025000", "160248.515000", "160250.005000", "160251.495000", "160252.985000", "160254.475000", "160255.965000", "160257.455000", "160258.945000", "160300.435000", "160301.925000", "160303.415000", "160304.905000", "160306.395000", "160307.885000"],
      "ContentTime": ["155946.176000", "155946.180000", "155946.183000", "155946.186000", "155946.190000", "155946.193000", "155946.196000", "155946.200000", "155946.203000", "155946.206000", "155946.209000", "155946.213000", "155946.216000", "155946.219000", "155946.223000", "155946.226000", "155946.229000", "155946.232000", "155946.236000", "155946.239000", "155946.242000", "155946.245000", "155946.249000", "155946.252000", "155946.255000", "160006.143000", "160006.147000", "160006.150000", "160006.153000", "160006.156000", "160006.160000", "160006.163000", "160006.166000", "160006.170000", "160006.173000", "160006.176000", "160006.179000", "160006.183000", "160006.186000", "160006.190000", "160006.193000", "160006.196000", "160006.200000", "160006.203000", "160006.206000", "160026.144000", "160026.148000", "160026.151000", "160026.154000", "160026.158000", "160026.161000", "160026.164000", "160026.167000", "160026.171000", "160026.174000", "160026.177000", "160026.180000", "160026.184000", "160026.187000", "160026.190000", "160026.194000", "160026.197000", "160026.200000", "160026.203000", "160026.207000", "160046.144000", "160046.148000", "160046.151000", "160046.154000", "160046.158000", "160046.161000", "160046.164000", "160046.168000", "160046.171000", "160046.174000", "160046.178000", "160046.181000", "160046.184000", "160046.197000", "160046.200000", "160046.203000", "160046.207000", "160046.210000", "160046.213000", "160046.217000", "160106.144000", "160106.148000", "160106.151000", "160106.154000", "160106.158000", "160106.161000", "160106.165000", "160106.168000", "160106.171000", "160106.174000", "160106.177000", "160106.181000", "160106.184000", "160106.187000", "160106.191000", "160106.194000", "160106.197000", "160106.200000", "160106.204000", "160106.207000", "160106.210000", "160146.144000", "160146.148000", "160146.151000", "160146.154000", "160146.158000", "160146.161000", "160146.164000", "160146.167000", "160146.171000", "160146.174000", "160146.177000", "160146.181000", "160146.184000", "160146.187000", "160146.190000", "160146.194000", "160146.197000", "160146.200000", "160146.203000", "160146.207000", "160146.210000", "160146.213000", "160146.217000", "160146.220000", "160146.223000", "160146.226000", "160146.230000", "160226.143000", "160226.147000", "160226.150000", "160226.153000", "160226.157000", "160226.160000", "160226.163000", "160226.167000", "160226.170000", "160226.173000", "160226.177000", "160226.180000", "160226.183000", "160226.186000", "160226.190000", "160226.193000", "160226.196000", "160226.200000", "160226.203000", "160226.206000", "160226.209000", "160226.213000", "160226.216000", "160226.219000", "160226.222000", "160226.226000", "160226.229000", "160306.144000", "160306.148000", "160306.151000", "160306.154000", "160306.158000", "160306.161000", "160306.164000", "160306.168000", "160306.171000", "160306.174000", "160306.178000", "160306.181000", "160306.184000", "160306.187000", "160306.191000", "160306.194000", "160306.212000", "160306.216000", "160306.219000", "160306.222000", "160306.225000", "160306.229000", "160306.232000", "160306.235000", "160306.239000", "160306.242000", "160306.245000", "160310.104000", "160310.107000", "160310.111000"],
      "InstanceCreationTime": ["155946.176000", "155946.180000", "155946.183000", "155946.186000", "155946.190000", "155946.193000", "155946.196000", "155946.200000", "155946.203000", "155946.206000", "155946.209000", "155946.213000", "155946.216000", "155946.219000", "155946.223000", "155946.226000", "155946.229000", "155946.232000", "155946.236000", "155946.239000", "155946.242000", "155946.245000", "155946.249000", "155946.252000", "155946.255000", "160006.143000", "160006.147000", "160006.150000", "160006.153000", "160006.156000", "160006.160000", "160006.163000", "160006.166000", "160006.170000", "160006.173000", "160006.176000", "160006.179000", "160006.183000", "160006.186000", "160006.190000", "160006.193000", "160006.196000", "160006.200000", "160006.203000", "160006.206000", "160026.144000", "160026.148000", "160026.151000", "160026.154000", "160026.158000", "160026.161000", "160026.164000", "160026.167000", "160026.171000", "160026.174000", "160026.177000", "160026.180000", "160026.184000", "160026.187000", "160026.190000", "160026.194000", "160026.197000", "160026.200000", "160026.203000", "160026.207000", "160046.144000", "160046.148000", "160046.151000", "160046.154000", "160046.158000", "160046.161000", "160046.164000", "160046.168000", "160046.171000", "160046.174000", "160046.178000", "160046.181000", "160046.184000", "160046.197000", "160046.200000", "160046.203000", "160046.207000", "160046.210000", "160046.213000", "160046.217000", "160106.144000", "160106.148000", "160106.151000", "160106.154000", "160106.158000", "160106.161000", "160106.165000", "160106.168000", "160106.171000", "160106.174000", "160106.177000", "160106.181000", "160106.184000", "160106.187000", "160106.191000", "160106.194000", "160106.197000", "160106.200000", "160106.204000", "160106.207000", "160106.210000", "160146.144000", "160146.148000", "160146.151000", "160146.154000", "160146.158000", "160146.161000", "160146.164000", "160146.167000", "160146.171000", "160146.174000", "160146.177000", "160146.181000", "160146.184000", "160146.187000", "160146.190000", "160146.194000", "160146.197000", "160146.200000", "160146.203000", "160146.207000", "160146.210000", "160146.213000", "160146.217000", "160146.220000", "160146.223000", "160146.226000", "160146.230000", "160226.143000", "160226.147000", "160226.150000", "160226.153000", "160226.157000", "160226.160000", "160226.163000", "160226.167000", "160226.170000", "160226.173000", "160226.177000", "160226.180000", "160226.183000", "160226.186000", "160226.190000", "160226.193000", "160226.196000", "160226.200000", "160226.203000", "160226.206000", "160226.209000", "160226.213000", "160226.216000", "160226.219000", "160226.222000", "160226.226000", "160226.229000", "160306.144000", "160306.148000", "160306.151000", "160306.154000", "160306.158000", "160306.161000", "160306.164000", "160306.168000", "160306.171000", "160306.174000", "160306.178000", "160306.181000", "160306.184000", "160306.187000", "160306.191000", "160306.194000", "160306.212000", "160306.216000", "160306.219000", "160306.222000", "160306.225000", "160306.229000", "160306.232000", "160306.235000", "160306.239000", "160306.242000", "160306.245000", "160310.104000", "160310.107000", "160310.111000"],
      "InstanceNumber": [1, 2, 3, 4, 5, 6, 7, 8, 9, 10, 11, 12, 13, 14, 15, 16, 17, 18, 19, 20, 21, 22, 23, 24, 25, 26, 27, 28, 29, 30, 31, 32, 33, 34, 35, 36, 37, 38, 39, 40, 41, 42, 43, 44, 45, 46, 47, 48, 49, 50, 51, 52, 53, 54, 55, 56, 57, 58, 59, 60, 61, 62, 63, 64, 65, 66, 67, 68, 69, 70, 71, 72, 73, 74, 75, 76, 77, 78, 79, 80, 81, 82, 83, 84, 85, 86, 87, 88, 89, 90, 91, 92, 93, 94, 95, 96, 97, 98, 99, 100, 101, 102, 103, 104, 105, 106, 107, 108, 109, 110, 111, 112, 113, 114, 115, 116, 117, 118, 119, 120, 121, 122, 123, 124, 125, 126, 127, 128, 129, 130, 131, 132, 133, 134, 135, 136, 137, 138, 139, 140, 141, 142, 143, 144, 145, 146, 147, 148, 149, 150, 151, 152, 153, 154, 155, 156, 157, 158, 159, 160, 161, 162, 163, 164, 165, 166, 167, 168, 169, 170, 171, 172, 173, 174, 175, 176, 177, 178, 179, 180, 181, 182, 183, 184, 185, 186, 187, 188, 189, 190],
      "LargestImagePixelValue": [43470, 41887, 41188, 41109, 43103, 42782, 42578, 41568, 41771, 41141, 41372, 40435, 40087, 40470, 40720, 40270, 40363, 41085, 40742, 41887, 42325, 41907, 42302, 41090, 41965, 41325, 41925, 41865, 42264, 42226, 42296, 42055, 41894, 41711, 41855, 41885, 41273, 41853, 41134, 41273, 42308, 40872, 41162, 40897, 40705, 41919, 41794, 42455, 40207, 40128, 40546, 40193, 39845, 40761, 40383, 40586, 40519, 41254, 40587, 40740, 39773, 40060, 41787, 41453, 40337, 40596, 40698, 41710, 41513, 41374, 41233, 40794, 40592, 41419, 41745, 41070, 40954, 40940, 40434, 40733, 40955, 40973, 40551, 41012, 40848, 40727, 40456, 40704, 41201, 41074, 40761, 41125, 41083, 41279, 41937, 41041, 41088, 40989, 40604, 41300, 41011, 40715, 41372, 41255, 41602, 41563, 42102, 41131, 40391, 41054, 40988, 41363, 41156, 41056, 41184, 40535, 42575, 41831, 41584, 41343, 41623, 41197, 41539, 41612, 41428, 41209, 41156, 41824, 41126, 41636, 40835, 41098, 40656, 41640, 41409, 41322, 40812, 41028, 40693, 40624, 40828, 41542, 41031, 40652, 40749, 40707, 41116, 41157, 40941, 41173, 41527, 41662, 41443, 41677, 41433, 41448, 41390, 41340, 41173, 41231, 41423, 41479, 41393, 40823, 41187, 41541, 41235, 41557, 41788, 41330, 41461, 41599, 42025, 41785, 41749, 41681, 41798, 41605, 41335, 42133, 41603, 41987, 41684, 41628, 41596, 40647, 40865, 42076, 41773, 41345],
      "WindowCenter": [10355.0, 10314.0, 10296.0, 10255.0, 10255.0, 10264.0, 10257.0, 10249.0, 10256.0, 10276.0, 10281.0, 10261.0, 10238.0, 10245.0, 10278.0, 10283.0, 10268.0, 10271.0, 10272.0, 10284.0, 10290.0, 10301.0, 10317.0, 10305.0, 10324.0, 10308.0, 10295.0, 10280.0, 10269.0, 10266.0, 10258.0, 10236.0, 10226.0, 10234.0, 10271.0, 10297.0, 10289.0, 10285.0, 10286.0, 10299.0, 10311.0, 10275.0, 10241.0, 10217.0, 10223.0, 10250.0, 10253.0, 10239.0, 10217.0, 10219.0, 10249.0, 10242.0, 10219.0, 10217.0, 10225.0, 10247.0, 10263.0, 10264.0, 10244.0, 10221.0, 10214.0, 10234.0, 10261.0, 10262.0, 10245.0, 10248.0, 10275.0, 10301.0, 10302.0, 10282.0, 10272.0, 10275.0, 10287.0, 10306.0, 10309.0, 10284.0, 10258.0, 10250.0, 10256.0, 10279.0, 10291.0, 10269.0, 10234.0, 10235.0, 10261.0, 10273.0, 10248.0, 10241.0, 10239.0, 10261.0, 10281.0, 10288.0, 10282.0, 10284.0, 10275.0, 10248.0, 10236.0, 10241.0, 10269.0, 10270.0, 10250.0, 10244.0, 10249.0, 10259.0, 10266.0, 10286.0, 10285.0, 10261.0, 10247.0, 10256.0, 10283.0, 10321.0, 10316.0, 10289.0, 10273.0, 10259.0, 10289.0, 10291.0, 10285.0, 10274.0, 10273.0, 10263.0, 10276.0, 10286.0, 10273.0, 10256.0, 10256.0, 10273.0, 10278.0, 10271.0, 10257.0, 10253.0, 10257.0, 10274.0, 10268.0, 10270.0, 10250.0, 10247.0, 10250.0, 10257.0, 10263.0, 10255.0, 10235.0, 10242.0, 10250.0, 10262.0, 10280.0, 10283.0, 10256.0, 10249.0, 10250.0, 10277.0, 10299.0, 10296.0, 10275.0, 10255.0, 10232.0, 10236.0, 10254.0, 10266.0, 10261.0, 10256.0, 10239.0, 10230.0, 10251.0, 10274.0, 10282.0, 10260.0, 10245.0, 10243.0, 10278.0, 10279.0, 10273.0, 10283.0, 10299.0, 10280.0, 10264.0, 10246.0, 10244.0, 10260.0, 10280.0, 10275.0, 10259.0, 10234.0, 10226.0, 10218.0, 10245.0, 10290.0, 10290.0, 10416.0],
      "WindowWidth": [22392.0, 22257.0, 22195.0, 22095.0, 22078.0, 22093.0, 22075.0, 22055.0, 22071.0, 22117.0, 22129.0, 22088.0, 22035.0, 22046.0, 22122.0, 22140.0, 22106.0, 22109.0, 22121.0, 22136.0, 22149.0, 22181.0, 22219.0, 22193.0, 22230.0, 22200.0, 22168.0, 22132.0, 22106.0, 22097.0, 22078.0, 22031.0, 22006.0, 22026.0, 22109.0, 22172.0, 22157.0, 22149.0, 22152.0, 22179.0, 22199.0, 22118.0, 22036.0, 21985.0, 21999.0, 22057.0, 22065.0, 22033.0, 21980.0, 21992.0, 22058.0, 22048.0, 21996.0, 21983.0, 22001.0, 22054.0, 22091.0, 22096.0, 22052.0, 22002.0, 21986.0, 22029.0, 22087.0, 22088.0, 22052.0, 22058.0, 22117.0, 22175.0, 22178.0, 22135.0, 22113.0, 22120.0, 22149.0, 22188.0, 22196.0, 22143.0, 22081.0, 22061.0, 22077.0, 22130.0, 22159.0, 22111.0, 22029.0, 22027.0, 22090.0, 22119.0, 22065.0, 22041.0, 22036.0, 22086.0, 22137.0, 22151.0, 22138.0, 22140.0, 22118.0, 22059.0, 22031.0, 22041.0, 22103.0, 22105.0, 22064.0, 22050.0, 22063.0, 22081.0, 22100.0, 22146.0, 22141.0, 22092.0, 22060.0, 22080.0, 22139.0, 22229.0, 22216.0, 22156.0, 22120.0, 22094.0, 22153.0, 22160.0, 22147.0, 22124.0, 22120.0, 22099.0, 22124.0, 22150.0, 22120.0, 22081.0, 22083.0, 22118.0, 22131.0, 22113.0, 22083.0, 22072.0, 22085.0, 22120.0, 22105.0, 22111.0, 22070.0, 22058.0, 22067.0, 22084.0, 22094.0, 22077.0, 22034.0, 22050.0, 22071.0, 22096.0, 22137.0, 22145.0, 22085.0, 22065.0, 22070.0, 22130.0, 22179.0, 22171.0, 22123.0, 22078.0, 22027.0, 22036.0, 22074.0, 22099.0, 22092.0, 22083.0, 22043.0, 22020.0, 22067.0, 22120.0, 22144.0, 22093.0, 22055.0, 22049.0, 22129.0, 22136.0, 22119.0, 22142.0, 22178.0, 22137.0, 22098.0, 22059.0, 22054.0, 22083.0, 22132.0, 22123.0, 22086.0, 22029.0, 22007.0, 21991.0, 22049.0, 22153.0, 22161.0, 22486.0]
    },
    "slices": {}
  }
}