{
  "AcquisitionMatrixPE": 104,
  "AcquisitionNumber": 1,
  "AcquisitionTime": "15:32:40.882500",
  "BandwidthPerPixelPhaseEncode": 17.17,
  "BaseResolution": 104,
  "BodyPartExamined": "BRAIN",
  "CoilString": "HC1-7;NC1_2",
  "ConsistencyInfo": "N4_VE11C_LATEST_20160120",
  "ConversionSoftware": "dcm2niix",
  "ConversionSoftwareVersion": "v1.0.20190902",
  "DerivedVendorReportedEchoSpacing": 0.000560011,
  "DeviceSerialNumber": "167006",
  "DwellTime": 2.1e-06,
  "EchoTime": 0.037,
  "EchoTrainLength": 104,
  "EffectiveEchoSpacing": 0.000560011,
  "FlipAngle": 52,
  "ImageComments": "Unaliased_MB4_PE3_LB",
  "ImageOrientationPatientDICOM": [0.99739, -0.0656255, 0.0300959, 0.0718437, 0.943373, -0.32386],
  "ImageType": [
    "ORIGINAL",
    "PRIMARY",
    "P",
    "MB",
    "ND",
    "MOSAIC"
],
  "ImagingFrequency": 123.259,
  "InPlanePhaseEncodingDirectionDICOM": "COL",
  "InstitutionAddress": "Chemin_Queen-Mary_4565_Montreal_District_CA_H3W_1W5",
  "InstitutionName": "IUGM",
  "InstitutionalDepartmentName": "Department",
  "MRAcquisitionType": "2D",
  "MagneticFieldStrength": 3,
  "Manufacturer": "Siemens",
  "ManufacturersModelName": "Prisma_fit",
  "Modality": "MR",
  "MultibandAccelerationFactor": 4,
  "PartialFourier": 1,
  "PatientPosition": "HFS",
  "PercentPhaseFOV": 100,
  "PhaseEncodingDirection": "j",
  "PhaseEncodingSteps": 104,
  "PhaseResolution": 1,
  "PixelBandwidth": 2290,
  "ProcedureStepDescription": "memory_things",
  "ProtocolName": "func_task-things_run-2",
  "PulseSequenceDetails": "%CustomerSeq%_cmrr_mbep2d_bold",
  "ReceiveCoilActiveElements": "HC1-7;NC1,2",
  "ReceiveCoilName": "HeadNeck_64",
  "ReconMatrixPE": 104,
  "RepetitionTime": 1.49,
  "SAR": 0.0537257,
  "ScanOptions": "FS",
  "ScanningSequence": "EP",
  "SequenceName": "epfid2d1_104",
  "SequenceVariant": "SK_SS",
  "SeriesDescription": "func_task-things_run-2",
  "SeriesNumber": 14,
  "ShimSetting": [629, -7252, -8813, 590, 5, -210, -34, -15],
  "SliceThickness": 2,
  "SliceTiming": [0, 0.7825, 0.0975, 0.8825, 0.195, 0.98, 0.2925, 1.0775, 0.3925, 1.175, 0.49, 1.2725, 0.5875, 1.37, 0.685, 0, 0.7825, 0.0975, 0.8825, 0.195, 0.98, 0.2925, 1.0775, 0.3925, 1.175, 0.49, 1.2725, 0.5875, 1.37, 0.685, 0, 0.7825, 0.0975, 0.8825, 0.195, 0.98, 0.2925, 1.0775, 0.3925, 1.175, 0.49, 1.2725, 0.5875, 1.37, 0.685, 0, 0.7825, 0.0975, 0.8825, 0.195, 0.98, 0.2925, 1.0775, 0.3925, 1.175, 0.49, 1.2725, 0.5875, 1.37, 0.685],
  "SoftwareVersions": "syngo_MR_E11",
  "SpacingBetweenSlices": 2,
  "StationName": "MRC35049",
  "TaskName": "things",
  "TotalReadoutTime": 0.0576811,
  "TxRefAmp": 261.482,
  "WipMemBlock": "c539f650-dc2e-4b54-9209-bffedccb778d||Sequence: R016 ve11c/master r/e634e98; Dec 19 2017 11:00:25 by eja",
  "dcmmeta_affine": [
    [-1.9947806596755981, 0.14368745684623718, 0.014276471920311451, 100.20156860351562],
    [0.13125106692314148, 1.886746883392334, -0.6503533124923706, -72.78343200683594],
    [0.06019185483455658, 0.6477192640304565, 1.8912526369094849, -67.61815643310547],
    [0.0, 0.0, 0.0, 1.0]
],
  "dcmmeta_reorient_transform": [
    [0.0, -1.0, 0.0, 103.0],
    [1.0, 0.0, 0.0, 0.0],
    [0.0, 0.0, 1.0, 0.0],
    [0.0, 0.0, 0.0, 1.0]
],
  "dcmmeta_shape": [104, 104, 60, 190],
  "dcmmeta_slice_dim": 2,
  "dcmmeta_version": 0.6,
  "global": {
    "const": {
      "AcquisitionMatrix": [104, 0, 0, 104],
      "AngioFlag": "N",
      "BitsAllocated": 16,
      "BitsStored": 16,
      "BodyPartExamined": "BRAIN",
      "Columns": 832,
      "EchoNumbers": 1,
      "EchoTime": 37.0,
      "EchoTrainLength": 104,
      "FlipAngle": 52.0,
      "HighBit": 15,
      "ImageOrientationPatient": [0.99739035716299, -0.0656255334838, 0.03009592652278, 0.07184372641588, 0.94337342363707, -0.3238596340237],
      "ImagePositionPatient": [-893.40379031922, -760.55195353089, 212.95691016443],
      "ImageType": [
        "ORIGINAL",
        "PRIMARY",
        "P",
        "MB",
        "ND",
        "MOSAIC"
],
      "ImagedNucleus": "1H",
      "ImagingFrequency": 123.258948,
      "InPlanePhaseEncodingDirection": "COL",
      "LargestImagePixelValue": 4095,
      "MRAcquisitionType": "2D",
      "MagneticFieldStrength": 3.0,
      "Manufacturer": "SIEMENS",
      "ManufacturerModelName": "Prisma_fit",
      "Modality": "MR",
      "NumberOfAverages": 1.0,
      "NumberOfPhaseEncodingSteps": 104,
      "PercentPhaseFieldOfView": 100.0,
      "PercentSampling": 100.0,
      "PerformedProcedureStepStartTime": "151420.844000",
      "PhotometricInterpretation": "MONOCHROME2",
      "PixelBandwidth": 2290.0,
      "PixelRepresentation": 0,
      "PixelSpacing": [2.0, 2.0],
      "ProtocolName": "func_task-things_run-2",
      "RepetitionTime": 1490.0,
      "RescaleIntercept": -4096.0,
      "RescaleSlope": 2.0,
      "RescaleType": "US",
      "Rows": 832,
      "SAR": 0.05372570294834,
      "SamplesPerPixel": 1,
      "ScanOptions": "FS",
      "ScanningSequence": "EP",
      "SequenceName": "epfid2d1_104",
      "SequenceVariant": [
        "SK",
        "SS"
],
      "SeriesDescription": "func_task-things_run-2",
      "SeriesNumber": 14,
      "SeriesTime": "153406.891000",
      "SliceLocation": -39.558768514121,
      "SliceThickness": 2.0,
      "SmallestImagePixelValue": 0,
      "SoftwareVersions": "syngo MR E11",
      "SpacingBetweenSlices": 1.9999999429145,
      "SpecificCharacterSet": "ISO_IR 100",
      "StudyID": "1",
      "StudyTime": "151420.769000",
      "TransmitCoilName": "Body",
      "VariableFlipAngleFlag": "N",
      "WindowCenterWidthExplanation": "Algo1",
      "dBdt": 0.0},
    "slices": {}
  },
  "time": {
    "samples": {
      "AcquisitionNumber": [1, 2, 3, 4, 5, 6, 7, 8, 9, 10, 11, 12, 13, 14, 15, 16, 17, 18, 19, 20, 21, 22, 23, 24, 25, 26, 27, 28, 29, 30, 31, 32, 33, 34, 35, 36, 37, 38, 39, 40, 41, 42, 43, 44, 45, 46, 47, 48, 49, 50, 51, 52, 53, 54, 55, 56, 57, 58, 59, 60, 61, 62, 63, 64, 65, 66, 67, 68, 69, 70, 71, 72, 73, 74, 75, 76, 77, 78, 79, 80, 81, 82, 83, 84, 85, 86, 87, 88, 89, 90, 91, 92, 93, 94, 95, 96, 97, 98, 99, 100, 101, 102, 103, 104, 105, 106, 107, 108, 109, 110, 111, 112, 113, 114, 115, 116, 117, 118, 119, 120, 121, 122, 123, 124, 125, 126, 127, 128, 129, 130, 131, 132, 133, 134, 135, 136, 137, 138, 139, 140, 141, 142, 143, 144, 145, 146, 147, 148, 149, 150, 151, 152, 153, 154, 155, 156, 157, 158, 159, 160, 161, 162, 163, 164, 165, 166, 167, 168, 169, 170, 171, 172, 173, 174, 175, 176, 177, 178, 179, 180, 181, 182, 183, 184, 185, 186, 187, 188, 189, 190],
      "AcquisitionTime": ["153240.882500", "153242.372500", "153243.862500", "153245.352500", "153246.842500", "153248.332500", "153249.822500", "153251.312500", "153252.802500", "153254.292500", "153255.782500", "153257.272500", "153258.762500", "153300.252500", "153301.742500", "153303.232500", "153304.722500", "153306.212500", "153307.702500", "153309.192500", "153310.682500", "153312.172500", "153313.662500", "153315.152500", "153316.642500", "153318.132500", "153319.622500", "153321.112500", "153322.602500", "153324.092500", "153325.582500", "153327.072500", "153328.562500", "153330.052500", "153331.542500", "153333.032500", "153334.522500", "153336.012500", "153337.502500", "153338.992500", "153340.482500", "153341.972500", "153343.462500", "153344.952500", "153346.442500", "153347.932500", "153349.422500", "153350.912500", "153352.402500", "153353.892500", "153355.382500", "153356.872500", "153358.362500", "153359.852500", "153401.342500", "153402.832500", "153404.322500", "153405.812500", "153407.302500", "153408.792500", "153410.282500", "153411.772500", "153413.262500", "153414.752500", "153416.242500", "153417.732500", "153419.222500", "153420.712500", "153422.202500", "153423.692500", "153425.182500", "153426.672500", "153428.162500", "153429.652500", "153431.142500", "153432.632500", "153434.122500", "153435.612500", "153437.102500", "153438.592500", "153440.082500", "153441.572500", "153443.062500", "153444.552500", "153446.042500", "153447.532500", "153449.022500", "153450.512500", "153452.002500", "153453.492500", "153454.982500", "153456.472500", "153457.962500", "153459.452500", "153500.942500", "153502.432500", "153503.922500", "153505.412500", "153506.902500", "153508.392500", "153509.882500", "153511.372500", "153512.862500", "153514.352500", "153515.842500", "153517.332500", "153518.822500", "153520.312500", "153521.802500", "153523.292500", "153524.782500", "153526.272500", "153527.762500", "153529.252500", "153530.742500", "153532.232500", "153533.722500", "153535.212500", "153536.702500", "153538.192500", "153539.682500", "153541.172500", "153542.662500", "153544.152500", "153545.642500", "153547.132500", "153548.622500", "153550.112500", "153551.602500", "153553.092500", "153554.582500", "153556.072500", "153557.562500", "153559.052500", "153600.542500", "153602.032500", "153603.522500", "153605.012500", "153606.502500", "153607.992500", "153609.482500", "153610.972500", "153612.462500", "153613.952500", "153615.442500", "153616.932500", "153618.422500", "153619.912500", "153621.402500", "153622.892500", "153624.382500", "153625.872500", "153627.362500", "153628.852500", "153630.342500", "153631.832500", "153633.322500", "153634.812500", "153636.302500", "153637.792500", "153639.282500", "153640.772500", "153642.262500", "153643.752500", "153645.242500", "153646.732500", "153648.222500", "153649.712500", "153651.202500", "153652.692500", "153654.182500", "153655.672500", "153657.162500", "153658.652500", "153700.142500", "153701.632500", "153703.122500", "153704.612500", "153706.102500", "153707.592500", "153709.082500", "153710.572500", "153712.062500", "153713.552500", "153715.042500", "153716.532500", "153718.022500", "153719.512500", "153721.002500", "153722.492500"],
      "ContentTime": ["153406.893000", "153406.896000", "153406.898000", "153406.901000", "153406.903000", "153406.905000", "153406.908000", "153406.910000", "153406.913000", "153406.915000", "153406.918000", "153406.920000", "153406.923000", "153406.925000", "153406.927000", "153406.930000", "153406.932000", "153406.935000", "153406.940000", "153406.943000", "153406.945000", "153406.948000", "153406.950000", "153406.952000", "153406.955000", "153406.957000", "153406.960000", "153406.962000", "153406.965000", "153406.967000", "153406.969000", "153426.839000", "153426.841000", "153426.844000", "153426.846000", "153426.849000", "153426.851000", "153426.854000", "153426.856000", "153426.858000", "153426.861000", "153426.863000", "153426.866000", "153426.868000", "153426.871000", "153426.873000", "153426.876000", "153426.878000", "153426.880000", "153426.883000", "153426.886000", "153446.850000", "153446.853000", "153446.855000", "153446.858000", "153446.860000", "153446.863000", "153446.865000", "153446.867000", "153446.870000", "153446.872000", "153446.875000", "153446.877000", "153446.880000", "153446.882000", "153446.884000", "153446.899000", "153446.901000", "153446.904000", "153446.906000", "153446.908000", "153506.821000", "153506.835000", "153506.837000", "153506.840000", "153506.842000", "153506.844000", "153506.847000", "153506.849000", "153506.852000", "153506.854000", "153506.857000", "153506.859000", "153506.862000", "153506.864000", "153506.867000", "153506.869000", "153506.871000", "153506.882000", "153506.884000", "153506.887000", "153526.831000", "153526.833000", "153526.836000", "153526.838000", "153526.841000", "153526.843000", "153526.846000", "153526.848000", "153526.851000", "153526.853000", "153526.856000", "153526.858000", "153526.861000", "153526.863000", "153526.865000", "153526.868000", "153526.870000", "153526.873000", "153526.876000", "153606.856000", "153606.859000", "153606.861000", "153606.864000", "153606.866000", "153606.869000", "153606.871000", "153606.873000", "153606.876000", "153606.878000", "153606.881000", "153606.883000", "153606.886000", "153606.888000", "153606.891000", "153606.893000", "153606.896000", "153606.898000", "153606.901000", "153606.903000", "153606.906000", "153606.908000", "153606.910000", "153606.913000", "153606.915000", "153606.918000", "153606.920000", "153646.863000", "153646.866000", "153646.868000", "153646.871000", "153646.873000", "153646.876000", "153646.878000", "153646.881000", "153646.883000", "153646.886000", "153646.888000", "153646.891000", "153646.893000", "153646.896000", "153646.898000", "153646.901000", "153646.903000", "153646.906000", "153646.908000", "153646.911000", "153646.913000", "153646.916000", "153646.918000", "153646.921000", "153646.923000", "153646.926000", "153646.928000", "153724.973000", "153724.976000", "153724.979000", "153724.981000", "153724.984000", "153724.987000", "153724.989000", "153724.992000", "153724.995000", "153724.997000", "153725.000000", "153725.002000", "153725.005000", "153725.007000", "153725.010000", "153725.013000", "153725.016000", "153725.018000", "153725.021000", "153725.024000", "153725.027000", "153725.029000", "153725.032000", "153725.034000", "153725.037000", "153725.040000"],
      "InstanceCreationTime": ["153406.893000", "153406.896000", "153406.898000", "153406.901000", "153406.903000", "153406.905000", "153406.908000", "153406.910000", "153406.913000", "153406.915000", "153406.918000", "153406.920000", "153406.923000", "153406.925000", "153406.927000", "153406.930000", "153406.932000", "153406.935000", "153406.940000", "153406.943000", "153406.945000", "153406.948000", "153406.950000", "153406.952000", "153406.955000", "153406.957000", "153406.960000", "153406.962000", "153406.965000", "153406.967000", "153406.969000", "153426.839000", "153426.841000", "153426.844000", "153426.846000", "153426.849000", "153426.851000", "153426.854000", "153426.856000", "153426.858000", "153426.861000", "153426.863000", "153426.866000", "153426.868000", "153426.871000", "153426.873000", "153426.876000", "153426.878000", "153426.880000", "153426.883000", "153426.886000", "153446.850000", "153446.853000", "153446.855000", "153446.858000", "153446.860000", "153446.863000", "153446.865000", "153446.867000", "153446.870000", "153446.872000", "153446.875000", "153446.877000", "153446.880000", "153446.882000", "153446.884000", "153446.899000", "153446.901000", "153446.904000", "153446.906000", "153446.908000", "153506.821000", "153506.835000", "153506.837000", "153506.840000", "153506.842000", "153506.844000", "153506.847000", "153506.849000", "153506.852000", "153506.854000", "153506.857000", "153506.859000", "153506.862000", "153506.864000", "153506.867000", "153506.869000", "153506.871000", "153506.882000", "153506.884000", "153506.887000", "153526.831000", "153526.833000", "153526.836000", "153526.838000", "153526.841000", "153526.843000", "153526.846000", "153526.848000", "153526.851000", "153526.853000", "153526.856000", "153526.858000", "153526.861000", "153526.863000", "153526.865000", "153526.868000", "153526.870000", "153526.873000", "153526.876000", "153606.856000", "153606.859000", "153606.861000", "153606.864000", "153606.866000", "153606.869000", "153606.871000", "153606.873000", "153606.876000", "153606.878000", "153606.881000", "153606.883000", "153606.886000", "153606.888000", "153606.891000", "153606.893000", "153606.896000", "153606.898000", "153606.901000", "153606.903000", "153606.906000", "153606.908000", "153606.910000", "153606.913000", "153606.915000", "153606.918000", "153606.920000", "153646.863000", "153646.866000", "153646.868000", "153646.871000", "153646.873000", "153646.876000", "153646.878000", "153646.881000", "153646.883000", "153646.886000", "153646.888000", "153646.891000", "153646.893000", "153646.896000", "153646.898000", "153646.901000", "153646.903000", "153646.906000", "153646.908000", "153646.911000", "153646.913000", "153646.916000", "153646.918000", "153646.921000", "153646.923000", "153646.926000", "153646.928000", "153724.973000", "153724.976000", "153724.979000", "153724.981000", "153724.984000", "153724.987000", "153724.989000", "153724.992000", "153724.995000", "153724.997000", "153725.000000", "153725.002000", "153725.005000", "153725.007000", "153725.010000", "153725.013000", "153725.016000", "153725.018000", "153725.021000", "153725.024000", "153725.027000", "153725.029000", "153725.032000", "153725.034000", "153725.037000", "153725.040000"],
      "InstanceNumber": [1, 2, 3, 4, 5, 6, 7, 8, 9, 10, 11, 12, 13, 14, 15, 16, 17, 18, 19, 20, 21, 22, 23, 24, 25, 26, 27, 28, 29, 30, 31, 32, 33, 34, 35, 36, 37, 38, 39, 40, 41, 42, 43, 44, 45, 46, 47, 48, 49, 50, 51, 52, 53, 54, 55, 56, 57, 58, 59, 60, 61, 62, 63, 64, 65, 66, 67, 68, 69, 70, 71, 72, 73, 74, 75, 76, 77, 78, 79, 80, 81, 82, 83, 84, 85, 86, 87, 88, 89, 90, 91, 92, 93, 94, 95, 96, 97, 98, 99, 100, 101, 102, 103, 104, 105, 106, 107, 108, 109, 110, 111, 112, 113, 114, 115, 116, 117, 118, 119, 120, 121, 122, 123, 124, 125, 126, 127, 128, 129, 130, 131, 132, 133, 134, 135, 136, 137, 138, 139, 140, 141, 142, 143, 144, 145, 146, 147, 148, 149, 150, 151, 152, 153, 154, 155, 156, 157, 158, 159, 160, 161, 162, 163, 164, 165, 166, 167, 168, 169, 170, 171, 172, 173, 174, 175, 176, 177, 178, 179, 180, 181, 182, 183, 184, 185, 186, 187, 188, 189, 190],
      "WindowCenter": [4826.0, 4798.0, 4864.0, 4864.0, 4832.0, 4834.0, 4800.0, 4830.0, 4794.0, 4804.0, 4804.0, 4826.0, 4862.0, 4830.0, 4840.0, 4838.0, 4802.0, 4804.0, 4830.0, 4792.0, 4792.0, 4832.0, 4806.0, 4836.0, 4836.0, 4804.0, 4828.0, 4794.0, 4824.0, 4804.0, 4794.0, 4830.0, 4804.0, 4826.0, 4832.0, 4772.0, 4804.0, 4832.0, 4830.0, 4834.0, 4804.0, 4828.0, 4802.0, 4798.0, 4804.0, 4798.0, 4800.0, 4830.0, 4798.0, 4832.0, 4832.0, 4834.0, 4832.0, 4800.0, 4804.0, 4794.0, 4798.0, 4796.0, 4804.0, 4804.0, 4826.0, 4832.0, 4830.0, 4838.0, 4798.0, 4800.0, 4796.0, 4778.0, 4796.0, 4828.0, 4832.0, 4866.0, 4866.0, 4830.0, 4832.0, 4800.0, 4772.0, 4792.0, 4772.0, 4804.0, 4796.0, 4770.0, 4836.0, 4832.0, 4830.0, 4838.0, 4802.0, 4828.0, 4802.0, 4798.0, 4828.0, 4798.0, 4828.0, 4832.0, 4796.0, 4828.0, 4802.0, 4830.0, 4830.0, 4794.0, 4826.0, 4804.0, 4794.0, 4826.0, 4828.0, 4826.0, 4832.0, 4802.0, 4830.0, 4802.0, 4826.0, 4796.0, 4802.0, 4830.0, 4798.0, 4832.0, 4832.0, 4826.0, 4832.0, 4800.0, 4828.0, 4798.0, 4800.0, 4802.0, 4796.0, 4834.0, 4796.0, 4830.0, 4828.0, 4798.0, 4834.0, 4836.0, 4828.0, 4798.0, 4828.0, 4800.0, 4804.0, 4826.0, 4772.0, 4802.0, 4836.0, 4830.0, 4840.0, 4804.0, 4830.0, 4802.0, 4798.0, 4798.0, 4794.0, 4828.0, 4830.0, 4860.0, 4864.0, 4806.0, 4836.0, 4802.0, 4798.0, 4802.0, 4796.0, 4804.0, 4802.0, 4826.0, 4836.0, 4800.0, 4772.0, 4832.0, 4838.0, 4862.0, 4862.0, 4802.0, 4828.0, 4798.0, 4798.0, 4826.0, 4798.0, 4806.0, 4826.0, 4830.0, 4830.0, 4826.0, 4832.0, 4800.0, 4828.0, 4828.0, 4796.0, 4806.0, 4802.0, 4828.0, 4832.0, 4826.0],
      "WindowWidth": [18632.0, 18598.0, 18678.0, 18676.0, 18638.0, 18640.0, 18598.0, 18636.0, 18586.0, 18606.0, 18602.0, 18638.0, 18680.0, 18640.0, 18646.0, 18652.0, 18600.0, 18598.0, 18638.0, 18592.0, 18590.0, 18638.0, 18600.0, 18634.0, 18642.0, 18602.0, 18634.0, 18594.0, 18634.0, 18606.0, 18594.0, 18634.0, 18608.0, 18630.0, 18638.0, 18564.0, 18604.0, 18638.0, 18636.0, 18648.0, 18602.0, 18636.0, 18600.0, 18600.0, 18606.0, 18596.0, 18598.0, 18636.0, 18594.0, 18630.0, 18642.0, 18640.0, 18642.0, 18600.0, 18602.0, 18596.0, 18596.0, 18592.0, 18598.0, 18602.0, 18632.0, 18640.0, 18646.0, 18650.0, 18598.0, 18602.0, 18594.0, 18576.0, 18598.0, 18634.0, 18642.0, 18682.0, 18680.0, 18636.0, 18642.0, 18602.0, 18564.0, 18588.0, 18560.0, 18608.0, 18600.0, 18562.0, 18640.0, 18644.0, 18636.0, 18644.0, 18598.0, 18632.0, 18604.0, 18600.0, 18630.0, 18594.0, 18632.0, 18640.0, 18594.0, 18636.0, 18604.0, 18636.0, 18634.0, 18592.0, 18636.0, 18604.0, 18594.0, 18632.0, 18638.0, 18630.0, 18638.0, 18600.0, 18632.0, 18600.0, 18630.0, 18598.0, 18600.0, 18638.0, 18600.0, 18632.0, 18646.0, 18630.0, 18640.0, 18596.0, 18636.0, 18600.0, 18598.0, 18602.0, 18594.0, 18640.0, 18596.0, 18636.0, 18638.0, 18596.0, 18638.0, 18644.0, 18632.0, 18596.0, 18634.0, 18600.0, 18604.0, 18634.0, 18564.0, 18604.0, 18644.0, 18634.0, 18646.0, 18602.0, 18634.0, 18606.0, 18596.0, 18596.0, 18596.0, 18632.0, 18640.0, 18674.0, 18678.0, 18604.0, 18640.0, 18606.0, 18598.0, 18600.0, 18592.0, 18598.0, 18600.0, 18636.0, 18646.0, 18600.0, 18566.0, 18638.0, 18644.0, 18676.0, 18674.0, 18602.0, 18638.0, 18598.0, 18598.0, 18634.0, 18598.0, 18602.0, 18632.0, 18636.0, 18634.0, 18634.0, 18640.0, 18598.0, 18634.0, 18636.0, 18590.0, 18602.0, 18598.0, 18632.0, 18640.0, 18634.0]
    },
    "slices": {}
  }
}