{
  "AcquisitionMatrixPE": 104,
  "AcquisitionNumber": 1,
  "AcquisitionTime": "15:52:7.867500",
  "BandwidthPerPixelPhaseEncode": 17.17,
  "BaseResolution": 104,
  "BodyPartExamined": "BRAIN",
  "CoilString": "HC1-7;NC1_2",
  "ConsistencyInfo": "N4_VE11C_LATEST_20160120",
  "ConversionSoftware": "dcm2niix",
  "ConversionSoftwareVersion": "v1.0.20190902",
  "DerivedVendorReportedEchoSpacing": 0.000560011,
  "DeviceSerialNumber": "167006",
  "DwellTime": 2.1e-06,
  "EchoTime": 0.037,
  "EchoTrainLength": 104,
  "EffectiveEchoSpacing": 0.000560011,
  "FlipAngle": 52,
  "ImageComments": "Unaliased_MB4_PE3_LB",
  "ImageOrientationPatientDICOM": [0.99739, -0.0656255, 0.0300959, 0.0718437, 0.943373, -0.32386],
  "ImageType": [
    "ORIGINAL",
    "PRIMARY",
    "P",
    "MB",
    "ND",
    "MOSAIC"
],
  "ImagingFrequency": 123.259,
  "InPlanePhaseEncodingDirectionDICOM": "COL",
  "InstitutionAddress": "Chemin_Queen-Mary_4565_Montreal_District_CA_H3W_1W5",
  "InstitutionName": "IUGM",
  "InstitutionalDepartmentName": "Department",
  "MRAcquisitionType": "2D",
  "MagneticFieldStrength": 3,
  "Manufacturer": "Siemens",
  "ManufacturersModelName": "Prisma_fit",
  "Modality": "MR",
  "MultibandAccelerationFactor": 4,
  "PartialFourier": 1,
  "PatientPosition": "HFS",
  "PercentPhaseFOV": 100,
  "PhaseEncodingDirection": "j",
  "PhaseEncodingSteps": 104,
  "PhaseResolution": 1,
  "PixelBandwidth": 2290,
  "ProcedureStepDescription": "memory_things",
  "ProtocolName": "func_task-things_run-5",
  "PulseSequenceDetails": "%CustomerSeq%_cmrr_mbep2d_bold",
  "ReceiveCoilActiveElements": "HC1-7;NC1,2",
  "ReceiveCoilName": "HeadNeck_64",
  "ReconMatrixPE": 104,
  "RepetitionTime": 1.49,
  "SAR": 0.0537257,
  "ScanOptions": "FS",
  "ScanningSequence": "EP",
  "SequenceName": "epfid2d1_104",
  "SequenceVariant": "SK_SS",
  "SeriesDescription": "func_task-things_run-5",
  "SeriesNumber": 23,
  "ShimSetting": [629, -7252, -8813, 590, 5, -210, -34, -15],
  "SliceThickness": 2,
  "SliceTiming": [0, 0.7825, 0.0975, 0.8825, 0.195, 0.98, 0.2925, 1.0775, 0.3925, 1.175, 0.49, 1.2725, 0.5875, 1.3725, 0.685, 0, 0.7825, 0.0975, 0.8825, 0.195, 0.98, 0.2925, 1.0775, 0.3925, 1.175, 0.49, 1.2725, 0.5875, 1.3725, 0.685, 0, 0.7825, 0.0975, 0.8825, 0.195, 0.98, 0.2925, 1.0775, 0.3925, 1.175, 0.49, 1.2725, 0.5875, 1.3725, 0.685, 0, 0.7825, 0.0975, 0.8825, 0.195, 0.98, 0.2925, 1.0775, 0.3925, 1.175, 0.49, 1.2725, 0.5875, 1.3725, 0.685],
  "SoftwareVersions": "syngo_MR_E11",
  "SpacingBetweenSlices": 2,
  "StationName": "MRC35049",
  "TaskName": "things",
  "TotalReadoutTime": 0.0576811,
  "TxRefAmp": 261.482,
  "WipMemBlock": "d01521ab-9de4-4d27-be4f-a5c21064196a||Sequence: R016 ve11c/master r/e634e98; Dec 19 2017 11:00:25 by eja",
  "dcmmeta_affine": [
    [-1.9947806596755981, 0.14368745684623718, 0.014276471920311451, 100.20156860351562],
    [0.13125106692314148, 1.886746883392334, -0.6503533124923706, -72.78343200683594],
    [0.06019185483455658, 0.6477192640304565, 1.8912526369094849, -67.61815643310547],
    [0.0, 0.0, 0.0, 1.0]
],
  "dcmmeta_reorient_transform": [
    [0.0, -1.0, 0.0, 103.0],
    [1.0, 0.0, 0.0, 0.0],
    [0.0, 0.0, 1.0, 0.0],
    [0.0, 0.0, 0.0, 1.0]
],
  "dcmmeta_shape": [104, 104, 60, 190],
  "dcmmeta_slice_dim": 2,
  "dcmmeta_version": 0.6,
  "global": {
    "const": {
      "AcquisitionMatrix": [104, 0, 0, 104],
      "AngioFlag": "N",
      "BitsAllocated": 16,
      "BitsStored": 16,
      "BodyPartExamined": "BRAIN",
      "Columns": 832,
      "EchoNumbers": 1,
      "EchoTime": 37.0,
      "EchoTrainLength": 104,
      "FlipAngle": 52.0,
      "HighBit": 15,
      "ImageOrientationPatient": [0.99739035716299, -0.0656255334838, 0.03009592652278, 0.07184372641588, 0.94337342363707, -0.3238596340237],
      "ImagePositionPatient": [-893.40379031922, -760.55195353089, 212.95691016443],
      "ImageType": [
        "ORIGINAL",
        "PRIMARY",
        "P",
        "MB",
        "ND",
        "MOSAIC"
],
      "ImagedNucleus": "1H",
      "ImagingFrequency": 123.258955,
      "InPlanePhaseEncodingDirection": "COL",
      "LargestImagePixelValue": 4095,
      "MRAcquisitionType": "2D",
      "MagneticFieldStrength": 3.0,
      "Manufacturer": "SIEMENS",
      "ManufacturerModelName": "Prisma_fit",
      "Modality": "MR",
      "NumberOfAverages": 1.0,
      "NumberOfPhaseEncodingSteps": 104,
      "PercentPhaseFieldOfView": 100.0,
      "PercentSampling": 100.0,
      "PerformedProcedureStepStartTime": "151420.844000",
      "PhotometricInterpretation": "MONOCHROME2",
      "PixelBandwidth": 2290.0,
      "PixelRepresentation": 0,
      "PixelSpacing": [2.0, 2.0],
      "ProtocolName": "func_task-things_run-5",
      "RepetitionTime": 1490.0,
      "RescaleIntercept": -4096.0,
      "RescaleSlope": 2.0,
      "RescaleType": "US",
      "Rows": 832,
      "SAR": 0.05372570294834,
      "SamplesPerPixel": 1,
      "ScanOptions": "FS",
      "ScanningSequence": "EP",
      "SequenceName": "epfid2d1_104",
      "SequenceVariant": [
        "SK",
        "SS"
],
      "SeriesDescription": "func_task-things_run-5",
      "SeriesNumber": 23,
      "SeriesTime": "155326.896000",
      "SliceLocation": -39.558768514121,
      "SliceThickness": 2.0,
      "SmallestImagePixelValue": 0,
      "SoftwareVersions": "syngo MR E11",
      "SpacingBetweenSlices": 1.9999999429145,
      "SpecificCharacterSet": "ISO_IR 100",
      "StudyID": "1",
      "StudyTime": "151420.769000",
      "TransmitCoilName": "Body",
      "VariableFlipAngleFlag": "N",
      "WindowCenterWidthExplanation": "Algo1",
      "dBdt": 0.0},
    "slices": {}
  },
  "time": {
    "samples": {
      "AcquisitionNumber": [1, 2, 3, 4, 5, 6, 7, 8, 9, 10, 11, 12, 13, 14, 15, 16, 17, 18, 19, 20, 21, 22, 23, 24, 25, 26, 27, 28, 29, 30, 31, 32, 33, 34, 35, 36, 37, 38, 39, 40, 41, 42, 43, 44, 45, 46, 47, 48, 49, 50, 51, 52, 53, 54, 55, 56, 57, 58, 59, 60, 61, 62, 63, 64, 65, 66, 67, 68, 69, 70, 71, 72, 73, 74, 75, 76, 77, 78, 79, 80, 81, 82, 83, 84, 85, 86, 87, 88, 89, 90, 91, 92, 93, 94, 95, 96, 97, 98, 99, 100, 101, 102, 103, 104, 105, 106, 107, 108, 109, 110, 111, 112, 113, 114, 115, 116, 117, 118, 119, 120, 121, 122, 123, 124, 125, 126, 127, 128, 129, 130, 131, 132, 133, 134, 135, 136, 137, 138, 139, 140, 141, 142, 143, 144, 145, 146, 147, 148, 149, 150, 151, 152, 153, 154, 155, 156, 157, 158, 159, 160, 161, 162, 163, 164, 165, 166, 167, 168, 169, 170, 171, 172, 173, 174, 175, 176, 177, 178, 179, 180, 181, 182, 183, 184, 185, 186, 187, 188, 189, 190],
      "AcquisitionTime": ["155207.867500", "155209.357500", "155210.847500", "155212.337500", "155213.827500", "155215.317500", "155216.807500", "155218.297500", "155219.787500", "155221.277500", "155222.767500", "155224.257500", "155225.747500", "155227.237500", "155228.727500", "155230.217500", "155231.707500", "155233.197500", "155234.687500", "155236.177500", "155237.667500", "155239.157500", "155240.647500", "155242.137500", "155243.627500", "155245.117500", "155246.607500", "155248.097500", "155249.587500", "155251.077500", "155252.567500", "155254.057500", "155255.547500", "155257.037500", "155258.527500", "155300.017500", "155301.507500", "155302.997500", "155304.487500", "155305.977500", "155307.467500", "155308.957500", "155310.447500", "155311.937500", "155313.427500", "155314.917500", "155316.407500", "155317.897500", "155319.387500", "155320.877500", "155322.367500", "155323.857500", "155325.347500", "155326.837500", "155328.327500", "155329.817500", "155331.307500", "155332.797500", "155334.287500", "155335.777500", "155337.267500", "155338.757500", "155340.247500", "155341.737500", "155343.227500", "155344.717500", "155346.207500", "155347.697500", "155349.187500", "155350.677500", "155352.167500", "155353.657500", "155355.147500", "155356.637500", "155358.127500", "155359.617500", "155401.107500", "155402.597500", "155404.087500", "155405.577500", "155407.067500", "155408.557500", "155410.047500", "155411.537500", "155413.027500", "155414.517500", "155416.007500", "155417.497500", "155418.987500", "155420.477500", "155421.967500", "155423.457500", "155424.947500", "155426.437500", "155427.927500", "155429.417500", "155430.907500", "155432.397500", "155433.887500", "155435.377500", "155436.867500", "155438.357500", "155439.847500", "155441.337500", "155442.827500", "155444.317500", "155445.807500", "155447.297500", "155448.787500", "155450.277500", "155451.767500", "155453.257500", "155454.747500", "155456.237500", "155457.727500", "155459.217500", "155500.707500", "155502.197500", "155503.687500", "155505.177500", "155506.667500", "155508.157500", "155509.647500", "155511.137500", "155512.627500", "155514.117500", "155515.607500", "155517.097500", "155518.587500", "155520.077500", "155521.567500", "155523.057500", "155524.547500", "155526.037500", "155527.527500", "155529.017500", "155530.507500", "155531.997500", "155533.487500", "155534.977500", "155536.467500", "155537.957500", "155539.447500", "155540.937500", "155542.427500", "155543.917500", "155545.407500", "155546.897500", "155548.387500", "155549.877500", "155551.367500", "155552.857500", "155554.347500", "155555.837500", "155557.327500", "155558.817500", "155600.307500", "155601.797500", "155603.287500", "155604.777500", "155606.267500", "155607.757500", "155609.247500", "155610.737500", "155612.227500", "155613.717500", "155615.207500", "155616.697500", "155618.187500", "155619.677500", "155621.167500", "155622.657500", "155624.147500", "155625.637500", "155627.127500", "155628.617500", "155630.107500", "155631.597500", "155633.087500", "155634.577500", "155636.067500", "155637.557500", "155639.047500", "155640.537500", "155642.027500", "155643.517500", "155645.007500", "155646.497500", "155647.987500", "155649.477500"],
      "ContentTime": ["155326.898000", "155326.901000", "155326.904000", "155326.906000", "155326.909000", "155326.911000", "155326.913000", "155326.916000", "155326.918000", "155326.921000", "155326.923000", "155326.926000", "155326.936000", "155326.939000", "155326.941000", "155326.944000", "155326.946000", "155326.949000", "155326.951000", "155326.954000", "155326.956000", "155326.959000", "155326.961000", "155346.913000", "155346.916000", "155346.918000", "155346.920000", "155346.923000", "155346.925000", "155346.928000", "155346.930000", "155346.933000", "155346.935000", "155346.938000", "155346.940000", "155346.943000", "155346.945000", "155346.947000", "155346.950000", "155346.952000", "155346.955000", "155346.957000", "155346.960000", "155346.962000", "155406.826000", "155406.829000", "155406.831000", "155406.834000", "155406.836000", "155406.839000", "155406.841000", "155406.844000", "155406.846000", "155406.849000", "155406.851000", "155406.854000", "155406.856000", "155406.858000", "155406.861000", "155406.863000", "155406.866000", "155406.868000", "155406.871000", "155406.873000", "155426.871000", "155426.873000", "155426.876000", "155426.878000", "155426.881000", "155426.883000", "155426.886000", "155426.888000", "155426.891000", "155426.893000", "155426.896000", "155426.906000", "155426.908000", "155426.911000", "155426.913000", "155426.916000", "155426.918000", "155426.920000", "155426.923000", "155426.925000", "155446.842000", "155446.844000", "155446.847000", "155446.849000", "155446.852000", "155446.854000", "155446.857000", "155446.859000", "155446.862000", "155446.864000", "155446.866000", "155446.869000", "155446.871000", "155446.874000", "155446.876000", "155446.879000", "155446.881000", "155446.885000", "155446.888000", "155446.890000", "155526.875000", "155526.878000", "155526.881000", "155526.892000", "155526.894000", "155526.897000", "155526.899000", "155526.902000", "155526.904000", "155526.906000", "155526.909000", "155526.911000", "155526.914000", "155526.916000", "155526.919000", "155526.921000", "155526.924000", "155526.926000", "155526.929000", "155526.931000", "155526.933000", "155526.936000", "155526.938000", "155526.941000", "155526.943000", "155526.946000", "155526.948000", "155526.951000", "155606.874000", "155606.877000", "155606.879000", "155606.881000", "155606.884000", "155606.887000", "155606.889000", "155606.891000", "155606.894000", "155606.896000", "155606.899000", "155606.901000", "155606.904000", "155606.906000", "155606.909000", "155606.911000", "155606.914000", "155606.916000", "155606.919000", "155606.921000", "155606.924000", "155606.926000", "155606.929000", "155606.933000", "155606.936000", "155606.938000", "155606.941000", "155646.870000", "155646.872000", "155646.875000", "155646.877000", "155646.880000", "155646.882000", "155646.885000", "155646.887000", "155646.890000", "155646.892000", "155646.895000", "155646.897000", "155646.900000", "155646.902000", "155646.905000", "155646.907000", "155646.910000", "155646.912000", "155646.915000", "155646.917000", "155646.919000", "155646.922000", "155646.924000", "155646.927000", "155646.929000", "155646.932000", "155646.934000", "155651.723000", "155651.726000", "155651.729000", "155651.731000"],
      "InstanceCreationTime": ["155326.898000", "155326.901000", "155326.904000", "155326.906000", "155326.909000", "155326.911000", "155326.913000", "155326.916000", "155326.918000", "155326.921000", "155326.923000", "155326.926000", "155326.936000", "155326.939000", "155326.941000", "155326.944000", "155326.946000", "155326.949000", "155326.951000", "155326.954000", "155326.956000", "155326.959000", "155326.961000", "155346.913000", "155346.916000", "155346.918000", "155346.920000", "155346.923000", "155346.925000", "155346.928000", "155346.930000", "155346.933000", "155346.935000", "155346.938000", "155346.940000", "155346.943000", "155346.945000", "155346.947000", "155346.950000", "155346.952000", "155346.955000", "155346.957000", "155346.960000", "155346.962000", "155406.826000", "155406.829000", "155406.831000", "155406.834000", "155406.836000", "155406.839000", "155406.841000", "155406.844000", "155406.846000", "155406.849000", "155406.851000", "155406.854000", "155406.856000", "155406.858000", "155406.861000", "155406.863000", "155406.866000", "155406.868000", "155406.871000", "155406.873000", "155426.871000", "155426.873000", "155426.876000", "155426.878000", "155426.881000", "155426.883000", "155426.886000", "155426.888000", "155426.891000", "155426.893000", "155426.896000", "155426.906000", "155426.908000", "155426.911000", "155426.913000", "155426.916000", "155426.918000", "155426.920000", "155426.923000", "155426.925000", "155446.842000", "155446.844000", "155446.847000", "155446.849000", "155446.852000", "155446.854000", "155446.857000", "155446.859000", "155446.862000", "155446.864000", "155446.866000", "155446.869000", "155446.871000", "155446.874000", "155446.876000", "155446.879000", "155446.881000", "155446.885000", "155446.888000", "155446.890000", "155526.875000", "155526.878000", "155526.881000", "155526.892000", "155526.894000", "155526.897000", "155526.899000", "155526.902000", "155526.904000", "155526.906000", "155526.909000", "155526.911000", "155526.914000", "155526.916000", "155526.919000", "155526.921000", "155526.924000", "155526.926000", "155526.929000", "155526.931000", "155526.933000", "155526.936000", "155526.938000", "155526.941000", "155526.943000", "155526.946000", "155526.948000", "155526.951000", "155606.874000", "155606.877000", "155606.879000", "155606.881000", "155606.884000", "155606.887000", "155606.889000", "155606.891000", "155606.894000", "155606.896000", "155606.899000", "155606.901000", "155606.904000", "155606.906000", "155606.909000", "155606.911000", "155606.914000", "155606.916000", "155606.919000", "155606.921000", "155606.924000", "155606.926000", "155606.929000", "155606.933000", "155606.936000", "155606.938000", "155606.941000", "155646.870000", "155646.872000", "155646.875000", "155646.877000", "155646.880000", "155646.882000", "155646.885000", "155646.887000", "155646.890000", "155646.892000", "155646.895000", "155646.897000", "155646.900000", "155646.902000", "155646.905000", "155646.907000", "155646.910000", "155646.912000", "155646.915000", "155646.917000", "155646.919000", "155646.922000", "155646.924000", "155646.927000", "155646.929000", "155646.932000", "155646.934000", "155651.723000", "155651.726000", "155651.729000", "155651.731000"],
      "InstanceNumber": [1, 2, 3, 4, 5, 6, 7, 8, 9, 10, 11, 12, 13, 14, 15, 16, 17, 18, 19, 20, 21, 22, 23, 24, 25, 26, 27, 28, 29, 30, 31, 32, 33, 34, 35, 36, 37, 38, 39, 40, 41, 42, 43, 44, 45, 46, 47, 48, 49, 50, 51, 52, 53, 54, 55, 56, 57, 58, 59, 60, 61, 62, 63, 64, 65, 66, 67, 68, 69, 70, 71, 72, 73, 74, 75, 76, 77, 78, 79, 80, 81, 82, 83, 84, 85, 86, 87, 88, 89, 90, 91, 92, 93, 94, 95, 96, 97, 98, 99, 100, 101, 102, 103, 104, 105, 106, 107, 108, 109, 110, 111, 112, 113, 114, 115, 116, 117, 118, 119, 120, 121, 122, 123, 124, 125, 126, 127, 128, 129, 130, 131, 132, 133, 134, 135, 136, 137, 138, 139, 140, 141, 142, 143, 144, 145, 146, 147, 148, 149, 150, 151, 152, 153, 154, 155, 156, 157, 158, 159, 160, 161, 162, 163, 164, 165, 166, 167, 168, 169, 170, 171, 172, 173, 174, 175, 176, 177, 178, 179, 180, 181, 182, 183, 184, 185, 186, 187, 188, 189, 190],
      "WindowCenter": [4834.0, 4834.0, 4834.0, 4806.0, 4772.0, 4780.0, 4784.0, 4778.0, 4870.0, 4910.0, 4888.0, 4904.0, 4870.0, 4774.0, 4818.0, 4818.0, 4816.0, 4804.0, 4872.0, 4886.0, 4860.0, 4880.0, 4898.0, 4772.0, 4782.0, 4802.0, 4806.0, 4776.0, 4808.0, 4872.0, 4904.0, 4860.0, 4868.0, 4870.0, 4798.0, 4798.0, 4798.0, 4804.0, 4798.0, 4776.0, 4800.0, 4838.0, 4902.0, 4896.0, 4834.0, 4840.0, 4832.0, 4802.0, 4796.0, 4772.0, 4794.0, 4804.0, 4802.0, 4832.0, 4868.0, 4830.0, 4832.0, 4834.0, 4830.0, 4772.0, 4776.0, 4802.0, 4798.0, 4796.0, 4828.0, 4808.0, 4840.0, 4832.0, 4804.0, 4830.0, 4826.0, 4770.0, 4774.0, 4800.0, 4834.0, 4832.0, 4802.0, 4824.0, 4834.0, 4796.0, 4798.0, 4832.0, 4802.0, 4796.0, 4800.0, 4776.0, 4800.0, 4832.0, 4800.0, 4828.0, 4832.0, 4830.0, 4804.0, 4772.0, 4800.0, 4804.0, 4774.0, 4798.0, 4830.0, 4804.0, 4836.0, 4862.0, 4804.0, 4828.0, 4832.0, 4772.0, 4774.0, 4806.0, 4834.0, 4798.0, 4798.0, 4834.0, 4834.0, 4836.0, 4836.0, 4830.0, 4796.0, 4800.0, 4798.0, 4772.0, 4800.0, 4832.0, 4832.0, 4834.0, 4864.0, 4804.0, 4798.0, 4806.0, 4798.0, 4800.0, 4798.0, 4804.0, 4840.0, 4804.0, 4774.0, 4776.0, 4802.0, 4830.0, 4866.0, 4868.0, 4866.0, 4834.0, 4776.0, 4780.0, 4776.0, 4800.0, 4828.0, 4804.0, 4862.0, 4870.0, 4864.0, 4834.0, 4804.0, 4772.0, 4774.0, 4774.0, 4796.0, 4800.0, 4800.0, 4830.0, 4842.0, 4858.0, 4838.0, 4828.0, 4772.0, 4770.0, 4794.0, 4806.0, 4800.0, 4798.0, 4830.0, 4828.0, 4830.0, 4774.0, 4780.0, 4776.0, 4830.0, 4836.0, 4870.0, 4864.0, 4830.0, 4800.0, 4798.0, 4772.0, 4774.0, 4772.0, 4800.0, 4828.0, 4838.0, 4838.0],
      "WindowWidth": [18642.0, 18642.0, 18642.0, 18602.0, 18560.0, 18570.0, 18574.0, 18570.0, 18678.0, 18708.0, 18674.0, 18706.0, 18688.0, 18568.0, 18624.0, 18628.0, 18622.0, 18600.0, 18680.0, 18680.0, 18628.0, 18662.0, 18716.0, 18568.0, 18582.0, 18612.0, 18620.0, 18568.0, 18600.0, 18686.0, 18718.0, 18674.0, 18680.0, 18682.0, 18594.0, 18592.0, 18596.0, 18602.0, 18598.0, 18566.0, 18596.0, 18642.0, 18712.0, 18716.0, 18640.0, 18644.0, 18640.0, 18602.0, 18590.0, 18562.0, 18590.0, 18600.0, 18598.0, 18642.0, 18682.0, 18638.0, 18642.0, 18640.0, 18636.0, 18560.0, 18560.0, 18596.0, 18598.0, 18592.0, 18632.0, 18602.0, 18646.0, 18638.0, 18604.0, 18636.0, 18638.0, 18560.0, 18564.0, 18598.0, 18642.0, 18638.0, 18598.0, 18630.0, 18644.0, 18596.0, 18598.0, 18640.0, 18600.0, 18592.0, 18598.0, 18566.0, 18600.0, 18638.0, 18594.0, 18636.0, 18634.0, 18638.0, 18604.0, 18564.0, 18590.0, 18606.0, 18562.0, 18594.0, 18636.0, 18602.0, 18646.0, 18676.0, 18600.0, 18632.0, 18634.0, 18562.0, 18566.0, 18604.0, 18644.0, 18600.0, 18598.0, 18638.0, 18638.0, 18644.0, 18642.0, 18636.0, 18594.0, 18598.0, 18594.0, 18558.0, 18592.0, 18634.0, 18642.0, 18636.0, 18682.0, 18602.0, 18598.0, 18606.0, 18598.0, 18596.0, 18600.0, 18600.0, 18642.0, 18600.0, 18566.0, 18564.0, 18598.0, 18638.0, 18678.0, 18676.0, 18674.0, 18638.0, 18566.0, 18578.0, 18566.0, 18592.0, 18632.0, 18604.0, 18670.0, 18680.0, 18674.0, 18646.0, 18594.0, 18564.0, 18566.0, 18562.0, 18592.0, 18592.0, 18598.0, 18636.0, 18644.0, 18670.0, 18646.0, 18638.0, 18564.0, 18560.0, 18592.0, 18606.0, 18596.0, 18596.0, 18638.0, 18636.0, 18638.0, 18568.0, 18572.0, 18562.0, 18638.0, 18640.0, 18678.0, 18680.0, 18640.0, 18602.0, 18598.0, 18562.0, 18558.0, 18560.0, 18600.0, 18638.0, 18642.0, 18646.0]
    },
    "slices": {}
  }
}