{
  "AcquisitionMatrixPE": 104,
  "AcquisitionNumber": 1,
  "AcquisitionTime": "15:45:40.747500",
  "BandwidthPerPixelPhaseEncode": 17.17,
  "BaseResolution": 104,
  "BodyPartExamined": "BRAIN",
  "CoilString": "HC1-7;NC1_2",
  "ConsistencyInfo": "N4_VE11C_LATEST_20160120",
  "ConversionSoftware": "dcm2niix",
  "ConversionSoftwareVersion": "v1.0.20190902",
  "DerivedVendorReportedEchoSpacing": 0.000560011,
  "DeviceSerialNumber": "167006",
  "DwellTime": 2.1e-06,
  "EchoTime": 0.037,
  "EchoTrainLength": 104,
  "EffectiveEchoSpacing": 0.000560011,
  "FlipAngle": 52,
  "ImageComments": "Unaliased_MB4_PE3_LB",
  "ImageOrientationPatientDICOM": [0.99739, -0.0656255, 0.0300959, 0.0718437, 0.943373, -0.32386],
  "ImageType": [
    "ORIGINAL",
    "PRIMARY",
    "P",
    "MB",
    "ND",
    "MOSAIC"
],
  "ImagingFrequency": 123.259,
  "InPlanePhaseEncodingDirectionDICOM": "COL",
  "InstitutionAddress": "Chemin_Queen-Mary_4565_Montreal_District_CA_H3W_1W5",
  "InstitutionName": "IUGM",
  "InstitutionalDepartmentName": "Department",
  "MRAcquisitionType": "2D",
  "MagneticFieldStrength": 3,
  "Manufacturer": "Siemens",
  "ManufacturersModelName": "Prisma_fit",
  "Modality": "MR",
  "MultibandAccelerationFactor": 4,
  "PartialFourier": 1,
  "PatientPosition": "HFS",
  "PercentPhaseFOV": 100,
  "PhaseEncodingDirection": "j",
  "PhaseEncodingSteps": 104,
  "PhaseResolution": 1,
  "PixelBandwidth": 2290,
  "ProcedureStepDescription": "memory_things",
  "ProtocolName": "func_task-things_run-4",
  "PulseSequenceDetails": "%CustomerSeq%_cmrr_mbep2d_bold",
  "ReceiveCoilActiveElements": "HC1-7;NC1,2",
  "ReceiveCoilName": "HeadNeck_64",
  "ReconMatrixPE": 104,
  "RepetitionTime": 1.49,
  "SAR": 0.0537257,
  "ScanOptions": "FS",
  "ScanningSequence": "EP",
  "SequenceName": "epfid2d1_104",
  "SequenceVariant": "SK_SS",
  "SeriesDescription": "func_task-things_run-4",
  "SeriesNumber": 20,
  "ShimSetting": [629, -7252, -8813, 590, 5, -210, -34, -15],
  "SliceThickness": 2,
  "SliceTiming": [0, 0.785, 0.0975, 0.8825, 0.195, 0.98, 0.295, 1.0775, 0.3925, 1.175, 0.49, 1.275, 0.5875, 1.3725, 0.685, 0, 0.785, 0.0975, 0.8825, 0.195, 0.98, 0.295, 1.0775, 0.3925, 1.175, 0.49, 1.275, 0.5875, 1.3725, 0.685, 0, 0.785, 0.0975, 0.8825, 0.195, 0.98, 0.295, 1.0775, 0.3925, 1.175, 0.49, 1.275, 0.5875, 1.3725, 0.685, 0, 0.785, 0.0975, 0.8825, 0.195, 0.98, 0.295, 1.0775, 0.3925, 1.175, 0.49, 1.275, 0.5875, 1.3725, 0.685],
  "SoftwareVersions": "syngo_MR_E11",
  "SpacingBetweenSlices": 2,
  "StationName": "MRC35049",
  "TaskName": "things",
  "TotalReadoutTime": 0.0576811,
  "TxRefAmp": 261.482,
  "WipMemBlock": "9eb0936a-fcb4-4d2d-9579-8e549f5d7596||Sequence: R016 ve11c/master r/e634e98; Dec 19 2017 11:00:25 by eja",
  "dcmmeta_affine": [
    [-1.9947806596755981, 0.14368745684623718, 0.014276471920311451, 100.20156860351562],
    [0.13125106692314148, 1.886746883392334, -0.6503533124923706, -72.78343200683594],
    [0.06019185483455658, 0.6477192640304565, 1.8912526369094849, -67.61815643310547],
    [0.0, 0.0, 0.0, 1.0]
],
  "dcmmeta_reorient_transform": [
    [0.0, -1.0, 0.0, 103.0],
    [1.0, 0.0, 0.0, 0.0],
    [0.0, 0.0, 1.0, 0.0],
    [0.0, 0.0, 0.0, 1.0]
],
  "dcmmeta_shape": [104, 104, 60, 190],
  "dcmmeta_slice_dim": 2,
  "dcmmeta_version": 0.6,
  "global": {
    "const": {
      "AcquisitionMatrix": [104, 0, 0, 104],
      "AngioFlag": "N",
      "BitsAllocated": 16,
      "BitsStored": 16,
      "BodyPartExamined": "BRAIN",
      "Columns": 832,
      "EchoNumbers": 1,
      "EchoTime": 37.0,
      "EchoTrainLength": 104,
      "FlipAngle": 52.0,
      "HighBit": 15,
      "ImageOrientationPatient": [0.99739035716299, -0.0656255334838, 0.03009592652278, 0.07184372641588, 0.94337342363707, -0.3238596340237],
      "ImagePositionPatient": [-893.40379031922, -760.55195353089, 212.95691016443],
      "ImageType": [
        "ORIGINAL",
        "PRIMARY",
        "P",
        "MB",
        "ND",
        "MOSAIC"
],
      "ImagedNucleus": "1H",
      "ImagingFrequency": 123.258958,
      "InPlanePhaseEncodingDirection": "COL",
      "LargestImagePixelValue": 4095,
      "MRAcquisitionType": "2D",
      "MagneticFieldStrength": 3.0,
      "Manufacturer": "SIEMENS",
      "ManufacturerModelName": "Prisma_fit",
      "Modality": "MR",
      "NumberOfAverages": 1.0,
      "NumberOfPhaseEncodingSteps": 104,
      "PercentPhaseFieldOfView": 100.0,
      "PercentSampling": 100.0,
      "PerformedProcedureStepStartTime": "151420.844000",
      "PhotometricInterpretation": "MONOCHROME2",
      "PixelBandwidth": 2290.0,
      "PixelRepresentation": 0,
      "PixelSpacing": [2.0, 2.0],
      "ProtocolName": "func_task-things_run-4",
      "RepetitionTime": 1490.0,
      "RescaleIntercept": -4096.0,
      "RescaleSlope": 2.0,
      "RescaleType": "US",
      "Rows": 832,
      "SAR": 0.05372570294834,
      "SamplesPerPixel": 1,
      "ScanOptions": "FS",
      "ScanningSequence": "EP",
      "SequenceName": "epfid2d1_104",
      "SequenceVariant": [
        "SK",
        "SS"
],
      "SeriesDescription": "func_task-things_run-4",
      "SeriesNumber": 20,
      "SeriesTime": "154651.163000",
      "SliceLocation": -39.558768514121,
      "SliceThickness": 2.0,
      "SmallestImagePixelValue": 0,
      "SoftwareVersions": "syngo MR E11",
      "SpacingBetweenSlices": 1.9999999429145,
      "SpecificCharacterSet": "ISO_IR 100",
      "StudyID": "1",
      "StudyTime": "151420.769000",
      "TransmitCoilName": "Body",
      "VariableFlipAngleFlag": "N",
      "WindowCenterWidthExplanation": "Algo1",
      "dBdt": 0.0},
    "slices": {}
  },
  "time": {
    "samples": {
      "AcquisitionNumber": [1, 2, 3, 4, 5, 6, 7, 8, 9, 10, 11, 12, 13, 14, 15, 16, 17, 18, 19, 20, 21, 22, 23, 24, 25, 26, 27, 28, 29, 30, 31, 32, 33, 34, 35, 36, 37, 38, 39, 40, 41, 42, 43, 44, 45, 46, 47, 48, 49, 50, 51, 52, 53, 54, 55, 56, 57, 58, 59, 60, 61, 62, 63, 64, 65, 66, 67, 68, 69, 70, 71, 72, 73, 74, 75, 76, 77, 78, 79, 80, 81, 82, 83, 84, 85, 86, 87, 88, 89, 90, 91, 92, 93, 94, 95, 96, 97, 98, 99, 100, 101, 102, 103, 104, 105, 106, 107, 108, 109, 110, 111, 112, 113, 114, 115, 116, 117, 118, 119, 120, 121, 122, 123, 124, 125, 126, 127, 128, 129, 130, 131, 132, 133, 134, 135, 136, 137, 138, 139, 140, 141, 142, 143, 144, 145, 146, 147, 148, 149, 150, 151, 152, 153, 154, 155, 156, 157, 158, 159, 160, 161, 162, 163, 164, 165, 166, 167, 168, 169, 170, 171, 172, 173, 174, 175, 176, 177, 178, 179, 180, 181, 182, 183, 184, 185, 186, 187, 188, 189, 190],
      "AcquisitionTime": ["154540.747500", "154542.237500", "154543.727500", "154545.217500", "154546.707500", "154548.197500", "154549.687500", "154551.177500", "154552.667500", "154554.157500", "154555.647500", "154557.137500", "154558.627500", "154600.117500", "154601.607500", "154603.097500", "154604.587500", "154606.077500", "154607.567500", "154609.057500", "154610.547500", "154612.037500", "154613.527500", "154615.017500", "154616.507500", "154617.997500", "154619.487500", "154620.977500", "154622.467500", "154623.957500", "154625.447500", "154626.937500", "154628.427500", "154629.917500", "154631.407500", "154632.897500", "154634.387500", "154635.877500", "154637.367500", "154638.857500", "154640.347500", "154641.837500", "154643.327500", "154644.817500", "154646.307500", "154647.797500", "154649.287500", "154650.777500", "154652.267500", "154653.757500", "154655.247500", "154656.737500", "154658.227500", "154659.717500", "154701.207500", "154702.697500", "154704.187500", "154705.677500", "154707.167500", "154708.657500", "154710.147500", "154711.637500", "154713.127500", "154714.617500", "154716.107500", "154717.597500", "154719.087500", "154720.577500", "154722.067500", "154723.557500", "154725.047500", "154726.537500", "154728.027500", "154729.517500", "154731.007500", "154732.497500", "154733.987500", "154735.477500", "154736.967500", "154738.457500", "154739.947500", "154741.437500", "154742.927500", "154744.417500", "154745.907500", "154747.397500", "154748.887500", "154750.377500", "154751.867500", "154753.357500", "154754.847500", "154756.337500", "154757.827500", "154759.317500", "154800.807500", "154802.297500", "154803.787500", "154805.277500", "154806.767500", "154808.257500", "154809.747500", "154811.237500", "154812.727500", "154814.217500", "154815.707500", "154817.197500", "154818.687500", "154820.177500", "154821.667500", "154823.157500", "154824.647500", "154826.137500", "154827.627500", "154829.117500", "154830.607500", "154832.097500", "154833.587500", "154835.077500", "154836.567500", "154838.057500", "154839.547500", "154841.037500", "154842.527500", "154844.017500", "154845.507500", "154846.997500", "154848.487500", "154849.977500", "154851.467500", "154852.957500", "154854.447500", "154855.937500", "154857.427500", "154858.917500", "154900.407500", "154901.897500", "154903.387500", "154904.877500", "154906.367500", "154907.857500", "154909.347500", "154910.837500", "154912.327500", "154913.817500", "154915.307500", "154916.797500", "154918.287500", "154919.777500", "154921.267500", "154922.757500", "154924.247500", "154925.737500", "154927.227500", "154928.717500", "154930.207500", "154931.697500", "154933.187500", "154934.677500", "154936.167500", "154937.657500", "154939.147500", "154940.637500", "154942.127500", "154943.617500", "154945.107500", "154946.597500", "154948.087500", "154949.577500", "154951.067500", "154952.557500", "154954.047500", "154955.537500", "154957.027500", "154958.517500", "155000.007500", "155001.497500", "155002.987500", "155004.477500", "155005.967500", "155007.457500", "155008.947500", "155010.437500", "155011.927500", "155013.417500", "155014.907500", "155016.397500", "155017.887500", "155019.377500", "155020.867500", "155022.357500"],
      "ContentTime": ["154651.165000", "154651.167000", "154651.170000", "154651.172000", "154651.183000", "154651.185000", "154651.187000", "154651.190000", "154651.193000", "154651.195000", "154651.197000", "154651.200000", "154651.202000", "154651.205000", "154651.207000", "154711.130000", "154711.133000", "154711.135000", "154711.137000", "154711.140000", "154711.143000", "154711.145000", "154711.147000", "154711.150000", "154711.153000", "154711.155000", "154711.157000", "154711.160000", "154711.163000", "154711.165000", "154711.167000", "154711.170000", "154711.173000", "154711.175000", "154711.177000", "154731.129000", "154731.132000", "154731.134000", "154731.137000", "154731.139000", "154731.142000", "154731.144000", "154731.147000", "154731.149000", "154731.152000", "154731.154000", "154731.156000", "154731.159000", "154731.162000", "154731.164000", "154731.173000", "154731.176000", "154731.178000", "154731.181000", "154731.183000", "154751.133000", "154751.136000", "154751.139000", "154751.141000", "154751.144000", "154751.146000", "154751.149000", "154751.151000", "154751.154000", "154751.156000", "154751.159000", "154751.161000", "154751.164000", "154751.166000", "154751.169000", "154751.171000", "154751.174000", "154751.176000", "154751.179000", "154751.181000", "154811.145000", "154811.148000", "154811.150000", "154811.153000", "154811.155000", "154811.158000", "154811.160000", "154811.163000", "154811.165000", "154811.168000", "154811.170000", "154811.173000", "154811.175000", "154811.178000", "154811.180000", "154811.183000", "154811.185000", "154811.188000", "154811.190000", "154811.193000", "154851.176000", "154851.179000", "154851.181000", "154851.184000", "154851.186000", "154851.189000", "154851.191000", "154851.193000", "154851.196000", "154851.198000", "154851.201000", "154851.203000", "154851.206000", "154851.208000", "154851.211000", "154851.213000", "154851.216000", "154851.218000", "154851.221000", "154851.223000", "154851.226000", "154851.228000", "154851.231000", "154851.233000", "154851.235000", "154851.238000", "154851.240000", "154851.243000", "154851.246000", "154851.248000", "154851.251000", "154851.253000", "154931.184000", "154931.186000", "154931.189000", "154931.191000", "154931.194000", "154931.196000", "154931.199000", "154931.201000", "154931.204000", "154931.206000", "154931.209000", "154931.211000", "154931.213000", "154931.216000", "154931.218000", "154931.221000", "154931.223000", "154931.226000", "154931.228000", "154931.231000", "154931.233000", "154931.236000", "154931.238000", "154931.241000", "154931.243000", "154931.246000", "155011.157000", "155011.160000", "155011.162000", "155011.165000", "155011.167000", "155011.170000", "155011.172000", "155011.174000", "155011.177000", "155011.179000", "155011.182000", "155011.184000", "155011.187000", "155011.189000", "155011.192000", "155011.194000", "155011.197000", "155011.199000", "155011.202000", "155011.204000", "155011.207000", "155011.209000", "155011.212000", "155011.215000", "155011.219000", "155011.222000", "155011.224000", "155024.807000", "155024.810000", "155024.812000", "155024.815000", "155024.817000", "155024.820000", "155024.823000", "155024.826000", "155024.828000", "155024.831000"],
      "InstanceCreationTime": ["154651.165000", "154651.167000", "154651.170000", "154651.172000", "154651.183000", "154651.185000", "154651.187000", "154651.190000", "154651.193000", "154651.195000", "154651.197000", "154651.200000", "154651.202000", "154651.205000", "154651.207000", "154711.130000", "154711.133000", "154711.135000", "154711.137000", "154711.140000", "154711.143000", "154711.145000", "154711.147000", "154711.150000", "154711.153000", "154711.155000", "154711.157000", "154711.160000", "154711.163000", "154711.165000", "154711.167000", "154711.170000", "154711.173000", "154711.175000", "154711.177000", "154731.129000", "154731.132000", "154731.134000", "154731.137000", "154731.139000", "154731.142000", "154731.144000", "154731.147000", "154731.149000", "154731.152000", "154731.154000", "154731.156000", "154731.159000", "154731.162000", "154731.164000", "154731.173000", "154731.176000", "154731.178000", "154731.181000", "154731.183000", "154751.133000", "154751.136000", "154751.139000", "154751.141000", "154751.144000", "154751.146000", "154751.149000", "154751.151000", "154751.154000", "154751.156000", "154751.159000", "154751.161000", "154751.164000", "154751.166000", "154751.169000", "154751.171000", "154751.174000", "154751.176000", "154751.179000", "154751.181000", "154811.145000", "154811.148000", "154811.150000", "154811.153000", "154811.155000", "154811.158000", "154811.160000", "154811.163000", "154811.165000", "154811.168000", "154811.170000", "154811.173000", "154811.175000", "154811.178000", "154811.180000", "154811.183000", "154811.185000", "154811.188000", "154811.190000", "154811.193000", "154851.176000", "154851.179000", "154851.181000", "154851.184000", "154851.186000", "154851.189000", "154851.191000", "154851.193000", "154851.196000", "154851.198000", "154851.201000", "154851.203000", "154851.206000", "154851.208000", "154851.211000", "154851.213000", "154851.216000", "154851.218000", "154851.221000", "154851.223000", "154851.226000", "154851.228000", "154851.231000", "154851.233000", "154851.235000", "154851.238000", "154851.240000", "154851.243000", "154851.246000", "154851.248000", "154851.251000", "154851.253000", "154931.184000", "154931.186000", "154931.189000", "154931.191000", "154931.194000", "154931.196000", "154931.199000", "154931.201000", "154931.204000", "154931.206000", "154931.209000", "154931.211000", "154931.213000", "154931.216000", "154931.218000", "154931.221000", "154931.223000", "154931.226000", "154931.228000", "154931.231000", "154931.233000", "154931.236000", "154931.238000", "154931.241000", "154931.243000", "154931.246000", "155011.157000", "155011.160000", "155011.162000", "155011.165000", "155011.167000", "155011.170000", "155011.172000", "155011.174000", "155011.177000", "155011.179000", "155011.182000", "155011.184000", "155011.187000", "155011.189000", "155011.192000", "155011.194000", "155011.197000", "155011.199000", "155011.202000", "155011.204000", "155011.207000", "155011.209000", "155011.212000", "155011.215000", "155011.219000", "155011.222000", "155011.224000", "155024.807000", "155024.810000", "155024.812000", "155024.815000", "155024.817000", "155024.820000", "155024.823000", "155024.826000", "155024.828000", "155024.831000"],
      "InstanceNumber": [1, 2, 3, 4, 5, 6, 7, 8, 9, 10, 11, 12, 13, 14, 15, 16, 17, 18, 19, 20, 21, 22, 23, 24, 25, 26, 27, 28, 29, 30, 31, 32, 33, 34, 35, 36, 37, 38, 39, 40, 41, 42, 43, 44, 45, 46, 47, 48, 49, 50, 51, 52, 53, 54, 55, 56, 57, 58, 59, 60, 61, 62, 63, 64, 65, 66, 67, 68, 69, 70, 71, 72, 73, 74, 75, 76, 77, 78, 79, 80, 81, 82, 83, 84, 85, 86, 87, 88, 89, 90, 91, 92, 93, 94, 95, 96, 97, 98, 99, 100, 101, 102, 103, 104, 105, 106, 107, 108, 109, 110, 111, 112, 113, 114, 115, 116, 117, 118, 119, 120, 121, 122, 123, 124, 125, 126, 127, 128, 129, 130, 131, 132, 133, 134, 135, 136, 137, 138, 139, 140, 141, 142, 143, 144, 145, 146, 147, 148, 149, 150, 151, 152, 153, 154, 155, 156, 157, 158, 159, 160, 161, 162, 163, 164, 165, 166, 167, 168, 169, 170, 171, 172, 173, 174, 175, 176, 177, 178, 179, 180, 181, 182, 183, 184, 185, 186, 187, 188, 189, 190],
      "WindowCenter": [4912.0, 4884.0, 4902.0, 4906.0, 4906.0, 4904.0, 4910.0, 4910.0, 4906.0, 4904.0, 4906.0, 4908.0, 4908.0, 4912.0, 4906.0, 4908.0, 4910.0, 4908.0, 4908.0, 4904.0, 4906.0, 4908.0, 4910.0, 4908.0, 4908.0, 4886.0, 4906.0, 4904.0, 4904.0, 4904.0, 4904.0, 4906.0, 4904.0, 4906.0, 4904.0, 4908.0, 4906.0, 4908.0, 4904.0, 4898.0, 4908.0, 4886.0, 4908.0, 4910.0, 4912.0, 4904.0, 4906.0, 4910.0, 4866.0, 4908.0, 4908.0, 4886.0, 4906.0, 4884.0, 4882.0, 4904.0, 4906.0, 4906.0, 4904.0, 4906.0, 4908.0, 4906.0, 4910.0, 4882.0, 4904.0, 4904.0, 4904.0, 4908.0, 4906.0, 4906.0, 4904.0, 4910.0, 4906.0, 4904.0, 4908.0, 4904.0, 4904.0, 4902.0, 4902.0, 4908.0, 4904.0, 4908.0, 4870.0, 4830.0, 4872.0, 4858.0, 4860.0, 4860.0, 4886.0, 4884.0, 4904.0, 4900.0, 4896.0, 4868.0, 4904.0, 4904.0, 4908.0, 4882.0, 4884.0, 4886.0, 4908.0, 4906.0, 4906.0, 4906.0, 4900.0, 4868.0, 4908.0, 4908.0, 4884.0, 4884.0, 4886.0, 4906.0, 4906.0, 4904.0, 4904.0, 4902.0, 4908.0, 4908.0, 4904.0, 4884.0, 4904.0, 4908.0, 4904.0, 4906.0, 4902.0, 4898.0, 4908.0, 4910.0, 4904.0, 4904.0, 4908.0, 4910.0, 4906.0, 4908.0, 4906.0, 4908.0, 4906.0, 4906.0, 4908.0, 4904.0, 4912.0, 4898.0, 4904.0, 4886.0, 4882.0, 4902.0, 4904.0, 4908.0, 4904.0, 4906.0, 4904.0, 4906.0, 4910.0, 4908.0, 4906.0, 4908.0, 4908.0, 4906.0, 4906.0, 4908.0, 4908.0, 4904.0, 4904.0, 4832.0, 4778.0, 4828.0, 4884.0, 4836.0, 4834.0, 4858.0, 4886.0, 4904.0, 4800.0, 4830.0, 4862.0, 4866.0, 4906.0, 4908.0, 4886.0, 4884.0, 4886.0, 4900.0, 4914.0, 4904.0, 4870.0, 4900.0, 4906.0, 4906.0, 4894.0, 4856.0],
      "WindowWidth": [18712.0, 18664.0, 18710.0, 18716.0, 18704.0, 18718.0, 18714.0, 18706.0, 18714.0, 18704.0, 18720.0, 18710.0, 18706.0, 18714.0, 18704.0, 18710.0, 18718.0, 18704.0, 18710.0, 18720.0, 18704.0, 18714.0, 18704.0, 18706.0, 18712.0, 18670.0, 18706.0, 18702.0, 18714.0, 18714.0, 18722.0, 18710.0, 18708.0, 18706.0, 18718.0, 18700.0, 18710.0, 18700.0, 18710.0, 18716.0, 18706.0, 18672.0, 18706.0, 18716.0, 18710.0, 18712.0, 18722.0, 18710.0, 18676.0, 18718.0, 18706.0, 18674.0, 18704.0, 18666.0, 18670.0, 18720.0, 18714.0, 18706.0, 18720.0, 18710.0, 18710.0, 18712.0, 18704.0, 18674.0, 18708.0, 18704.0, 18708.0, 18708.0, 18708.0, 18720.0, 18710.0, 18708.0, 18712.0, 18702.0, 18708.0, 18708.0, 18702.0, 18714.0, 18706.0, 18718.0, 18710.0, 18710.0, 18680.0, 18632.0, 18682.0, 18626.0, 18620.0, 18626.0, 18668.0, 18670.0, 18718.0, 18722.0, 18722.0, 18682.0, 18714.0, 18712.0, 18700.0, 18664.0, 18664.0, 18664.0, 18716.0, 18712.0, 18714.0, 18716.0, 18714.0, 18676.0, 18704.0, 18714.0, 18670.0, 18668.0, 18668.0, 18700.0, 18722.0, 18716.0, 18712.0, 18722.0, 18714.0, 18712.0, 18706.0, 18666.0, 18702.0, 18704.0, 18704.0, 18710.0, 18714.0, 18708.0, 18714.0, 18714.0, 18700.0, 18704.0, 18710.0, 18704.0, 18712.0, 18702.0, 18718.0, 18714.0, 18716.0, 18716.0, 18712.0, 18718.0, 18706.0, 18714.0, 18706.0, 18670.0, 18668.0, 18720.0, 18706.0, 18702.0, 18710.0, 18714.0, 18710.0, 18714.0, 18714.0, 18712.0, 18710.0, 18710.0, 18710.0, 18696.0, 18720.0, 18710.0, 18708.0, 18714.0, 18714.0, 18642.0, 18574.0, 18632.0, 18674.0, 18592.0, 18588.0, 18622.0, 18672.0, 18718.0, 18600.0, 18632.0, 18674.0, 18674.0, 18710.0, 18708.0, 18678.0, 18662.0, 18674.0, 18710.0, 18712.0, 18716.0, 18688.0, 18718.0, 18716.0, 18716.0, 18712.0, 18666.0]
    },
    "slices": {}
  }
}