{
  "AcquisitionMatrixPE": 104,
  "AcquisitionNumber": 1,
  "AcquisitionTime": "15:26:32.967500",
  "BandwidthPerPixelPhaseEncode": 17.17,
  "BaseResolution": 104,
  "BodyPartExamined": "BRAIN",
  "CoilString": "HC1-7;NC1_2",
  "ConsistencyInfo": "N4_VE11C_LATEST_20160120",
  "ConversionSoftware": "dcm2niix",
  "ConversionSoftwareVersion": "v1.0.20190902",
  "DerivedVendorReportedEchoSpacing": 0.000560011,
  "DeviceSerialNumber": "167006",
  "DwellTime": 2.1e-06,
  "EchoTime": 0.037,
  "EchoTrainLength": 104,
  "EffectiveEchoSpacing": 0.000560011,
  "FlipAngle": 52,
  "ImageComments": "Unaliased_MB4_PE3_LB",
  "ImageOrientationPatientDICOM": [0.99739, -0.0656255, 0.0300959, 0.0718437, 0.943373, -0.32386],
  "ImageType": [
    "ORIGINAL",
    "PRIMARY",
    "M",
    "MB",
    "ND",
    "MOSAIC"
],
  "ImagingFrequency": 123.259,
  "InPlanePhaseEncodingDirectionDICOM": "COL",
  "InstitutionAddress": "Chemin_Queen-Mary_4565_Montreal_District_CA_H3W_1W5",
  "InstitutionName": "IUGM",
  "InstitutionalDepartmentName": "Department",
  "MRAcquisitionType": "2D",
  "MagneticFieldStrength": 3,
  "Manufacturer": "Siemens",
  "ManufacturersModelName": "Prisma_fit",
  "Modality": "MR",
  "MultibandAccelerationFactor": 4,
  "PartialFourier": 1,
  "PatientPosition": "HFS",
  "PercentPhaseFOV": 100,
  "PhaseEncodingDirection": "j",
  "PhaseEncodingSteps": 104,
  "PhaseResolution": 1,
  "PixelBandwidth": 2290,
  "ProcedureStepDescription": "memory_things",
  "ProtocolName": "func_task-things_run-1",
  "PulseSequenceDetails": "%CustomerSeq%_cmrr_mbep2d_bold",
  "ReceiveCoilActiveElements": "HC1-7;NC1,2",
  "ReceiveCoilName": "HeadNeck_64",
  "ReconMatrixPE": 104,
  "RepetitionTime": 1.49,
  "SAR": 0.0537257,
  "ScanOptions": "FS",
  "ScanningSequence": "EP",
  "SequenceName": "epfid2d1_104",
  "SequenceVariant": "SK_SS",
  "SeriesDescription": "func_task-things_run-1",
  "SeriesNumber": 10,
  "ShimSetting": [629, -7252, -8813, 590, 5, -210, -34, -15],
  "SliceThickness": 2,
  "SliceTiming": [0, 0.785, 0.1, 0.8825, 0.1975, 0.98, 0.295, 1.08, 0.3925, 1.1775, 0.49, 1.275, 0.59, 1.3725, 0.6875, 0, 0.785, 0.1, 0.8825, 0.1975, 0.98, 0.295, 1.08, 0.3925, 1.1775, 0.49, 1.275, 0.59, 1.3725, 0.6875, 0, 0.785, 0.1, 0.8825, 0.1975, 0.98, 0.295, 1.08, 0.3925, 1.1775, 0.49, 1.275, 0.59, 1.3725, 0.6875, 0, 0.785, 0.1, 0.8825, 0.1975, 0.98, 0.295, 1.08, 0.3925, 1.1775, 0.49, 1.275, 0.59, 1.3725, 0.6875],
  "SoftwareVersions": "syngo_MR_E11",
  "SpacingBetweenSlices": 2,
  "StationName": "MRC35049",
  "TaskName": "things",
  "TotalReadoutTime": 0.0576811,
  "TxRefAmp": 261.482,
  "WipMemBlock": "c8244146-8ad8-4395-b70f-0413425ed7fa||Sequence: R016 ve11c/master r/e634e98; Dec 19 2017 11:00:25 by eja",
  "dcmmeta_affine": [
    [-1.9947806596755981, 0.14368745684623718, 0.014276471920311451, 100.20156860351562],
    [0.13125106692314148, 1.886746883392334, -0.6503533124923706, -72.78343200683594],
    [0.06019185483455658, 0.6477192640304565, 1.8912526369094849, -67.61815643310547],
    [0.0, 0.0, 0.0, 1.0]
],
  "dcmmeta_reorient_transform": [
    [0.0, -1.0, 0.0, 103.0],
    [1.0, 0.0, 0.0, 0.0],
    [0.0, 0.0, 1.0, 0.0],
    [0.0, 0.0, 0.0, 1.0]
],
  "dcmmeta_shape": [104, 104, 60, 190],
  "dcmmeta_slice_dim": 2,
  "dcmmeta_version": 0.6,
  "global": {
    "const": {
      "AcquisitionMatrix": [104, 0, 0, 104],
      "AngioFlag": "N",
      "BitsAllocated": 16,
      "BitsStored": 16,
      "BodyPartExamined": "BRAIN",
      "Columns": 832,
      "EchoNumbers": 1,
      "EchoTime": 37.0,
      "EchoTrainLength": 104,
      "FlipAngle": 52.0,
      "HighBit": 15,
      "ImageOrientationPatient": [0.99739035716299, -0.0656255334838, 0.03009592652278, 0.07184372641588, 0.94337342363707, -0.3238596340237],
      "ImagePositionPatient": [-893.40379031922, -760.55195353089, 212.95691016443],
      "ImageType": [
        "ORIGINAL",
        "PRIMARY",
        "M",
        "MB",
        "ND",
        "MOSAIC"
],
      "ImagedNucleus": "1H",
      "ImagingFrequency": 123.258942,
      "InPlanePhaseEncodingDirection": "COL",
      "MRAcquisitionType": "2D",
      "MagneticFieldStrength": 3.0,
      "Manufacturer": "SIEMENS",
      "ManufacturerModelName": "Prisma_fit",
      "Modality": "MR",
      "NumberOfAverages": 1.0,
      "NumberOfPhaseEncodingSteps": 104,
      "PercentPhaseFieldOfView": 100.0,
      "PercentSampling": 100.0,
      "PerformedProcedureStepStartTime": "151420.844000",
      "PhotometricInterpretation": "MONOCHROME2",
      "PixelBandwidth": 2290.0,
      "PixelRepresentation": 0,
      "PixelSpacing": [2.0, 2.0],
      "ProtocolName": "func_task-things_run-1",
      "RepetitionTime": 1490.0,
      "Rows": 832,
      "SAR": 0.05372570294834,
      "SamplesPerPixel": 1,
      "ScanOptions": "FS",
      "ScanningSequence": "EP",
      "SequenceName": "epfid2d1_104",
      "SequenceVariant": [
        "SK",
        "SS"
],
      "SeriesDescription": "func_task-things_run-1",
      "SeriesNumber": 10,
      "SeriesTime": "152731.077000",
      "SliceLocation": -39.558768514121,
      "SliceThickness": 2.0,
      "SmallestImagePixelValue": 0,
      "SoftwareVersions": "syngo MR E11",
      "SpacingBetweenSlices": 1.9999999429145,
      "SpecificCharacterSet": "ISO_IR 100",
      "StudyID": "1",
      "StudyTime": "151420.769000",
      "TransmitCoilName": "Body",
      "VariableFlipAngleFlag": "N",
      "WindowCenterWidthExplanation": "Algo1",
      "dBdt": 0.0},
    "slices": {}
  },
  "time": {
    "samples": {
      "AcquisitionNumber": [1, 2, 3, 4, 5, 6, 7, 8, 9, 10, 11, 12, 13, 14, 15, 16, 17, 18, 19, 20, 21, 22, 23, 24, 25, 26, 27, 28, 29, 30, 31, 32, 33, 34, 35, 36, 37, 38, 39, 40, 41, 42, 43, 44, 45, 46, 47, 48, 49, 50, 51, 52, 53, 54, 55, 56, 57, 58, 59, 60, 61, 62, 63, 64, 65, 66, 67, 68, 69, 70, 71, 72, 73, 74, 75, 76, 77, 78, 79, 80, 81, 82, 83, 84, 85, 86, 87, 88, 89, 90, 91, 92, 93, 94, 95, 96, 97, 98, 99, 100, 101, 102, 103, 104, 105, 106, 107, 108, 109, 110, 111, 112, 113, 114, 115, 116, 117, 118, 119, 120, 121, 122, 123, 124, 125, 126, 127, 128, 129, 130, 131, 132, 133, 134, 135, 136, 137, 138, 139, 140, 141, 142, 143, 144, 145, 146, 147, 148, 149, 150, 151, 152, 153, 154, 155, 156, 157, 158, 159, 160, 161, 162, 163, 164, 165, 166, 167, 168, 169, 170, 171, 172, 173, 174, 175, 176, 177, 178, 179, 180, 181, 182, 183, 184, 185, 186, 187, 188, 189, 190],
      "AcquisitionTime": ["152632.967500", "152634.457500", "152635.947500", "152637.437500", "152638.927500", "152640.417500", "152641.907500", "152643.397500", "152644.887500", "152646.377500", "152647.867500", "152649.357500", "152650.847500", "152652.337500", "152653.827500", "152655.317500", "152656.807500", "152658.297500", "152659.787500", "152701.277500", "152702.767500", "152704.257500", "152705.747500", "152707.237500", "152708.727500", "152710.217500", "152711.707500", "152713.197500", "152714.687500", "152716.177500", "152717.667500", "152719.157500", "152720.647500", "152722.137500", "152723.627500", "152725.117500", "152726.607500", "152728.097500", "152729.587500", "152731.077500", "152732.567500", "152734.057500", "152735.547500", "152737.037500", "152738.527500", "152740.017500", "152741.507500", "152742.997500", "152744.487500", "152745.977500", "152747.467500", "152748.957500", "152750.447500", "152751.937500", "152753.427500", "152754.917500", "152756.407500", "152757.897500", "152759.387500", "152800.877500", "152802.367500", "152803.857500", "152805.347500", "152806.837500", "152808.327500", "152809.817500", "152811.307500", "152812.797500", "152814.287500", "152815.777500", "152817.267500", "152818.757500", "152820.247500", "152821.737500", "152823.227500", "152824.717500", "152826.207500", "152827.697500", "152829.187500", "152830.677500", "152832.167500", "152833.657500", "152835.147500", "152836.637500", "152838.127500", "152839.617500", "152841.107500", "152842.597500", "152844.087500", "152845.577500", "152847.067500", "152848.557500", "152850.047500", "152851.537500", "152853.027500", "152854.517500", "152856.007500", "152857.497500", "152858.987500", "152900.477500", "152901.967500", "152903.457500", "152904.947500", "152906.437500", "152907.927500", "152909.417500", "152910.907500", "152912.397500", "152913.887500", "152915.377500", "152916.867500", "152918.357500", "152919.847500", "152921.337500", "152922.827500", "152924.317500", "152925.807500", "152927.297500", "152928.787500", "152930.277500", "152931.767500", "152933.257500", "152934.747500", "152936.237500", "152937.727500", "152939.217500", "152940.707500", "152942.197500", "152943.687500", "152945.177500", "152946.667500", "152948.157500", "152949.647500", "152951.137500", "152952.627500", "152954.117500", "152955.607500", "152957.097500", "152958.587500", "153000.077500", "153001.567500", "153003.057500", "153004.547500", "153006.037500", "153007.527500", "153009.017500", "153010.507500", "153011.997500", "153013.487500", "153014.977500", "153016.467500", "153017.957500", "153019.447500", "153020.937500", "153022.427500", "153023.917500", "153025.407500", "153026.897500", "153028.387500", "153029.877500", "153031.367500", "153032.857500", "153034.347500", "153035.837500", "153037.327500", "153038.817500", "153040.307500", "153041.797500", "153043.287500", "153044.777500", "153046.267500", "153047.757500", "153049.247500", "153050.737500", "153052.227500", "153053.717500", "153055.207500", "153056.697500", "153058.187500", "153059.677500", "153101.167500", "153102.657500", "153104.147500", "153105.637500", "153107.127500", "153108.617500", "153110.107500", "153111.597500", "153113.087500", "153114.577500"],
      "ContentTime": ["152731.080000", "152731.084000", "152731.087000", "152731.090000", "152751.026000", "152751.030000", "152751.033000", "152751.036000", "152751.040000", "152751.043000", "152751.046000", "152751.049000", "152751.053000", "152751.056000", "152751.066000", "152751.069000", "152751.073000", "152751.076000", "152751.079000", "152751.082000", "152751.086000", "152751.089000", "152751.092000", "152751.096000", "152751.099000", "152811.025000", "152811.029000", "152811.032000", "152811.035000", "152811.038000", "152811.043000", "152811.046000", "152811.050000", "152811.053000", "152811.065000", "152811.068000", "152811.072000", "152811.075000", "152811.078000", "152811.081000", "152811.085000", "152811.088000", "152811.091000", "152811.095000", "152811.098000", "152831.025000", "152831.029000", "152831.032000", "152831.035000", "152831.039000", "152831.042000", "152831.045000", "152831.049000", "152831.052000", "152831.055000", "152831.058000", "152831.062000", "152831.065000", "152831.068000", "152831.072000", "152831.075000", "152831.078000", "152831.082000", "152831.085000", "152831.088000", "152851.025000", "152851.029000", "152851.032000", "152851.035000", "152851.039000", "152851.042000", "152851.062000", "152851.066000", "152851.069000", "152851.072000", "152851.076000", "152851.079000", "152851.082000", "152851.086000", "152851.089000", "152851.092000", "152851.096000", "152851.099000", "152851.102000", "152851.106000", "152911.025000", "152911.029000", "152911.032000", "152911.035000", "152911.038000", "152911.042000", "152911.045000", "152911.048000", "152911.051000", "152911.055000", "152911.058000", "152911.061000", "152911.065000", "152911.068000", "152911.071000", "152911.074000", "152911.078000", "152911.081000", "152911.084000", "152911.088000", "152951.026000", "152951.030000", "152951.033000", "152951.036000", "152951.040000", "152951.043000", "152951.046000", "152951.050000", "152951.053000", "152951.056000", "152951.060000", "152951.063000", "152951.066000", "152951.070000", "152951.073000", "152951.076000", "152951.080000", "152951.083000", "152951.086000", "152951.090000", "152951.093000", "152951.096000", "152951.099000", "152951.103000", "152951.106000", "152951.109000", "152951.113000", "153031.025000", "153031.029000", "153031.032000", "153031.036000", "153031.039000", "153031.042000", "153031.046000", "153031.049000", "153031.052000", "153031.056000", "153031.059000", "153031.062000", "153031.066000", "153031.078000", "153031.081000", "153031.084000", "153031.087000", "153031.091000", "153031.094000", "153031.097000", "153031.101000", "153031.104000", "153031.108000", "153031.111000", "153031.114000", "153031.117000", "153031.121000", "153111.025000", "153111.029000", "153111.032000", "153111.036000", "153111.039000", "153111.042000", "153111.046000", "153111.049000", "153111.052000", "153111.056000", "153111.078000", "153111.081000", "153111.085000", "153111.088000", "153111.091000", "153111.095000", "153111.098000", "153111.101000", "153111.105000", "153111.108000", "153111.111000", "153111.115000", "153111.118000", "153111.121000", "153111.125000", "153111.128000", "153111.131000", "153116.788000", "153116.792000", "153116.795000", "153116.798000"],
      "InstanceCreationTime": ["152731.080000", "152731.084000", "152731.087000", "152731.090000", "152751.026000", "152751.030000", "152751.033000", "152751.036000", "152751.040000", "152751.043000", "152751.046000", "152751.049000", "152751.053000", "152751.056000", "152751.066000", "152751.069000", "152751.073000", "152751.076000", "152751.079000", "152751.082000", "152751.086000", "152751.089000", "152751.092000", "152751.096000", "152751.099000", "152811.025000", "152811.029000", "152811.032000", "152811.035000", "152811.038000", "152811.043000", "152811.046000", "152811.050000", "152811.053000", "152811.065000", "152811.068000", "152811.072000", "152811.075000", "152811.078000", "152811.081000", "152811.085000", "152811.088000", "152811.091000", "152811.095000", "152811.098000", "152831.025000", "152831.029000", "152831.032000", "152831.035000", "152831.039000", "152831.042000", "152831.045000", "152831.049000", "152831.052000", "152831.055000", "152831.058000", "152831.062000", "152831.065000", "152831.068000", "152831.072000", "152831.075000", "152831.078000", "152831.082000", "152831.085000", "152831.088000", "152851.025000", "152851.029000", "152851.032000", "152851.035000", "152851.039000", "152851.042000", "152851.062000", "152851.066000", "152851.069000", "152851.072000", "152851.076000", "152851.079000", "152851.082000", "152851.086000", "152851.089000", "152851.092000", "152851.096000", "152851.099000", "152851.102000", "152851.106000", "152911.025000", "152911.029000", "152911.032000", "152911.035000", "152911.038000", "152911.042000", "152911.045000", "152911.048000", "152911.051000", "152911.055000", "152911.058000", "152911.061000", "152911.065000", "152911.068000", "152911.071000", "152911.074000", "152911.078000", "152911.081000", "152911.084000", "152911.088000", "152951.026000", "152951.030000", "152951.033000", "152951.036000", "152951.040000", "152951.043000", "152951.046000", "152951.050000", "152951.053000", "152951.056000", "152951.060000", "152951.063000", "152951.066000", "152951.070000", "152951.073000", "152951.076000", "152951.080000", "152951.083000", "152951.086000", "152951.090000", "152951.093000", "152951.096000", "152951.099000", "152951.103000", "152951.106000", "152951.109000", "152951.113000", "153031.025000", "153031.029000", "153031.032000", "153031.036000", "153031.039000", "153031.042000", "153031.046000", "153031.049000", "153031.052000", "153031.056000", "153031.059000", "153031.062000", "153031.066000", "153031.078000", "153031.081000", "153031.084000", "153031.087000", "153031.091000", "153031.094000", "153031.097000", "153031.101000", "153031.104000", "153031.108000", "153031.111000", "153031.114000", "153031.117000", "153031.121000", "153111.025000", "153111.029000", "153111.032000", "153111.036000", "153111.039000", "153111.042000", "153111.046000", "153111.049000", "153111.052000", "153111.056000", "153111.078000", "153111.081000", "153111.085000", "153111.088000", "153111.091000", "153111.095000", "153111.098000", "153111.101000", "153111.105000", "153111.108000", "153111.111000", "153111.115000", "153111.118000", "153111.121000", "153111.125000", "153111.128000", "153111.131000", "153116.788000", "153116.792000", "153116.795000", "153116.798000"],
      "InstanceNumber": [1, 2, 3, 4, 5, 6, 7, 8, 9, 10, 11, 12, 13, 14, 15, 16, 17, 18, 19, 20, 21, 22, 23, 24, 25, 26, 27, 28, 29, 30, 31, 32, 33, 34, 35, 36, 37, 38, 39, 40, 41, 42, 43, 44, 45, 46, 47, 48, 49, 50, 51, 52, 53, 54, 55, 56, 57, 58, 59, 60, 61, 62, 63, 64, 65, 66, 67, 68, 69, 70, 71, 72, 73, 74, 75, 76, 77, 78, 79, 80, 81, 82, 83, 84, 85, 86, 87, 88, 89, 90, 91, 92, 93, 94, 95, 96, 97, 98, 99, 100, 101, 102, 103, 104, 105, 106, 107, 108, 109, 110, 111, 112, 113, 114, 115, 116, 117, 118, 119, 120, 121, 122, 123, 124, 125, 126, 127, 128, 129, 130, 131, 132, 133, 134, 135, 136, 137, 138, 139, 140, 141, 142, 143, 144, 145, 146, 147, 148, 149, 150, 151, 152, 153, 154, 155, 156, 157, 158, 159, 160, 161, 162, 163, 164, 165, 166, 167, 168, 169, 170, 171, 172, 173, 174, 175, 176, 177, 178, 179, 180, 181, 182, 183, 184, 185, 186, 187, 188, 189, 190],
      "LargestImagePixelValue": [46982, 43963, 43219, 42042, 42477, 41322, 42059, 41363, 41679, 42718, 42633, 41251, 42111, 41709, 41565, 41639, 41323, 41564, 42009, 41230, 41572, 42168, 41421, 42549, 42292, 40755, 41136, 41088, 41815, 41491, 42082, 42067, 42232, 41552, 41337, 41931, 41003, 41889, 41669, 41226, 42433, 41116, 41733, 42696, 41447, 41962, 41803, 41378, 41951, 41323, 41408, 41830, 41295, 42102, 41563, 41489, 42062, 41391, 41346, 42473, 41760, 40433, 40631, 41347, 41443, 41334, 41807, 41747, 41732, 41642, 41323, 41373, 41917, 41391, 40369, 41922, 42605, 41488, 42354, 42520, 42045, 41720, 42249, 41663, 41706, 42427, 41336, 41689, 42715, 41555, 42269, 42202, 41683, 42659, 41946, 41541, 42038, 41677, 41536, 42690, 41761, 42026, 42206, 41243, 42257, 41719, 41563, 41910, 41612, 42304, 42062, 41632, 42985, 42118, 42137, 42207, 41587, 42300, 41343, 41619, 41472, 41809, 41177, 41435, 41734, 41158, 41802, 41893, 41920, 42509, 41813, 41366, 41868, 41899, 41515, 41964, 41691, 42729, 41988, 41281, 41673, 40536, 41621, 41921, 41124, 42116, 41747, 41567, 41151, 41170, 41600, 41686, 41035, 42028, 41298, 41843, 41282, 41630, 41488, 41612, 41268, 40987, 41770, 41670, 41378, 41407, 41236, 42153, 41888, 40773, 41916, 41324, 41898, 41364, 41915, 41877, 41517, 41354, 41423, 40710, 41739, 41028, 41446, 41316, 41216, 41448, 42075, 41224, 41850, 41782],
      "WindowCenter": [10536.0, 10469.0, 10437.0, 10415.0, 10413.0, 10389.0, 10376.0, 10365.0, 10379.0, 10384.0, 10389.0, 10383.0, 10370.0, 10348.0, 10348.0, 10341.0, 10339.0, 10347.0, 10352.0, 10333.0, 10332.0, 10331.0, 10332.0, 10350.0, 10350.0, 10342.0, 10342.0, 10326.0, 10320.0, 10336.0, 10360.0, 10341.0, 10329.0, 10316.0, 10330.0, 10352.0, 10350.0, 10354.0, 10348.0, 10356.0, 10372.0, 10365.0, 10376.0, 10382.0, 10374.0, 10364.0, 10348.0, 10346.0, 10354.0, 10354.0, 10355.0, 10354.0, 10340.0, 10344.0, 10338.0, 10339.0, 10345.0, 10338.0, 10325.0, 10340.0, 10369.0, 10367.0, 10344.0, 10325.0, 10313.0, 10297.0, 10302.0, 10304.0, 10313.0, 10306.0, 10293.0, 10293.0, 10317.0, 10344.0, 10360.0, 10348.0, 10339.0, 10344.0, 10367.0, 10374.0, 10370.0, 10358.0, 10355.0, 10356.0, 10347.0, 10348.0, 10353.0, 10365.0, 10373.0, 10356.0, 10353.0, 10351.0, 10347.0, 10350.0, 10344.0, 10354.0, 10361.0, 10356.0, 10351.0, 10351.0, 10349.0, 10367.0, 10374.0, 10358.0, 10360.0, 10346.0, 10344.0, 10351.0, 10348.0, 10354.0, 10353.0, 10342.0, 10356.0, 10370.0, 10370.0, 10367.0, 10349.0, 10345.0, 10332.0, 10346.0, 10349.0, 10360.0, 10358.0, 10341.0, 10322.0, 10316.0, 10326.0, 10335.0, 10353.0, 10359.0, 10345.0, 10332.0, 10328.0, 10328.0, 10331.0, 10338.0, 10346.0, 10380.0, 10372.0, 10350.0, 10332.0, 10320.0, 10329.0, 10334.0, 10334.0, 10338.0, 10331.0, 10330.0, 10330.0, 10339.0, 10339.0, 10346.0, 10350.0, 10360.0, 10349.0, 10346.0, 10334.0, 10338.0, 10332.0, 10330.0, 10330.0, 10333.0, 10331.0, 10328.0, 10331.0, 10333.0, 10331.0, 10357.0, 10370.0, 10361.0, 10354.0, 10332.0, 10335.0, 10330.0, 10328.0, 10313.0, 10313.0, 10328.0, 10324.0, 10320.0, 10321.0, 10316.0, 10338.0, 10339.0, 10333.0, 10330.0, 10329.0, 10334.0, 10348.0, 10337.0],
      "WindowWidth": [22805.0, 22616.0, 22519.0, 22456.0, 22440.0, 22383.0, 22348.0, 22318.0, 22346.0, 22359.0, 22365.0, 22357.0, 22326.0, 22276.0, 22274.0, 22262.0, 22255.0, 22272.0, 22281.0, 22241.0, 22240.0, 22240.0, 22241.0, 22281.0, 22279.0, 22267.0, 22265.0, 22229.0, 22210.0, 22247.0, 22301.0, 22261.0, 22231.0, 22202.0, 22236.0, 22287.0, 22284.0, 22293.0, 22279.0, 22296.0, 22331.0, 22319.0, 22343.0, 22353.0, 22340.0, 22316.0, 22275.0, 22272.0, 22292.0, 22293.0, 22295.0, 22291.0, 22261.0, 22269.0, 22254.0, 22259.0, 22271.0, 22256.0, 22227.0, 22260.0, 22326.0, 22332.0, 22277.0, 22229.0, 22196.0, 22161.0, 22167.0, 22175.0, 22196.0, 22182.0, 22155.0, 22156.0, 22210.0, 22272.0, 22312.0, 22281.0, 22254.0, 22268.0, 22318.0, 22332.0, 22327.0, 22302.0, 22293.0, 22296.0, 22277.0, 22275.0, 22292.0, 22318.0, 22330.0, 22294.0, 22288.0, 22282.0, 22276.0, 22280.0, 22266.0, 22291.0, 22307.0, 22299.0, 22289.0, 22284.0, 22280.0, 22320.0, 22335.0, 22303.0, 22303.0, 22272.0, 22268.0, 22285.0, 22280.0, 22295.0, 22292.0, 22269.0, 22293.0, 22324.0, 22331.0, 22321.0, 22283.0, 22273.0, 22244.0, 22272.0, 22282.0, 22306.0, 22304.0, 22268.0, 22223.0, 22209.0, 22230.0, 22249.0, 22290.0, 22303.0, 22270.0, 22244.0, 22229.0, 22231.0, 22242.0, 22257.0, 22276.0, 22348.0, 22334.0, 22283.0, 22243.0, 22218.0, 22233.0, 22243.0, 22247.0, 22252.0, 22237.0, 22239.0, 22238.0, 22258.0, 22262.0, 22276.0, 22288.0, 22304.0, 22280.0, 22274.0, 22250.0, 22257.0, 22243.0, 22239.0, 22237.0, 22247.0, 22241.0, 22230.0, 22242.0, 22248.0, 22240.0, 22296.0, 22330.0, 22316.0, 22294.0, 22244.0, 22250.0, 22237.0, 22230.0, 22196.0, 22196.0, 22231.0, 22225.0, 22217.0, 22219.0, 22209.0, 22256.0, 22258.0, 22248.0, 22240.0, 22236.0, 22250.0, 22278.0, 22254.0]
    },
    "slices": {}
  }
}