{
  "AcquisitionMatrixPE": 104,
  "AcquisitionNumber": 1,
  "AcquisitionTime": "11:03:55.375000",
  "BandwidthPerPixelPhaseEncode": 17.17,
  "BaseResolution": 104,
  "BodyPartExamined": "BRAIN",
  "CoilString": "HC1-7;NC1_2",
  "ConsistencyInfo": "N4_VE11C_LATEST_20160120",
  "ConversionSoftware": "dcm2niix",
  "ConversionSoftwareVersion": "v1.0.20190902",
  "DerivedVendorReportedEchoSpacing": 0.000560011,
  "DeviceSerialNumber": "167006",
  "DwellTime": 2.1e-06,
  "EchoTime": 0.037,
  "EchoTrainLength": 104,
  "EffectiveEchoSpacing": 0.000560011,
  "FlipAngle": 52,
  "HeudiconvVersion": "0.10.0",
  "ImageComments": "Unaliased_MB4_PE3_LB",
  "ImageOrientationPatientDICOM": [0.998573, 0.00446546, 0.0532112, 0.023184, 0.861419, -0.507365],
  "ImageType": [
    "ORIGINAL",
    "PRIMARY",
    "P",
    "MB",
    "ND",
    "MOSAIC"
],
  "ImagingFrequency": 123.259,
  "InPlanePhaseEncodingDirectionDICOM": "COL",
  "InstitutionAddress": "Chemin_Queen-Mary_4565_Montreal_District_CA_H3W_1W5",
  "InstitutionName": "IUGM",
  "InstitutionalDepartmentName": "Department",
  "MRAcquisitionType": "2D",
  "MagneticFieldStrength": 3,
  "Manufacturer": "Siemens",
  "ManufacturersModelName": "Prisma_fit",
  "Modality": "MR",
  "MultibandAccelerationFactor": 4,
  "PartialFourier": 1,
  "PatientPosition": "HFS",
  "PercentPhaseFOV": 100,
  "PhaseEncodingDirection": "j",
  "PhaseEncodingSteps": 104,
  "PhaseResolution": 1,
  "PixelBandwidth": 2290,
  "ProcedureStepDescription": "memory_things",
  "ProtocolName": "func_task-things_run-2",
  "PulseSequenceDetails": "%CustomerSeq%_cmrr_mbep2d_bold",
  "ReceiveCoilActiveElements": "HC1-7;NC1,2",
  "ReceiveCoilName": "HeadNeck_64",
  "ReconMatrixPE": 104,
  "RepetitionTime": 1.49,
  "SAR": 0.06246,
  "ScanOptions": "FS",
  "ScanningSequence": "EP",
  "SequenceName": "epfid2d1_104",
  "SequenceVariant": "SK_SS",
  "SeriesDescription": "func_task-things_run-2",
  "SeriesNumber": 17,
  "ShimSetting": [625, -7176, -8861, 302, 1, -150, -67, 2],
  "SliceThickness": 2,
  "SliceTiming": [0, 0.785, 0.1, 0.8825, 0.1975, 0.98, 0.295, 1.08, 0.3925, 1.1775, 0.49, 1.275, 0.59, 1.3725, 0.6875, 0, 0.785, 0.1, 0.8825, 0.1975, 0.98, 0.295, 1.08, 0.3925, 1.1775, 0.49, 1.275, 0.59, 1.3725, 0.6875, 0, 0.785, 0.1, 0.8825, 0.1975, 0.98, 0.295, 1.08, 0.3925, 1.1775, 0.49, 1.275, 0.59, 1.3725, 0.6875, 0, 0.785, 0.1, 0.8825, 0.1975, 0.98, 0.295, 1.08, 0.3925, 1.1775, 0.49, 1.275, 0.59, 1.3725, 0.6875],
  "SoftwareVersions": "syngo_MR_E11",
  "SpacingBetweenSlices": 2,
  "StationName": "MRC35049",
  "TaskName": "things",
  "TotalReadoutTime": 0.0576811,
  "TxRefAmp": 300.292,
  "WipMemBlock": "8188315f-5bda-4cc7-870f-ba210fa03e7f||Sequence: R016 ve11c/master r/e634e98; Dec 19 2017 11:00:25 by eja",
  "dcmmeta_affine": [
    [-1.9971466064453125, 0.046367913484573364, 0.09620564430952072, 102.58306121826172],
    [-0.008930910378694534, 1.7228389978408813, -1.0157489776611328, -50.0610237121582],
    [0.10642249882221222, 1.014729380607605, 1.720173954963684, -100.15579223632812],
    [0.0, 0.0, 0.0, 1.0]
],
  "dcmmeta_reorient_transform": [
    [0.0, -1.0, 0.0, 103.0],
    [1.0, 0.0, 0.0, 0.0],
    [0.0, 0.0, 1.0, 0.0],
    [0.0, 0.0, 0.0, 1.0]
],
  "dcmmeta_shape": [104, 104, 60, 190],
  "dcmmeta_slice_dim": 2,
  "dcmmeta_version": 0.6,
  "global": {
    "const": {
      "AcquisitionMatrix": [104, 0, 0, 104],
      "AngioFlag": "N",
      "BitsAllocated": 16,
      "BitsStored": 16,
      "BodyPartExamined": "BRAIN",
      "Columns": 832,
      "EchoNumbers": 1,
      "EchoTime": 37.0,
      "EchoTrainLength": 104,
      "FlipAngle": 52.0,
      "HighBit": 15,
      "ImageOrientationPatient": [0.99857329365234, 0.00446545537433, 0.05321124798972, 0.02318395590168, 0.86141949871279, -0.5073647124369],
      "ImagePositionPatient": [-851.19823471771, -757.75564108393, 334.9850578778],
      "ImageType": [
        "ORIGINAL",
        "PRIMARY",
        "P",
        "MB",
        "ND",
        "MOSAIC"
],
      "ImagedNucleus": "1H",
      "ImagingFrequency": 123.258875,
      "InPlanePhaseEncodingDirection": "COL",
      "LargestImagePixelValue": 4095,
      "MRAcquisitionType": "2D",
      "MagneticFieldStrength": 3.0,
      "Manufacturer": "SIEMENS",
      "ManufacturerModelName": "Prisma_fit",
      "Modality": "MR",
      "NumberOfAverages": 1.0,
      "NumberOfPhaseEncodingSteps": 104,
      "PercentPhaseFieldOfView": 100.0,
      "PercentSampling": 100.0,
      "PerformedProcedureStepStartTime": "100937.374000",
      "PhotometricInterpretation": "MONOCHROME2",
      "PixelBandwidth": 2290.0,
      "PixelRepresentation": 0,
      "PixelSpacing": [2.0, 2.0],
      "ProtocolName": "func_task-things_run-2",
      "RepetitionTime": 1490.0,
      "RescaleIntercept": -4096.0,
      "RescaleSlope": 2.0,
      "RescaleType": "US",
      "Rows": 832,
      "SAR": 0.06246003499309,
      "SamplesPerPixel": 1,
      "ScanOptions": "FS",
      "ScanningSequence": "EP",
      "SequenceName": "epfid2d1_104",
      "SequenceVariant": [
        "SK",
        "SS"
],
      "SeriesDescription": "func_task-things_run-2",
      "SeriesNumber": 17,
      "SeriesTime": "110455.519000",
      "SliceLocation": -55.783443891567,
      "SliceThickness": 2.0,
      "SmallestImagePixelValue": 0,
      "SoftwareVersions": "syngo MR E11",
      "SpacingBetweenSlices": 2.0000000084729,
      "SpecificCharacterSet": "ISO_IR 100",
      "StudyID": "1",
      "StudyTime": "100937.215000",
      "TransmitCoilName": "Body",
      "VariableFlipAngleFlag": "N",
      "WindowCenterWidthExplanation": "Algo1",
      "dBdt": 0.0},
    "slices": {}
  },
  "time": {
    "samples": {
      "AcquisitionNumber": [1, 2, 3, 4, 5, 6, 7, 8, 9, 10, 11, 12, 13, 14, 15, 16, 17, 18, 19, 20, 21, 22, 23, 24, 25, 26, 27, 28, 29, 30, 31, 32, 33, 34, 35, 36, 37, 38, 39, 40, 41, 42, 43, 44, 45, 46, 47, 48, 49, 50, 51, 52, 53, 54, 55, 56, 57, 58, 59, 60, 61, 62, 63, 64, 65, 66, 67, 68, 69, 70, 71, 72, 73, 74, 75, 76, 77, 78, 79, 80, 81, 82, 83, 84, 85, 86, 87, 88, 89, 90, 91, 92, 93, 94, 95, 96, 97, 98, 99, 100, 101, 102, 103, 104, 105, 106, 107, 108, 109, 110, 111, 112, 113, 114, 115, 116, 117, 118, 119, 120, 121, 122, 123, 124, 125, 126, 127, 128, 129, 130, 131, 132, 133, 134, 135, 136, 137, 138, 139, 140, 141, 142, 143, 144, 145, 146, 147, 148, 149, 150, 151, 152, 153, 154, 155, 156, 157, 158, 159, 160, 161, 162, 163, 164, 165, 166, 167, 168, 169, 170, 171, 172, 173, 174, 175, 176, 177, 178, 179, 180, 181, 182, 183, 184, 185, 186, 187, 188, 189, 190],
      "AcquisitionTime": ["110355.375000", "110356.865000", "110358.355000", "110359.845000", "110401.335000", "110402.825000", "110404.315000", "110405.805000", "110407.295000", "110408.785000", "110410.275000", "110411.765000", "110413.255000", "110414.745000", "110416.235000", "110417.725000", "110419.215000", "110420.705000", "110422.195000", "110423.685000", "110425.175000", "110426.665000", "110428.155000", "110429.645000", "110431.135000", "110432.625000", "110434.115000", "110435.605000", "110437.095000", "110438.585000", "110440.075000", "110441.565000", "110443.055000", "110444.545000", "110446.035000", "110447.525000", "110449.015000", "110450.505000", "110451.995000", "110453.485000", "110454.975000", "110456.465000", "110457.955000", "110459.445000", "110500.935000", "110502.425000", "110503.915000", "110505.405000", "110506.895000", "110508.385000", "110509.875000", "110511.365000", "110512.855000", "110514.345000", "110515.835000", "110517.325000", "110518.815000", "110520.305000", "110521.795000", "110523.285000", "110524.775000", "110526.265000", "110527.755000", "110529.245000", "110530.735000", "110532.225000", "110533.715000", "110535.205000", "110536.695000", "110538.185000", "110539.675000", "110541.165000", "110542.655000", "110544.145000", "110545.635000", "110547.125000", "110548.615000", "110550.105000", "110551.595000", "110553.085000", "110554.575000", "110556.065000", "110557.555000", "110559.045000", "110600.535000", "110602.025000", "110603.515000", "110605.005000", "110606.495000", "110607.985000", "110609.475000", "110610.965000", "110612.455000", "110613.945000", "110615.435000", "110616.925000", "110618.415000", "110619.905000", "110621.395000", "110622.885000", "110624.375000", "110625.865000", "110627.355000", "110628.845000", "110630.335000", "110631.825000", "110633.315000", "110634.805000", "110636.295000", "110637.785000", "110639.275000", "110640.765000", "110642.255000", "110643.745000", "110645.235000", "110646.725000", "110648.215000", "110649.705000", "110651.195000", "110652.685000", "110654.175000", "110655.665000", "110657.155000", "110658.645000", "110700.135000", "110701.625000", "110703.115000", "110704.605000", "110706.095000", "110707.585000", "110709.075000", "110710.565000", "110712.055000", "110713.545000", "110715.035000", "110716.525000", "110718.015000", "110719.505000", "110720.995000", "110722.485000", "110723.975000", "110725.465000", "110726.955000", "110728.445000", "110729.935000", "110731.425000", "110732.915000", "110734.405000", "110735.895000", "110737.385000", "110738.875000", "110740.365000", "110741.855000", "110743.345000", "110744.835000", "110746.325000", "110747.815000", "110749.305000", "110750.795000", "110752.285000", "110753.775000", "110755.265000", "110756.755000", "110758.245000", "110759.735000", "110801.225000", "110802.715000", "110804.205000", "110805.695000", "110807.185000", "110808.675000", "110810.165000", "110811.655000", "110813.145000", "110814.635000", "110816.125000", "110817.615000", "110819.105000", "110820.595000", "110822.085000", "110823.575000", "110825.065000", "110826.555000", "110828.045000", "110829.535000", "110831.025000", "110832.515000", "110834.005000", "110835.495000", "110836.985000"],
      "ContentTime": ["110455.521000", "110455.524000", "110455.527000", "110455.529000", "110455.532000", "110455.534000", "110455.537000", "110515.548000", "110515.550000", "110515.553000", "110515.556000", "110515.558000", "110515.561000", "110515.563000", "110515.566000", "110515.568000", "110515.571000", "110515.573000", "110515.576000", "110515.578000", "110515.581000", "110515.584000", "110515.586000", "110515.589000", "110515.591000", "110515.594000", "110515.601000", "110535.546000", "110535.549000", "110535.552000", "110535.554000", "110535.557000", "110535.559000", "110535.562000", "110535.564000", "110535.567000", "110535.569000", "110535.572000", "110535.574000", "110535.577000", "110535.579000", "110535.582000", "110535.584000", "110535.587000", "110535.589000", "110535.592000", "110535.594000", "110555.563000", "110555.565000", "110555.568000", "110555.581000", "110555.583000", "110555.586000", "110555.588000", "110555.591000", "110555.593000", "110555.596000", "110555.598000", "110555.601000", "110555.603000", "110555.606000", "110555.608000", "110555.611000", "110555.613000", "110555.616000", "110555.618000", "110555.621000", "110615.545000", "110615.552000", "110615.554000", "110615.557000", "110615.559000", "110615.562000", "110615.564000", "110615.567000", "110615.569000", "110615.572000", "110615.575000", "110615.577000", "110615.580000", "110615.582000", "110615.585000", "110615.587000", "110615.590000", "110615.592000", "110615.595000", "110615.597000", "110615.600000", "110655.599000", "110655.602000", "110655.604000", "110655.607000", "110655.609000", "110655.612000", "110655.614000", "110655.617000", "110655.619000", "110655.622000", "110655.624000", "110655.627000", "110655.629000", "110655.632000", "110655.635000", "110655.637000", "110655.639000", "110655.642000", "110655.645000", "110655.647000", "110655.649000", "110655.652000", "110655.655000", "110655.657000", "110655.660000", "110655.662000", "110655.665000", "110655.667000", "110655.670000", "110655.672000", "110655.675000", "110655.677000", "110735.579000", "110735.581000", "110735.584000", "110735.587000", "110735.589000", "110735.592000", "110735.594000", "110735.597000", "110735.599000", "110735.602000", "110735.604000", "110735.607000", "110735.609000", "110735.612000", "110735.614000", "110735.617000", "110735.619000", "110735.622000", "110735.624000", "110735.627000", "110735.629000", "110735.632000", "110735.634000", "110735.637000", "110735.639000", "110735.645000", "110735.647000", "110815.592000", "110815.595000", "110815.597000", "110815.600000", "110815.607000", "110815.609000", "110815.612000", "110815.614000", "110815.617000", "110815.619000", "110815.622000", "110815.624000", "110815.627000", "110815.630000", "110815.633000", "110815.635000", "110815.638000", "110815.640000", "110815.643000", "110815.645000", "110815.648000", "110815.651000", "110815.654000", "110815.657000", "110815.659000", "110815.662000", "110815.664000", "110838.778000", "110838.781000", "110838.784000", "110838.786000", "110838.789000", "110838.801000", "110838.803000", "110838.806000", "110838.808000", "110838.811000", "110838.814000", "110838.816000", "110838.819000", "110838.821000", "110838.824000", "110838.826000"],
      "InstanceCreationTime": ["110455.521000", "110455.524000", "110455.527000", "110455.529000", "110455.532000", "110455.534000", "110455.537000", "110515.548000", "110515.550000", "110515.553000", "110515.556000", "110515.558000", "110515.561000", "110515.563000", "110515.566000", "110515.568000", "110515.571000", "110515.573000", "110515.576000", "110515.578000", "110515.581000", "110515.584000", "110515.586000", "110515.589000", "110515.591000", "110515.594000", "110515.601000", "110535.546000", "110535.549000", "110535.552000", "110535.554000", "110535.557000", "110535.559000", "110535.562000", "110535.564000", "110535.567000", "110535.569000", "110535.572000", "110535.574000", "110535.577000", "110535.579000", "110535.582000", "110535.584000", "110535.587000", "110535.589000", "110535.592000", "110535.594000", "110555.563000", "110555.565000", "110555.568000", "110555.581000", "110555.583000", "110555.586000", "110555.588000", "110555.591000", "110555.593000", "110555.596000", "110555.598000", "110555.601000", "110555.603000", "110555.606000", "110555.608000", "110555.611000", "110555.613000", "110555.616000", "110555.618000", "110555.621000", "110615.545000", "110615.552000", "110615.554000", "110615.557000", "110615.559000", "110615.562000", "110615.564000", "110615.567000", "110615.569000", "110615.572000", "110615.575000", "110615.577000", "110615.580000", "110615.582000", "110615.585000", "110615.587000", "110615.590000", "110615.592000", "110615.595000", "110615.597000", "110615.600000", "110655.599000", "110655.602000", "110655.604000", "110655.607000", "110655.609000", "110655.612000", "110655.614000", "110655.617000", "110655.619000", "110655.622000", "110655.624000", "110655.627000", "110655.629000", "110655.632000", "110655.635000", "110655.637000", "110655.639000", "110655.642000", "110655.645000", "110655.647000", "110655.649000", "110655.652000", "110655.655000", "110655.657000", "110655.660000", "110655.662000", "110655.665000", "110655.667000", "110655.670000", "110655.672000", "110655.675000", "110655.677000", "110735.579000", "110735.581000", "110735.584000", "110735.587000", "110735.589000", "110735.592000", "110735.594000", "110735.597000", "110735.599000", "110735.602000", "110735.604000", "110735.607000", "110735.609000", "110735.612000", "110735.614000", "110735.617000", "110735.619000", "110735.622000", "110735.624000", "110735.627000", "110735.629000", "110735.632000", "110735.634000", "110735.637000", "110735.639000", "110735.645000", "110735.647000", "110815.592000", "110815.595000", "110815.597000", "110815.600000", "110815.607000", "110815.609000", "110815.612000", "110815.614000", "110815.617000", "110815.619000", "110815.622000", "110815.624000", "110815.627000", "110815.630000", "110815.633000", "110815.635000", "110815.638000", "110815.640000", "110815.643000", "110815.645000", "110815.648000", "110815.651000", "110815.654000", "110815.657000", "110815.659000", "110815.662000", "110815.664000", "110838.778000", "110838.781000", "110838.784000", "110838.786000", "110838.789000", "110838.801000", "110838.803000", "110838.806000", "110838.808000", "110838.811000", "110838.814000", "110838.816000", "110838.819000", "110838.821000", "110838.824000", "110838.826000"],
      "InstanceNumber": [1, 2, 3, 4, 5, 6, 7, 8, 9, 10, 11, 12, 13, 14, 15, 16, 17, 18, 19, 20, 21, 22, 23, 24, 25, 26, 27, 28, 29, 30, 31, 32, 33, 34, 35, 36, 37, 38, 39, 40, 41, 42, 43, 44, 45, 46, 47, 48, 49, 50, 51, 52, 53, 54, 55, 56, 57, 58, 59, 60, 61, 62, 63, 64, 65, 66, 67, 68, 69, 70, 71, 72, 73, 74, 75, 76, 77, 78, 79, 80, 81, 82, 83, 84, 85, 86, 87, 88, 89, 90, 91, 92, 93, 94, 95, 96, 97, 98, 99, 100, 101, 102, 103, 104, 105, 106, 107, 108, 109, 110, 111, 112, 113, 114, 115, 116, 117, 118, 119, 120, 121, 122, 123, 124, 125, 126, 127, 128, 129, 130, 131, 132, 133, 134, 135, 136, 137, 138, 139, 140, 141, 142, 143, 144, 145, 146, 147, 148, 149, 150, 151, 152, 153, 154, 155, 156, 157, 158, 159, 160, 161, 162, 163, 164, 165, 166, 167, 168, 169, 170, 171, 172, 173, 174, 175, 176, 177, 178, 179, 180, 181, 182, 183, 184, 185, 186, 187, 188, 189, 190],
      "WindowCenter": [4910.0, 4928.0, 4910.0, 4886.0, 4908.0, 4908.0, 4884.0, 4906.0, 4884.0, 4908.0, 4906.0, 4906.0, 4906.0, 4900.0, 4926.0, 4886.0, 4910.0, 4886.0, 4884.0, 4888.0, 4886.0, 4888.0, 4906.0, 4904.0, 4906.0, 4924.0, 4902.0, 4906.0, 4908.0, 4888.0, 4888.0, 4864.0, 4908.0, 4888.0, 4906.0, 4922.0, 4906.0, 4928.0, 4910.0, 4908.0, 4888.0, 4888.0, 4888.0, 4908.0, 4908.0, 4910.0, 4926.0, 4910.0, 4928.0, 4904.0, 4886.0, 4888.0, 4884.0, 4908.0, 4886.0, 4886.0, 4886.0, 4910.0, 4906.0, 4902.0, 4906.0, 4892.0, 4920.0, 4884.0, 4908.0, 4860.0, 4886.0, 4884.0, 4888.0, 4888.0, 4908.0, 4904.0, 4906.0, 4924.0, 4904.0, 4904.0, 4906.0, 4884.0, 4906.0, 4884.0, 4884.0, 4884.0, 4886.0, 4910.0, 4906.0, 4902.0, 4906.0, 4906.0, 4928.0, 4884.0, 4912.0, 4884.0, 4908.0, 4886.0, 4906.0, 4908.0, 4886.0, 4908.0, 4886.0, 4924.0, 4904.0, 4884.0, 4910.0, 4882.0, 4886.0, 4886.0, 4906.0, 4906.0, 4902.0, 4924.0, 4906.0, 4904.0, 4922.0, 4884.0, 4882.0, 4908.0, 4884.0, 4882.0, 4928.0, 4906.0, 4906.0, 4886.0, 4884.0, 4904.0, 4906.0, 4906.0, 4906.0, 4916.0, 4922.0, 4882.0, 4882.0, 4860.0, 4862.0, 4886.0, 4884.0, 4908.0, 4880.0, 4890.0, 4906.0, 4906.0, 4908.0, 4886.0, 4884.0, 4884.0, 4884.0, 4884.0, 4906.0, 4886.0, 4720.0, 4876.0, 4886.0, 4854.0, 4832.0, 4828.0, 4860.0, 4886.0, 4906.0, 4816.0, 4814.0, 4892.0, 4904.0, 4882.0, 4856.0, 4858.0, 4864.0, 4888.0, 4908.0, 4920.0, 4920.0, 4928.0, 4926.0, 4888.0, 4886.0, 4886.0, 4886.0, 4912.0, 4890.0, 4888.0, 4920.0, 4924.0, 4908.0, 4906.0, 4908.0, 4886.0, 4908.0, 4842.0, 4838.0, 4926.0, 4862.0, 4828.0],
      "WindowWidth": [18706.0, 18756.0, 18698.0, 18650.0, 18710.0, 18698.0, 18662.0, 18706.0, 18670.0, 18698.0, 18704.0, 18726.0, 18704.0, 18734.0, 18768.0, 18656.0, 18692.0, 18652.0, 18650.0, 18652.0, 18652.0, 18666.0, 18694.0, 18720.0, 18712.0, 18766.0, 18716.0, 18702.0, 18702.0, 18646.0, 18654.0, 18610.0, 18694.0, 18660.0, 18724.0, 18764.0, 18706.0, 18750.0, 18696.0, 18698.0, 18656.0, 18654.0, 18656.0, 18690.0, 18706.0, 18708.0, 18756.0, 18716.0, 18754.0, 18706.0, 18664.0, 18658.0, 18656.0, 18712.0, 18660.0, 18644.0, 18652.0, 18704.0, 18698.0, 18722.0, 18708.0, 18738.0, 18766.0, 18662.0, 18694.0, 18606.0, 18646.0, 18650.0, 18654.0, 18666.0, 18712.0, 18724.0, 18718.0, 18758.0, 18700.0, 18710.0, 18714.0, 18652.0, 18696.0, 18660.0, 18652.0, 18664.0, 18662.0, 18714.0, 18706.0, 18724.0, 18704.0, 18712.0, 18756.0, 18660.0, 18696.0, 18646.0, 18700.0, 18662.0, 18714.0, 18718.0, 18666.0, 18706.0, 18660.0, 18758.0, 18718.0, 18660.0, 18694.0, 18654.0, 18668.0, 18662.0, 18706.0, 18704.0, 18714.0, 18754.0, 18700.0, 18720.0, 18770.0, 18664.0, 18658.0, 18708.0, 18644.0, 18644.0, 18752.0, 18716.0, 18700.0, 18660.0, 18660.0, 18708.0, 18722.0, 18700.0, 18708.0, 18774.0, 18762.0, 18652.0, 18644.0, 18610.0, 18612.0, 18664.0, 18672.0, 18722.0, 18742.0, 18742.0, 18708.0, 18716.0, 18702.0, 18644.0, 18634.0, 18644.0, 18644.0, 18656.0, 18702.0, 18736.0, 18540.0, 18744.0, 18662.0, 18594.0, 18558.0, 18554.0, 18606.0, 18658.0, 18722.0, 18658.0, 18662.0, 18744.0, 18698.0, 18644.0, 18592.0, 18598.0, 18608.0, 18654.0, 18710.0, 18776.0, 18770.0, 18754.0, 18756.0, 18670.0, 18660.0, 18652.0, 18642.0, 18702.0, 18666.0, 18668.0, 18762.0, 18768.0, 18700.0, 18698.0, 18698.0, 18644.0, 18718.0, 18712.0, 18712.0, 18750.0, 18596.0, 18556.0]
    },
    "slices": {}
  }
}