{
  "AcquisitionMatrixPE": 104,
  "AcquisitionNumber": 1,
  "AcquisitionTime": "10:57:15.040000",
  "BandwidthPerPixelPhaseEncode": 17.17,
  "BaseResolution": 104,
  "BodyPartExamined": "BRAIN",
  "CoilString": "HC1-7;NC1_2",
  "ConsistencyInfo": "N4_VE11C_LATEST_20160120",
  "ConversionSoftware": "dcm2niix",
  "ConversionSoftwareVersion": "v1.0.20190902",
  "DerivedVendorReportedEchoSpacing": 0.000560011,
  "DeviceSerialNumber": "167006",
  "DwellTime": 2.1e-06,
  "EchoTime": 0.037,
  "EchoTrainLength": 104,
  "EffectiveEchoSpacing": 0.000560011,
  "FlipAngle": 52,
  "HeudiconvVersion": "0.10.0",
  "ImageComments": "Unaliased_MB4_PE3_LB",
  "ImageOrientationPatientDICOM": [0.998573, 0.00446546, 0.0532112, 0.023184, 0.861419, -0.507365],
  "ImageType": [
    "ORIGINAL",
    "PRIMARY",
    "M",
    "MB",
    "ND",
    "MOSAIC"
],
  "ImagingFrequency": 123.259,
  "InPlanePhaseEncodingDirectionDICOM": "COL",
  "InstitutionAddress": "Chemin_Queen-Mary_4565_Montreal_District_CA_H3W_1W5",
  "InstitutionName": "IUGM",
  "InstitutionalDepartmentName": "Department",
  "MRAcquisitionType": "2D",
  "MagneticFieldStrength": 3,
  "Manufacturer": "Siemens",
  "ManufacturersModelName": "Prisma_fit",
  "Modality": "MR",
  "MultibandAccelerationFactor": 4,
  "PartialFourier": 1,
  "PatientPosition": "HFS",
  "PercentPhaseFOV": 100,
  "PhaseEncodingDirection": "j",
  "PhaseEncodingSteps": 104,
  "PhaseResolution": 1,
  "PixelBandwidth": 2290,
  "ProcedureStepDescription": "memory_things",
  "ProtocolName": "func_task-things_run-1",
  "PulseSequenceDetails": "%CustomerSeq%_cmrr_mbep2d_bold",
  "ReceiveCoilActiveElements": "HC1-7;NC1,2",
  "ReceiveCoilName": "HeadNeck_64",
  "ReconMatrixPE": 104,
  "RepetitionTime": 1.49,
  "SAR": 0.06246,
  "ScanOptions": "FS",
  "ScanningSequence": "EP",
  "SequenceName": "epfid2d1_104",
  "SequenceVariant": "SK_SS",
  "SeriesDescription": "func_task-things_run-1",
  "SeriesNumber": 13,
  "ShimSetting": [625, -7176, -8861, 302, 1, -150, -67, 2],
  "SliceThickness": 2,
  "SliceTiming": [0, 0.7825, 0.0975, 0.88, 0.195, 0.98, 0.2925, 1.0775, 0.3925, 1.175, 0.49, 1.2725, 0.5875, 1.37, 0.685, 0, 0.7825, 0.0975, 0.88, 0.195, 0.98, 0.2925, 1.0775, 0.3925, 1.175, 0.49, 1.2725, 0.5875, 1.37, 0.685, 0, 0.7825, 0.0975, 0.88, 0.195, 0.98, 0.2925, 1.0775, 0.3925, 1.175, 0.49, 1.2725, 0.5875, 1.37, 0.685, 0, 0.7825, 0.0975, 0.88, 0.195, 0.98, 0.2925, 1.0775, 0.3925, 1.175, 0.49, 1.2725, 0.5875, 1.37, 0.685],
  "SoftwareVersions": "syngo_MR_E11",
  "SpacingBetweenSlices": 2,
  "StationName": "MRC35049",
  "TaskName": "things",
  "TotalReadoutTime": 0.0576811,
  "TxRefAmp": 300.292,
  "WipMemBlock": "bf1627c5-30ef-4896-9d43-6722138db565||Sequence: R016 ve11c/master r/e634e98; Dec 19 2017 11:00:25 by eja",
  "dcmmeta_affine": [
    [-1.9971466064453125, 0.046367913484573364, 0.09620564430952072, 102.58306121826172],
    [-0.008930910378694534, 1.7228389978408813, -1.0157489776611328, -50.0610237121582],
    [0.10642249882221222, 1.014729380607605, 1.720173954963684, -100.15579223632812],
    [0.0, 0.0, 0.0, 1.0]
],
  "dcmmeta_reorient_transform": [
    [0.0, -1.0, 0.0, 103.0],
    [1.0, 0.0, 0.0, 0.0],
    [0.0, 0.0, 1.0, 0.0],
    [0.0, 0.0, 0.0, 1.0]
],
  "dcmmeta_shape": [104, 104, 60, 190],
  "dcmmeta_slice_dim": 2,
  "dcmmeta_version": 0.6,
  "global": {
    "const": {
      "AcquisitionMatrix": [104, 0, 0, 104],
      "AngioFlag": "N",
      "BitsAllocated": 16,
      "BitsStored": 16,
      "BodyPartExamined": "BRAIN",
      "Columns": 832,
      "EchoNumbers": 1,
      "EchoTime": 37.0,
      "EchoTrainLength": 104,
      "FlipAngle": 52.0,
      "HighBit": 15,
      "ImageOrientationPatient": [0.99857329365234, 0.00446545537433, 0.05321124798972, 0.02318395590168, 0.86141949871279, -0.5073647124369],
      "ImagePositionPatient": [-851.19823471771, -757.75564108393, 334.9850578778],
      "ImageType": [
        "ORIGINAL",
        "PRIMARY",
        "M",
        "MB",
        "ND",
        "MOSAIC"
],
      "ImagedNucleus": "1H",
      "ImagingFrequency": 123.258869,
      "InPlanePhaseEncodingDirection": "COL",
      "MRAcquisitionType": "2D",
      "MagneticFieldStrength": 3.0,
      "Manufacturer": "SIEMENS",
      "ManufacturerModelName": "Prisma_fit",
      "Modality": "MR",
      "NumberOfAverages": 1.0,
      "NumberOfPhaseEncodingSteps": 104,
      "PercentPhaseFieldOfView": 100.0,
      "PercentSampling": 100.0,
      "PerformedProcedureStepStartTime": "100937.374000",
      "PhotometricInterpretation": "MONOCHROME2",
      "PixelBandwidth": 2290.0,
      "PixelRepresentation": 0,
      "PixelSpacing": [2.0, 2.0],
      "ProtocolName": "func_task-things_run-1",
      "RepetitionTime": 1490.0,
      "Rows": 832,
      "SAR": 0.06246003499309,
      "SamplesPerPixel": 1,
      "ScanOptions": "FS",
      "ScanningSequence": "EP",
      "SequenceName": "epfid2d1_104",
      "SequenceVariant": [
        "SK",
        "SS"
],
      "SeriesDescription": "func_task-things_run-1",
      "SeriesNumber": 13,
      "SeriesTime": "105835.541000",
      "SliceLocation": -55.783443891567,
      "SliceThickness": 2.0,
      "SmallestImagePixelValue": 0,
      "SoftwareVersions": "syngo MR E11",
      "SpacingBetweenSlices": 2.0000000084729,
      "SpecificCharacterSet": "ISO_IR 100",
      "StudyID": "1",
      "StudyTime": "100937.215000",
      "TransmitCoilName": "Body",
      "VariableFlipAngleFlag": "N",
      "WindowCenterWidthExplanation": "Algo1",
      "dBdt": 0.0},
    "slices": {}
  },
  "time": {
    "samples": {
      "AcquisitionNumber": [1, 2, 3, 4, 5, 6, 7, 8, 9, 10, 11, 12, 13, 14, 15, 16, 17, 18, 19, 20, 21, 22, 23, 24, 25, 26, 27, 28, 29, 30, 31, 32, 33, 34, 35, 36, 37, 38, 39, 40, 41, 42, 43, 44, 45, 46, 47, 48, 49, 50, 51, 52, 53, 54, 55, 56, 57, 58, 59, 60, 61, 62, 63, 64, 65, 66, 67, 68, 69, 70, 71, 72, 73, 74, 75, 76, 77, 78, 79, 80, 81, 82, 83, 84, 85, 86, 87, 88, 89, 90, 91, 92, 93, 94, 95, 96, 97, 98, 99, 100, 101, 102, 103, 104, 105, 106, 107, 108, 109, 110, 111, 112, 113, 114, 115, 116, 117, 118, 119, 120, 121, 122, 123, 124, 125, 126, 127, 128, 129, 130, 131, 132, 133, 134, 135, 136, 137, 138, 139, 140, 141, 142, 143, 144, 145, 146, 147, 148, 149, 150, 151, 152, 153, 154, 155, 156, 157, 158, 159, 160, 161, 162, 163, 164, 165, 166, 167, 168, 169, 170, 171, 172, 173, 174, 175, 176, 177, 178, 179, 180, 181, 182, 183, 184, 185, 186, 187, 188, 189, 190],
      "AcquisitionTime": ["105715.040000", "105716.530000", "105718.020000", "105719.510000", "105721.000000", "105722.490000", "105723.980000", "105725.470000", "105726.960000", "105728.450000", "105729.940000", "105731.430000", "105732.920000", "105734.410000", "105735.900000", "105737.390000", "105738.880000", "105740.370000", "105741.860000", "105743.350000", "105744.840000", "105746.330000", "105747.820000", "105749.310000", "105750.800000", "105752.290000", "105753.780000", "105755.270000", "105756.760000", "105758.250000", "105759.740000", "105801.230000", "105802.720000", "105804.210000", "105805.700000", "105807.190000", "105808.680000", "105810.170000", "105811.660000", "105813.150000", "105814.640000", "105816.130000", "105817.620000", "105819.110000", "105820.600000", "105822.090000", "105823.580000", "105825.070000", "105826.560000", "105828.050000", "105829.540000", "105831.030000", "105832.520000", "105834.010000", "105835.500000", "105836.990000", "105838.480000", "105839.970000", "105841.460000", "105842.950000", "105844.440000", "105845.930000", "105847.420000", "105848.910000", "105850.400000", "105851.890000", "105853.380000", "105854.870000", "105856.360000", "105857.850000", "105859.340000", "105900.830000", "105902.320000", "105903.810000", "105905.300000", "105906.790000", "105908.280000", "105909.770000", "105911.260000", "105912.750000", "105914.240000", "105915.730000", "105917.220000", "105918.710000", "105920.200000", "105921.690000", "105923.180000", "105924.670000", "105926.160000", "105927.650000", "105929.140000", "105930.630000", "105932.120000", "105933.610000", "105935.100000", "105936.590000", "105938.080000", "105939.570000", "105941.060000", "105942.550000", "105944.040000", "105945.530000", "105947.020000", "105948.510000", "105950.000000", "105951.490000", "105952.980000", "105954.470000", "105955.960000", "105957.450000", "105958.940000", "110000.430000", "110001.920000", "110003.410000", "110004.900000", "110006.390000", "110007.880000", "110009.370000", "110010.860000", "110012.350000", "110013.840000", "110015.330000", "110016.820000", "110018.310000", "110019.800000", "110021.290000", "110022.780000", "110024.270000", "110025.760000", "110027.250000", "110028.740000", "110030.230000", "110031.720000", "110033.210000", "110034.700000", "110036.190000", "110037.680000", "110039.170000", "110040.660000", "110042.150000", "110043.640000", "110045.130000", "110046.620000", "110048.110000", "110049.600000", "110051.090000", "110052.580000", "110054.070000", "110055.560000", "110057.050000", "110058.540000", "110100.030000", "110101.520000", "110103.010000", "110104.500000", "110105.990000", "110107.480000", "110108.970000", "110110.460000", "110111.950000", "110113.440000", "110114.930000", "110116.420000", "110117.910000", "110119.400000", "110120.890000", "110122.380000", "110123.870000", "110125.360000", "110126.850000", "110128.340000", "110129.830000", "110131.320000", "110132.810000", "110134.300000", "110135.790000", "110137.280000", "110138.770000", "110140.260000", "110141.750000", "110143.240000", "110144.730000", "110146.220000", "110147.710000", "110149.200000", "110150.690000", "110152.180000", "110153.670000", "110155.160000", "110156.650000"],
      "ContentTime": ["105835.544000", "105835.548000", "105835.552000", "105835.555000", "105835.558000", "105835.561000", "105835.565000", "105835.568000", "105835.572000", "105835.575000", "105835.578000", "105835.581000", "105835.585000", "105835.588000", "105835.591000", "105835.595000", "105835.598000", "105835.601000", "105835.605000", "105835.608000", "105835.611000", "105835.614000", "105835.618000", "105835.621000", "105835.624000", "105835.628000", "105835.631000", "105855.514000", "105855.518000", "105855.521000", "105855.524000", "105855.528000", "105855.531000", "105855.534000", "105855.537000", "105855.541000", "105855.544000", "105855.547000", "105855.551000", "105855.555000", "105855.558000", "105855.562000", "105855.565000", "105855.568000", "105855.572000", "105855.587000", "105855.591000", "105915.514000", "105915.518000", "105915.522000", "105915.525000", "105915.528000", "105915.531000", "105915.535000", "105915.538000", "105915.541000", "105915.545000", "105915.548000", "105915.560000", "105915.563000", "105915.567000", "105915.570000", "105915.573000", "105915.577000", "105915.580000", "105915.583000", "105915.595000", "105935.514000", "105935.518000", "105935.521000", "105935.524000", "105935.528000", "105935.531000", "105935.534000", "105935.538000", "105935.541000", "105935.544000", "105935.547000", "105935.551000", "105935.554000", "105935.558000", "105935.561000", "105935.564000", "105935.567000", "105935.571000", "105935.574000", "105935.577000", "105955.514000", "105955.518000", "105955.521000", "105955.524000", "105955.528000", "105955.531000", "105955.534000", "105955.538000", "105955.541000", "105955.544000", "105955.548000", "105955.551000", "105955.554000", "105955.558000", "105955.561000", "105955.564000", "105955.568000", "105955.571000", "105955.574000", "105955.578000", "110035.516000", "110035.521000", "110035.525000", "110035.529000", "110035.533000", "110035.536000", "110035.540000", "110035.544000", "110035.547000", "110035.550000", "110035.554000", "110035.557000", "110035.560000", "110035.581000", "110035.585000", "110035.588000", "110035.591000", "110035.595000", "110035.598000", "110035.601000", "110035.604000", "110035.608000", "110035.611000", "110035.614000", "110035.618000", "110035.621000", "110115.514000", "110115.518000", "110115.522000", "110115.525000", "110115.528000", "110115.532000", "110115.536000", "110115.539000", "110115.543000", "110115.546000", "110115.549000", "110115.553000", "110115.556000", "110115.560000", "110115.563000", "110115.566000", "110115.569000", "110115.573000", "110115.577000", "110115.581000", "110115.584000", "110115.588000", "110115.592000", "110115.595000", "110115.599000", "110115.603000", "110115.606000", "110155.514000", "110155.518000", "110155.521000", "110155.525000", "110155.528000", "110155.531000", "110155.534000", "110155.538000", "110155.541000", "110155.544000", "110155.548000", "110155.551000", "110155.554000", "110155.558000", "110155.561000", "110155.565000", "110155.568000", "110155.571000", "110155.575000", "110155.578000", "110155.581000", "110155.584000", "110155.588000", "110155.591000", "110155.594000", "110155.598000", "110155.601000", "110159.010000", "110159.013000", "110159.017000"],
      "InstanceCreationTime": ["105835.544000", "105835.548000", "105835.552000", "105835.555000", "105835.558000", "105835.561000", "105835.565000", "105835.568000", "105835.572000", "105835.575000", "105835.578000", "105835.581000", "105835.585000", "105835.588000", "105835.591000", "105835.595000", "105835.598000", "105835.601000", "105835.605000", "105835.608000", "105835.611000", "105835.614000", "105835.618000", "105835.621000", "105835.624000", "105835.628000", "105835.631000", "105855.514000", "105855.518000", "105855.521000", "105855.524000", "105855.528000", "105855.531000", "105855.534000", "105855.537000", "105855.541000", "105855.544000", "105855.547000", "105855.551000", "105855.555000", "105855.558000", "105855.562000", "105855.565000", "105855.568000", "105855.572000", "105855.587000", "105855.591000", "105915.514000", "105915.518000", "105915.522000", "105915.525000", "105915.528000", "105915.531000", "105915.535000", "105915.538000", "105915.541000", "105915.545000", "105915.548000", "105915.560000", "105915.563000", "105915.567000", "105915.570000", "105915.573000", "105915.577000", "105915.580000", "105915.583000", "105915.595000", "105935.514000", "105935.518000", "105935.521000", "105935.524000", "105935.528000", "105935.531000", "105935.534000", "105935.538000", "105935.541000", "105935.544000", "105935.547000", "105935.551000", "105935.554000", "105935.558000", "105935.561000", "105935.564000", "105935.567000", "105935.571000", "105935.574000", "105935.577000", "105955.514000", "105955.518000", "105955.521000", "105955.524000", "105955.528000", "105955.531000", "105955.534000", "105955.538000", "105955.541000", "105955.544000", "105955.548000", "105955.551000", "105955.554000", "105955.558000", "105955.561000", "105955.564000", "105955.568000", "105955.571000", "105955.574000", "105955.578000", "110035.516000", "110035.521000", "110035.525000", "110035.529000", "110035.533000", "110035.536000", "110035.540000", "110035.544000", "110035.547000", "110035.550000", "110035.554000", "110035.557000", "110035.560000", "110035.581000", "110035.585000", "110035.588000", "110035.591000", "110035.595000", "110035.598000", "110035.601000", "110035.604000", "110035.608000", "110035.611000", "110035.614000", "110035.618000", "110035.621000", "110115.514000", "110115.518000", "110115.522000", "110115.525000", "110115.528000", "110115.532000", "110115.536000", "110115.539000", "110115.543000", "110115.546000", "110115.549000", "110115.553000", "110115.556000", "110115.560000", "110115.563000", "110115.566000", "110115.569000", "110115.573000", "110115.577000", "110115.581000", "110115.584000", "110115.588000", "110115.592000", "110115.595000", "110115.599000", "110115.603000", "110115.606000", "110155.514000", "110155.518000", "110155.521000", "110155.525000", "110155.528000", "110155.531000", "110155.534000", "110155.538000", "110155.541000", "110155.544000", "110155.548000", "110155.551000", "110155.554000", "110155.558000", "110155.561000", "110155.565000", "110155.568000", "110155.571000", "110155.575000", "110155.578000", "110155.581000", "110155.584000", "110155.588000", "110155.591000", "110155.594000", "110155.598000", "110155.601000", "110159.010000", "110159.013000", "110159.017000"],
      "InstanceNumber": [1, 2, 3, 4, 5, 6, 7, 8, 9, 10, 11, 12, 13, 14, 15, 16, 17, 18, 19, 20, 21, 22, 23, 24, 25, 26, 27, 28, 29, 30, 31, 32, 33, 34, 35, 36, 37, 38, 39, 40, 41, 42, 43, 44, 45, 46, 47, 48, 49, 50, 51, 52, 53, 54, 55, 56, 57, 58, 59, 60, 61, 62, 63, 64, 65, 66, 67, 68, 69, 70, 71, 72, 73, 74, 75, 76, 77, 78, 79, 80, 81, 82, 83, 84, 85, 86, 87, 88, 89, 90, 91, 92, 93, 94, 95, 96, 97, 98, 99, 100, 101, 102, 103, 104, 105, 106, 107, 108, 109, 110, 111, 112, 113, 114, 115, 116, 117, 118, 119, 120, 121, 122, 123, 124, 125, 126, 127, 128, 129, 130, 131, 132, 133, 134, 135, 136, 137, 138, 139, 140, 141, 142, 143, 144, 145, 146, 147, 148, 149, 150, 151, 152, 153, 154, 155, 156, 157, 158, 159, 160, 161, 162, 163, 164, 165, 166, 167, 168, 169, 170, 171, 172, 173, 174, 175, 176, 177, 178, 179, 180, 181, 182, 183, 184, 185, 186, 187, 188, 189, 190],
      "LargestImagePixelValue": [46279, 44932, 44517, 44212, 44029, 43870, 43967, 44342, 44390, 43592, 44000, 42040, 43646, 41733, 43449, 45209, 43448, 44157, 44012, 43623, 42094, 41837, 40935, 41801, 41193, 41261, 41403, 41668, 42290, 42647, 41128, 41587, 41329, 41340, 41587, 41532, 41766, 44032, 42823, 41337, 40595, 41465, 40849, 40503, 40963, 40705, 40903, 41960, 41309, 41550, 41008, 40832, 40704, 40715, 41972, 42403, 41479, 40824, 40579, 42545, 41047, 41092, 41019, 40733, 40559, 40684, 40492, 40704, 40747, 40758, 40768, 42435, 41158, 43551, 40811, 40982, 40523, 40645, 40298, 41159, 41205, 40800, 40997, 40862, 40323, 40225, 40489, 40565, 41686, 40703, 40327, 41998, 40833, 41006, 40667, 40375, 40235, 41647, 40092, 40534, 40636, 40492, 40229, 40123, 40642, 40968, 40378, 40627, 40455, 40124, 40174, 39975, 40634, 40485, 40254, 40121, 41856, 40511, 40423, 40208, 40205, 41399, 40659, 40474, 40557, 40000, 40071, 40348, 39968, 40071, 42109, 40201, 40968, 40268, 40119, 40134, 40650, 40107, 40757, 40688, 40049, 40538, 41936, 40574, 41525, 40579, 40215, 40509, 40005, 40265, 40466, 40368, 41023, 40197, 40158, 40638, 39779, 40575, 40250, 40106, 42251, 40927, 42317, 43371, 40693, 40178, 40335, 40416, 40148, 40508, 40463, 40063, 40362, 40549, 40360, 40359, 40464, 40334, 40032, 40473, 40427, 43398, 42507, 43961, 43866, 43150, 40616, 41920, 41882, 41800],
      "WindowCenter": [10758.0, 10704.0, 10711.0, 10732.0, 10739.0, 10724.0, 10706.0, 10697.0, 10679.0, 10676.0, 10690.0, 10686.0, 10714.0, 10702.0, 10736.0, 10742.0, 10706.0, 10713.0, 10746.0, 10732.0, 10723.0, 10718.0, 10694.0, 10682.0, 10673.0, 10658.0, 10662.0, 10669.0, 10671.0, 10657.0, 10653.0, 10682.0, 10705.0, 10714.0, 10713.0, 10726.0, 10750.0, 10737.0, 10686.0, 10663.0, 10688.0, 10711.0, 10703.0, 10670.0, 10675.0, 10658.0, 10664.0, 10674.0, 10660.0, 10657.0, 10661.0, 10677.0, 10694.0, 10714.0, 10715.0, 10697.0, 10674.0, 10690.0, 10713.0, 10733.0, 10693.0, 10680.0, 10672.0, 10662.0, 10664.0, 10667.0, 10676.0, 10674.0, 10660.0, 10656.0, 10655.0, 10696.0, 10698.0, 10709.0, 10661.0, 10667.0, 10689.0, 10685.0, 10679.0, 10671.0, 10672.0, 10670.0, 10664.0, 10653.0, 10631.0, 10619.0, 10642.0, 10668.0, 10687.0, 10677.0, 10663.0, 10675.0, 10674.0, 10669.0, 10648.0, 10667.0, 10678.0, 10697.0, 10683.0, 10684.0, 10653.0, 10649.0, 10659.0, 10654.0, 10658.0, 10657.0, 10659.0, 10666.0, 10650.0, 10642.0, 10658.0, 10670.0, 10680.0, 10670.0, 10668.0, 10656.0, 10675.0, 10648.0, 10633.0, 10658.0, 10680.0, 10691.0, 10688.0, 10664.0, 10640.0, 10643.0, 10646.0, 10657.0, 10662.0, 10664.0, 10692.0, 10678.0, 10677.0, 10623.0, 10642.0, 10654.0, 10657.0, 10667.0, 10672.0, 10651.0, 10633.0, 10648.0, 10692.0, 10681.0, 10666.0, 10639.0, 10632.0, 10654.0, 10653.0, 10670.0, 10671.0, 10679.0, 10671.0, 10646.0, 10634.0, 10646.0, 10645.0, 10659.0, 10669.0, 10667.0, 10690.0, 10695.0, 10704.0, 10674.0, 10621.0, 10636.0, 10675.0, 10698.0, 10706.0, 10679.0, 10667.0, 10650.0, 10653.0, 10660.0, 10654.0, 10662.0, 10677.0, 10674.0, 10673.0, 10678.0, 10672.0, 10726.0, 10740.0, 10754.0, 10720.0, 10702.0, 10690.0, 10709.0, 10673.0, 10642.0],
      "WindowWidth": [23109.0, 22956.0, 22952.0, 22993.0, 23002.0, 22962.0, 22919.0, 22895.0, 22855.0, 22851.0, 22879.0, 22881.0, 22939.0, 22923.0, 22991.0, 22998.0, 22925.0, 22931.0, 23011.0, 22980.0, 22963.0, 22952.0, 22901.0, 22866.0, 22849.0, 22811.0, 22825.0, 22842.0, 22841.0, 22807.0, 22802.0, 22869.0, 22923.0, 22941.0, 22939.0, 22970.0, 23022.0, 22984.0, 22872.0, 22825.0, 22886.0, 22930.0, 22915.0, 22840.0, 22849.0, 22814.0, 22828.0, 22843.0, 22818.0, 22810.0, 22820.0, 22855.0, 22896.0, 22943.0, 22938.0, 22897.0, 22845.0, 22884.0, 22940.0, 22973.0, 22895.0, 22859.0, 22844.0, 22822.0, 22827.0, 22835.0, 22853.0, 22846.0, 22818.0, 22809.0, 22808.0, 22893.0, 22905.0, 22918.0, 22823.0, 22833.0, 22884.0, 22876.0, 22863.0, 22836.0, 22837.0, 22831.0, 22820.0, 22796.0, 22753.0, 22725.0, 22775.0, 22836.0, 22873.0, 22854.0, 22825.0, 22844.0, 22844.0, 22844.0, 22789.0, 22832.0, 22858.0, 22895.0, 22869.0, 22873.0, 22798.0, 22789.0, 22815.0, 22806.0, 22811.0, 22810.0, 22813.0, 22828.0, 22794.0, 22779.0, 22809.0, 22839.0, 22866.0, 22836.0, 22832.0, 22809.0, 22843.0, 22788.0, 22756.0, 22810.0, 22862.0, 22877.0, 22874.0, 22823.0, 22768.0, 22777.0, 22787.0, 22808.0, 22821.0, 22828.0, 22881.0, 22853.0, 22852.0, 22731.0, 22773.0, 22807.0, 22806.0, 22831.0, 22842.0, 22794.0, 22755.0, 22784.0, 22880.0, 22862.0, 22826.0, 22766.0, 22751.0, 22798.0, 22798.0, 22838.0, 22840.0, 22853.0, 22838.0, 22786.0, 22755.0, 22781.0, 22784.0, 22811.0, 22830.0, 22835.0, 22866.0, 22890.0, 22906.0, 22831.0, 22727.0, 22758.0, 22845.0, 22898.0, 22922.0, 22848.0, 22826.0, 22792.0, 22794.0, 22811.0, 22800.0, 22820.0, 22849.0, 22848.0, 22847.0, 22853.0, 22842.0, 22946.0, 22987.0, 23018.0, 22934.0, 22902.0, 22880.0, 22917.0, 22837.0, 22762.0]
    },
    "slices": {}
  }
}