{
  "AcquisitionMatrixPE": 104,
  "AcquisitionNumber": 1,
  "AcquisitionTime": "11:16:4.700000",
  "BandwidthPerPixelPhaseEncode": 17.17,
  "BaseResolution": 104,
  "BodyPartExamined": "BRAIN",
  "CoilString": "HC1-7;NC1_2",
  "ConsistencyInfo": "N4_VE11C_LATEST_20160120",
  "ConversionSoftware": "dcm2niix",
  "ConversionSoftwareVersion": "v1.0.20190902",
  "DerivedVendorReportedEchoSpacing": 0.000560011,
  "DeviceSerialNumber": "167006",
  "DwellTime": 2.1e-06,
  "EchoTime": 0.037,
  "EchoTrainLength": 104,
  "EffectiveEchoSpacing": 0.000560011,
  "FlipAngle": 52,
  "HeudiconvVersion": "0.10.0",
  "ImageComments": "Unaliased_MB4_PE3_LB",
  "ImageOrientationPatientDICOM": [0.998573, 0.00446546, 0.0532112, 0.023184, 0.861419, -0.507365],
  "ImageType": [
    "ORIGINAL",
    "PRIMARY",
    "M",
    "MB",
    "ND",
    "MOSAIC"
],
  "ImagingFrequency": 123.259,
  "InPlanePhaseEncodingDirectionDICOM": "COL",
  "InstitutionAddress": "Chemin_Queen-Mary_4565_Montreal_District_CA_H3W_1W5",
  "InstitutionName": "IUGM",
  "InstitutionalDepartmentName": "Department",
  "MRAcquisitionType": "2D",
  "MagneticFieldStrength": 3,
  "Manufacturer": "Siemens",
  "ManufacturersModelName": "Prisma_fit",
  "Modality": "MR",
  "MultibandAccelerationFactor": 4,
  "PartialFourier": 1,
  "PatientPosition": "HFS",
  "PercentPhaseFOV": 100,
  "PhaseEncodingDirection": "j",
  "PhaseEncodingSteps": 104,
  "PhaseResolution": 1,
  "PixelBandwidth": 2290,
  "ProcedureStepDescription": "memory_things",
  "ProtocolName": "func_task-things_run-4",
  "PulseSequenceDetails": "%CustomerSeq%_cmrr_mbep2d_bold",
  "ReceiveCoilActiveElements": "HC1-7;NC1,2",
  "ReceiveCoilName": "HeadNeck_64",
  "ReconMatrixPE": 104,
  "RepetitionTime": 1.49,
  "SAR": 0.06246,
  "ScanOptions": "FS",
  "ScanningSequence": "EP",
  "SequenceName": "epfid2d1_104",
  "SequenceVariant": "SK_SS",
  "SeriesDescription": "func_task-things_run-4",
  "SeriesNumber": 22,
  "ShimSetting": [625, -7176, -8861, 302, 1, -150, -67, 2],
  "SliceThickness": 2,
  "SliceTiming": [0, 0.785, 0.0975, 0.8825, 0.1975, 0.98, 0.295, 1.0775, 0.3925, 1.1775, 0.49, 1.275, 0.5875, 1.3725, 0.6875, 0, 0.785, 0.0975, 0.8825, 0.1975, 0.98, 0.295, 1.0775, 0.3925, 1.1775, 0.49, 1.275, 0.5875, 1.3725, 0.6875, 0, 0.785, 0.0975, 0.8825, 0.1975, 0.98, 0.295, 1.0775, 0.3925, 1.1775, 0.49, 1.275, 0.5875, 1.3725, 0.6875, 0, 0.785, 0.0975, 0.8825, 0.1975, 0.98, 0.295, 1.0775, 0.3925, 1.1775, 0.49, 1.275, 0.5875, 1.3725, 0.6875],
  "SoftwareVersions": "syngo_MR_E11",
  "SpacingBetweenSlices": 2,
  "StationName": "MRC35049",
  "TaskName": "things",
  "TotalReadoutTime": 0.0576811,
  "TxRefAmp": 300.292,
  "WipMemBlock": "949ab3e6-858c-410c-a691-f1cf428b59c7||Sequence: R016 ve11c/master r/e634e98; Dec 19 2017 11:00:25 by eja",
  "dcmmeta_affine": [
    [-1.9971466064453125, 0.046367913484573364, 0.09620564430952072, 102.58306121826172],
    [-0.008930910378694534, 1.7228389978408813, -1.0157489776611328, -50.0610237121582],
    [0.10642249882221222, 1.014729380607605, 1.720173954963684, -100.15579223632812],
    [0.0, 0.0, 0.0, 1.0]
],
  "dcmmeta_reorient_transform": [
    [0.0, -1.0, 0.0, 103.0],
    [1.0, 0.0, 0.0, 0.0],
    [0.0, 0.0, 1.0, 0.0],
    [0.0, 0.0, 0.0, 1.0]
],
  "dcmmeta_shape": [104, 104, 60, 190],
  "dcmmeta_slice_dim": 2,
  "dcmmeta_version": 0.6,
  "global": {
    "const": {
      "AcquisitionMatrix": [104, 0, 0, 104],
      "AngioFlag": "N",
      "BitsAllocated": 16,
      "BitsStored": 16,
      "BodyPartExamined": "BRAIN",
      "Columns": 832,
      "EchoNumbers": 1,
      "EchoTime": 37.0,
      "EchoTrainLength": 104,
      "FlipAngle": 52.0,
      "HighBit": 15,
      "ImageOrientationPatient": [0.99857329365234, 0.00446545537433, 0.05321124798972, 0.02318395590168, 0.86141949871279, -0.5073647124369],
      "ImagePositionPatient": [-851.19823471771, -757.75564108393, 334.9850578778],
      "ImageType": [
        "ORIGINAL",
        "PRIMARY",
        "M",
        "MB",
        "ND",
        "MOSAIC"
],
      "ImagedNucleus": "1H",
      "ImagingFrequency": 123.258881,
      "InPlanePhaseEncodingDirection": "COL",
      "MRAcquisitionType": "2D",
      "MagneticFieldStrength": 3.0,
      "Manufacturer": "SIEMENS",
      "ManufacturerModelName": "Prisma_fit",
      "Modality": "MR",
      "NumberOfAverages": 1.0,
      "NumberOfPhaseEncodingSteps": 104,
      "PercentPhaseFieldOfView": 100.0,
      "PercentSampling": 100.0,
      "PerformedProcedureStepStartTime": "100937.374000",
      "PhotometricInterpretation": "MONOCHROME2",
      "PixelBandwidth": 2290.0,
      "PixelRepresentation": 0,
      "PixelSpacing": [2.0, 2.0],
      "ProtocolName": "func_task-things_run-4",
      "RepetitionTime": 1490.0,
      "Rows": 832,
      "SAR": 0.06246003499309,
      "SamplesPerPixel": 1,
      "ScanOptions": "FS",
      "ScanningSequence": "EP",
      "SequenceName": "epfid2d1_104",
      "SequenceVariant": [
        "SK",
        "SS"
],
      "SeriesDescription": "func_task-things_run-4",
      "SeriesNumber": 22,
      "SeriesTime": "111735.541000",
      "SliceLocation": -55.783443891567,
      "SliceThickness": 2.0,
      "SmallestImagePixelValue": 0,
      "SoftwareVersions": "syngo MR E11",
      "SpacingBetweenSlices": 2.0000000084729,
      "SpecificCharacterSet": "ISO_IR 100",
      "StudyID": "1",
      "StudyTime": "100937.215000",
      "TransmitCoilName": "Body",
      "VariableFlipAngleFlag": "N",
      "WindowCenterWidthExplanation": "Algo1",
      "dBdt": 0.0},
    "slices": {}
  },
  "time": {
    "samples": {
      "AcquisitionNumber": [1, 2, 3, 4, 5, 6, 7, 8, 9, 10, 11, 12, 13, 14, 15, 16, 17, 18, 19, 20, 21, 22, 23, 24, 25, 26, 27, 28, 29, 30, 31, 32, 33, 34, 35, 36, 37, 38, 39, 40, 41, 42, 43, 44, 45, 46, 47, 48, 49, 50, 51, 52, 53, 54, 55, 56, 57, 58, 59, 60, 61, 62, 63, 64, 65, 66, 67, 68, 69, 70, 71, 72, 73, 74, 75, 76, 77, 78, 79, 80, 81, 82, 83, 84, 85, 86, 87, 88, 89, 90, 91, 92, 93, 94, 95, 96, 97, 98, 99, 100, 101, 102, 103, 104, 105, 106, 107, 108, 109, 110, 111, 112, 113, 114, 115, 116, 117, 118, 119, 120, 121, 122, 123, 124, 125, 126, 127, 128, 129, 130, 131, 132, 133, 134, 135, 136, 137, 138, 139, 140, 141, 142, 143, 144, 145, 146, 147, 148, 149, 150, 151, 152, 153, 154, 155, 156, 157, 158, 159, 160, 161, 162, 163, 164, 165, 166, 167, 168, 169, 170, 171, 172, 173, 174, 175, 176, 177, 178, 179, 180, 181, 182, 183, 184, 185, 186, 187, 188, 189, 190],
      "AcquisitionTime": ["111604.700000", "111606.190000", "111607.680000", "111609.170000", "111610.660000", "111612.150000", "111613.640000", "111615.130000", "111616.620000", "111618.110000", "111619.600000", "111621.090000", "111622.580000", "111624.070000", "111625.560000", "111627.050000", "111628.540000", "111630.030000", "111631.520000", "111633.010000", "111634.500000", "111635.990000", "111637.480000", "111638.970000", "111640.460000", "111641.950000", "111643.440000", "111644.930000", "111646.420000", "111647.910000", "111649.400000", "111650.890000", "111652.380000", "111653.870000", "111655.360000", "111656.850000", "111658.340000", "111659.830000", "111701.320000", "111702.810000", "111704.300000", "111705.790000", "111707.280000", "111708.770000", "111710.260000", "111711.750000", "111713.240000", "111714.730000", "111716.220000", "111717.710000", "111719.200000", "111720.690000", "111722.180000", "111723.670000", "111725.160000", "111726.650000", "111728.140000", "111729.630000", "111731.120000", "111732.610000", "111734.100000", "111735.590000", "111737.080000", "111738.570000", "111740.060000", "111741.550000", "111743.040000", "111744.530000", "111746.020000", "111747.510000", "111749.000000", "111750.490000", "111751.980000", "111753.470000", "111754.960000", "111756.450000", "111757.940000", "111759.430000", "111800.920000", "111802.410000", "111803.900000", "111805.390000", "111806.880000", "111808.370000", "111809.860000", "111811.350000", "111812.840000", "111814.330000", "111815.820000", "111817.310000", "111818.800000", "111820.290000", "111821.780000", "111823.270000", "111824.760000", "111826.250000", "111827.740000", "111829.230000", "111830.720000", "111832.210000", "111833.700000", "111835.190000", "111836.680000", "111838.170000", "111839.660000", "111841.150000", "111842.640000", "111844.130000", "111845.620000", "111847.110000", "111848.600000", "111850.090000", "111851.580000", "111853.070000", "111854.560000", "111856.050000", "111857.540000", "111859.030000", "111900.520000", "111902.010000", "111903.500000", "111904.990000", "111906.480000", "111907.970000", "111909.460000", "111910.950000", "111912.440000", "111913.930000", "111915.420000", "111916.910000", "111918.400000", "111919.890000", "111921.380000", "111922.870000", "111924.360000", "111925.850000", "111927.340000", "111928.830000", "111930.320000", "111931.810000", "111933.300000", "111934.790000", "111936.280000", "111937.770000", "111939.260000", "111940.750000", "111942.240000", "111943.730000", "111945.220000", "111946.710000", "111948.200000", "111949.690000", "111951.180000", "111952.670000", "111954.160000", "111955.650000", "111957.140000", "111958.630000", "112000.120000", "112001.610000", "112003.100000", "112004.590000", "112006.080000", "112007.570000", "112009.060000", "112010.550000", "112012.040000", "112013.530000", "112015.020000", "112016.510000", "112018.000000", "112019.490000", "112020.980000", "112022.470000", "112023.960000", "112025.450000", "112026.940000", "112028.430000", "112029.920000", "112031.410000", "112032.900000", "112034.390000", "112035.880000", "112037.370000", "112038.860000", "112040.350000", "112041.840000", "112043.330000", "112044.820000", "112046.310000"],
      "ContentTime": ["111735.544000", "111735.547000", "111735.551000", "111735.554000", "111735.557000", "111735.561000", "111735.564000", "111735.567000", "111735.571000", "111735.574000", "111735.577000", "111735.581000", "111735.584000", "111735.588000", "111735.591000", "111735.594000", "111735.598000", "111735.601000", "111735.604000", "111735.607000", "111735.611000", "111735.614000", "111735.617000", "111735.621000", "111735.624000", "111735.627000", "111735.630000", "111735.634000", "111735.644000", "111735.648000", "111735.651000", "111735.654000", "111735.658000", "111735.661000", "111735.664000", "111735.667000", "111755.514000", "111755.518000", "111755.521000", "111755.525000", "111755.528000", "111755.531000", "111755.535000", "111755.538000", "111755.541000", "111755.544000", "111755.548000", "111755.551000", "111755.554000", "111755.558000", "111755.561000", "111755.564000", "111755.568000", "111755.571000", "111755.574000", "111755.578000", "111815.514000", "111815.518000", "111815.521000", "111815.524000", "111815.528000", "111815.531000", "111815.535000", "111815.538000", "111815.541000", "111815.556000", "111815.559000", "111815.563000", "111815.566000", "111815.569000", "111815.573000", "111815.576000", "111815.579000", "111815.583000", "111815.586000", "111815.589000", "111815.592000", "111835.514000", "111835.518000", "111835.521000", "111835.524000", "111835.528000", "111835.531000", "111835.534000", "111835.538000", "111835.541000", "111835.544000", "111835.548000", "111835.551000", "111835.554000", "111835.558000", "111835.561000", "111835.564000", "111835.568000", "111835.571000", "111835.574000", "111835.578000", "111915.514000", "111915.518000", "111915.521000", "111915.525000", "111915.528000", "111915.531000", "111915.535000", "111915.538000", "111915.541000", "111915.545000", "111915.548000", "111915.551000", "111915.554000", "111915.558000", "111915.561000", "111915.565000", "111915.568000", "111915.571000", "111915.575000", "111915.578000", "111915.581000", "111915.585000", "111915.588000", "111915.591000", "111915.595000", "111915.598000", "111915.601000", "111915.605000", "111915.608000", "111915.611000", "111955.514000", "111955.518000", "111955.521000", "111955.525000", "111955.528000", "111955.531000", "111955.535000", "111955.538000", "111955.541000", "111955.545000", "111955.548000", "111955.552000", "111955.555000", "111955.558000", "111955.561000", "111955.565000", "111955.568000", "111955.572000", "111955.575000", "111955.579000", "111955.582000", "111955.585000", "111955.589000", "111955.592000", "111955.595000", "111955.599000", "111955.602000", "112035.514000", "112035.518000", "112035.521000", "112035.525000", "112035.528000", "112035.531000", "112035.535000", "112035.538000", "112035.554000", "112035.557000", "112035.561000", "112035.564000", "112035.567000", "112035.571000", "112035.574000", "112035.577000", "112035.581000", "112035.584000", "112035.587000", "112035.590000", "112035.594000", "112035.597000", "112035.600000", "112035.604000", "112035.607000", "112035.610000", "112035.614000", "112048.754000", "112048.757000", "112048.761000", "112048.764000", "112048.768000", "112048.861000", "112048.864000", "112048.868000", "112048.871000"],
      "InstanceCreationTime": ["111735.544000", "111735.547000", "111735.551000", "111735.554000", "111735.557000", "111735.561000", "111735.564000", "111735.567000", "111735.571000", "111735.574000", "111735.577000", "111735.581000", "111735.584000", "111735.588000", "111735.591000", "111735.594000", "111735.598000", "111735.601000", "111735.604000", "111735.607000", "111735.611000", "111735.614000", "111735.617000", "111735.621000", "111735.624000", "111735.627000", "111735.630000", "111735.634000", "111735.644000", "111735.648000", "111735.651000", "111735.654000", "111735.658000", "111735.661000", "111735.664000", "111735.667000", "111755.514000", "111755.518000", "111755.521000", "111755.525000", "111755.528000", "111755.531000", "111755.535000", "111755.538000", "111755.541000", "111755.544000", "111755.548000", "111755.551000", "111755.554000", "111755.558000", "111755.561000", "111755.564000", "111755.568000", "111755.571000", "111755.574000", "111755.578000", "111815.514000", "111815.518000", "111815.521000", "111815.524000", "111815.528000", "111815.531000", "111815.535000", "111815.538000", "111815.541000", "111815.556000", "111815.559000", "111815.563000", "111815.566000", "111815.569000", "111815.573000", "111815.576000", "111815.579000", "111815.583000", "111815.586000", "111815.589000", "111815.592000", "111835.514000", "111835.518000", "111835.521000", "111835.524000", "111835.528000", "111835.531000", "111835.534000", "111835.538000", "111835.541000", "111835.544000", "111835.548000", "111835.551000", "111835.554000", "111835.558000", "111835.561000", "111835.564000", "111835.568000", "111835.571000", "111835.574000", "111835.578000", "111915.514000", "111915.518000", "111915.521000", "111915.525000", "111915.528000", "111915.531000", "111915.535000", "111915.538000", "111915.541000", "111915.545000", "111915.548000", "111915.551000", "111915.554000", "111915.558000", "111915.561000", "111915.565000", "111915.568000", "111915.571000", "111915.575000", "111915.578000", "111915.581000", "111915.585000", "111915.588000", "111915.591000", "111915.595000", "111915.598000", "111915.601000", "111915.605000", "111915.608000", "111915.611000", "111955.514000", "111955.518000", "111955.521000", "111955.525000", "111955.528000", "111955.531000", "111955.535000", "111955.538000", "111955.541000", "111955.545000", "111955.548000", "111955.552000", "111955.555000", "111955.558000", "111955.561000", "111955.565000", "111955.568000", "111955.572000", "111955.575000", "111955.579000", "111955.582000", "111955.585000", "111955.589000", "111955.592000", "111955.595000", "111955.599000", "111955.602000", "112035.514000", "112035.518000", "112035.521000", "112035.525000", "112035.528000", "112035.531000", "112035.535000", "112035.538000", "112035.554000", "112035.557000", "112035.561000", "112035.564000", "112035.567000", "112035.571000", "112035.574000", "112035.577000", "112035.581000", "112035.584000", "112035.587000", "112035.590000", "112035.594000", "112035.597000", "112035.600000", "112035.604000", "112035.607000", "112035.610000", "112035.614000", "112048.754000", "112048.757000", "112048.761000", "112048.764000", "112048.768000", "112048.861000", "112048.864000", "112048.868000", "112048.871000"],
      "InstanceNumber": [1, 2, 3, 4, 5, 6, 7, 8, 9, 10, 11, 12, 13, 14, 15, 16, 17, 18, 19, 20, 21, 22, 23, 24, 25, 26, 27, 28, 29, 30, 31, 32, 33, 34, 35, 36, 37, 38, 39, 40, 41, 42, 43, 44, 45, 46, 47, 48, 49, 50, 51, 52, 53, 54, 55, 56, 57, 58, 59, 60, 61, 62, 63, 64, 65, 66, 67, 68, 69, 70, 71, 72, 73, 74, 75, 76, 77, 78, 79, 80, 81, 82, 83, 84, 85, 86, 87, 88, 89, 90, 91, 92, 93, 94, 95, 96, 97, 98, 99, 100, 101, 102, 103, 104, 105, 106, 107, 108, 109, 110, 111, 112, 113, 114, 115, 116, 117, 118, 119, 120, 121, 122, 123, 124, 125, 126, 127, 128, 129, 130, 131, 132, 133, 134, 135, 136, 137, 138, 139, 140, 141, 142, 143, 144, 145, 146, 147, 148, 149, 150, 151, 152, 153, 154, 155, 156, 157, 158, 159, 160, 161, 162, 163, 164, 165, 166, 167, 168, 169, 170, 171, 172, 173, 174, 175, 176, 177, 178, 179, 180, 181, 182, 183, 184, 185, 186, 187, 188, 189, 190],
      "LargestImagePixelValue": [42810, 41561, 40649, 40254, 40227, 41011, 40788, 41379, 40619, 39975, 40762, 40910, 40452, 40954, 40450, 40688, 40469, 40796, 40727, 41286, 40380, 40282, 39657, 40163, 39433, 39838, 39487, 39416, 40277, 40137, 41795, 40943, 40535, 39659, 39674, 39139, 39609, 40302, 39797, 40501, 39839, 39585, 39834, 39839, 39872, 40840, 40958, 41376, 40043, 39849, 39373, 39292, 39350, 39730, 39923, 39927, 40262, 40616, 40652, 40288, 39752, 40882, 40406, 39975, 39714, 39103, 39754, 39443, 39210, 40254, 39790, 39759, 40308, 39864, 39023, 39552, 38803, 38991, 39313, 39504, 38948, 39530, 39445, 39352, 39857, 40049, 39531, 39823, 39018, 39475, 39514, 39669, 39230, 39671, 39464, 40319, 39784, 39657, 39902, 39955, 38989, 38908, 39298, 38974, 39213, 39606, 39180, 39605, 39553, 39169, 39752, 40309, 39551, 39082, 39536, 39287, 39133, 40589, 39890, 39032, 39510, 40511, 39524, 40580, 38998, 39743, 39692, 39408, 41041, 41671, 41445, 41201, 41425, 38813, 39647, 41105, 40252, 40147, 39927, 38916, 41699, 42962, 41298, 40999, 41633, 39589, 41471, 42285, 40834, 41465, 42864, 41803, 41960, 42674, 41405, 41112, 41509, 39649, 41814, 42367, 40707, 40637, 41013, 40419, 40757, 41669, 38918, 40773, 42856, 40784, 41034, 39141, 39453, 41276, 39609, 38605, 39771, 41400, 41611, 41014, 40243, 39144, 39607, 39679, 41311, 42461, 41587, 39989, 39270, 38870],
      "WindowCenter": [10715.0, 10674.0, 10641.0, 10621.0, 10625.0, 10611.0, 10561.0, 10540.0, 10544.0, 10578.0, 10607.0, 10616.0, 10594.0, 10580.0, 10555.0, 10609.0, 10586.0, 10633.0, 10650.0, 10609.0, 10539.0, 10526.0, 10545.0, 10602.0, 10590.0, 10573.0, 10553.0, 10537.0, 10563.0, 10589.0, 10606.0, 10558.0, 10537.0, 10535.0, 10567.0, 10595.0, 10626.0, 10558.0, 10515.0, 10542.0, 10553.0, 10568.0, 10570.0, 10556.0, 10592.0, 10603.0, 10551.0, 10528.0, 10522.0, 10555.0, 10560.0, 10554.0, 10541.0, 10532.0, 10538.0, 10543.0, 10542.0, 10549.0, 10556.0, 10575.0, 10613.0, 10586.0, 10550.0, 10542.0, 10570.0, 10604.0, 10629.0, 10601.0, 10598.0, 10595.0, 10577.0, 10574.0, 10588.0, 10573.0, 10561.0, 10573.0, 10556.0, 10569.0, 10587.0, 10578.0, 10581.0, 10586.0, 10583.0, 10586.0, 10591.0, 10565.0, 10553.0, 10561.0, 10564.0, 10576.0, 10583.0, 10572.0, 10568.0, 10582.0, 10592.0, 10586.0, 10554.0, 10550.0, 10567.0, 10568.0, 10565.0, 10568.0, 10575.0, 10564.0, 10567.0, 10572.0, 10556.0, 10562.0, 10571.0, 10569.0, 10593.0, 10595.0, 10580.0, 10570.0, 10598.0, 10583.0, 10566.0, 10602.0, 10563.0, 10543.0, 10560.0, 10565.0, 10547.0, 10562.0, 10554.0, 10570.0, 10570.0, 10564.0, 10599.0, 10595.0, 10565.0, 10564.0, 10591.0, 10563.0, 10599.0, 10600.0, 10561.0, 10551.0, 10555.0, 10555.0, 10600.0, 10605.0, 10565.0, 10564.0, 10590.0, 10587.0, 10612.0, 10619.0, 10589.0, 10593.0, 10602.0, 10592.0, 10601.0, 10610.0, 10586.0, 10587.0, 10600.0, 10571.0, 10600.0, 10589.0, 10553.0, 10550.0, 10573.0, 10574.0, 10580.0, 10604.0, 10557.0, 10579.0, 10619.0, 10556.0, 10549.0, 10535.0, 10563.0, 10595.0, 10543.0, 10520.0, 10556.0, 10577.0, 10565.0, 10548.0, 10545.0, 10548.0, 10573.0, 10594.0, 10587.0, 10566.0, 10533.0, 10523.0, 10553.0, 10563.0],
      "WindowWidth": [23025.0, 22899.0, 22809.0, 22752.0, 22749.0, 22715.0, 22600.0, 22547.0, 22559.0, 22636.0, 22700.0, 22715.0, 22669.0, 22637.0, 22585.0, 22705.0, 22653.0, 22758.0, 22799.0, 22704.0, 22551.0, 22524.0, 22561.0, 22684.0, 22667.0, 22623.0, 22572.0, 22540.0, 22596.0, 22654.0, 22687.0, 22587.0, 22543.0, 22537.0, 22607.0, 22677.0, 22748.0, 22590.0, 22491.0, 22546.0, 22579.0, 22615.0, 22621.0, 22585.0, 22664.0, 22684.0, 22572.0, 22516.0, 22505.0, 22579.0, 22598.0, 22583.0, 22546.0, 22525.0, 22540.0, 22550.0, 22551.0, 22568.0, 22583.0, 22627.0, 22720.0, 22651.0, 22573.0, 22558.0, 22614.0, 22693.0, 22755.0, 22687.0, 22677.0, 22672.0, 22641.0, 22624.0, 22655.0, 22624.0, 22601.0, 22624.0, 22593.0, 22617.0, 22656.0, 22635.0, 22642.0, 22654.0, 22647.0, 22655.0, 22663.0, 22608.0, 22579.0, 22595.0, 22604.0, 22632.0, 22646.0, 22621.0, 22614.0, 22641.0, 22664.0, 22650.0, 22586.0, 22570.0, 22608.0, 22612.0, 22612.0, 22618.0, 22631.0, 22611.0, 22612.0, 22623.0, 22587.0, 22598.0, 22617.0, 22618.0, 22668.0, 22668.0, 22642.0, 22621.0, 22677.0, 22646.0, 22610.0, 22682.0, 22603.0, 22557.0, 22593.0, 22600.0, 22567.0, 22590.0, 22581.0, 22614.0, 22614.0, 22602.0, 22673.0, 22669.0, 22597.0, 22592.0, 22655.0, 22607.0, 22678.0, 22677.0, 22593.0, 22570.0, 22578.0, 22585.0, 22674.0, 22684.0, 22598.0, 22593.0, 22650.0, 22652.0, 22699.0, 22715.0, 22651.0, 22655.0, 22673.0, 22661.0, 22676.0, 22690.0, 22643.0, 22646.0, 22673.0, 22619.0, 22668.0, 22644.0, 22574.0, 22562.0, 22615.0, 22617.0, 22630.0, 22679.0, 22588.0, 22626.0, 22710.0, 22577.0, 22557.0, 22534.0, 22599.0, 22659.0, 22550.0, 22504.0, 22574.0, 22619.0, 22589.0, 22552.0, 22550.0, 22566.0, 22622.0, 22681.0, 22644.0, 22588.0, 22520.0, 22503.0, 22580.0, 22615.0]
    },
    "slices": {}
  }
}