{
  "AcquisitionMatrixPE": 104,
  "AcquisitionNumber": 1,
  "AcquisitionTime": "11:22:5.825000",
  "BandwidthPerPixelPhaseEncode": 17.17,
  "BaseResolution": 104,
  "BodyPartExamined": "BRAIN",
  "CoilString": "HC1-7;NC1_2",
  "ConsistencyInfo": "N4_VE11C_LATEST_20160120",
  "ConversionSoftware": "dcm2niix",
  "ConversionSoftwareVersion": "v1.0.20190902",
  "DerivedVendorReportedEchoSpacing": 0.000560011,
  "DeviceSerialNumber": "167006",
  "DwellTime": 2.1e-06,
  "EchoTime": 0.037,
  "EchoTrainLength": 104,
  "EffectiveEchoSpacing": 0.000560011,
  "FlipAngle": 52,
  "HeudiconvVersion": "0.10.0",
  "ImageComments": "Unaliased_MB4_PE3_LB",
  "ImageOrientationPatientDICOM": [0.998573, 0.00446546, 0.0532112, 0.023184, 0.861419, -0.507365],
  "ImageType": [
    "ORIGINAL",
    "PRIMARY",
    "P",
    "MB",
    "ND",
    "MOSAIC"
],
  "ImagingFrequency": 123.259,
  "InPlanePhaseEncodingDirectionDICOM": "COL",
  "InstitutionAddress": "Chemin_Queen-Mary_4565_Montreal_District_CA_H3W_1W5",
  "InstitutionName": "IUGM",
  "InstitutionalDepartmentName": "Department",
  "MRAcquisitionType": "2D",
  "MagneticFieldStrength": 3,
  "Manufacturer": "Siemens",
  "ManufacturersModelName": "Prisma_fit",
  "Modality": "MR",
  "MultibandAccelerationFactor": 4,
  "PartialFourier": 1,
  "PatientPosition": "HFS",
  "PercentPhaseFOV": 100,
  "PhaseEncodingDirection": "j",
  "PhaseEncodingSteps": 104,
  "PhaseResolution": 1,
  "PixelBandwidth": 2290,
  "ProcedureStepDescription": "memory_things",
  "ProtocolName": "func_task-things_run-5",
  "PulseSequenceDetails": "%CustomerSeq%_cmrr_mbep2d_bold",
  "ReceiveCoilActiveElements": "HC1-7;NC1,2",
  "ReceiveCoilName": "HeadNeck_64",
  "ReconMatrixPE": 104,
  "RepetitionTime": 1.49,
  "SAR": 0.06246,
  "ScanOptions": "FS",
  "ScanningSequence": "EP",
  "SequenceName": "epfid2d1_104",
  "SequenceVariant": "SK_SS",
  "SeriesDescription": "func_task-things_run-5",
  "SeriesNumber": 26,
  "ShimSetting": [625, -7176, -8861, 302, 1, -150, -67, 2],
  "SliceThickness": 2,
  "SliceTiming": [0, 0.7825, 0.0975, 0.8825, 0.195, 0.98, 0.2925, 1.0775, 0.3925, 1.175, 0.49, 1.2725, 0.5875, 1.3725, 0.685, 0, 0.7825, 0.0975, 0.8825, 0.195, 0.98, 0.2925, 1.0775, 0.3925, 1.175, 0.49, 1.2725, 0.5875, 1.3725, 0.685, 0, 0.7825, 0.0975, 0.8825, 0.195, 0.98, 0.2925, 1.0775, 0.3925, 1.175, 0.49, 1.2725, 0.5875, 1.3725, 0.685, 0, 0.7825, 0.0975, 0.8825, 0.195, 0.98, 0.2925, 1.0775, 0.3925, 1.175, 0.49, 1.2725, 0.5875, 1.3725, 0.685],
  "SoftwareVersions": "syngo_MR_E11",
  "SpacingBetweenSlices": 2,
  "StationName": "MRC35049",
  "TaskName": "things",
  "TotalReadoutTime": 0.0576811,
  "TxRefAmp": 300.292,
  "WipMemBlock": "9cf81e84-1e14-4d52-b090-33c60b4e66b8||Sequence: R016 ve11c/master r/e634e98; Dec 19 2017 11:00:25 by eja",
  "dcmmeta_affine": [
    [-1.9971466064453125, 0.046367913484573364, 0.09620564430952072, 102.58306121826172],
    [-0.008930910378694534, 1.7228389978408813, -1.0157489776611328, -50.0610237121582],
    [0.10642249882221222, 1.014729380607605, 1.720173954963684, -100.15579223632812],
    [0.0, 0.0, 0.0, 1.0]
],
  "dcmmeta_reorient_transform": [
    [0.0, -1.0, 0.0, 103.0],
    [1.0, 0.0, 0.0, 0.0],
    [0.0, 0.0, 1.0, 0.0],
    [0.0, 0.0, 0.0, 1.0]
],
  "dcmmeta_shape": [104, 104, 60, 190],
  "dcmmeta_slice_dim": 2,
  "dcmmeta_version": 0.6,
  "global": {
    "const": {
      "AcquisitionMatrix": [104, 0, 0, 104],
      "AngioFlag": "N",
      "BitsAllocated": 16,
      "BitsStored": 16,
      "BodyPartExamined": "BRAIN",
      "Columns": 832,
      "EchoNumbers": 1,
      "EchoTime": 37.0,
      "EchoTrainLength": 104,
      "FlipAngle": 52.0,
      "HighBit": 15,
      "ImageOrientationPatient": [0.99857329365234, 0.00446545537433, 0.05321124798972, 0.02318395590168, 0.86141949871279, -0.5073647124369],
      "ImagePositionPatient": [-851.19823471771, -757.75564108393, 334.9850578778],
      "ImageType": [
        "ORIGINAL",
        "PRIMARY",
        "P",
        "MB",
        "ND",
        "MOSAIC"
],
      "ImagedNucleus": "1H",
      "ImagingFrequency": 123.258891,
      "InPlanePhaseEncodingDirection": "COL",
      "LargestImagePixelValue": 4095,
      "MRAcquisitionType": "2D",
      "MagneticFieldStrength": 3.0,
      "Manufacturer": "SIEMENS",
      "ManufacturerModelName": "Prisma_fit",
      "Modality": "MR",
      "NumberOfAverages": 1.0,
      "NumberOfPhaseEncodingSteps": 104,
      "PercentPhaseFieldOfView": 100.0,
      "PercentSampling": 100.0,
      "PerformedProcedureStepStartTime": "100937.374000",
      "PhotometricInterpretation": "MONOCHROME2",
      "PixelBandwidth": 2290.0,
      "PixelRepresentation": 0,
      "PixelSpacing": [2.0, 2.0],
      "ProtocolName": "func_task-things_run-5",
      "RepetitionTime": 1490.0,
      "RescaleIntercept": -4096.0,
      "RescaleSlope": 2.0,
      "RescaleType": "US",
      "Rows": 832,
      "SAR": 0.06246003499309,
      "SamplesPerPixel": 1,
      "ScanOptions": "FS",
      "ScanningSequence": "EP",
      "SequenceName": "epfid2d1_104",
      "SequenceVariant": [
        "SK",
        "SS"
],
      "SeriesDescription": "func_task-things_run-5",
      "SeriesNumber": 26,
      "SeriesTime": "112335.647000",
      "SliceLocation": -55.783443891567,
      "SliceThickness": 2.0,
      "SmallestImagePixelValue": 0,
      "SoftwareVersions": "syngo MR E11",
      "SpacingBetweenSlices": 2.0000000084729,
      "SpecificCharacterSet": "ISO_IR 100",
      "StudyID": "1",
      "StudyTime": "100937.215000",
      "TransmitCoilName": "Body",
      "VariableFlipAngleFlag": "N",
      "WindowCenterWidthExplanation": "Algo1",
      "dBdt": 0.0},
    "slices": {}
  },
  "time": {
    "samples": {
      "AcquisitionNumber": [1, 2, 3, 4, 5, 6, 7, 8, 9, 10, 11, 12, 13, 14, 15, 16, 17, 18, 19, 20, 21, 22, 23, 24, 25, 26, 27, 28, 29, 30, 31, 32, 33, 34, 35, 36, 37, 38, 39, 40, 41, 42, 43, 44, 45, 46, 47, 48, 49, 50, 51, 52, 53, 54, 55, 56, 57, 58, 59, 60, 61, 62, 63, 64, 65, 66, 67, 68, 69, 70, 71, 72, 73, 74, 75, 76, 77, 78, 79, 80, 81, 82, 83, 84, 85, 86, 87, 88, 89, 90, 91, 92, 93, 94, 95, 96, 97, 98, 99, 100, 101, 102, 103, 104, 105, 106, 107, 108, 109, 110, 111, 112, 113, 114, 115, 116, 117, 118, 119, 120, 121, 122, 123, 124, 125, 126, 127, 128, 129, 130, 131, 132, 133, 134, 135, 136, 137, 138, 139, 140, 141, 142, 143, 144, 145, 146, 147, 148, 149, 150, 151, 152, 153, 154, 155, 156, 157, 158, 159, 160, 161, 162, 163, 164, 165, 166, 167, 168, 169, 170, 171, 172, 173, 174, 175, 176, 177, 178, 179, 180, 181, 182, 183, 184, 185, 186, 187, 188, 189, 190],
      "AcquisitionTime": ["112205.825000", "112207.315000", "112208.805000", "112210.295000", "112211.785000", "112213.275000", "112214.765000", "112216.255000", "112217.745000", "112219.235000", "112220.725000", "112222.215000", "112223.705000", "112225.195000", "112226.685000", "112228.175000", "112229.665000", "112231.155000", "112232.645000", "112234.135000", "112235.625000", "112237.115000", "112238.605000", "112240.095000", "112241.585000", "112243.075000", "112244.565000", "112246.055000", "112247.545000", "112249.035000", "112250.525000", "112252.015000", "112253.505000", "112254.995000", "112256.485000", "112257.975000", "112259.465000", "112300.955000", "112302.445000", "112303.935000", "112305.425000", "112306.915000", "112308.405000", "112309.895000", "112311.385000", "112312.875000", "112314.365000", "112315.855000", "112317.345000", "112318.835000", "112320.325000", "112321.815000", "112323.305000", "112324.795000", "112326.285000", "112327.775000", "112329.265000", "112330.755000", "112332.245000", "112333.735000", "112335.225000", "112336.715000", "112338.205000", "112339.695000", "112341.185000", "112342.675000", "112344.165000", "112345.655000", "112347.145000", "112348.635000", "112350.125000", "112351.615000", "112353.105000", "112354.595000", "112356.085000", "112357.575000", "112359.065000", "112400.555000", "112402.045000", "112403.535000", "112405.025000", "112406.515000", "112408.005000", "112409.495000", "112410.985000", "112412.475000", "112413.965000", "112415.455000", "112416.945000", "112418.435000", "112419.925000", "112421.415000", "112422.905000", "112424.395000", "112425.885000", "112427.375000", "112428.865000", "112430.355000", "112431.845000", "112433.335000", "112434.825000", "112436.315000", "112437.805000", "112439.295000", "112440.785000", "112442.275000", "112443.765000", "112445.255000", "112446.745000", "112448.235000", "112449.725000", "112451.215000", "112452.705000", "112454.195000", "112455.685000", "112457.175000", "112458.665000", "112500.155000", "112501.645000", "112503.135000", "112504.625000", "112506.115000", "112507.605000", "112509.095000", "112510.585000", "112512.075000", "112513.565000", "112515.055000", "112516.545000", "112518.035000", "112519.525000", "112521.015000", "112522.505000", "112523.995000", "112525.485000", "112526.975000", "112528.465000", "112529.955000", "112531.445000", "112532.935000", "112534.425000", "112535.915000", "112537.405000", "112538.895000", "112540.385000", "112541.875000", "112543.365000", "112544.855000", "112546.345000", "112547.835000", "112549.325000", "112550.815000", "112552.305000", "112553.795000", "112555.285000", "112556.775000", "112558.265000", "112559.755000", "112601.245000", "112602.735000", "112604.225000", "112605.715000", "112607.205000", "112608.695000", "112610.185000", "112611.675000", "112613.165000", "112614.655000", "112616.145000", "112617.635000", "112619.125000", "112620.615000", "112622.105000", "112623.595000", "112625.085000", "112626.575000", "112628.065000", "112629.555000", "112631.045000", "112632.535000", "112634.025000", "112635.515000", "112637.005000", "112638.495000", "112639.985000", "112641.475000", "112642.965000", "112644.455000", "112645.945000", "112647.435000"],
      "ContentTime": ["112335.650000", "112335.652000", "112335.655000", "112335.657000", "112335.660000", "112335.663000", "112335.666000", "112335.668000", "112335.670000", "112335.673000", "112335.676000", "112335.678000", "112335.681000", "112335.683000", "112335.686000", "112335.688000", "112335.694000", "112335.696000", "112335.699000", "112335.701000", "112335.704000", "112335.706000", "112335.709000", "112335.711000", "112335.714000", "112335.717000", "112335.719000", "112335.721000", "112335.724000", "112335.727000", "112335.729000", "112335.732000", "112335.734000", "112335.737000", "112335.739000", "112355.544000", "112355.546000", "112355.549000", "112355.551000", "112355.561000", "112355.564000", "112355.566000", "112355.569000", "112355.572000", "112355.574000", "112355.577000", "112355.579000", "112355.582000", "112355.584000", "112355.586000", "112355.589000", "112355.592000", "112355.594000", "112355.597000", "112355.599000", "112355.602000", "112415.548000", "112415.551000", "112415.554000", "112415.556000", "112415.559000", "112415.561000", "112415.564000", "112415.566000", "112415.569000", "112415.572000", "112415.574000", "112415.577000", "112415.579000", "112415.582000", "112415.584000", "112415.587000", "112415.589000", "112415.592000", "112415.594000", "112415.597000", "112435.542000", "112435.544000", "112435.547000", "112435.550000", "112435.552000", "112435.555000", "112435.557000", "112435.560000", "112435.562000", "112435.565000", "112435.567000", "112435.570000", "112435.572000", "112435.575000", "112435.577000", "112435.580000", "112435.582000", "112435.585000", "112435.587000", "112435.590000", "112515.927000", "112515.929000", "112515.932000", "112515.934000", "112515.937000", "112515.943000", "112515.945000", "112515.948000", "112515.950000", "112515.953000", "112515.955000", "112515.957000", "112515.960000", "112515.963000", "112515.965000", "112515.967000", "112515.970000", "112515.984000", "112515.986000", "112515.988000", "112515.991000", "112515.994000", "112515.996000", "112516.000000", "112516.002000", "112516.005000", "112516.008000", "112516.010000", "112516.012000", "112516.015000", "112555.580000", "112555.582000", "112555.585000", "112555.587000", "112555.590000", "112555.593000", "112555.595000", "112555.598000", "112555.600000", "112555.603000", "112555.605000", "112555.608000", "112555.610000", "112555.613000", "112555.615000", "112555.618000", "112555.620000", "112555.623000", "112555.625000", "112555.628000", "112555.630000", "112555.633000", "112555.635000", "112555.638000", "112555.640000", "112555.643000", "112555.645000", "112635.576000", "112635.579000", "112635.581000", "112635.584000", "112635.586000", "112635.589000", "112635.591000", "112635.594000", "112635.596000", "112635.599000", "112635.601000", "112635.604000", "112635.606000", "112635.609000", "112635.612000", "112635.614000", "112635.616000", "112635.619000", "112635.622000", "112635.624000", "112635.626000", "112635.629000", "112635.632000", "112635.634000", "112635.637000", "112635.639000", "112635.642000", "112649.853000", "112649.856000", "112649.858000", "112649.861000", "112649.863000", "112649.873000", "112649.876000", "112649.878000", "112649.881000", "112649.883000"],
      "InstanceCreationTime": ["112335.650000", "112335.652000", "112335.655000", "112335.657000", "112335.660000", "112335.663000", "112335.666000", "112335.668000", "112335.670000", "112335.673000", "112335.676000", "112335.678000", "112335.681000", "112335.683000", "112335.686000", "112335.688000", "112335.694000", "112335.696000", "112335.699000", "112335.701000", "112335.704000", "112335.706000", "112335.709000", "112335.711000", "112335.714000", "112335.717000", "112335.719000", "112335.721000", "112335.724000", "112335.727000", "112335.729000", "112335.732000", "112335.734000", "112335.737000", "112335.739000", "112355.544000", "112355.546000", "112355.549000", "112355.551000", "112355.561000", "112355.564000", "112355.566000", "112355.569000", "112355.572000", "112355.574000", "112355.577000", "112355.579000", "112355.582000", "112355.584000", "112355.586000", "112355.589000", "112355.592000", "112355.594000", "112355.597000", "112355.599000", "112355.602000", "112415.548000", "112415.551000", "112415.554000", "112415.556000", "112415.559000", "112415.561000", "112415.564000", "112415.566000", "112415.569000", "112415.572000", "112415.574000", "112415.577000", "112415.579000", "112415.582000", "112415.584000", "112415.587000", "112415.589000", "112415.592000", "112415.594000", "112415.597000", "112435.542000", "112435.544000", "112435.547000", "112435.550000", "112435.552000", "112435.555000", "112435.557000", "112435.560000", "112435.562000", "112435.565000", "112435.567000", "112435.570000", "112435.572000", "112435.575000", "112435.577000", "112435.580000", "112435.582000", "112435.585000", "112435.587000", "112435.590000", "112515.927000", "112515.929000", "112515.932000", "112515.934000", "112515.937000", "112515.943000", "112515.945000", "112515.948000", "112515.950000", "112515.953000", "112515.955000", "112515.957000", "112515.960000", "112515.963000", "112515.965000", "112515.967000", "112515.970000", "112515.984000", "112515.986000", "112515.988000", "112515.991000", "112515.994000", "112515.996000", "112516.000000", "112516.002000", "112516.005000", "112516.008000", "112516.010000", "112516.012000", "112516.015000", "112555.580000", "112555.582000", "112555.585000", "112555.587000", "112555.590000", "112555.593000", "112555.595000", "112555.598000", "112555.600000", "112555.603000", "112555.605000", "112555.608000", "112555.610000", "112555.613000", "112555.615000", "112555.618000", "112555.620000", "112555.623000", "112555.625000", "112555.628000", "112555.630000", "112555.633000", "112555.635000", "112555.638000", "112555.640000", "112555.643000", "112555.645000", "112635.576000", "112635.579000", "112635.581000", "112635.584000", "112635.586000", "112635.589000", "112635.591000", "112635.594000", "112635.596000", "112635.599000", "112635.601000", "112635.604000", "112635.606000", "112635.609000", "112635.612000", "112635.614000", "112635.616000", "112635.619000", "112635.622000", "112635.624000", "112635.626000", "112635.629000", "112635.632000", "112635.634000", "112635.637000", "112635.639000", "112635.642000", "112649.853000", "112649.856000", "112649.858000", "112649.861000", "112649.863000", "112649.873000", "112649.876000", "112649.878000", "112649.881000", "112649.883000"],
      "InstanceNumber": [1, 2, 3, 4, 5, 6, 7, 8, 9, 10, 11, 12, 13, 14, 15, 16, 17, 18, 19, 20, 21, 22, 23, 24, 25, 26, 27, 28, 29, 30, 31, 32, 33, 34, 35, 36, 37, 38, 39, 40, 41, 42, 43, 44, 45, 46, 47, 48, 49, 50, 51, 52, 53, 54, 55, 56, 57, 58, 59, 60, 61, 62, 63, 64, 65, 66, 67, 68, 69, 70, 71, 72, 73, 74, 75, 76, 77, 78, 79, 80, 81, 82, 83, 84, 85, 86, 87, 88, 89, 90, 91, 92, 93, 94, 95, 96, 97, 98, 99, 100, 101, 102, 103, 104, 105, 106, 107, 108, 109, 110, 111, 112, 113, 114, 115, 116, 117, 118, 119, 120, 121, 122, 123, 124, 125, 126, 127, 128, 129, 130, 131, 132, 133, 134, 135, 136, 137, 138, 139, 140, 141, 142, 143, 144, 145, 146, 147, 148, 149, 150, 151, 152, 153, 154, 155, 156, 157, 158, 159, 160, 161, 162, 163, 164, 165, 166, 167, 168, 169, 170, 171, 172, 173, 174, 175, 176, 177, 178, 179, 180, 181, 182, 183, 184, 185, 186, 187, 188, 189, 190],
      "WindowCenter": [4870.0, 4868.0, 4870.0, 4846.0, 4870.0, 4918.0, 4920.0, 4902.0, 4814.0, 4740.0, 4738.0, 4772.0, 4838.0, 4870.0, 4868.0, 4862.0, 4910.0, 4910.0, 4896.0, 4842.0, 4748.0, 4740.0, 4806.0, 4874.0, 4896.0, 4900.0, 4874.0, 4872.0, 4872.0, 4846.0, 4846.0, 4894.0, 4898.0, 4872.0, 4844.0, 4842.0, 4840.0, 4876.0, 4874.0, 4872.0, 4846.0, 4846.0, 4848.0, 4896.0, 4902.0, 4876.0, 4846.0, 4814.0, 4808.0, 4812.0, 4836.0, 4868.0, 4894.0, 4890.0, 4872.0, 4876.0, 4876.0, 4846.0, 4810.0, 4808.0, 4812.0, 4842.0, 4898.0, 4894.0, 4870.0, 4874.0, 4846.0, 4846.0, 4876.0, 4874.0, 4840.0, 4848.0, 4842.0, 4870.0, 4898.0, 4874.0, 4866.0, 4874.0, 4870.0, 4870.0, 4844.0, 4870.0, 4876.0, 4872.0, 4868.0, 4898.0, 4900.0, 4870.0, 4840.0, 4872.0, 4848.0, 4844.0, 4870.0, 4846.0, 4870.0, 4868.0, 4870.0, 4916.0, 4940.0, 4900.0, 4810.0, 4746.0, 4740.0, 4772.0, 4872.0, 4896.0, 4892.0, 4892.0, 4890.0, 4872.0, 4870.0, 4840.0, 4846.0, 4878.0, 4844.0, 4840.0, 4840.0, 4842.0, 4898.0, 4900.0, 4872.0, 4846.0, 4840.0, 4838.0, 4844.0, 4876.0, 4876.0, 4870.0, 4874.0, 4872.0, 4868.0, 4870.0, 4870.0, 4872.0, 4874.0, 4848.0, 4872.0, 4878.0, 4848.0, 4842.0, 4848.0, 4842.0, 4874.0, 4872.0, 4848.0, 4844.0, 4846.0, 4846.0, 4870.0, 4896.0, 4872.0, 4872.0, 4872.0, 4814.0, 4840.0, 4840.0, 4840.0, 4872.0, 4894.0, 4872.0, 4872.0, 4874.0, 4844.0, 4868.0, 4846.0, 4846.0, 4870.0, 4848.0, 4870.0, 4876.0, 4870.0, 4870.0, 4896.0, 4872.0, 4844.0, 4836.0, 4814.0, 4874.0, 4900.0, 4872.0, 4872.0, 4876.0, 4844.0, 4876.0, 4900.0, 4874.0, 4842.0, 4814.0, 4812.0, 4844.0],
      "WindowWidth": [18604.0, 18606.0, 18606.0, 18570.0, 18596.0, 18660.0, 18664.0, 18610.0, 18540.0, 18482.0, 18490.0, 18522.0, 18576.0, 18602.0, 18590.0, 18594.0, 18674.0, 18680.0, 18616.0, 18572.0, 18486.0, 18494.0, 18540.0, 18574.0, 18612.0, 18614.0, 18598.0, 18602.0, 18604.0, 18572.0, 18578.0, 18616.0, 18614.0, 18594.0, 18570.0, 18576.0, 18574.0, 18594.0, 18588.0, 18596.0, 18568.0, 18580.0, 18576.0, 18614.0, 18620.0, 18590.0, 18572.0, 18544.0, 18556.0, 18548.0, 18576.0, 18598.0, 18622.0, 18616.0, 18590.0, 18604.0, 18590.0, 18572.0, 18544.0, 18550.0, 18552.0, 18566.0, 18612.0, 18618.0, 18598.0, 18600.0, 18576.0, 18562.0, 18586.0, 18600.0, 18572.0, 18572.0, 18578.0, 18592.0, 18614.0, 18598.0, 18598.0, 18592.0, 18592.0, 18604.0, 18570.0, 18592.0, 18590.0, 18602.0, 18596.0, 18614.0, 18618.0, 18602.0, 18570.0, 18594.0, 18570.0, 18572.0, 18602.0, 18566.0, 18598.0, 18604.0, 18594.0, 18654.0, 18708.0, 18616.0, 18542.0, 18490.0, 18492.0, 18522.0, 18590.0, 18618.0, 18614.0, 18622.0, 18620.0, 18596.0, 18604.0, 18576.0, 18558.0, 18582.0, 18566.0, 18576.0, 18572.0, 18574.0, 18612.0, 18622.0, 18592.0, 18574.0, 18578.0, 18578.0, 18566.0, 18588.0, 18596.0, 18604.0, 18600.0, 18602.0, 18606.0, 18598.0, 18604.0, 18590.0, 18592.0, 18572.0, 18598.0, 18592.0, 18570.0, 18568.0, 18572.0, 18576.0, 18588.0, 18596.0, 18580.0, 18572.0, 18580.0, 18578.0, 18588.0, 18618.0, 18592.0, 18590.0, 18598.0, 18550.0, 18568.0, 18574.0, 18574.0, 18584.0, 18620.0, 18602.0, 18596.0, 18592.0, 18578.0, 18600.0, 18566.0, 18568.0, 18600.0, 18578.0, 18600.0, 18594.0, 18602.0, 18590.0, 18608.0, 18596.0, 18576.0, 18574.0, 18548.0, 18598.0, 18624.0, 18602.0, 18594.0, 18600.0, 18572.0, 18594.0, 18610.0, 18596.0, 18578.0, 18554.0, 18552.0, 18574.0]
    },
    "slices": {}
  }
}