{
  "AcquisitionMatrixPE": 104,
  "AcquisitionNumber": 1,
  "AcquisitionTime": "11:10:0.080000",
  "BandwidthPerPixelPhaseEncode": 17.17,
  "BaseResolution": 104,
  "BodyPartExamined": "BRAIN",
  "CoilString": "HC1-7;NC1_2",
  "ConsistencyInfo": "N4_VE11C_LATEST_20160120",
  "ConversionSoftware": "dcm2niix",
  "ConversionSoftwareVersion": "v1.0.20190902",
  "DerivedVendorReportedEchoSpacing": 0.000560011,
  "DeviceSerialNumber": "167006",
  "DwellTime": 2.1e-06,
  "EchoTime": 0.037,
  "EchoTrainLength": 104,
  "EffectiveEchoSpacing": 0.000560011,
  "FlipAngle": 52,
  "HeudiconvVersion": "0.10.0",
  "ImageComments": "Unaliased_MB4_PE3_LB",
  "ImageOrientationPatientDICOM": [0.998573, 0.00446546, 0.0532112, 0.023184, 0.861419, -0.507365],
  "ImageType": [
    "ORIGINAL",
    "PRIMARY",
    "M",
    "MB",
    "ND",
    "MOSAIC"
],
  "ImagingFrequency": 123.259,
  "InPlanePhaseEncodingDirectionDICOM": "COL",
  "InstitutionAddress": "Chemin_Queen-Mary_4565_Montreal_District_CA_H3W_1W5",
  "InstitutionName": "IUGM",
  "InstitutionalDepartmentName": "Department",
  "MRAcquisitionType": "2D",
  "MagneticFieldStrength": 3,
  "Manufacturer": "Siemens",
  "ManufacturersModelName": "Prisma_fit",
  "Modality": "MR",
  "MultibandAccelerationFactor": 4,
  "PartialFourier": 1,
  "PatientPosition": "HFS",
  "PercentPhaseFOV": 100,
  "PhaseEncodingDirection": "j",
  "PhaseEncodingSteps": 104,
  "PhaseResolution": 1,
  "PixelBandwidth": 2290,
  "ProcedureStepDescription": "memory_things",
  "ProtocolName": "func_task-things_run-3",
  "PulseSequenceDetails": "%CustomerSeq%_cmrr_mbep2d_bold",
  "ReceiveCoilActiveElements": "HC1-7;NC1,2",
  "ReceiveCoilName": "HeadNeck_64",
  "ReconMatrixPE": 104,
  "RepetitionTime": 1.49,
  "SAR": 0.06246,
  "ScanOptions": "FS",
  "ScanningSequence": "EP",
  "SequenceName": "epfid2d1_104",
  "SequenceVariant": "SK_SS",
  "SeriesDescription": "func_task-things_run-3",
  "SeriesNumber": 19,
  "ShimSetting": [625, -7176, -8861, 302, 1, -150, -67, 2],
  "SliceThickness": 2,
  "SliceTiming": [0, 0.785, 0.1, 0.8825, 0.1975, 0.98, 0.295, 1.08, 0.3925, 1.1775, 0.49, 1.275, 0.59, 1.3725, 0.6875, 0, 0.785, 0.1, 0.8825, 0.1975, 0.98, 0.295, 1.08, 0.3925, 1.1775, 0.49, 1.275, 0.59, 1.3725, 0.6875, 0, 0.785, 0.1, 0.8825, 0.1975, 0.98, 0.295, 1.08, 0.3925, 1.1775, 0.49, 1.275, 0.59, 1.3725, 0.6875, 0, 0.785, 0.1, 0.8825, 0.1975, 0.98, 0.295, 1.08, 0.3925, 1.1775, 0.49, 1.275, 0.59, 1.3725, 0.6875],
  "SoftwareVersions": "syngo_MR_E11",
  "SpacingBetweenSlices": 2,
  "StationName": "MRC35049",
  "TaskName": "things",
  "TotalReadoutTime": 0.0576811,
  "TxRefAmp": 300.292,
  "WipMemBlock": "9201de19-5424-44b7-8a83-23070c78a3f8||Sequence: R016 ve11c/master r/e634e98; Dec 19 2017 11:00:25 by eja",
  "dcmmeta_affine": [
    [-1.9971466064453125, 0.046367913484573364, 0.09620564430952072, 102.58306121826172],
    [-0.008930910378694534, 1.7228389978408813, -1.0157489776611328, -50.0610237121582],
    [0.10642249882221222, 1.014729380607605, 1.720173954963684, -100.15579223632812],
    [0.0, 0.0, 0.0, 1.0]
],
  "dcmmeta_reorient_transform": [
    [0.0, -1.0, 0.0, 103.0],
    [1.0, 0.0, 0.0, 0.0],
    [0.0, 0.0, 1.0, 0.0],
    [0.0, 0.0, 0.0, 1.0]
],
  "dcmmeta_shape": [104, 104, 60, 190],
  "dcmmeta_slice_dim": 2,
  "dcmmeta_version": 0.6,
  "global": {
    "const": {
      "AcquisitionMatrix": [104, 0, 0, 104],
      "AngioFlag": "N",
      "BitsAllocated": 16,
      "BitsStored": 16,
      "BodyPartExamined": "BRAIN",
      "Columns": 832,
      "EchoNumbers": 1,
      "EchoTime": 37.0,
      "EchoTrainLength": 104,
      "FlipAngle": 52.0,
      "HighBit": 15,
      "ImageOrientationPatient": [0.99857329365234, 0.00446545537433, 0.05321124798972, 0.02318395590168, 0.86141949871279, -0.5073647124369],
      "ImagePositionPatient": [-851.19823471771, -757.75564108393, 334.9850578778],
      "ImageType": [
        "ORIGINAL",
        "PRIMARY",
        "M",
        "MB",
        "ND",
        "MOSAIC"
],
      "ImagedNucleus": "1H",
      "ImagingFrequency": 123.258878,
      "InPlanePhaseEncodingDirection": "COL",
      "MRAcquisitionType": "2D",
      "MagneticFieldStrength": 3.0,
      "Manufacturer": "SIEMENS",
      "ManufacturerModelName": "Prisma_fit",
      "Modality": "MR",
      "NumberOfAverages": 1.0,
      "NumberOfPhaseEncodingSteps": 104,
      "PercentPhaseFieldOfView": 100.0,
      "PercentSampling": 100.0,
      "PerformedProcedureStepStartTime": "100937.374000",
      "PhotometricInterpretation": "MONOCHROME2",
      "PixelBandwidth": 2290.0,
      "PixelRepresentation": 0,
      "PixelSpacing": [2.0, 2.0],
      "ProtocolName": "func_task-things_run-3",
      "RepetitionTime": 1490.0,
      "Rows": 832,
      "SAR": 0.06246003499309,
      "SamplesPerPixel": 1,
      "ScanOptions": "FS",
      "ScanningSequence": "EP",
      "SequenceName": "epfid2d1_104",
      "SequenceVariant": [
        "SK",
        "SS"
],
      "SeriesDescription": "func_task-things_run-3",
      "SeriesNumber": 19,
      "SeriesTime": "111125.671000",
      "SliceLocation": -55.783443891567,
      "SliceThickness": 2.0,
      "SmallestImagePixelValue": 0,
      "SoftwareVersions": "syngo MR E11",
      "SpacingBetweenSlices": 2.0000000084729,
      "SpecificCharacterSet": "ISO_IR 100",
      "StudyID": "1",
      "StudyTime": "100937.215000",
      "TransmitCoilName": "Body",
      "VariableFlipAngleFlag": "N",
      "WindowCenterWidthExplanation": "Algo1",
      "dBdt": 0.0},
    "slices": {}
  },
  "time": {
    "samples": {
      "AcquisitionNumber": [1, 2, 3, 4, 5, 6, 7, 8, 9, 10, 11, 12, 13, 14, 15, 16, 17, 18, 19, 20, 21, 22, 23, 24, 25, 26, 27, 28, 29, 30, 31, 32, 33, 34, 35, 36, 37, 38, 39, 40, 41, 42, 43, 44, 45, 46, 47, 48, 49, 50, 51, 52, 53, 54, 55, 56, 57, 58, 59, 60, 61, 62, 63, 64, 65, 66, 67, 68, 69, 70, 71, 72, 73, 74, 75, 76, 77, 78, 79, 80, 81, 82, 83, 84, 85, 86, 87, 88, 89, 90, 91, 92, 93, 94, 95, 96, 97, 98, 99, 100, 101, 102, 103, 104, 105, 106, 107, 108, 109, 110, 111, 112, 113, 114, 115, 116, 117, 118, 119, 120, 121, 122, 123, 124, 125, 126, 127, 128, 129, 130, 131, 132, 133, 134, 135, 136, 137, 138, 139, 140, 141, 142, 143, 144, 145, 146, 147, 148, 149, 150, 151, 152, 153, 154, 155, 156, 157, 158, 159, 160, 161, 162, 163, 164, 165, 166, 167, 168, 169, 170, 171, 172, 173, 174, 175, 176, 177, 178, 179, 180, 181, 182, 183, 184, 185, 186, 187, 188, 189, 190],
      "AcquisitionTime": ["111000.080000", "111001.570000", "111003.060000", "111004.550000", "111006.040000", "111007.530000", "111009.020000", "111010.510000", "111012.000000", "111013.490000", "111014.980000", "111016.470000", "111017.960000", "111019.450000", "111020.940000", "111022.430000", "111023.920000", "111025.410000", "111026.900000", "111028.390000", "111029.880000", "111031.370000", "111032.860000", "111034.350000", "111035.840000", "111037.330000", "111038.820000", "111040.310000", "111041.800000", "111043.290000", "111044.780000", "111046.270000", "111047.760000", "111049.250000", "111050.740000", "111052.230000", "111053.720000", "111055.210000", "111056.700000", "111058.190000", "111059.680000", "111101.170000", "111102.660000", "111104.150000", "111105.640000", "111107.130000", "111108.620000", "111110.110000", "111111.600000", "111113.090000", "111114.580000", "111116.070000", "111117.560000", "111119.050000", "111120.540000", "111122.030000", "111123.520000", "111125.010000", "111126.500000", "111127.990000", "111129.480000", "111130.970000", "111132.460000", "111133.950000", "111135.440000", "111136.930000", "111138.420000", "111139.910000", "111141.400000", "111142.890000", "111144.380000", "111145.870000", "111147.360000", "111148.850000", "111150.340000", "111151.830000", "111153.320000", "111154.810000", "111156.300000", "111157.790000", "111159.280000", "111200.770000", "111202.260000", "111203.750000", "111205.240000", "111206.730000", "111208.220000", "111209.710000", "111211.200000", "111212.690000", "111214.180000", "111215.670000", "111217.160000", "111218.650000", "111220.140000", "111221.630000", "111223.120000", "111224.610000", "111226.100000", "111227.590000", "111229.080000", "111230.570000", "111232.060000", "111233.550000", "111235.040000", "111236.530000", "111238.020000", "111239.510000", "111241.000000", "111242.490000", "111243.980000", "111245.470000", "111246.960000", "111248.450000", "111249.940000", "111251.430000", "111252.920000", "111254.410000", "111255.900000", "111257.390000", "111258.880000", "111300.370000", "111301.860000", "111303.350000", "111304.840000", "111306.330000", "111307.820000", "111309.310000", "111310.800000", "111312.290000", "111313.780000", "111315.270000", "111316.760000", "111318.250000", "111319.740000", "111321.230000", "111322.720000", "111324.210000", "111325.700000", "111327.190000", "111328.680000", "111330.170000", "111331.660000", "111333.150000", "111334.640000", "111336.130000", "111337.620000", "111339.110000", "111340.600000", "111342.090000", "111343.580000", "111345.070000", "111346.560000", "111348.050000", "111349.540000", "111351.030000", "111352.520000", "111354.010000", "111355.500000", "111356.990000", "111358.480000", "111359.970000", "111401.460000", "111402.950000", "111404.440000", "111405.930000", "111407.420000", "111408.910000", "111410.400000", "111411.890000", "111413.380000", "111414.870000", "111416.360000", "111417.850000", "111419.340000", "111420.830000", "111422.320000", "111423.810000", "111425.300000", "111426.790000", "111428.280000", "111429.770000", "111431.260000", "111432.750000", "111434.240000", "111435.730000", "111437.220000", "111438.710000", "111440.200000", "111441.690000"],
      "ContentTime": ["111125.674000", "111125.678000", "111125.681000", "111125.685000", "111125.688000", "111125.691000", "111125.695000", "111125.698000", "111125.701000", "111125.705000", "111125.708000", "111125.711000", "111125.715000", "111125.718000", "111125.721000", "111125.724000", "111125.728000", "111125.731000", "111125.734000", "111125.737000", "111125.741000", "111125.744000", "111125.747000", "111125.751000", "111125.754000", "111125.757000", "111125.761000", "111125.764000", "111125.767000", "111125.771000", "111125.774000", "111145.641000", "111145.645000", "111145.648000", "111145.651000", "111145.655000", "111145.658000", "111145.661000", "111145.665000", "111145.668000", "111145.671000", "111145.675000", "111145.678000", "111145.681000", "111145.684000", "111145.688000", "111145.692000", "111145.695000", "111145.698000", "111145.702000", "111145.705000", "111205.641000", "111205.645000", "111205.648000", "111205.651000", "111205.655000", "111205.658000", "111205.661000", "111205.665000", "111205.668000", "111205.671000", "111205.675000", "111205.678000", "111205.681000", "111205.685000", "111205.700000", "111205.704000", "111205.707000", "111205.710000", "111205.714000", "111205.717000", "111225.641000", "111225.645000", "111225.649000", "111225.652000", "111225.655000", "111225.659000", "111225.662000", "111225.666000", "111225.669000", "111225.672000", "111225.676000", "111225.679000", "111225.682000", "111225.686000", "111225.689000", "111225.692000", "111225.695000", "111225.699000", "111225.702000", "111225.705000", "111225.709000", "111305.641000", "111305.645000", "111305.648000", "111305.651000", "111305.655000", "111305.658000", "111305.662000", "111305.665000", "111305.668000", "111305.672000", "111305.675000", "111305.678000", "111305.682000", "111305.685000", "111305.688000", "111305.701000", "111305.704000", "111305.708000", "111305.711000", "111305.714000", "111305.718000", "111305.721000", "111305.724000", "111305.727000", "111305.731000", "111305.734000", "111305.737000", "111305.741000", "111305.744000", "111305.747000", "111305.751000", "111305.754000", "111345.641000", "111345.645000", "111345.648000", "111345.652000", "111345.655000", "111345.658000", "111345.661000", "111345.665000", "111345.668000", "111345.672000", "111345.675000", "111345.679000", "111345.682000", "111345.685000", "111345.689000", "111345.692000", "111345.695000", "111345.699000", "111345.702000", "111345.705000", "111345.709000", "111345.712000", "111345.715000", "111345.719000", "111345.722000", "111345.726000", "111405.641000", "111405.645000", "111405.648000", "111405.652000", "111405.655000", "111405.658000", "111405.662000", "111405.665000", "111405.668000", "111405.672000", "111405.675000", "111405.678000", "111405.682000", "111405.693000", "111443.945000", "111443.948000", "111443.952000", "111443.955000", "111443.959000", "111443.962000", "111443.966000", "111443.969000", "111443.973000", "111443.976000", "111443.979000", "111443.983000", "111443.986000", "111443.989000", "111443.993000", "111443.996000", "111444.000000", "111444.004000", "111444.007000", "111444.010000", "111444.014000", "111444.017000", "111444.021000", "111444.024000", "111444.027000", "111444.031000"],
      "InstanceCreationTime": ["111125.674000", "111125.678000", "111125.681000", "111125.685000", "111125.688000", "111125.691000", "111125.695000", "111125.698000", "111125.701000", "111125.705000", "111125.708000", "111125.711000", "111125.715000", "111125.718000", "111125.721000", "111125.724000", "111125.728000", "111125.731000", "111125.734000", "111125.737000", "111125.741000", "111125.744000", "111125.747000", "111125.751000", "111125.754000", "111125.757000", "111125.761000", "111125.764000", "111125.767000", "111125.771000", "111125.774000", "111145.641000", "111145.645000", "111145.648000", "111145.651000", "111145.655000", "111145.658000", "111145.661000", "111145.665000", "111145.668000", "111145.671000", "111145.675000", "111145.678000", "111145.681000", "111145.684000", "111145.688000", "111145.692000", "111145.695000", "111145.698000", "111145.702000", "111145.705000", "111205.641000", "111205.645000", "111205.648000", "111205.651000", "111205.655000", "111205.658000", "111205.661000", "111205.665000", "111205.668000", "111205.671000", "111205.675000", "111205.678000", "111205.681000", "111205.685000", "111205.700000", "111205.704000", "111205.707000", "111205.710000", "111205.714000", "111205.717000", "111225.641000", "111225.645000", "111225.649000", "111225.652000", "111225.655000", "111225.659000", "111225.662000", "111225.666000", "111225.669000", "111225.672000", "111225.676000", "111225.679000", "111225.682000", "111225.686000", "111225.689000", "111225.692000", "111225.695000", "111225.699000", "111225.702000", "111225.705000", "111225.709000", "111305.641000", "111305.645000", "111305.648000", "111305.651000", "111305.655000", "111305.658000", "111305.662000", "111305.665000", "111305.668000", "111305.672000", "111305.675000", "111305.678000", "111305.682000", "111305.685000", "111305.688000", "111305.701000", "111305.704000", "111305.708000", "111305.711000", "111305.714000", "111305.718000", "111305.721000", "111305.724000", "111305.727000", "111305.731000", "111305.734000", "111305.737000", "111305.741000", "111305.744000", "111305.747000", "111305.751000", "111305.754000", "111345.641000", "111345.645000", "111345.648000", "111345.652000", "111345.655000", "111345.658000", "111345.661000", "111345.665000", "111345.668000", "111345.672000", "111345.675000", "111345.679000", "111345.682000", "111345.685000", "111345.689000", "111345.692000", "111345.695000", "111345.699000", "111345.702000", "111345.705000", "111345.709000", "111345.712000", "111345.715000", "111345.719000", "111345.722000", "111345.726000", "111405.641000", "111405.645000", "111405.648000", "111405.652000", "111405.655000", "111405.658000", "111405.662000", "111405.665000", "111405.668000", "111405.672000", "111405.675000", "111405.678000", "111405.682000", "111405.693000", "111443.945000", "111443.948000", "111443.952000", "111443.955000", "111443.959000", "111443.962000", "111443.966000", "111443.969000", "111443.973000", "111443.976000", "111443.979000", "111443.983000", "111443.986000", "111443.989000", "111443.993000", "111443.996000", "111444.000000", "111444.004000", "111444.007000", "111444.010000", "111444.014000", "111444.017000", "111444.021000", "111444.024000", "111444.027000", "111444.031000"],
      "InstanceNumber": [1, 2, 3, 4, 5, 6, 7, 8, 9, 10, 11, 12, 13, 14, 15, 16, 17, 18, 19, 20, 21, 22, 23, 24, 25, 26, 27, 28, 29, 30, 31, 32, 33, 34, 35, 36, 37, 38, 39, 40, 41, 42, 43, 44, 45, 46, 47, 48, 49, 50, 51, 52, 53, 54, 55, 56, 57, 58, 59, 60, 61, 62, 63, 64, 65, 66, 67, 68, 69, 70, 71, 72, 73, 74, 75, 76, 77, 78, 79, 80, 81, 82, 83, 84, 85, 86, 87, 88, 89, 90, 91, 92, 93, 94, 95, 96, 97, 98, 99, 100, 101, 102, 103, 104, 105, 106, 107, 108, 109, 110, 111, 112, 113, 114, 115, 116, 117, 118, 119, 120, 121, 122, 123, 124, 125, 126, 127, 128, 129, 130, 131, 132, 133, 134, 135, 136, 137, 138, 139, 140, 141, 142, 143, 144, 145, 146, 147, 148, 149, 150, 151, 152, 153, 154, 155, 156, 157, 158, 159, 160, 161, 162, 163, 164, 165, 166, 167, 168, 169, 170, 171, 172, 173, 174, 175, 176, 177, 178, 179, 180, 181, 182, 183, 184, 185, 186, 187, 188, 189, 190],
      "LargestImagePixelValue": [46853, 45634, 45017, 45474, 44747, 44447, 43730, 44148, 44791, 44420, 44332, 44122, 45038, 44303, 44661, 44734, 44499, 44702, 44493, 44706, 44654, 45063, 44763, 45113, 44728, 44449, 45137, 44771, 44215, 44736, 44831, 44452, 44553, 44321, 44288, 44875, 44133, 44722, 45361, 44891, 44931, 44939, 44766, 44437, 45086, 45142, 44869, 44935, 44832, 44605, 44858, 44329, 44424, 44547, 44409, 44014, 44752, 44642, 44258, 44447, 43272, 43008, 44929, 44462, 43711, 43974, 44011, 43910, 44197, 43077, 43013, 43725, 42883, 42846, 43932, 43431, 43477, 43512, 43367, 42674, 43111, 43537, 41854, 43772, 43735, 42507, 43880, 42532, 42562, 42991, 43047, 42070, 43237, 41810, 43232, 42459, 43022, 42340, 42694, 42625, 42410, 43440, 43082, 41803, 43621, 43058, 42522, 43032, 42521, 40077, 43924, 44303, 43125, 43945, 42253, 42384, 42627, 42156, 40673, 42639, 43990, 43378, 43326, 43454, 42789, 42990, 43130, 41998, 42773, 44503, 43667, 44444, 44170, 43526, 43740, 43743, 42985, 43868, 43692, 43161, 44004, 43897, 43561, 44148, 44021, 43158, 43729, 43898, 42948, 43676, 43828, 44061, 43749, 42709, 42147, 44283, 43711, 43224, 43310, 43982, 42319, 43655, 43519, 42634, 43246, 43170, 42609, 43517, 43792, 43367, 43317, 43441, 43714, 43291, 43604, 43173, 42877, 43752, 43284, 43224, 44129, 42867, 43515, 44099, 43599, 41854, 44496, 43277, 43849, 44505],
      "WindowCenter": [10778.0, 10736.0, 10692.0, 10668.0, 10657.0, 10660.0, 10676.0, 10699.0, 10683.0, 10683.0, 10684.0, 10709.0, 10727.0, 10707.0, 10676.0, 10650.0, 10651.0, 10685.0, 10700.0, 10699.0, 10706.0, 10711.0, 10686.0, 10678.0, 10660.0, 10685.0, 10719.0, 10737.0, 10704.0, 10697.0, 10705.0, 10710.0, 10699.0, 10700.0, 10710.0, 10726.0, 10706.0, 10691.0, 10686.0, 10678.0, 10676.0, 10671.0, 10686.0, 10696.0, 10704.0, 10698.0, 10690.0, 10688.0, 10681.0, 10680.0, 10685.0, 10688.0, 10696.0, 10706.0, 10699.0, 10690.0, 10689.0, 10687.0, 10664.0, 10661.0, 10653.0, 10665.0, 10691.0, 10666.0, 10650.0, 10663.0, 10672.0, 10647.0, 10648.0, 10656.0, 10662.0, 10675.0, 10647.0, 10645.0, 10655.0, 10635.0, 10637.0, 10641.0, 10648.0, 10646.0, 10660.0, 10659.0, 10643.0, 10665.0, 10657.0, 10630.0, 10636.0, 10628.0, 10635.0, 10651.0, 10651.0, 10634.0, 10650.0, 10641.0, 10653.0, 10649.0, 10652.0, 10642.0, 10649.0, 10650.0, 10652.0, 10657.0, 10642.0, 10634.0, 10657.0, 10636.0, 10632.0, 10643.0, 10654.0, 10650.0, 10705.0, 10681.0, 10630.0, 10606.0, 10600.0, 10631.0, 10632.0, 10623.0, 10592.0, 10633.0, 10655.0, 10618.0, 10599.0, 10616.0, 10633.0, 10662.0, 10665.0, 10647.0, 10664.0, 10678.0, 10666.0, 10677.0, 10679.0, 10678.0, 10680.0, 10681.0, 10669.0, 10689.0, 10679.0, 10666.0, 10687.0, 10681.0, 10680.0, 10686.0, 10704.0, 10684.0, 10697.0, 10699.0, 10665.0, 10682.0, 10681.0, 10659.0, 10649.0, 10656.0, 10679.0, 10698.0, 10658.0, 10629.0, 10639.0, 10650.0, 10642.0, 10656.0, 10654.0, 10646.0, 10648.0, 10633.0, 10623.0, 10643.0, 10645.0, 10633.0, 10637.0, 10660.0, 10667.0, 10655.0, 10656.0, 10650.0, 10651.0, 10662.0, 10647.0, 10645.0, 10660.0, 10667.0, 10684.0, 10680.0, 10653.0, 10655.0, 10703.0, 10698.0, 10674.0, 10675.0],
      "WindowWidth": [23161.0, 23029.0, 22906.0, 22835.0, 22803.0, 22811.0, 22853.0, 22907.0, 22861.0, 22861.0, 22862.0, 22918.0, 22957.0, 22912.0, 22843.0, 22780.0, 22784.0, 22860.0, 22896.0, 22891.0, 22904.0, 22916.0, 22863.0, 22845.0, 22804.0, 22859.0, 22935.0, 22983.0, 22908.0, 22887.0, 22904.0, 22917.0, 22892.0, 22895.0, 22919.0, 22949.0, 22908.0, 22873.0, 22858.0, 22843.0, 22838.0, 22830.0, 22861.0, 22883.0, 22899.0, 22884.0, 22871.0, 22862.0, 22847.0, 22848.0, 22857.0, 22865.0, 22884.0, 22903.0, 22888.0, 22868.0, 22862.0, 22856.0, 22808.0, 22797.0, 22784.0, 22816.0, 22865.0, 22813.0, 22781.0, 22807.0, 22826.0, 22771.0, 22767.0, 22788.0, 22803.0, 22829.0, 22771.0, 22763.0, 22780.0, 22744.0, 22744.0, 22755.0, 22770.0, 22770.0, 22797.0, 22794.0, 22765.0, 22806.0, 22790.0, 22734.0, 22742.0, 22729.0, 22747.0, 22779.0, 22781.0, 22748.0, 22774.0, 22764.0, 22786.0, 22779.0, 22782.0, 22765.0, 22776.0, 22781.0, 22785.0, 22790.0, 22760.0, 22751.0, 22793.0, 22748.0, 22738.0, 22763.0, 22788.0, 22796.0, 22898.0, 22846.0, 22734.0, 22673.0, 22665.0, 22737.0, 22737.0, 22714.0, 22655.0, 22737.0, 22789.0, 22704.0, 22663.0, 22698.0, 22738.0, 22804.0, 22810.0, 22773.0, 22806.0, 22832.0, 22814.0, 22830.0, 22839.0, 22837.0, 22844.0, 22848.0, 22824.0, 22863.0, 22840.0, 22813.0, 22856.0, 22845.0, 22847.0, 22856.0, 22897.0, 22857.0, 22882.0, 22889.0, 22813.0, 22848.0, 22847.0, 22797.0, 22771.0, 22789.0, 22845.0, 22881.0, 22794.0, 22728.0, 22752.0, 22777.0, 22762.0, 22789.0, 22784.0, 22765.0, 22768.0, 22739.0, 22717.0, 22759.0, 22763.0, 22737.0, 22748.0, 22795.0, 22809.0, 22786.0, 22788.0, 22777.0, 22778.0, 22798.0, 22769.0, 22764.0, 22797.0, 22818.0, 22853.0, 22843.0, 22780.0, 22793.0, 22888.0, 22883.0, 22837.0, 22834.0]
    },
    "slices": {}
  }
}