{
  "AcquisitionMatrixPE": 104,
  "AcquisitionNumber": 1,
  "AcquisitionTime": "11:10:0.080000",
  "BandwidthPerPixelPhaseEncode": 17.17,
  "BaseResolution": 104,
  "BodyPartExamined": "BRAIN",
  "CoilString": "HC1-7;NC1_2",
  "ConsistencyInfo": "N4_VE11C_LATEST_20160120",
  "ConversionSoftware": "dcm2niix",
  "ConversionSoftwareVersion": "v1.0.20190902",
  "DerivedVendorReportedEchoSpacing": 0.000560011,
  "DeviceSerialNumber": "167006",
  "DwellTime": 2.1e-06,
  "EchoTime": 0.037,
  "EchoTrainLength": 104,
  "EffectiveEchoSpacing": 0.000560011,
  "FlipAngle": 52,
  "HeudiconvVersion": "0.10.0",
  "ImageComments": "Unaliased_MB4_PE3_LB",
  "ImageOrientationPatientDICOM": [0.998573, 0.00446546, 0.0532112, 0.023184, 0.861419, -0.507365],
  "ImageType": [
    "ORIGINAL",
    "PRIMARY",
    "P",
    "MB",
    "ND",
    "MOSAIC"
],
  "ImagingFrequency": 123.259,
  "InPlanePhaseEncodingDirectionDICOM": "COL",
  "InstitutionAddress": "Chemin_Queen-Mary_4565_Montreal_District_CA_H3W_1W5",
  "InstitutionName": "IUGM",
  "InstitutionalDepartmentName": "Department",
  "MRAcquisitionType": "2D",
  "MagneticFieldStrength": 3,
  "Manufacturer": "Siemens",
  "ManufacturersModelName": "Prisma_fit",
  "Modality": "MR",
  "MultibandAccelerationFactor": 4,
  "PartialFourier": 1,
  "PatientPosition": "HFS",
  "PercentPhaseFOV": 100,
  "PhaseEncodingDirection": "j",
  "PhaseEncodingSteps": 104,
  "PhaseResolution": 1,
  "PixelBandwidth": 2290,
  "ProcedureStepDescription": "memory_things",
  "ProtocolName": "func_task-things_run-3",
  "PulseSequenceDetails": "%CustomerSeq%_cmrr_mbep2d_bold",
  "ReceiveCoilActiveElements": "HC1-7;NC1,2",
  "ReceiveCoilName": "HeadNeck_64",
  "ReconMatrixPE": 104,
  "RepetitionTime": 1.49,
  "SAR": 0.06246,
  "ScanOptions": "FS",
  "ScanningSequence": "EP",
  "SequenceName": "epfid2d1_104",
  "SequenceVariant": "SK_SS",
  "SeriesDescription": "func_task-things_run-3",
  "SeriesNumber": 20,
  "ShimSetting": [625, -7176, -8861, 302, 1, -150, -67, 2],
  "SliceThickness": 2,
  "SliceTiming": [0, 0.785, 0.1, 0.8825, 0.1975, 0.98, 0.295, 1.08, 0.3925, 1.1775, 0.49, 1.275, 0.59, 1.3725, 0.6875, 0, 0.785, 0.1, 0.8825, 0.1975, 0.98, 0.295, 1.08, 0.3925, 1.1775, 0.49, 1.275, 0.59, 1.3725, 0.6875, 0, 0.785, 0.1, 0.8825, 0.1975, 0.98, 0.295, 1.08, 0.3925, 1.1775, 0.49, 1.275, 0.59, 1.3725, 0.6875, 0, 0.785, 0.1, 0.8825, 0.1975, 0.98, 0.295, 1.08, 0.3925, 1.1775, 0.49, 1.275, 0.59, 1.3725, 0.6875],
  "SoftwareVersions": "syngo_MR_E11",
  "SpacingBetweenSlices": 2,
  "StationName": "MRC35049",
  "TaskName": "things",
  "TotalReadoutTime": 0.0576811,
  "TxRefAmp": 300.292,
  "WipMemBlock": "9201de19-5424-44b7-8a83-23070c78a3f8||Sequence: R016 ve11c/master r/e634e98; Dec 19 2017 11:00:25 by eja",
  "dcmmeta_affine": [
    [-1.9971466064453125, 0.046367913484573364, 0.09620564430952072, 102.58306121826172],
    [-0.008930910378694534, 1.7228389978408813, -1.0157489776611328, -50.0610237121582],
    [0.10642249882221222, 1.014729380607605, 1.720173954963684, -100.15579223632812],
    [0.0, 0.0, 0.0, 1.0]
],
  "dcmmeta_reorient_transform": [
    [0.0, -1.0, 0.0, 103.0],
    [1.0, 0.0, 0.0, 0.0],
    [0.0, 0.0, 1.0, 0.0],
    [0.0, 0.0, 0.0, 1.0]
],
  "dcmmeta_shape": [104, 104, 60, 190],
  "dcmmeta_slice_dim": 2,
  "dcmmeta_version": 0.6,
  "global": {
    "const": {
      "AcquisitionMatrix": [104, 0, 0, 104],
      "AngioFlag": "N",
      "BitsAllocated": 16,
      "BitsStored": 16,
      "BodyPartExamined": "BRAIN",
      "Columns": 832,
      "EchoNumbers": 1,
      "EchoTime": 37.0,
      "EchoTrainLength": 104,
      "FlipAngle": 52.0,
      "HighBit": 15,
      "ImageOrientationPatient": [0.99857329365234, 0.00446545537433, 0.05321124798972, 0.02318395590168, 0.86141949871279, -0.5073647124369],
      "ImagePositionPatient": [-851.19823471771, -757.75564108393, 334.9850578778],
      "ImageType": [
        "ORIGINAL",
        "PRIMARY",
        "P",
        "MB",
        "ND",
        "MOSAIC"
],
      "ImagedNucleus": "1H",
      "ImagingFrequency": 123.258878,
      "InPlanePhaseEncodingDirection": "COL",
      "LargestImagePixelValue": 4095,
      "MRAcquisitionType": "2D",
      "MagneticFieldStrength": 3.0,
      "Manufacturer": "SIEMENS",
      "ManufacturerModelName": "Prisma_fit",
      "Modality": "MR",
      "NumberOfAverages": 1.0,
      "NumberOfPhaseEncodingSteps": 104,
      "PercentPhaseFieldOfView": 100.0,
      "PercentSampling": 100.0,
      "PerformedProcedureStepStartTime": "100937.374000",
      "PhotometricInterpretation": "MONOCHROME2",
      "PixelBandwidth": 2290.0,
      "PixelRepresentation": 0,
      "PixelSpacing": [2.0, 2.0],
      "ProtocolName": "func_task-things_run-3",
      "RepetitionTime": 1490.0,
      "RescaleIntercept": -4096.0,
      "RescaleSlope": 2.0,
      "RescaleType": "US",
      "Rows": 832,
      "SAR": 0.06246003499309,
      "SamplesPerPixel": 1,
      "ScanOptions": "FS",
      "ScanningSequence": "EP",
      "SequenceName": "epfid2d1_104",
      "SequenceVariant": [
        "SK",
        "SS"
],
      "SeriesDescription": "func_task-things_run-3",
      "SeriesNumber": 20,
      "SeriesTime": "111125.812000",
      "SliceLocation": -55.783443891567,
      "SliceThickness": 2.0,
      "SmallestImagePixelValue": 0,
      "SoftwareVersions": "syngo MR E11",
      "SpacingBetweenSlices": 2.0000000084729,
      "SpecificCharacterSet": "ISO_IR 100",
      "StudyID": "1",
      "StudyTime": "100937.215000",
      "TransmitCoilName": "Body",
      "VariableFlipAngleFlag": "N",
      "WindowCenterWidthExplanation": "Algo1",
      "dBdt": 0.0},
    "slices": {}
  },
  "time": {
    "samples": {
      "AcquisitionNumber": [1, 2, 3, 4, 5, 6, 7, 8, 9, 10, 11, 12, 13, 14, 15, 16, 17, 18, 19, 20, 21, 22, 23, 24, 25, 26, 27, 28, 29, 30, 31, 32, 33, 34, 35, 36, 37, 38, 39, 40, 41, 42, 43, 44, 45, 46, 47, 48, 49, 50, 51, 52, 53, 54, 55, 56, 57, 58, 59, 60, 61, 62, 63, 64, 65, 66, 67, 68, 69, 70, 71, 72, 73, 74, 75, 76, 77, 78, 79, 80, 81, 82, 83, 84, 85, 86, 87, 88, 89, 90, 91, 92, 93, 94, 95, 96, 97, 98, 99, 100, 101, 102, 103, 104, 105, 106, 107, 108, 109, 110, 111, 112, 113, 114, 115, 116, 117, 118, 119, 120, 121, 122, 123, 124, 125, 126, 127, 128, 129, 130, 131, 132, 133, 134, 135, 136, 137, 138, 139, 140, 141, 142, 143, 144, 145, 146, 147, 148, 149, 150, 151, 152, 153, 154, 155, 156, 157, 158, 159, 160, 161, 162, 163, 164, 165, 166, 167, 168, 169, 170, 171, 172, 173, 174, 175, 176, 177, 178, 179, 180, 181, 182, 183, 184, 185, 186, 187, 188, 189, 190],
      "AcquisitionTime": ["111000.080000", "111001.570000", "111003.060000", "111004.550000", "111006.040000", "111007.530000", "111009.020000", "111010.510000", "111012.000000", "111013.490000", "111014.980000", "111016.470000", "111017.960000", "111019.450000", "111020.940000", "111022.430000", "111023.920000", "111025.410000", "111026.900000", "111028.390000", "111029.880000", "111031.370000", "111032.860000", "111034.350000", "111035.840000", "111037.330000", "111038.820000", "111040.310000", "111041.800000", "111043.290000", "111044.780000", "111046.270000", "111047.760000", "111049.250000", "111050.740000", "111052.230000", "111053.720000", "111055.210000", "111056.700000", "111058.190000", "111059.680000", "111101.170000", "111102.660000", "111104.150000", "111105.640000", "111107.130000", "111108.620000", "111110.110000", "111111.600000", "111113.090000", "111114.580000", "111116.070000", "111117.560000", "111119.050000", "111120.540000", "111122.030000", "111123.520000", "111125.010000", "111126.500000", "111127.990000", "111129.480000", "111130.970000", "111132.460000", "111133.950000", "111135.440000", "111136.930000", "111138.420000", "111139.910000", "111141.400000", "111142.890000", "111144.380000", "111145.870000", "111147.360000", "111148.850000", "111150.340000", "111151.830000", "111153.320000", "111154.810000", "111156.300000", "111157.790000", "111159.280000", "111200.770000", "111202.260000", "111203.750000", "111205.240000", "111206.730000", "111208.220000", "111209.710000", "111211.200000", "111212.690000", "111214.180000", "111215.670000", "111217.160000", "111218.650000", "111220.140000", "111221.630000", "111223.120000", "111224.610000", "111226.100000", "111227.590000", "111229.080000", "111230.570000", "111232.060000", "111233.550000", "111235.040000", "111236.530000", "111238.020000", "111239.510000", "111241.000000", "111242.490000", "111243.980000", "111245.470000", "111246.960000", "111248.450000", "111249.940000", "111251.430000", "111252.920000", "111254.410000", "111255.900000", "111257.390000", "111258.880000", "111300.370000", "111301.860000", "111303.350000", "111304.840000", "111306.330000", "111307.820000", "111309.310000", "111310.800000", "111312.290000", "111313.780000", "111315.270000", "111316.760000", "111318.250000", "111319.740000", "111321.230000", "111322.720000", "111324.210000", "111325.700000", "111327.190000", "111328.680000", "111330.170000", "111331.660000", "111333.150000", "111334.640000", "111336.130000", "111337.620000", "111339.110000", "111340.600000", "111342.090000", "111343.580000", "111345.070000", "111346.560000", "111348.050000", "111349.540000", "111351.030000", "111352.520000", "111354.010000", "111355.500000", "111356.990000", "111358.480000", "111359.970000", "111401.460000", "111402.950000", "111404.440000", "111405.930000", "111407.420000", "111408.910000", "111410.400000", "111411.890000", "111413.380000", "111414.870000", "111416.360000", "111417.850000", "111419.340000", "111420.830000", "111422.320000", "111423.810000", "111425.300000", "111426.790000", "111428.280000", "111429.770000", "111431.260000", "111432.750000", "111434.240000", "111435.730000", "111437.220000", "111438.710000", "111440.200000", "111441.690000"],
      "ContentTime": ["111125.814000", "111125.817000", "111125.820000", "111125.822000", "111125.825000", "111125.827000", "111125.830000", "111125.832000", "111125.835000", "111125.837000", "111125.840000", "111125.842000", "111125.845000", "111125.847000", "111125.850000", "111125.852000", "111125.855000", "111125.857000", "111125.860000", "111125.862000", "111125.865000", "111125.867000", "111125.870000", "111125.872000", "111125.875000", "111125.877000", "111125.880000", "111125.889000", "111125.892000", "111125.894000", "111125.897000", "111146.113000", "111146.116000", "111146.118000", "111146.121000", "111146.123000", "111146.126000", "111146.128000", "111146.131000", "111146.133000", "111146.136000", "111146.138000", "111146.141000", "111146.143000", "111146.146000", "111146.148000", "111146.151000", "111146.153000", "111146.156000", "111146.158000", "111146.161000", "111205.758000", "111205.760000", "111205.763000", "111205.765000", "111205.768000", "111205.771000", "111205.773000", "111205.776000", "111205.778000", "111205.781000", "111205.783000", "111205.786000", "111205.788000", "111205.791000", "111205.794000", "111205.797000", "111205.799000", "111205.802000", "111205.804000", "111205.807000", "111225.751000", "111225.754000", "111225.757000", "111225.759000", "111225.766000", "111225.768000", "111225.771000", "111225.773000", "111225.776000", "111225.778000", "111225.781000", "111225.783000", "111225.786000", "111225.788000", "111225.791000", "111225.793000", "111225.796000", "111225.798000", "111225.801000", "111225.803000", "111305.806000", "111305.809000", "111305.812000", "111305.814000", "111305.817000", "111305.819000", "111305.822000", "111305.824000", "111305.827000", "111305.829000", "111305.832000", "111305.834000", "111305.837000", "111305.839000", "111305.842000", "111305.844000", "111305.847000", "111305.849000", "111305.852000", "111305.854000", "111305.857000", "111305.860000", "111305.862000", "111305.864000", "111305.867000", "111305.870000", "111305.872000", "111305.875000", "111305.877000", "111305.880000", "111305.882000", "111305.885000", "111305.887000", "111345.774000", "111345.777000", "111345.780000", "111345.783000", "111345.785000", "111345.788000", "111345.790000", "111345.793000", "111345.796000", "111345.798000", "111345.801000", "111345.803000", "111345.806000", "111345.808000", "111345.811000", "111345.813000", "111345.816000", "111345.819000", "111345.821000", "111345.823000", "111345.826000", "111345.829000", "111345.831000", "111345.834000", "111345.836000", "111345.839000", "111405.726000", "111405.729000", "111405.731000", "111405.734000", "111405.736000", "111405.739000", "111405.741000", "111405.744000", "111405.746000", "111405.749000", "111405.751000", "111405.754000", "111405.756000", "111405.759000", "111444.075000", "111444.077000", "111444.080000", "111444.083000", "111444.085000", "111444.095000", "111444.098000", "111444.101000", "111444.103000", "111444.106000", "111444.109000", "111444.112000", "111444.115000", "111444.118000", "111444.120000", "111444.123000", "111444.126000", "111444.129000", "111444.131000", "111444.134000", "111444.137000", "111444.140000", "111444.142000", "111444.145000", "111444.148000", "111444.150000"],
      "InstanceCreationTime": ["111125.814000", "111125.817000", "111125.820000", "111125.822000", "111125.825000", "111125.827000", "111125.830000", "111125.832000", "111125.835000", "111125.837000", "111125.840000", "111125.842000", "111125.845000", "111125.847000", "111125.850000", "111125.852000", "111125.855000", "111125.857000", "111125.860000", "111125.862000", "111125.865000", "111125.867000", "111125.870000", "111125.872000", "111125.875000", "111125.877000", "111125.880000", "111125.889000", "111125.892000", "111125.894000", "111125.897000", "111146.113000", "111146.116000", "111146.118000", "111146.121000", "111146.123000", "111146.126000", "111146.128000", "111146.131000", "111146.133000", "111146.136000", "111146.138000", "111146.141000", "111146.143000", "111146.146000", "111146.148000", "111146.151000", "111146.153000", "111146.156000", "111146.158000", "111146.161000", "111205.758000", "111205.760000", "111205.763000", "111205.765000", "111205.768000", "111205.771000", "111205.773000", "111205.776000", "111205.778000", "111205.781000", "111205.783000", "111205.786000", "111205.788000", "111205.791000", "111205.794000", "111205.797000", "111205.799000", "111205.802000", "111205.804000", "111205.807000", "111225.751000", "111225.754000", "111225.757000", "111225.759000", "111225.766000", "111225.768000", "111225.771000", "111225.773000", "111225.776000", "111225.778000", "111225.781000", "111225.783000", "111225.786000", "111225.788000", "111225.791000", "111225.793000", "111225.796000", "111225.798000", "111225.801000", "111225.803000", "111305.806000", "111305.809000", "111305.812000", "111305.814000", "111305.817000", "111305.819000", "111305.822000", "111305.824000", "111305.827000", "111305.829000", "111305.832000", "111305.834000", "111305.837000", "111305.839000", "111305.842000", "111305.844000", "111305.847000", "111305.849000", "111305.852000", "111305.854000", "111305.857000", "111305.860000", "111305.862000", "111305.864000", "111305.867000", "111305.870000", "111305.872000", "111305.875000", "111305.877000", "111305.880000", "111305.882000", "111305.885000", "111305.887000", "111345.774000", "111345.777000", "111345.780000", "111345.783000", "111345.785000", "111345.788000", "111345.790000", "111345.793000", "111345.796000", "111345.798000", "111345.801000", "111345.803000", "111345.806000", "111345.808000", "111345.811000", "111345.813000", "111345.816000", "111345.819000", "111345.821000", "111345.823000", "111345.826000", "111345.829000", "111345.831000", "111345.834000", "111345.836000", "111345.839000", "111405.726000", "111405.729000", "111405.731000", "111405.734000", "111405.736000", "111405.739000", "111405.741000", "111405.744000", "111405.746000", "111405.749000", "111405.751000", "111405.754000", "111405.756000", "111405.759000", "111444.075000", "111444.077000", "111444.080000", "111444.083000", "111444.085000", "111444.095000", "111444.098000", "111444.101000", "111444.103000", "111444.106000", "111444.109000", "111444.112000", "111444.115000", "111444.118000", "111444.120000", "111444.123000", "111444.126000", "111444.129000", "111444.131000", "111444.134000", "111444.137000", "111444.140000", "111444.142000", "111444.145000", "111444.148000", "111444.150000"],
      "InstanceNumber": [1, 2, 3, 4, 5, 6, 7, 8, 9, 10, 11, 12, 13, 14, 15, 16, 17, 18, 19, 20, 21, 22, 23, 24, 25, 26, 27, 28, 29, 30, 31, 32, 33, 34, 35, 36, 37, 38, 39, 40, 41, 42, 43, 44, 45, 46, 47, 48, 49, 50, 51, 52, 53, 54, 55, 56, 57, 58, 59, 60, 61, 62, 63, 64, 65, 66, 67, 68, 69, 70, 71, 72, 73, 74, 75, 76, 77, 78, 79, 80, 81, 82, 83, 84, 85, 86, 87, 88, 89, 90, 91, 92, 93, 94, 95, 96, 97, 98, 99, 100, 101, 102, 103, 104, 105, 106, 107, 108, 109, 110, 111, 112, 113, 114, 115, 116, 117, 118, 119, 120, 121, 122, 123, 124, 125, 126, 127, 128, 129, 130, 131, 132, 133, 134, 135, 136, 137, 138, 139, 140, 141, 142, 143, 144, 145, 146, 147, 148, 149, 150, 151, 152, 153, 154, 155, 156, 157, 158, 159, 160, 161, 162, 163, 164, 165, 166, 167, 168, 169, 170, 171, 172, 173, 174, 175, 176, 177, 178, 179, 180, 181, 182, 183, 184, 185, 186, 187, 188, 189, 190],
      "WindowCenter": [4882.0, 4886.0, 4884.0, 4884.0, 4908.0, 4920.0, 4900.0, 4884.0, 4886.0, 4862.0, 4880.0, 4928.0, 4922.0, 4908.0, 4884.0, 4880.0, 4856.0, 4860.0, 4882.0, 4908.0, 4924.0, 4918.0, 4902.0, 4906.0, 4880.0, 4884.0, 4906.0, 4884.0, 4884.0, 4908.0, 4906.0, 4888.0, 4884.0, 4882.0, 4908.0, 4908.0, 4908.0, 4904.0, 4902.0, 4904.0, 4882.0, 4886.0, 4886.0, 4884.0, 4906.0, 4884.0, 4906.0, 4926.0, 4882.0, 4906.0, 4886.0, 4886.0, 4908.0, 4884.0, 4856.0, 4910.0, 4884.0, 4884.0, 4886.0, 4886.0, 4908.0, 4924.0, 4928.0, 4886.0, 4928.0, 4906.0, 4884.0, 4886.0, 4858.0, 4882.0, 4908.0, 4906.0, 4910.0, 4926.0, 4908.0, 4886.0, 4908.0, 4886.0, 4860.0, 4886.0, 4884.0, 4880.0, 4906.0, 4910.0, 4908.0, 4906.0, 4886.0, 4880.0, 4908.0, 4882.0, 4884.0, 4910.0, 4886.0, 4906.0, 4910.0, 4886.0, 4888.0, 4884.0, 4910.0, 4884.0, 4928.0, 4908.0, 4884.0, 4930.0, 4908.0, 4858.0, 4884.0, 4882.0, 4884.0, 4918.0, 4908.0, 4926.0, 4884.0, 4834.0, 4858.0, 4862.0, 4886.0, 4888.0, 4926.0, 4912.0, 4924.0, 4910.0, 4886.0, 4860.0, 4858.0, 4860.0, 4860.0, 4886.0, 4924.0, 4908.0, 4906.0, 4926.0, 4890.0, 4886.0, 4886.0, 4862.0, 4888.0, 4886.0, 4886.0, 4910.0, 4928.0, 4890.0, 4910.0, 4910.0, 4882.0, 4908.0, 4886.0, 4860.0, 4908.0, 4932.0, 4910.0, 4882.0, 4860.0, 4884.0, 4926.0, 4926.0, 4884.0, 4886.0, 4908.0, 4862.0, 4886.0, 4912.0, 4884.0, 4910.0, 4910.0, 4908.0, 4908.0, 4930.0, 4886.0, 4886.0, 4910.0, 4886.0, 4884.0, 4886.0, 4886.0, 4906.0, 4926.0, 4906.0, 4886.0, 4910.0, 4884.0, 4906.0, 4908.0, 4890.0, 4886.0, 4926.0, 4924.0, 4888.0, 4884.0, 4884.0],
      "WindowWidth": [18658.0, 18652.0, 18656.0, 18652.0, 18710.0, 18774.0, 18722.0, 18658.0, 18650.0, 18602.0, 18636.0, 18750.0, 18766.0, 18710.0, 18644.0, 18628.0, 18592.0, 18604.0, 18640.0, 18692.0, 18770.0, 18774.0, 18712.0, 18694.0, 18638.0, 18650.0, 18696.0, 18646.0, 18638.0, 18698.0, 18710.0, 18658.0, 18642.0, 18638.0, 18694.0, 18716.0, 18698.0, 18704.0, 18710.0, 18692.0, 18636.0, 18650.0, 18640.0, 18636.0, 18696.0, 18658.0, 18710.0, 18746.0, 18656.0, 18710.0, 18654.0, 18652.0, 18708.0, 18648.0, 18602.0, 18688.0, 18644.0, 18652.0, 18650.0, 18648.0, 18696.0, 18776.0, 18752.0, 18658.0, 18752.0, 18708.0, 18638.0, 18630.0, 18600.0, 18628.0, 18694.0, 18690.0, 18710.0, 18760.0, 18708.0, 18664.0, 18706.0, 18650.0, 18604.0, 18656.0, 18646.0, 18644.0, 18712.0, 18714.0, 18690.0, 18704.0, 18666.0, 18652.0, 18704.0, 18652.0, 18648.0, 18694.0, 18646.0, 18694.0, 18686.0, 18656.0, 18656.0, 18660.0, 18704.0, 18660.0, 18748.0, 18696.0, 18656.0, 18756.0, 18704.0, 18598.0, 18634.0, 18630.0, 18646.0, 18776.0, 18786.0, 18754.0, 18634.0, 18554.0, 18592.0, 18598.0, 18638.0, 18662.0, 18770.0, 18778.0, 18770.0, 18702.0, 18648.0, 18600.0, 18590.0, 18594.0, 18602.0, 18658.0, 18748.0, 18710.0, 18714.0, 18746.0, 18658.0, 18654.0, 18642.0, 18604.0, 18652.0, 18660.0, 18650.0, 18710.0, 18748.0, 18658.0, 18710.0, 18702.0, 18634.0, 18690.0, 18648.0, 18608.0, 18702.0, 18744.0, 18690.0, 18642.0, 18608.0, 18646.0, 18762.0, 18756.0, 18652.0, 18658.0, 18694.0, 18604.0, 18654.0, 18682.0, 18644.0, 18716.0, 18710.0, 18696.0, 18724.0, 18738.0, 18648.0, 18646.0, 18692.0, 18648.0, 18634.0, 18660.0, 18656.0, 18694.0, 18746.0, 18702.0, 18652.0, 18696.0, 18650.0, 18694.0, 18698.0, 18646.0, 18650.0, 18778.0, 18760.0, 18654.0, 18632.0, 18630.0]
    },
    "slices": {}
  }
}