{
  "AcquisitionMatrixPE": 104,
  "AcquisitionNumber": 1,
  "AcquisitionTime": "11:28:14.157500",
  "BandwidthPerPixelPhaseEncode": 17.17,
  "BaseResolution": 104,
  "BodyPartExamined": "BRAIN",
  "CoilString": "HC1-7;NC1_2",
  "ConsistencyInfo": "N4_VE11C_LATEST_20160120",
  "ConversionSoftware": "dcm2niix",
  "ConversionSoftwareVersion": "v1.0.20190902",
  "DerivedVendorReportedEchoSpacing": 0.000560011,
  "DeviceSerialNumber": "167006",
  "DwellTime": 2.1e-06,
  "EchoTime": 0.037,
  "EchoTrainLength": 104,
  "EffectiveEchoSpacing": 0.000560011,
  "FlipAngle": 52,
  "HeudiconvVersion": "0.10.0",
  "ImageComments": "Unaliased_MB4_PE3_LB",
  "ImageOrientationPatientDICOM": [0.998573, 0.00446546, 0.0532112, 0.023184, 0.861419, -0.507365],
  "ImageType": [
    "ORIGINAL",
    "PRIMARY",
    "P",
    "MB",
    "ND",
    "MOSAIC"
],
  "ImagingFrequency": 123.259,
  "InPlanePhaseEncodingDirectionDICOM": "COL",
  "InstitutionAddress": "Chemin_Queen-Mary_4565_Montreal_District_CA_H3W_1W5",
  "InstitutionName": "IUGM",
  "InstitutionalDepartmentName": "Department",
  "MRAcquisitionType": "2D",
  "MagneticFieldStrength": 3,
  "Manufacturer": "Siemens",
  "ManufacturersModelName": "Prisma_fit",
  "Modality": "MR",
  "MultibandAccelerationFactor": 4,
  "PartialFourier": 1,
  "PatientPosition": "HFS",
  "PercentPhaseFOV": 100,
  "PhaseEncodingDirection": "j",
  "PhaseEncodingSteps": 104,
  "PhaseResolution": 1,
  "PixelBandwidth": 2290,
  "ProcedureStepDescription": "memory_things",
  "ProtocolName": "func_task-things_run-6",
  "PulseSequenceDetails": "%CustomerSeq%_cmrr_mbep2d_bold",
  "ReceiveCoilActiveElements": "HC1-7;NC1,2",
  "ReceiveCoilName": "HeadNeck_64",
  "ReconMatrixPE": 104,
  "RepetitionTime": 1.49,
  "SAR": 0.06246,
  "ScanOptions": "FS",
  "ScanningSequence": "EP",
  "SequenceName": "epfid2d1_104",
  "SequenceVariant": "SK_SS",
  "SeriesDescription": "func_task-things_run-6",
  "SeriesNumber": 29,
  "ShimSetting": [625, -7176, -8861, 302, 1, -150, -67, 2],
  "SliceThickness": 2,
  "SliceTiming": [0, 0.785, 0.1, 0.8825, 0.1975, 0.98, 0.295, 1.08, 0.3925, 1.1775, 0.49, 1.275, 0.59, 1.3725, 0.6875, 0, 0.785, 0.1, 0.8825, 0.1975, 0.98, 0.295, 1.08, 0.3925, 1.1775, 0.49, 1.275, 0.59, 1.3725, 0.6875, 0, 0.785, 0.1, 0.8825, 0.1975, 0.98, 0.295, 1.08, 0.3925, 1.1775, 0.49, 1.275, 0.59, 1.3725, 0.6875, 0, 0.785, 0.1, 0.8825, 0.1975, 0.98, 0.295, 1.08, 0.3925, 1.1775, 0.49, 1.275, 0.59, 1.3725, 0.6875],
  "SoftwareVersions": "syngo_MR_E11",
  "SpacingBetweenSlices": 2,
  "StationName": "MRC35049",
  "TaskName": "things",
  "TotalReadoutTime": 0.0576811,
  "TxRefAmp": 300.292,
  "WipMemBlock": "2fd1e3e1-18cf-49d1-8ebc-0c4e16e0aa83||Sequence: R016 ve11c/master r/e634e98; Dec 19 2017 11:00:25 by eja",
  "dcmmeta_affine": [
    [-1.9971466064453125, 0.046367913484573364, 0.09620564430952072, 102.58306121826172],
    [-0.008930910378694534, 1.7228389978408813, -1.0157489776611328, -50.0610237121582],
    [0.10642249882221222, 1.014729380607605, 1.720173954963684, -100.15579223632812],
    [0.0, 0.0, 0.0, 1.0]
],
  "dcmmeta_reorient_transform": [
    [0.0, -1.0, 0.0, 103.0],
    [1.0, 0.0, 0.0, 0.0],
    [0.0, 0.0, 1.0, 0.0],
    [0.0, 0.0, 0.0, 1.0]
],
  "dcmmeta_shape": [104, 104, 60, 190],
  "dcmmeta_slice_dim": 2,
  "dcmmeta_version": 0.6,
  "global": {
    "const": {
      "AcquisitionMatrix": [104, 0, 0, 104],
      "AngioFlag": "N",
      "BitsAllocated": 16,
      "BitsStored": 16,
      "BodyPartExamined": "BRAIN",
      "Columns": 832,
      "EchoNumbers": 1,
      "EchoTime": 37.0,
      "EchoTrainLength": 104,
      "FlipAngle": 52.0,
      "HighBit": 15,
      "ImageOrientationPatient": [0.99857329365234, 0.00446545537433, 0.05321124798972, 0.02318395590168, 0.86141949871279, -0.5073647124369],
      "ImagePositionPatient": [-851.19823471771, -757.75564108393, 334.9850578778],
      "ImageType": [
        "ORIGINAL",
        "PRIMARY",
        "P",
        "MB",
        "ND",
        "MOSAIC"
],
      "ImagedNucleus": "1H",
      "ImagingFrequency": 123.258886,
      "InPlanePhaseEncodingDirection": "COL",
      "LargestImagePixelValue": 4095,
      "MRAcquisitionType": "2D",
      "MagneticFieldStrength": 3.0,
      "Manufacturer": "SIEMENS",
      "ManufacturerModelName": "Prisma_fit",
      "Modality": "MR",
      "NumberOfAverages": 1.0,
      "NumberOfPhaseEncodingSteps": 104,
      "PercentPhaseFieldOfView": 100.0,
      "PercentSampling": 100.0,
      "PerformedProcedureStepStartTime": "100937.374000",
      "PhotometricInterpretation": "MONOCHROME2",
      "PixelBandwidth": 2290.0,
      "PixelRepresentation": 0,
      "PixelSpacing": [2.0, 2.0],
      "ProtocolName": "func_task-things_run-6",
      "RepetitionTime": 1490.0,
      "RescaleIntercept": -4096.0,
      "RescaleSlope": 2.0,
      "RescaleType": "US",
      "Rows": 832,
      "SAR": 0.06246003499309,
      "SamplesPerPixel": 1,
      "ScanOptions": "FS",
      "ScanningSequence": "EP",
      "SequenceName": "epfid2d1_104",
      "SequenceVariant": [
        "SK",
        "SS"
],
      "SeriesDescription": "func_task-things_run-6",
      "SeriesNumber": 29,
      "SeriesTime": "112945.876000",
      "SliceLocation": -55.783443891567,
      "SliceThickness": 2.0,
      "SmallestImagePixelValue": 0,
      "SoftwareVersions": "syngo MR E11",
      "SpacingBetweenSlices": 2.0000000084729,
      "SpecificCharacterSet": "ISO_IR 100",
      "StudyID": "1",
      "StudyTime": "100937.215000",
      "TransmitCoilName": "Body",
      "VariableFlipAngleFlag": "N",
      "WindowCenterWidthExplanation": "Algo1",
      "dBdt": 0.0},
    "slices": {}
  },
  "time": {
    "samples": {
      "AcquisitionNumber": [1, 2, 3, 4, 5, 6, 7, 8, 9, 10, 11, 12, 13, 14, 15, 16, 17, 18, 19, 20, 21, 22, 23, 24, 25, 26, 27, 28, 29, 30, 31, 32, 33, 34, 35, 36, 37, 38, 39, 40, 41, 42, 43, 44, 45, 46, 47, 48, 49, 50, 51, 52, 53, 54, 55, 56, 57, 58, 59, 60, 61, 62, 63, 64, 65, 66, 67, 68, 69, 70, 71, 72, 73, 74, 75, 76, 77, 78, 79, 80, 81, 82, 83, 84, 85, 86, 87, 88, 89, 90, 91, 92, 93, 94, 95, 96, 97, 98, 99, 100, 101, 102, 103, 104, 105, 106, 107, 108, 109, 110, 111, 112, 113, 114, 115, 116, 117, 118, 119, 120, 121, 122, 123, 124, 125, 126, 127, 128, 129, 130, 131, 132, 133, 134, 135, 136, 137, 138, 139, 140, 141, 142, 143, 144, 145, 146, 147, 148, 149, 150, 151, 152, 153, 154, 155, 156, 157, 158, 159, 160, 161, 162, 163, 164, 165, 166, 167, 168, 169, 170, 171, 172, 173, 174, 175, 176, 177, 178, 179, 180, 181, 182, 183, 184, 185, 186, 187, 188, 189, 190],
      "AcquisitionTime": ["112814.157500", "112815.647500", "112817.137500", "112818.627500", "112820.117500", "112821.607500", "112823.097500", "112824.587500", "112826.077500", "112827.567500", "112829.057500", "112830.547500", "112832.037500", "112833.527500", "112835.017500", "112836.507500", "112837.997500", "112839.487500", "112840.977500", "112842.467500", "112843.957500", "112845.447500", "112846.937500", "112848.427500", "112849.917500", "112851.407500", "112852.897500", "112854.387500", "112855.877500", "112857.367500", "112858.857500", "112900.347500", "112901.837500", "112903.327500", "112904.817500", "112906.307500", "112907.797500", "112909.287500", "112910.777500", "112912.267500", "112913.757500", "112915.247500", "112916.737500", "112918.227500", "112919.717500", "112921.207500", "112922.697500", "112924.187500", "112925.677500", "112927.167500", "112928.657500", "112930.147500", "112931.637500", "112933.127500", "112934.617500", "112936.107500", "112937.597500", "112939.087500", "112940.577500", "112942.067500", "112943.557500", "112945.047500", "112946.537500", "112948.027500", "112949.517500", "112951.007500", "112952.497500", "112953.987500", "112955.477500", "112956.967500", "112958.457500", "112959.947500", "113001.437500", "113002.927500", "113004.417500", "113005.907500", "113007.397500", "113008.887500", "113010.377500", "113011.867500", "113013.357500", "113014.847500", "113016.337500", "113017.827500", "113019.317500", "113020.807500", "113022.297500", "113023.787500", "113025.277500", "113026.767500", "113028.257500", "113029.747500", "113031.237500", "113032.727500", "113034.217500", "113035.707500", "113037.197500", "113038.687500", "113040.177500", "113041.667500", "113043.157500", "113044.647500", "113046.137500", "113047.627500", "113049.117500", "113050.607500", "113052.097500", "113053.587500", "113055.077500", "113056.567500", "113058.057500", "113059.547500", "113101.037500", "113102.527500", "113104.017500", "113105.507500", "113106.997500", "113108.487500", "113109.977500", "113111.467500", "113112.957500", "113114.447500", "113115.937500", "113117.427500", "113118.917500", "113120.407500", "113121.897500", "113123.387500", "113124.877500", "113126.367500", "113127.857500", "113129.347500", "113130.837500", "113132.327500", "113133.817500", "113135.307500", "113136.797500", "113138.287500", "113139.777500", "113141.267500", "113142.757500", "113144.247500", "113145.737500", "113147.227500", "113148.717500", "113150.207500", "113151.697500", "113153.187500", "113154.677500", "113156.167500", "113157.657500", "113159.147500", "113200.637500", "113202.127500", "113203.617500", "113205.107500", "113206.597500", "113208.087500", "113209.577500", "113211.067500", "113212.557500", "113214.047500", "113215.537500", "113217.027500", "113218.517500", "113220.007500", "113221.497500", "113222.987500", "113224.477500", "113225.967500", "113227.457500", "113228.947500", "113230.437500", "113231.927500", "113233.417500", "113234.907500", "113236.397500", "113237.887500", "113239.377500", "113240.867500", "113242.357500", "113243.847500", "113245.337500", "113246.827500", "113248.317500", "113249.807500", "113251.297500", "113252.787500", "113254.277500", "113255.767500"],
      "ContentTime": ["112945.879000", "112945.890000", "112945.893000", "112945.895000", "112945.898000", "112945.906000", "112945.909000", "112945.911000", "112945.914000", "112945.916000", "112945.919000", "112945.921000", "112945.924000", "112945.926000", "112945.929000", "112945.931000", "112945.934000", "112945.936000", "112945.939000", "112945.941000", "112945.944000", "112945.946000", "112945.949000", "112945.951000", "112945.954000", "112945.956000", "112945.959000", "112945.961000", "112945.964000", "112945.966000", "112945.969000", "112945.972000", "112945.974000", "112945.977000", "112945.979000", "112945.982000", "112945.984000", "113005.756000", "113005.758000", "113005.761000", "113005.764000", "113005.766000", "113005.768000", "113005.771000", "113005.774000", "113005.776000", "113005.779000", "113005.781000", "113005.784000", "113005.786000", "113005.789000", "113005.791000", "113005.794000", "113005.796000", "113005.799000", "113005.801000", "113005.804000", "113005.806000", "113025.754000", "113025.757000", "113025.760000", "113025.762000", "113025.765000", "113025.767000", "113025.770000", "113025.772000", "113025.775000", "113025.777000", "113025.780000", "113025.782000", "113025.785000", "113025.787000", "113025.790000", "113025.792000", "113025.795000", "113025.797000", "113025.800000", "113025.802000", "113045.748000", "113045.751000", "113045.753000", "113045.756000", "113045.758000", "113045.761000", "113045.763000", "113045.766000", "113045.768000", "113045.771000", "113045.773000", "113045.776000", "113045.778000", "113045.781000", "113045.783000", "113045.786000", "113045.788000", "113045.791000", "113045.794000", "113045.796000", "113125.802000", "113125.805000", "113125.808000", "113125.810000", "113125.813000", "113125.815000", "113125.818000", "113125.820000", "113125.823000", "113125.825000", "113125.828000", "113125.830000", "113125.833000", "113125.835000", "113125.838000", "113125.840000", "113125.843000", "113125.845000", "113125.848000", "113125.850000", "113125.853000", "113125.856000", "113125.858000", "113125.861000", "113125.863000", "113125.866000", "113125.868000", "113125.871000", "113125.873000", "113205.776000", "113205.779000", "113205.781000", "113205.784000", "113205.786000", "113205.789000", "113205.791000", "113205.794000", "113205.796000", "113205.799000", "113205.801000", "113205.804000", "113205.807000", "113205.809000", "113205.812000", "113205.814000", "113205.817000", "113205.819000", "113205.822000", "113205.824000", "113205.827000", "113205.829000", "113205.832000", "113205.834000", "113205.837000", "113205.839000", "113205.842000", "113245.817000", "113245.820000", "113245.823000", "113245.825000", "113245.828000", "113245.830000", "113245.833000", "113245.836000", "113245.838000", "113245.840000", "113245.843000", "113245.846000", "113245.848000", "113245.851000", "113245.853000", "113245.856000", "113245.858000", "113245.861000", "113245.863000", "113245.866000", "113245.868000", "113245.871000", "113245.874000", "113245.876000", "113245.879000", "113245.881000", "113245.884000", "113258.206000", "113258.209000", "113258.219000", "113258.221000", "113258.224000", "113258.226000", "113258.229000", "113258.231000", "113258.234000"],
      "InstanceCreationTime": ["112945.879000", "112945.890000", "112945.893000", "112945.895000", "112945.898000", "112945.906000", "112945.909000", "112945.911000", "112945.914000", "112945.916000", "112945.919000", "112945.921000", "112945.924000", "112945.926000", "112945.929000", "112945.931000", "112945.934000", "112945.936000", "112945.939000", "112945.941000", "112945.944000", "112945.946000", "112945.949000", "112945.951000", "112945.954000", "112945.956000", "112945.959000", "112945.961000", "112945.964000", "112945.966000", "112945.969000", "112945.972000", "112945.974000", "112945.977000", "112945.979000", "112945.982000", "112945.984000", "113005.756000", "113005.758000", "113005.761000", "113005.764000", "113005.766000", "113005.768000", "113005.771000", "113005.774000", "113005.776000", "113005.779000", "113005.781000", "113005.784000", "113005.786000", "113005.789000", "113005.791000", "113005.794000", "113005.796000", "113005.799000", "113005.801000", "113005.804000", "113005.806000", "113025.754000", "113025.757000", "113025.760000", "113025.762000", "113025.765000", "113025.767000", "113025.770000", "113025.772000", "113025.775000", "113025.777000", "113025.780000", "113025.782000", "113025.785000", "113025.787000", "113025.790000", "113025.792000", "113025.795000", "113025.797000", "113025.800000", "113025.802000", "113045.748000", "113045.751000", "113045.753000", "113045.756000", "113045.758000", "113045.761000", "113045.763000", "113045.766000", "113045.768000", "113045.771000", "113045.773000", "113045.776000", "113045.778000", "113045.781000", "113045.783000", "113045.786000", "113045.788000", "113045.791000", "113045.794000", "113045.796000", "113125.802000", "113125.805000", "113125.808000", "113125.810000", "113125.813000", "113125.815000", "113125.818000", "113125.820000", "113125.823000", "113125.825000", "113125.828000", "113125.830000", "113125.833000", "113125.835000", "113125.838000", "113125.840000", "113125.843000", "113125.845000", "113125.848000", "113125.850000", "113125.853000", "113125.856000", "113125.858000", "113125.861000", "113125.863000", "113125.866000", "113125.868000", "113125.871000", "113125.873000", "113205.776000", "113205.779000", "113205.781000", "113205.784000", "113205.786000", "113205.789000", "113205.791000", "113205.794000", "113205.796000", "113205.799000", "113205.801000", "113205.804000", "113205.807000", "113205.809000", "113205.812000", "113205.814000", "113205.817000", "113205.819000", "113205.822000", "113205.824000", "113205.827000", "113205.829000", "113205.832000", "113205.834000", "113205.837000", "113205.839000", "113205.842000", "113245.817000", "113245.820000", "113245.823000", "113245.825000", "113245.828000", "113245.830000", "113245.833000", "113245.836000", "113245.838000", "113245.840000", "113245.843000", "113245.846000", "113245.848000", "113245.851000", "113245.853000", "113245.856000", "113245.858000", "113245.861000", "113245.863000", "113245.866000", "113245.868000", "113245.871000", "113245.874000", "113245.876000", "113245.879000", "113245.881000", "113245.884000", "113258.206000", "113258.209000", "113258.219000", "113258.221000", "113258.224000", "113258.226000", "113258.229000", "113258.231000", "113258.234000"],
      "InstanceNumber": [1, 2, 3, 4, 5, 6, 7, 8, 9, 10, 11, 12, 13, 14, 15, 16, 17, 18, 19, 20, 21, 22, 23, 24, 25, 26, 27, 28, 29, 30, 31, 32, 33, 34, 35, 36, 37, 38, 39, 40, 41, 42, 43, 44, 45, 46, 47, 48, 49, 50, 51, 52, 53, 54, 55, 56, 57, 58, 59, 60, 61, 62, 63, 64, 65, 66, 67, 68, 69, 70, 71, 72, 73, 74, 75, 76, 77, 78, 79, 80, 81, 82, 83, 84, 85, 86, 87, 88, 89, 90, 91, 92, 93, 94, 95, 96, 97, 98, 99, 100, 101, 102, 103, 104, 105, 106, 107, 108, 109, 110, 111, 112, 113, 114, 115, 116, 117, 118, 119, 120, 121, 122, 123, 124, 125, 126, 127, 128, 129, 130, 131, 132, 133, 134, 135, 136, 137, 138, 139, 140, 141, 142, 143, 144, 145, 146, 147, 148, 149, 150, 151, 152, 153, 154, 155, 156, 157, 158, 159, 160, 161, 162, 163, 164, 165, 166, 167, 168, 169, 170, 171, 172, 173, 174, 175, 176, 177, 178, 179, 180, 181, 182, 183, 184, 185, 186, 187, 188, 189, 190],
      "WindowCenter": [4870.0, 4908.0, 4920.0, 4922.0, 4926.0, 4876.0, 4816.0, 4844.0, 4852.0, 4878.0, 4816.0, 4750.0, 4834.0, 4918.0, 4926.0, 4926.0, 4912.0, 4886.0, 4882.0, 4872.0, 4844.0, 4850.0, 4846.0, 4844.0, 4886.0, 4870.0, 4840.0, 4918.0, 4910.0, 4876.0, 4886.0, 4922.0, 4922.0, 4920.0, 4806.0, 4774.0, 4850.0, 4872.0, 4848.0, 4914.0, 4918.0, 4912.0, 4916.0, 4886.0, 4844.0, 4878.0, 4844.0, 4780.0, 4836.0, 4912.0, 4916.0, 4924.0, 4922.0, 4910.0, 4882.0, 4874.0, 4810.0, 4844.0, 4844.0, 4718.0, 4718.0, 4878.0, 4930.0, 4914.0, 4908.0, 4908.0, 4916.0, 4848.0, 4752.0, 4754.0, 4754.0, 4726.0, 4812.0, 4920.0, 4902.0, 4906.0, 4912.0, 4866.0, 4884.0, 4888.0, 4808.0, 4804.0, 4872.0, 4916.0, 4920.0, 4922.0, 4808.0, 4748.0, 4874.0, 4918.0, 4922.0, 4870.0, 4802.0, 4874.0, 4918.0, 4924.0, 4922.0, 4920.0, 4910.0, 4856.0, 4756.0, 4682.0, 4698.0, 4808.0, 4926.0, 4890.0, 4886.0, 4910.0, 4928.0, 4880.0, 4728.0, 4682.0, 4724.0, 4812.0, 4916.0, 4918.0, 4914.0, 4928.0, 4926.0, 4926.0, 4922.0, 4842.0, 4698.0, 4718.0, 4808.0, 4912.0, 4926.0, 4930.0, 4930.0, 4918.0, 4748.0, 4694.0, 4776.0, 4888.0, 4922.0, 4928.0, 4928.0, 4926.0, 4916.0, 4816.0, 4698.0, 4700.0, 4780.0, 4888.0, 4928.0, 4926.0, 4918.0, 4920.0, 4918.0, 4892.0, 4882.0, 4852.0, 4816.0, 4808.0, 4848.0, 4814.0, 4722.0, 4690.0, 4840.0, 4910.0, 4888.0, 4886.0, 4910.0, 4872.0, 4748.0, 4752.0, 4754.0, 4778.0, 4844.0, 4912.0, 4888.0, 4808.0, 4740.0, 4870.0, 4928.0, 4908.0, 4912.0, 4928.0, 4876.0, 4752.0, 4746.0, 4776.0, 4844.0, 4854.0, 4744.0, 4746.0, 4830.0, 4914.0, 4910.0, 4890.0],
      "WindowWidth": [18744.0, 18782.0, 18774.0, 18756.0, 18766.0, 18742.0, 18674.0, 18708.0, 18710.0, 18746.0, 18670.0, 18596.0, 18702.0, 18774.0, 18750.0, 18746.0, 18778.0, 18756.0, 18748.0, 18744.0, 18710.0, 18710.0, 18704.0, 18710.0, 18746.0, 18738.0, 18710.0, 18780.0, 18772.0, 18746.0, 18750.0, 18770.0, 18766.0, 18770.0, 18666.0, 18632.0, 18712.0, 18742.0, 18712.0, 18774.0, 18770.0, 18780.0, 18776.0, 18744.0, 18712.0, 18746.0, 18710.0, 18630.0, 18702.0, 18778.0, 18768.0, 18768.0, 18762.0, 18778.0, 18746.0, 18742.0, 18668.0, 18708.0, 18706.0, 18552.0, 18558.0, 18754.0, 18726.0, 18672.0, 18674.0, 18706.0, 18768.0, 18706.0, 18586.0, 18586.0, 18588.0, 18556.0, 18672.0, 18766.0, 18702.0, 18690.0, 18772.0, 18744.0, 18748.0, 18746.0, 18668.0, 18666.0, 18744.0, 18776.0, 18768.0, 18760.0, 18668.0, 18592.0, 18748.0, 18772.0, 18764.0, 18742.0, 18668.0, 18748.0, 18768.0, 18762.0, 18760.0, 18768.0, 18774.0, 18712.0, 18596.0, 18472.0, 18512.0, 18676.0, 18742.0, 18628.0, 18620.0, 18676.0, 18756.0, 18746.0, 18550.0, 18470.0, 18548.0, 18672.0, 18772.0, 18764.0, 18774.0, 18762.0, 18744.0, 18754.0, 18772.0, 18704.0, 18518.0, 18546.0, 18674.0, 18772.0, 18746.0, 18736.0, 18742.0, 18766.0, 18592.0, 18506.0, 18632.0, 18748.0, 18754.0, 18736.0, 18732.0, 18758.0, 18772.0, 18674.0, 18512.0, 18516.0, 18630.0, 18750.0, 18752.0, 18766.0, 18770.0, 18768.0, 18762.0, 18744.0, 18748.0, 18710.0, 18672.0, 18662.0, 18712.0, 18670.0, 18556.0, 18518.0, 18714.0, 18686.0, 18622.0, 18628.0, 18694.0, 18742.0, 18592.0, 18584.0, 18586.0, 18626.0, 18708.0, 18770.0, 18746.0, 18670.0, 18596.0, 18748.0, 18752.0, 18684.0, 18694.0, 18746.0, 18742.0, 18594.0, 18584.0, 18620.0, 18708.0, 18712.0, 18590.0, 18602.0, 18704.0, 18782.0, 18690.0, 18632.0]
    },
    "slices": {}
  }
}