{
  "AcquisitionMatrixPE": 104,
  "AcquisitionNumber": 1,
  "AcquisitionTime": "18:06:41.520000",
  "BandwidthPerPixelPhaseEncode": 17.17,
  "BaseResolution": 104,
  "BodyPartExamined": "BRAIN",
  "CoilString": "HC1-7;NC1_2",
  "ConsistencyInfo": "N4_VE11C_LATEST_20160120",
  "ConversionSoftware": "dcm2niix",
  "ConversionSoftwareVersion": "v1.0.20190902",
  "DerivedVendorReportedEchoSpacing": 0.000560011,
  "DeviceSerialNumber": "167006",
  "DwellTime": 2.1e-06,
  "EchoTime": 0.037,
  "EchoTrainLength": 104,
  "EffectiveEchoSpacing": 0.000560011,
  "FlipAngle": 52,
  "HeudiconvVersion": "0.10.0",
  "ImageComments": "Unaliased_MB4_PE3_LB",
  "ImageOrientationPatientDICOM": [0.996593, 0.0780396, 0.0267045, -0.0632242, 0.930689, -0.360307],
  "ImageType": [
    "ORIGINAL",
    "PRIMARY",
    "M",
    "MB",
    "ND",
    "MOSAIC"
],
  "ImagingFrequency": 123.259,
  "InPlanePhaseEncodingDirectionDICOM": "COL",
  "InstitutionAddress": "Chemin_Queen-Mary_4565_Montreal_District_CA_H3W_1W5",
  "InstitutionName": "IUGM",
  "InstitutionalDepartmentName": "Department",
  "MRAcquisitionType": "2D",
  "MagneticFieldStrength": 3,
  "Manufacturer": "Siemens",
  "ManufacturersModelName": "Prisma_fit",
  "Modality": "MR",
  "MultibandAccelerationFactor": 4,
  "PartialFourier": 1,
  "PatientPosition": "HFS",
  "PercentPhaseFOV": 100,
  "PhaseEncodingDirection": "j",
  "PhaseEncodingSteps": 104,
  "PhaseResolution": 1,
  "PixelBandwidth": 2290,
  "ProcedureStepDescription": "memory_things",
  "ProtocolName": "func_task-things_run-6",
  "PulseSequenceDetails": "%CustomerSeq%_cmrr_mbep2d_bold",
  "ReceiveCoilActiveElements": "HC1-7;NC1,2",
  "ReceiveCoilName": "HeadNeck_64",
  "ReconMatrixPE": 104,
  "RepetitionTime": 1.49,
  "SAR": 0.0534283,
  "ScanOptions": "FS",
  "ScanningSequence": "EP",
  "SequenceName": "epfid2d1_104",
  "SequenceVariant": "SK_SS",
  "SeriesDescription": "func_task-things_run-6",
  "SeriesNumber": 33,
  "ShimSetting": [633, -7178, -8823, 657, 102, 36, -44, -31],
  "SliceThickness": 2,
  "SliceTiming": [0, 0.785, 0.0975, 0.8825, 0.1975, 0.98, 0.295, 1.0775, 0.3925, 1.1775, 0.49, 1.275, 0.5875, 1.3725, 0.6875, 0, 0.785, 0.0975, 0.8825, 0.1975, 0.98, 0.295, 1.0775, 0.3925, 1.1775, 0.49, 1.275, 0.5875, 1.3725, 0.6875, 0, 0.785, 0.0975, 0.8825, 0.1975, 0.98, 0.295, 1.0775, 0.3925, 1.1775, 0.49, 1.275, 0.5875, 1.3725, 0.6875, 0, 0.785, 0.0975, 0.8825, 0.1975, 0.98, 0.295, 1.0775, 0.3925, 1.1775, 0.49, 1.275, 0.5875, 1.3725, 0.6875],
  "SoftwareVersions": "syngo_MR_E11",
  "SpacingBetweenSlices": 2,
  "StationName": "MRC35049",
  "TaskName": "things",
  "TotalReadoutTime": 0.0576811,
  "TxRefAmp": 277.002,
  "WipMemBlock": "2594bc1b-ac3d-4a20-9bb6-5231a1154e9b||Sequence: R016 ve11c/master r/e634e98; Dec 19 2017 11:00:25 by eja",
  "dcmmeta_affine": [
    [-1.993185043334961, -0.1264483779668808, 0.10594362020492554, 110.2916030883789],
    [-0.1560792177915573, 1.861377239227295, -0.7147825360298157, -50.743282318115234],
    [0.053408972918987274, 0.7206147909164429, 1.8649026155471802, -64.5977554321289],
    [0.0, 0.0, 0.0, 1.0]
],
  "dcmmeta_reorient_transform": [
    [0.0, -1.0, 0.0, 103.0],
    [1.0, 0.0, 0.0, 0.0],
    [0.0, 0.0, 1.0, 0.0],
    [0.0, 0.0, 0.0, 1.0]
],
  "dcmmeta_shape": [104, 104, 60, 190],
  "dcmmeta_slice_dim": 2,
  "dcmmeta_version": 0.6,
  "global": {
    "const": {
      "AcquisitionMatrix": [104, 0, 0, 104],
      "AngioFlag": "N",
      "BitsAllocated": 16,
      "BitsStored": 16,
      "BodyPartExamined": "BRAIN",
      "Columns": 832,
      "EchoNumbers": 1,
      "EchoTime": 37.0,
      "EchoTrainLength": 104,
      "FlipAngle": 52.0,
      "HighBit": 15,
      "ImageOrientationPatient": [0.99659253942577, 0.07803961006104, 0.02670448693433, -0.0632241865261, 0.93068861211664, -0.3603073819873],
      "ImagePositionPatient": [-776.75958065285, -875.33271596536, 252.4884749255],
      "ImageType": [
        "ORIGINAL",
        "PRIMARY",
        "M",
        "MB",
        "ND",
        "MOSAIC"
],
      "ImagedNucleus": "1H",
      "ImagingFrequency": 123.258906,
      "InPlanePhaseEncodingDirection": "COL",
      "MRAcquisitionType": "2D",
      "MagneticFieldStrength": 3.0,
      "Manufacturer": "SIEMENS",
      "ManufacturerModelName": "Prisma_fit",
      "Modality": "MR",
      "NumberOfAverages": 1.0,
      "NumberOfPhaseEncodingSteps": 104,
      "PercentPhaseFieldOfView": 100.0,
      "PercentSampling": 100.0,
      "PerformedProcedureStepStartTime": "165519.441000",
      "PhotometricInterpretation": "MONOCHROME2",
      "PixelBandwidth": 2290.0,
      "PixelRepresentation": 0,
      "PixelSpacing": [2.0, 2.0],
      "ProtocolName": "func_task-things_run-6",
      "RepetitionTime": 1490.0,
      "Rows": 832,
      "SAR": 0.05342828162829,
      "SamplesPerPixel": 1,
      "ScanOptions": "FS",
      "ScanningSequence": "EP",
      "SequenceName": "epfid2d1_104",
      "SequenceVariant": [
        "SK",
        "SS"
],
      "SeriesDescription": "func_task-things_run-6",
      "SeriesNumber": 33,
      "SeriesTime": "180755.256000",
      "SliceLocation": -36.256707399049,
      "SliceThickness": 2.0,
      "SmallestImagePixelValue": 0,
      "SoftwareVersions": "syngo MR E11",
      "SpacingBetweenSlices": 1.9999999791929,
      "SpecificCharacterSet": "ISO_IR 100",
      "StudyID": "1",
      "StudyTime": "165519.362000",
      "TransmitCoilName": "Body",
      "VariableFlipAngleFlag": "N",
      "WindowCenterWidthExplanation": "Algo1",
      "dBdt": 0.0},
    "slices": {}
  },
  "time": {
    "samples": {
      "AcquisitionNumber": [1, 2, 3, 4, 5, 6, 7, 8, 9, 10, 11, 12, 13, 14, 15, 16, 17, 18, 19, 20, 21, 22, 23, 24, 25, 26, 27, 28, 29, 30, 31, 32, 33, 34, 35, 36, 37, 38, 39, 40, 41, 42, 43, 44, 45, 46, 47, 48, 49, 50, 51, 52, 53, 54, 55, 56, 57, 58, 59, 60, 61, 62, 63, 64, 65, 66, 67, 68, 69, 70, 71, 72, 73, 74, 75, 76, 77, 78, 79, 80, 81, 82, 83, 84, 85, 86, 87, 88, 89, 90, 91, 92, 93, 94, 95, 96, 97, 98, 99, 100, 101, 102, 103, 104, 105, 106, 107, 108, 109, 110, 111, 112, 113, 114, 115, 116, 117, 118, 119, 120, 121, 122, 123, 124, 125, 126, 127, 128, 129, 130, 131, 132, 133, 134, 135, 136, 137, 138, 139, 140, 141, 142, 143, 144, 145, 146, 147, 148, 149, 150, 151, 152, 153, 154, 155, 156, 157, 158, 159, 160, 161, 162, 163, 164, 165, 166, 167, 168, 169, 170, 171, 172, 173, 174, 175, 176, 177, 178, 179, 180, 181, 182, 183, 184, 185, 186, 187, 188, 189, 190],
      "AcquisitionTime": ["180641.520000", "180643.010000", "180644.500000", "180645.990000", "180647.480000", "180648.970000", "180650.460000", "180651.950000", "180653.440000", "180654.930000", "180656.420000", "180657.910000", "180659.400000", "180700.890000", "180702.380000", "180703.870000", "180705.360000", "180706.850000", "180708.340000", "180709.830000", "180711.320000", "180712.810000", "180714.300000", "180715.790000", "180717.280000", "180718.770000", "180720.260000", "180721.750000", "180723.240000", "180724.730000", "180726.220000", "180727.710000", "180729.200000", "180730.690000", "180732.180000", "180733.670000", "180735.160000", "180736.650000", "180738.140000", "180739.630000", "180741.120000", "180742.610000", "180744.100000", "180745.590000", "180747.080000", "180748.570000", "180750.060000", "180751.550000", "180753.040000", "180754.530000", "180756.020000", "180757.510000", "180759.000000", "180800.490000", "180801.980000", "180803.470000", "180804.960000", "180806.450000", "180807.940000", "180809.430000", "180810.920000", "180812.410000", "180813.900000", "180815.390000", "180816.880000", "180818.370000", "180819.860000", "180821.350000", "180822.840000", "180824.330000", "180825.820000", "180827.310000", "180828.800000", "180830.290000", "180831.780000", "180833.270000", "180834.760000", "180836.250000", "180837.740000", "180839.230000", "180840.720000", "180842.210000", "180843.700000", "180845.190000", "180846.680000", "180848.170000", "180849.660000", "180851.150000", "180852.640000", "180854.130000", "180855.620000", "180857.110000", "180858.600000", "180900.090000", "180901.580000", "180903.070000", "180904.560000", "180906.050000", "180907.540000", "180909.030000", "180910.520000", "180912.010000", "180913.500000", "180914.990000", "180916.480000", "180917.970000", "180919.460000", "180920.950000", "180922.440000", "180923.930000", "180925.420000", "180926.910000", "180928.400000", "180929.890000", "180931.380000", "180932.870000", "180934.360000", "180935.850000", "180937.340000", "180938.830000", "180940.320000", "180941.810000", "180943.300000", "180944.790000", "180946.280000", "180947.770000", "180949.260000", "180950.750000", "180952.240000", "180953.730000", "180955.220000", "180956.710000", "180958.200000", "180959.690000", "181001.180000", "181002.670000", "181004.160000", "181005.650000", "181007.140000", "181008.630000", "181010.120000", "181011.610000", "181013.100000", "181014.590000", "181016.080000", "181017.570000", "181019.060000", "181020.550000", "181022.040000", "181023.530000", "181025.020000", "181026.510000", "181028.000000", "181029.490000", "181030.980000", "181032.470000", "181033.960000", "181035.450000", "181036.940000", "181038.430000", "181039.920000", "181041.410000", "181042.900000", "181044.390000", "181045.880000", "181047.370000", "181048.860000", "181050.350000", "181051.840000", "181053.330000", "181054.820000", "181056.310000", "181057.800000", "181059.290000", "181100.780000", "181102.270000", "181103.760000", "181105.250000", "181106.740000", "181108.230000", "181109.720000", "181111.210000", "181112.700000", "181114.190000", "181115.680000", "181117.170000", "181118.660000", "181120.150000", "181121.640000", "181123.130000"],
      "ContentTime": ["180755.260000", "180755.264000", "180755.267000", "180755.271000", "180755.274000", "180755.277000", "180755.280000", "180755.284000", "180755.287000", "180755.290000", "180755.294000", "180755.297000", "180755.309000", "180755.313000", "180755.316000", "180755.319000", "180755.323000", "180755.326000", "180755.329000", "180755.332000", "180755.336000", "180815.225000", "180815.229000", "180815.232000", "180815.235000", "180815.238000", "180815.242000", "180815.245000", "180815.248000", "180815.252000", "180815.255000", "180815.258000", "180815.261000", "180815.265000", "180815.268000", "180815.271000", "180815.274000", "180815.278000", "180815.281000", "180815.284000", "180815.288000", "180835.225000", "180835.229000", "180835.232000", "180835.235000", "180835.239000", "180835.242000", "180835.245000", "180835.249000", "180835.252000", "180835.255000", "180835.258000", "180835.262000", "180835.265000", "180835.268000", "180835.271000", "180835.275000", "180835.278000", "180835.281000", "180835.285000", "180835.288000", "180835.291000", "180855.225000", "180855.229000", "180855.232000", "180855.235000", "180855.239000", "180855.242000", "180855.245000", "180855.249000", "180855.252000", "180855.255000", "180855.258000", "180855.262000", "180855.265000", "180855.268000", "180855.272000", "180855.275000", "180855.278000", "180855.282000", "180855.285000", "180855.288000", "180915.225000", "180915.229000", "180915.232000", "180915.235000", "180915.239000", "180915.242000", "180915.245000", "180915.249000", "180915.252000", "180915.255000", "180915.258000", "180915.262000", "180915.265000", "180915.268000", "180915.272000", "180915.275000", "180915.278000", "180915.282000", "180915.285000", "180915.289000", "180955.225000", "180955.229000", "180955.232000", "180955.235000", "180955.239000", "180955.242000", "180955.245000", "180955.249000", "180955.252000", "180955.255000", "180955.259000", "180955.262000", "180955.265000", "180955.269000", "180955.272000", "180955.275000", "180955.278000", "180955.282000", "180955.285000", "180955.301000", "180955.305000", "180955.308000", "180955.311000", "180955.315000", "180955.318000", "180955.321000", "180955.324000", "181035.225000", "181035.229000", "181035.232000", "181035.236000", "181035.239000", "181035.242000", "181035.245000", "181035.249000", "181035.252000", "181035.255000", "181035.259000", "181035.262000", "181035.265000", "181035.269000", "181035.272000", "181035.275000", "181035.279000", "181035.282000", "181035.285000", "181035.289000", "181035.292000", "181035.295000", "181035.298000", "181035.302000", "181035.305000", "181035.308000", "181035.312000", "181115.225000", "181115.229000", "181115.232000", "181115.236000", "181115.239000", "181115.242000", "181115.246000", "181115.249000", "181115.252000", "181115.256000", "181115.259000", "181115.262000", "181115.265000", "181115.269000", "181115.272000", "181115.275000", "181115.279000", "181115.282000", "181115.285000", "181115.289000", "181115.292000", "181115.295000", "181115.298000", "181115.302000", "181115.305000", "181115.308000", "181115.312000", "181125.550000", "181125.554000", "181125.557000", "181125.569000", "181125.573000", "181125.576000", "181125.579000"],
      "InstanceCreationTime": ["180755.260000", "180755.264000", "180755.267000", "180755.271000", "180755.274000", "180755.277000", "180755.280000", "180755.284000", "180755.287000", "180755.290000", "180755.294000", "180755.297000", "180755.309000", "180755.313000", "180755.316000", "180755.319000", "180755.323000", "180755.326000", "180755.329000", "180755.332000", "180755.336000", "180815.225000", "180815.229000", "180815.232000", "180815.235000", "180815.238000", "180815.242000", "180815.245000", "180815.248000", "180815.252000", "180815.255000", "180815.258000", "180815.261000", "180815.265000", "180815.268000", "180815.271000", "180815.274000", "180815.278000", "180815.281000", "180815.284000", "180815.288000", "180835.225000", "180835.229000", "180835.232000", "180835.235000", "180835.239000", "180835.242000", "180835.245000", "180835.249000", "180835.252000", "180835.255000", "180835.258000", "180835.262000", "180835.265000", "180835.268000", "180835.271000", "180835.275000", "180835.278000", "180835.281000", "180835.285000", "180835.288000", "180835.291000", "180855.225000", "180855.229000", "180855.232000", "180855.235000", "180855.239000", "180855.242000", "180855.245000", "180855.249000", "180855.252000", "180855.255000", "180855.258000", "180855.262000", "180855.265000", "180855.268000", "180855.272000", "180855.275000", "180855.278000", "180855.282000", "180855.285000", "180855.288000", "180915.225000", "180915.229000", "180915.232000", "180915.235000", "180915.239000", "180915.242000", "180915.245000", "180915.249000", "180915.252000", "180915.255000", "180915.258000", "180915.262000", "180915.265000", "180915.268000", "180915.272000", "180915.275000", "180915.278000", "180915.282000", "180915.285000", "180915.289000", "180955.225000", "180955.229000", "180955.232000", "180955.235000", "180955.239000", "180955.242000", "180955.245000", "180955.249000", "180955.252000", "180955.255000", "180955.259000", "180955.262000", "180955.265000", "180955.269000", "180955.272000", "180955.275000", "180955.278000", "180955.282000", "180955.285000", "180955.301000", "180955.305000", "180955.308000", "180955.311000", "180955.315000", "180955.318000", "180955.321000", "180955.324000", "181035.225000", "181035.229000", "181035.232000", "181035.236000", "181035.239000", "181035.242000", "181035.245000", "181035.249000", "181035.252000", "181035.255000", "181035.259000", "181035.262000", "181035.265000", "181035.269000", "181035.272000", "181035.275000", "181035.279000", "181035.282000", "181035.285000", "181035.289000", "181035.292000", "181035.295000", "181035.298000", "181035.302000", "181035.305000", "181035.308000", "181035.312000", "181115.225000", "181115.229000", "181115.232000", "181115.236000", "181115.239000", "181115.242000", "181115.246000", "181115.249000", "181115.252000", "181115.256000", "181115.259000", "181115.262000", "181115.265000", "181115.269000", "181115.272000", "181115.275000", "181115.279000", "181115.282000", "181115.285000", "181115.289000", "181115.292000", "181115.295000", "181115.298000", "181115.302000", "181115.305000", "181115.308000", "181115.312000", "181125.550000", "181125.554000", "181125.557000", "181125.569000", "181125.573000", "181125.576000", "181125.579000"],
      "InstanceNumber": [1, 2, 3, 4, 5, 6, 7, 8, 9, 10, 11, 12, 13, 14, 15, 16, 17, 18, 19, 20, 21, 22, 23, 24, 25, 26, 27, 28, 29, 30, 31, 32, 33, 34, 35, 36, 37, 38, 39, 40, 41, 42, 43, 44, 45, 46, 47, 48, 49, 50, 51, 52, 53, 54, 55, 56, 57, 58, 59, 60, 61, 62, 63, 64, 65, 66, 67, 68, 69, 70, 71, 72, 73, 74, 75, 76, 77, 78, 79, 80, 81, 82, 83, 84, 85, 86, 87, 88, 89, 90, 91, 92, 93, 94, 95, 96, 97, 98, 99, 100, 101, 102, 103, 104, 105, 106, 107, 108, 109, 110, 111, 112, 113, 114, 115, 116, 117, 118, 119, 120, 121, 122, 123, 124, 125, 126, 127, 128, 129, 130, 131, 132, 133, 134, 135, 136, 137, 138, 139, 140, 141, 142, 143, 144, 145, 146, 147, 148, 149, 150, 151, 152, 153, 154, 155, 156, 157, 158, 159, 160, 161, 162, 163, 164, 165, 166, 167, 168, 169, 170, 171, 172, 173, 174, 175, 176, 177, 178, 179, 180, 181, 182, 183, 184, 185, 186, 187, 188, 189, 190],
      "LargestImagePixelValue": [42830, 41122, 40869, 40736, 40650, 40589, 40448, 40260, 41531, 40388, 41537, 40966, 41483, 40612, 40543, 40938, 40759, 40560, 40186, 40600, 40933, 41550, 41040, 40651, 40746, 41393, 40689, 41717, 40211, 41079, 40747, 41471, 41540, 41148, 41316, 40638, 40783, 40969, 40589, 40653, 40753, 40073, 39920, 40281, 40248, 40815, 41500, 40891, 41117, 40392, 40792, 40467, 41513, 40868, 40129, 40547, 40716, 41043, 40461, 40610, 40463, 40711, 40586, 40937, 40805, 40823, 41058, 40720, 40427, 40668, 40713, 40542, 40871, 40699, 40770, 41199, 43052, 40841, 41458, 41634, 41945, 41660, 42208, 42411, 42861, 42212, 42722, 42668, 43497, 43451, 43167, 42768, 43310, 43054, 43493, 42715, 42004, 41252, 41027, 41034, 41187, 41357, 41719, 43157, 42998, 43899, 43167, 43233, 43413, 43326, 43516, 43692, 43469, 42802, 42559, 42671, 43162, 43240, 42659, 42799, 42351, 42792, 46995, 42369, 42216, 42649, 42629, 41726, 41915, 41919, 42653, 42472, 42522, 42518, 42722, 42444, 42747, 42898, 42863, 42700, 42901, 42929, 42892, 42473, 42494, 43224, 42601, 43494, 43013, 43080, 42701, 42304, 42507, 42542, 42744, 42406, 42741, 42707, 42614, 42598, 42484, 42658, 42517, 42332, 42709, 43030, 43170, 43116, 43064, 43680, 42990, 42745, 42709, 42497, 42302, 42027, 42396, 42542, 42711, 42142, 42964, 42219, 42729, 42115, 42415, 42013, 42408, 42265, 41839, 44135],
      "WindowCenter": [10480.0, 10416.0, 10415.0, 10424.0, 10449.0, 10429.0, 10394.0, 10373.0, 10372.0, 10367.0, 10379.0, 10383.0, 10406.0, 10395.0, 10407.0, 10414.0, 10409.0, 10392.0, 10381.0, 10394.0, 10399.0, 10398.0, 10401.0, 10412.0, 10433.0, 10449.0, 10429.0, 10416.0, 10385.0, 10386.0, 10370.0, 10368.0, 10367.0, 10381.0, 10418.0, 10444.0, 10449.0, 10443.0, 10419.0, 10380.0, 10348.0, 10327.0, 10327.0, 10352.0, 10375.0, 10389.0, 10394.0, 10398.0, 10401.0, 10378.0, 10372.0, 10376.0, 10409.0, 10409.0, 10408.0, 10422.0, 10423.0, 10411.0, 10378.0, 10371.0, 10379.0, 10395.0, 10421.0, 10426.0, 10402.0, 10392.0, 10391.0, 10400.0, 10428.0, 10440.0, 10421.0, 10404.0, 10398.0, 10392.0, 10399.0, 10419.0, 10446.0, 10430.0, 10420.0, 10390.0, 10376.0, 10376.0, 10409.0, 10434.0, 10462.0, 10457.0, 10445.0, 10420.0, 10412.0, 10420.0, 10431.0, 10448.0, 10469.0, 10461.0, 10440.0, 10410.0, 10393.0, 10387.0, 10423.0, 10436.0, 10427.0, 10411.0, 10408.0, 10432.0, 10431.0, 10430.0, 10414.0, 10399.0, 10386.0, 10386.0, 10417.0, 10450.0, 10455.0, 10431.0, 10408.0, 10399.0, 10409.0, 10411.0, 10431.0, 10441.0, 10428.0, 10416.0, 10441.0, 10374.0, 10387.0, 10401.0, 10398.0, 10395.0, 10411.0, 10411.0, 10413.0, 10406.0, 10413.0, 10421.0, 10429.0, 10415.0, 10415.0, 10423.0, 10435.0, 10442.0, 10448.0, 10427.0, 10412.0, 10391.0, 10396.0, 10430.0, 10442.0, 10457.0, 10444.0, 10447.0, 10449.0, 10451.0, 10434.0, 10425.0, 10413.0, 10414.0, 10443.0, 10452.0, 10442.0, 10432.0, 10431.0, 10425.0, 10422.0, 10431.0, 10442.0, 10447.0, 10447.0, 10451.0, 10468.0, 10467.0, 10436.0, 10405.0, 10389.0, 10395.0, 10404.0, 10418.0, 10419.0, 10408.0, 10406.0, 10400.0, 10409.0, 10411.0, 10424.0, 10423.0, 10432.0, 10421.0, 10415.0, 10416.0, 10421.0, 10467.0],
      "WindowWidth": [22271.0, 22113.0, 22106.0, 22125.0, 22180.0, 22128.0, 22043.0, 21992.0, 21981.0, 21973.0, 21999.0, 22010.0, 22062.0, 22042.0, 22078.0, 22091.0, 22079.0, 22037.0, 22017.0, 22045.0, 22053.0, 22047.0, 22054.0, 22082.0, 22134.0, 22167.0, 22125.0, 22086.0, 22023.0, 22027.0, 21991.0, 21979.0, 21976.0, 22012.0, 22098.0, 22165.0, 22176.0, 22159.0, 22106.0, 22011.0, 21935.0, 21885.0, 21888.0, 21944.0, 21999.0, 22028.0, 22034.0, 22050.0, 22063.0, 22012.0, 21996.0, 22008.0, 22076.0, 22079.0, 22086.0, 22112.0, 22116.0, 22085.0, 22010.0, 21992.0, 22011.0, 22047.0, 22109.0, 22121.0, 22063.0, 22039.0, 22042.0, 22063.0, 22134.0, 22173.0, 22113.0, 22072.0, 22056.0, 22045.0, 22059.0, 22105.0, 22159.0, 22132.0, 22105.0, 22030.0, 21996.0, 21996.0, 22076.0, 22132.0, 22211.0, 22191.0, 22157.0, 22101.0, 22078.0, 22097.0, 22125.0, 22165.0, 22222.0, 22198.0, 22142.0, 22076.0, 22037.0, 22030.0, 22118.0, 22147.0, 22120.0, 22082.0, 22077.0, 22128.0, 22126.0, 22119.0, 22082.0, 22047.0, 22014.0, 22015.0, 22084.0, 22159.0, 22174.0, 22118.0, 22072.0, 22051.0, 22071.0, 22077.0, 22137.0, 22151.0, 22124.0, 22089.0, 22153.0, 21992.0, 22024.0, 22052.0, 22049.0, 22045.0, 22083.0, 22082.0, 22081.0, 22065.0, 22083.0, 22101.0, 22116.0, 22084.0, 22084.0, 22102.0, 22134.0, 22149.0, 22162.0, 22115.0, 22077.0, 22032.0, 22045.0, 22123.0, 22151.0, 22182.0, 22152.0, 22154.0, 22163.0, 22170.0, 22130.0, 22119.0, 22081.0, 22086.0, 22151.0, 22172.0, 22148.0, 22127.0, 22122.0, 22109.0, 22105.0, 22126.0, 22154.0, 22159.0, 22158.0, 22167.0, 22208.0, 22206.0, 22137.0, 22065.0, 22029.0, 22039.0, 22060.0, 22097.0, 22095.0, 22070.0, 22066.0, 22053.0, 22072.0, 22077.0, 22117.0, 22107.0, 22130.0, 22108.0, 22086.0, 22090.0, 22104.0, 22210.0]
    },
    "slices": {}
  }
}