{
  "AcquisitionMatrixPE": 104,
  "AcquisitionNumber": 1,
  "AcquisitionTime": "18:06:41.520000",
  "BandwidthPerPixelPhaseEncode": 17.17,
  "BaseResolution": 104,
  "BodyPartExamined": "BRAIN",
  "CoilString": "HC1-7;NC1_2",
  "ConsistencyInfo": "N4_VE11C_LATEST_20160120",
  "ConversionSoftware": "dcm2niix",
  "ConversionSoftwareVersion": "v1.0.20190902",
  "DerivedVendorReportedEchoSpacing": 0.000560011,
  "DeviceSerialNumber": "167006",
  "DwellTime": 2.1e-06,
  "EchoTime": 0.037,
  "EchoTrainLength": 104,
  "EffectiveEchoSpacing": 0.000560011,
  "FlipAngle": 52,
  "HeudiconvVersion": "0.10.0",
  "ImageComments": "Unaliased_MB4_PE3_LB",
  "ImageOrientationPatientDICOM": [0.996593, 0.0780396, 0.0267045, -0.0632242, 0.930689, -0.360307],
  "ImageType": [
    "ORIGINAL",
    "PRIMARY",
    "P",
    "MB",
    "ND",
    "MOSAIC"
],
  "ImagingFrequency": 123.259,
  "InPlanePhaseEncodingDirectionDICOM": "COL",
  "InstitutionAddress": "Chemin_Queen-Mary_4565_Montreal_District_CA_H3W_1W5",
  "InstitutionName": "IUGM",
  "InstitutionalDepartmentName": "Department",
  "MRAcquisitionType": "2D",
  "MagneticFieldStrength": 3,
  "Manufacturer": "Siemens",
  "ManufacturersModelName": "Prisma_fit",
  "Modality": "MR",
  "MultibandAccelerationFactor": 4,
  "PartialFourier": 1,
  "PatientPosition": "HFS",
  "PercentPhaseFOV": 100,
  "PhaseEncodingDirection": "j",
  "PhaseEncodingSteps": 104,
  "PhaseResolution": 1,
  "PixelBandwidth": 2290,
  "ProcedureStepDescription": "memory_things",
  "ProtocolName": "func_task-things_run-6",
  "PulseSequenceDetails": "%CustomerSeq%_cmrr_mbep2d_bold",
  "ReceiveCoilActiveElements": "HC1-7;NC1,2",
  "ReceiveCoilName": "HeadNeck_64",
  "ReconMatrixPE": 104,
  "RepetitionTime": 1.49,
  "SAR": 0.0534283,
  "ScanOptions": "FS",
  "ScanningSequence": "EP",
  "SequenceName": "epfid2d1_104",
  "SequenceVariant": "SK_SS",
  "SeriesDescription": "func_task-things_run-6",
  "SeriesNumber": 34,
  "ShimSetting": [633, -7178, -8823, 657, 102, 36, -44, -31],
  "SliceThickness": 2,
  "SliceTiming": [0, 0.785, 0.0975, 0.8825, 0.1975, 0.98, 0.295, 1.0775, 0.3925, 1.1775, 0.49, 1.275, 0.5875, 1.3725, 0.6875, 0, 0.785, 0.0975, 0.8825, 0.1975, 0.98, 0.295, 1.0775, 0.3925, 1.1775, 0.49, 1.275, 0.5875, 1.3725, 0.6875, 0, 0.785, 0.0975, 0.8825, 0.1975, 0.98, 0.295, 1.0775, 0.3925, 1.1775, 0.49, 1.275, 0.5875, 1.3725, 0.6875, 0, 0.785, 0.0975, 0.8825, 0.1975, 0.98, 0.295, 1.0775, 0.3925, 1.1775, 0.49, 1.275, 0.5875, 1.3725, 0.6875],
  "SoftwareVersions": "syngo_MR_E11",
  "SpacingBetweenSlices": 2,
  "StationName": "MRC35049",
  "TaskName": "things",
  "TotalReadoutTime": 0.0576811,
  "TxRefAmp": 277.002,
  "WipMemBlock": "2594bc1b-ac3d-4a20-9bb6-5231a1154e9b||Sequence: R016 ve11c/master r/e634e98; Dec 19 2017 11:00:25 by eja",
  "dcmmeta_affine": [
    [-1.993185043334961, -0.1264483779668808, 0.10594362020492554, 110.2916030883789],
    [-0.1560792177915573, 1.861377239227295, -0.7147825360298157, -50.743282318115234],
    [0.053408972918987274, 0.7206147909164429, 1.8649026155471802, -64.5977554321289],
    [0.0, 0.0, 0.0, 1.0]
],
  "dcmmeta_reorient_transform": [
    [0.0, -1.0, 0.0, 103.0],
    [1.0, 0.0, 0.0, 0.0],
    [0.0, 0.0, 1.0, 0.0],
    [0.0, 0.0, 0.0, 1.0]
],
  "dcmmeta_shape": [104, 104, 60, 190],
  "dcmmeta_slice_dim": 2,
  "dcmmeta_version": 0.6,
  "global": {
    "const": {
      "AcquisitionMatrix": [104, 0, 0, 104],
      "AngioFlag": "N",
      "BitsAllocated": 16,
      "BitsStored": 16,
      "BodyPartExamined": "BRAIN",
      "Columns": 832,
      "EchoNumbers": 1,
      "EchoTime": 37.0,
      "EchoTrainLength": 104,
      "FlipAngle": 52.0,
      "HighBit": 15,
      "ImageOrientationPatient": [0.99659253942577, 0.07803961006104, 0.02670448693433, -0.0632241865261, 0.93068861211664, -0.3603073819873],
      "ImagePositionPatient": [-776.75958065285, -875.33271596536, 252.4884749255],
      "ImageType": [
        "ORIGINAL",
        "PRIMARY",
        "P",
        "MB",
        "ND",
        "MOSAIC"
],
      "ImagedNucleus": "1H",
      "ImagingFrequency": 123.258906,
      "InPlanePhaseEncodingDirection": "COL",
      "LargestImagePixelValue": 4095,
      "MRAcquisitionType": "2D",
      "MagneticFieldStrength": 3.0,
      "Manufacturer": "SIEMENS",
      "ManufacturerModelName": "Prisma_fit",
      "Modality": "MR",
      "NumberOfAverages": 1.0,
      "NumberOfPhaseEncodingSteps": 104,
      "PercentPhaseFieldOfView": 100.0,
      "PercentSampling": 100.0,
      "PerformedProcedureStepStartTime": "165519.441000",
      "PhotometricInterpretation": "MONOCHROME2",
      "PixelBandwidth": 2290.0,
      "PixelRepresentation": 0,
      "PixelSpacing": [2.0, 2.0],
      "ProtocolName": "func_task-things_run-6",
      "RepetitionTime": 1490.0,
      "RescaleIntercept": -4096.0,
      "RescaleSlope": 2.0,
      "RescaleType": "US",
      "Rows": 832,
      "SAR": 0.05342828162829,
      "SamplesPerPixel": 1,
      "ScanOptions": "FS",
      "ScanningSequence": "EP",
      "SequenceName": "epfid2d1_104",
      "SequenceVariant": [
        "SK",
        "SS"
],
      "SeriesDescription": "func_task-things_run-6",
      "SeriesNumber": 34,
      "SeriesTime": "180755.367000",
      "SliceLocation": -36.256707399049,
      "SliceThickness": 2.0,
      "SmallestImagePixelValue": 0,
      "SoftwareVersions": "syngo MR E11",
      "SpacingBetweenSlices": 1.9999999791929,
      "SpecificCharacterSet": "ISO_IR 100",
      "StudyID": "1",
      "StudyTime": "165519.362000",
      "TransmitCoilName": "Body",
      "VariableFlipAngleFlag": "N",
      "WindowCenterWidthExplanation": "Algo1",
      "dBdt": 0.0},
    "slices": {}
  },
  "time": {
    "samples": {
      "AcquisitionNumber": [1, 2, 3, 4, 5, 6, 7, 8, 9, 10, 11, 12, 13, 14, 15, 16, 17, 18, 19, 20, 21, 22, 23, 24, 25, 26, 27, 28, 29, 30, 31, 32, 33, 34, 35, 36, 37, 38, 39, 40, 41, 42, 43, 44, 45, 46, 47, 48, 49, 50, 51, 52, 53, 54, 55, 56, 57, 58, 59, 60, 61, 62, 63, 64, 65, 66, 67, 68, 69, 70, 71, 72, 73, 74, 75, 76, 77, 78, 79, 80, 81, 82, 83, 84, 85, 86, 87, 88, 89, 90, 91, 92, 93, 94, 95, 96, 97, 98, 99, 100, 101, 102, 103, 104, 105, 106, 107, 108, 109, 110, 111, 112, 113, 114, 115, 116, 117, 118, 119, 120, 121, 122, 123, 124, 125, 126, 127, 128, 129, 130, 131, 132, 133, 134, 135, 136, 137, 138, 139, 140, 141, 142, 143, 144, 145, 146, 147, 148, 149, 150, 151, 152, 153, 154, 155, 156, 157, 158, 159, 160, 161, 162, 163, 164, 165, 166, 167, 168, 169, 170, 171, 172, 173, 174, 175, 176, 177, 178, 179, 180, 181, 182, 183, 184, 185, 186, 187, 188, 189, 190],
      "AcquisitionTime": ["180641.520000", "180643.010000", "180644.500000", "180645.990000", "180647.480000", "180648.970000", "180650.460000", "180651.950000", "180653.440000", "180654.930000", "180656.420000", "180657.910000", "180659.400000", "180700.890000", "180702.380000", "180703.870000", "180705.360000", "180706.850000", "180708.340000", "180709.830000", "180711.320000", "180712.810000", "180714.300000", "180715.790000", "180717.280000", "180718.770000", "180720.260000", "180721.750000", "180723.240000", "180724.730000", "180726.220000", "180727.710000", "180729.200000", "180730.690000", "180732.180000", "180733.670000", "180735.160000", "180736.650000", "180738.140000", "180739.630000", "180741.120000", "180742.610000", "180744.100000", "180745.590000", "180747.080000", "180748.570000", "180750.060000", "180751.550000", "180753.040000", "180754.530000", "180756.020000", "180757.510000", "180759.000000", "180800.490000", "180801.980000", "180803.470000", "180804.960000", "180806.450000", "180807.940000", "180809.430000", "180810.920000", "180812.410000", "180813.900000", "180815.390000", "180816.880000", "180818.370000", "180819.860000", "180821.350000", "180822.840000", "180824.330000", "180825.820000", "180827.310000", "180828.800000", "180830.290000", "180831.780000", "180833.270000", "180834.760000", "180836.250000", "180837.740000", "180839.230000", "180840.720000", "180842.210000", "180843.700000", "180845.190000", "180846.680000", "180848.170000", "180849.660000", "180851.150000", "180852.640000", "180854.130000", "180855.620000", "180857.110000", "180858.600000", "180900.090000", "180901.580000", "180903.070000", "180904.560000", "180906.050000", "180907.540000", "180909.030000", "180910.520000", "180912.010000", "180913.500000", "180914.990000", "180916.480000", "180917.970000", "180919.460000", "180920.950000", "180922.440000", "180923.930000", "180925.420000", "180926.910000", "180928.400000", "180929.890000", "180931.380000", "180932.870000", "180934.360000", "180935.850000", "180937.340000", "180938.830000", "180940.320000", "180941.810000", "180943.300000", "180944.790000", "180946.280000", "180947.770000", "180949.260000", "180950.750000", "180952.240000", "180953.730000", "180955.220000", "180956.710000", "180958.200000", "180959.690000", "181001.180000", "181002.670000", "181004.160000", "181005.650000", "181007.140000", "181008.630000", "181010.120000", "181011.610000", "181013.100000", "181014.590000", "181016.080000", "181017.570000", "181019.060000", "181020.550000", "181022.040000", "181023.530000", "181025.020000", "181026.510000", "181028.000000", "181029.490000", "181030.980000", "181032.470000", "181033.960000", "181035.450000", "181036.940000", "181038.430000", "181039.920000", "181041.410000", "181042.900000", "181044.390000", "181045.880000", "181047.370000", "181048.860000", "181050.350000", "181051.840000", "181053.330000", "181054.820000", "181056.310000", "181057.800000", "181059.290000", "181100.780000", "181102.270000", "181103.760000", "181105.250000", "181106.740000", "181108.230000", "181109.720000", "181111.210000", "181112.700000", "181114.190000", "181115.680000", "181117.170000", "181118.660000", "181120.150000", "181121.640000", "181123.130000"],
      "ContentTime": ["180755.369000", "180755.372000", "180755.394000", "180755.397000", "180755.399000", "180755.402000", "180755.404000", "180755.407000", "180755.409000", "180755.412000", "180755.414000", "180755.417000", "180755.419000", "180755.422000", "180755.424000", "180755.427000", "180755.429000", "180755.432000", "180755.434000", "180755.436000", "180755.439000", "180815.344000", "180815.347000", "180815.349000", "180815.352000", "180815.354000", "180815.357000", "180815.359000", "180815.362000", "180815.364000", "180815.367000", "180815.369000", "180815.372000", "180815.374000", "180815.377000", "180815.379000", "180815.382000", "180815.384000", "180815.387000", "180815.389000", "180815.392000", "180835.326000", "180835.329000", "180835.331000", "180835.334000", "180835.336000", "180835.339000", "180835.341000", "180835.344000", "180835.346000", "180835.349000", "180835.351000", "180835.354000", "180835.356000", "180835.359000", "180835.361000", "180835.364000", "180835.366000", "180835.369000", "180835.371000", "180835.374000", "180835.376000", "180855.330000", "180855.333000", "180855.336000", "180855.338000", "180855.341000", "180855.343000", "180855.346000", "180855.348000", "180855.351000", "180855.353000", "180855.356000", "180855.358000", "180855.361000", "180855.363000", "180855.366000", "180855.368000", "180855.370000", "180855.373000", "180855.376000", "180855.378000", "180915.324000", "180915.326000", "180915.329000", "180915.331000", "180915.334000", "180915.336000", "180915.339000", "180915.341000", "180915.344000", "180915.346000", "180915.349000", "180915.351000", "180915.354000", "180915.356000", "180915.359000", "180915.361000", "180915.364000", "180915.366000", "180915.369000", "180915.371000", "180955.371000", "180955.374000", "180955.377000", "180955.379000", "180955.382000", "180955.384000", "180955.387000", "180955.389000", "180955.392000", "180955.394000", "180955.397000", "180955.399000", "180955.402000", "180955.404000", "180955.407000", "180955.409000", "180955.412000", "180955.414000", "180955.417000", "180955.419000", "180955.421000", "180955.424000", "180955.426000", "180955.429000", "180955.431000", "180955.434000", "180955.436000", "181035.351000", "181035.354000", "181035.356000", "181035.359000", "181035.361000", "181035.364000", "181035.366000", "181035.369000", "181035.371000", "181035.374000", "181035.376000", "181035.379000", "181035.381000", "181035.384000", "181035.386000", "181035.389000", "181035.391000", "181035.395000", "181035.397000", "181035.400000", "181035.403000", "181035.405000", "181035.408000", "181035.410000", "181035.413000", "181035.415000", "181035.417000", "181115.353000", "181115.355000", "181115.358000", "181115.360000", "181115.363000", "181115.365000", "181115.368000", "181115.371000", "181115.373000", "181115.375000", "181115.378000", "181115.381000", "181115.383000", "181115.385000", "181115.388000", "181115.391000", "181115.393000", "181115.395000", "181115.398000", "181115.401000", "181115.403000", "181115.405000", "181115.408000", "181115.411000", "181115.413000", "181115.415000", "181115.418000", "181125.612000", "181125.615000", "181125.617000", "181125.620000", "181125.631000", "181125.634000", "181125.636000"],
      "InstanceCreationTime": ["180755.369000", "180755.372000", "180755.394000", "180755.397000", "180755.399000", "180755.402000", "180755.404000", "180755.407000", "180755.409000", "180755.412000", "180755.414000", "180755.417000", "180755.419000", "180755.422000", "180755.424000", "180755.427000", "180755.429000", "180755.432000", "180755.434000", "180755.436000", "180755.439000", "180815.344000", "180815.347000", "180815.349000", "180815.352000", "180815.354000", "180815.357000", "180815.359000", "180815.362000", "180815.364000", "180815.367000", "180815.369000", "180815.372000", "180815.374000", "180815.377000", "180815.379000", "180815.382000", "180815.384000", "180815.387000", "180815.389000", "180815.392000", "180835.326000", "180835.329000", "180835.331000", "180835.334000", "180835.336000", "180835.339000", "180835.341000", "180835.344000", "180835.346000", "180835.349000", "180835.351000", "180835.354000", "180835.356000", "180835.359000", "180835.361000", "180835.364000", "180835.366000", "180835.369000", "180835.371000", "180835.374000", "180835.376000", "180855.330000", "180855.333000", "180855.336000", "180855.338000", "180855.341000", "180855.343000", "180855.346000", "180855.348000", "180855.351000", "180855.353000", "180855.356000", "180855.358000", "180855.361000", "180855.363000", "180855.366000", "180855.368000", "180855.370000", "180855.373000", "180855.376000", "180855.378000", "180915.324000", "180915.326000", "180915.329000", "180915.331000", "180915.334000", "180915.336000", "180915.339000", "180915.341000", "180915.344000", "180915.346000", "180915.349000", "180915.351000", "180915.354000", "180915.356000", "180915.359000", "180915.361000", "180915.364000", "180915.366000", "180915.369000", "180915.371000", "180955.371000", "180955.374000", "180955.377000", "180955.379000", "180955.382000", "180955.384000", "180955.387000", "180955.389000", "180955.392000", "180955.394000", "180955.397000", "180955.399000", "180955.402000", "180955.404000", "180955.407000", "180955.409000", "180955.412000", "180955.414000", "180955.417000", "180955.419000", "180955.421000", "180955.424000", "180955.426000", "180955.429000", "180955.431000", "180955.434000", "180955.436000", "181035.351000", "181035.354000", "181035.356000", "181035.359000", "181035.361000", "181035.364000", "181035.366000", "181035.369000", "181035.371000", "181035.374000", "181035.376000", "181035.379000", "181035.381000", "181035.384000", "181035.386000", "181035.389000", "181035.391000", "181035.395000", "181035.397000", "181035.400000", "181035.403000", "181035.405000", "181035.408000", "181035.410000", "181035.413000", "181035.415000", "181035.417000", "181115.353000", "181115.355000", "181115.358000", "181115.360000", "181115.363000", "181115.365000", "181115.368000", "181115.371000", "181115.373000", "181115.375000", "181115.378000", "181115.381000", "181115.383000", "181115.385000", "181115.388000", "181115.391000", "181115.393000", "181115.395000", "181115.398000", "181115.401000", "181115.403000", "181115.405000", "181115.408000", "181115.411000", "181115.413000", "181115.415000", "181115.418000", "181125.612000", "181125.615000", "181125.617000", "181125.620000", "181125.631000", "181125.634000", "181125.636000"],
      "InstanceNumber": [1, 2, 3, 4, 5, 6, 7, 8, 9, 10, 11, 12, 13, 14, 15, 16, 17, 18, 19, 20, 21, 22, 23, 24, 25, 26, 27, 28, 29, 30, 31, 32, 33, 34, 35, 36, 37, 38, 39, 40, 41, 42, 43, 44, 45, 46, 47, 48, 49, 50, 51, 52, 53, 54, 55, 56, 57, 58, 59, 60, 61, 62, 63, 64, 65, 66, 67, 68, 69, 70, 71, 72, 73, 74, 75, 76, 77, 78, 79, 80, 81, 82, 83, 84, 85, 86, 87, 88, 89, 90, 91, 92, 93, 94, 95, 96, 97, 98, 99, 100, 101, 102, 103, 104, 105, 106, 107, 108, 109, 110, 111, 112, 113, 114, 115, 116, 117, 118, 119, 120, 121, 122, 123, 124, 125, 126, 127, 128, 129, 130, 131, 132, 133, 134, 135, 136, 137, 138, 139, 140, 141, 142, 143, 144, 145, 146, 147, 148, 149, 150, 151, 152, 153, 154, 155, 156, 157, 158, 159, 160, 161, 162, 163, 164, 165, 166, 167, 168, 169, 170, 171, 172, 173, 174, 175, 176, 177, 178, 179, 180, 181, 182, 183, 184, 185, 186, 187, 188, 189, 190],
      "WindowCenter": [4828.0, 4854.0, 4852.0, 4854.0, 4850.0, 4824.0, 4820.0, 4798.0, 4824.0, 4826.0, 4856.0, 4854.0, 4856.0, 4854.0, 4856.0, 4852.0, 4852.0, 4850.0, 4828.0, 4824.0, 4822.0, 4824.0, 4854.0, 4852.0, 4854.0, 4854.0, 4876.0, 4874.0, 4852.0, 4828.0, 4822.0, 4818.0, 4824.0, 4854.0, 4874.0, 4842.0, 4840.0, 4846.0, 4852.0, 4820.0, 4792.0, 4818.0, 4824.0, 4854.0, 4856.0, 4876.0, 4870.0, 4872.0, 4854.0, 4826.0, 4794.0, 4818.0, 4822.0, 4850.0, 4852.0, 4852.0, 4880.0, 4856.0, 4854.0, 4828.0, 4830.0, 4852.0, 4830.0, 4850.0, 4830.0, 4854.0, 4878.0, 4852.0, 4856.0, 4852.0, 4854.0, 4854.0, 4852.0, 4850.0, 4852.0, 4846.0, 4852.0, 4850.0, 4830.0, 4826.0, 4826.0, 4852.0, 4856.0, 4876.0, 4852.0, 4854.0, 4852.0, 4854.0, 4828.0, 4830.0, 4856.0, 4852.0, 4856.0, 4854.0, 4854.0, 4850.0, 4858.0, 4848.0, 4854.0, 4830.0, 4854.0, 4874.0, 4846.0, 4844.0, 4846.0, 4850.0, 4824.0, 4822.0, 4820.0, 4850.0, 4878.0, 4870.0, 4876.0, 4852.0, 4826.0, 4826.0, 4826.0, 4852.0, 4828.0, 4850.0, 4856.0, 4856.0, 4854.0, 4856.0, 4856.0, 4878.0, 4854.0, 4854.0, 4850.0, 4826.0, 4852.0, 4848.0, 4852.0, 4850.0, 4852.0, 4856.0, 4854.0, 4850.0, 4854.0, 4852.0, 4854.0, 4852.0, 4852.0, 4852.0, 4850.0, 4850.0, 4850.0, 4854.0, 4856.0, 4856.0, 4852.0, 4852.0, 4830.0, 4828.0, 4852.0, 4854.0, 4850.0, 4854.0, 4854.0, 4852.0, 4854.0, 4854.0, 4852.0, 4852.0, 4854.0, 4848.0, 4854.0, 4878.0, 4874.0, 4852.0, 4828.0, 4822.0, 4820.0, 4828.0, 4852.0, 4856.0, 4852.0, 4852.0, 4854.0, 4854.0, 4854.0, 4850.0, 4828.0, 4828.0, 4826.0, 4850.0, 4852.0, 4852.0, 4856.0, 4856.0],
      "WindowWidth": [18594.0, 18630.0, 18636.0, 18640.0, 18632.0, 18590.0, 18592.0, 18560.0, 18592.0, 18598.0, 18630.0, 18624.0, 18636.0, 18636.0, 18630.0, 18632.0, 18634.0, 18628.0, 18598.0, 18594.0, 18590.0, 18590.0, 18632.0, 18638.0, 18634.0, 18632.0, 18668.0, 18670.0, 18636.0, 18594.0, 18592.0, 18590.0, 18594.0, 18636.0, 18674.0, 18646.0, 18642.0, 18638.0, 18630.0, 18582.0, 18550.0, 18584.0, 18590.0, 18630.0, 18632.0, 18674.0, 18670.0, 18674.0, 18634.0, 18594.0, 18556.0, 18590.0, 18590.0, 18632.0, 18636.0, 18636.0, 18664.0, 18630.0, 18632.0, 18596.0, 18596.0, 18628.0, 18598.0, 18628.0, 18598.0, 18630.0, 18666.0, 18634.0, 18630.0, 18626.0, 18634.0, 18632.0, 18634.0, 18632.0, 18642.0, 18638.0, 18636.0, 18630.0, 18594.0, 18594.0, 18594.0, 18630.0, 18644.0, 18674.0, 18636.0, 18634.0, 18632.0, 18624.0, 18592.0, 18594.0, 18632.0, 18634.0, 18632.0, 18626.0, 18632.0, 18632.0, 18638.0, 18624.0, 18624.0, 18600.0, 18632.0, 18676.0, 18646.0, 18646.0, 18644.0, 18628.0, 18588.0, 18588.0, 18586.0, 18628.0, 18676.0, 18674.0, 18674.0, 18632.0, 18596.0, 18592.0, 18596.0, 18634.0, 18596.0, 18628.0, 18638.0, 18638.0, 18636.0, 18636.0, 18634.0, 18668.0, 18636.0, 18634.0, 18630.0, 18596.0, 18630.0, 18628.0, 18636.0, 18634.0, 18632.0, 18634.0, 18634.0, 18636.0, 18636.0, 18634.0, 18628.0, 18626.0, 18632.0, 18636.0, 18630.0, 18628.0, 18626.0, 18636.0, 18636.0, 18640.0, 18630.0, 18630.0, 18600.0, 18598.0, 18634.0, 18628.0, 18626.0, 18630.0, 18636.0, 18630.0, 18630.0, 18636.0, 18632.0, 18626.0, 18632.0, 18630.0, 18636.0, 18672.0, 18670.0, 18636.0, 18600.0, 18594.0, 18590.0, 18600.0, 18630.0, 18636.0, 18634.0, 18636.0, 18632.0, 18638.0, 18630.0, 18628.0, 18598.0, 18598.0, 18602.0, 18628.0, 18632.0, 18634.0, 18638.0, 18632.0]
    },
    "slices": {}
  }
}