{
  "AcquisitionMatrixPE": 104,
  "AcquisitionNumber": 1,
  "AcquisitionTime": "17:39:0.945000",
  "BandwidthPerPixelPhaseEncode": 17.17,
  "BaseResolution": 104,
  "BodyPartExamined": "BRAIN",
  "CoilString": "HC1-7;NC1_2",
  "ConsistencyInfo": "N4_VE11C_LATEST_20160120",
  "ConversionSoftware": "dcm2niix",
  "ConversionSoftwareVersion": "v1.0.20190902",
  "DerivedVendorReportedEchoSpacing": 0.000560011,
  "DeviceSerialNumber": "167006",
  "DwellTime": 2.1e-06,
  "EchoTime": 0.037,
  "EchoTrainLength": 104,
  "EffectiveEchoSpacing": 0.000560011,
  "FlipAngle": 52,
  "HeudiconvVersion": "0.10.0",
  "ImageComments": "Unaliased_MB4_PE3_LB",
  "ImageOrientationPatientDICOM": [0.997211, 0.0669838, 0.032908, -0.0513891, 0.936054, -0.348082],
  "ImageType": [
    "ORIGINAL",
    "PRIMARY",
    "M",
    "MB",
    "ND",
    "MOSAIC"
],
  "ImagingFrequency": 123.259,
  "InPlanePhaseEncodingDirectionDICOM": "COL",
  "InstitutionAddress": "Chemin_Queen-Mary_4565_Montreal_District_CA_H3W_1W5",
  "InstitutionName": "IUGM",
  "InstitutionalDepartmentName": "Department",
  "MRAcquisitionType": "2D",
  "MagneticFieldStrength": 3,
  "Manufacturer": "Siemens",
  "ManufacturersModelName": "Prisma_fit",
  "Modality": "MR",
  "MultibandAccelerationFactor": 4,
  "PartialFourier": 1,
  "PatientPosition": "HFS",
  "PercentPhaseFOV": 100,
  "PhaseEncodingDirection": "j",
  "PhaseEncodingSteps": 104,
  "PhaseResolution": 1,
  "PixelBandwidth": 2290,
  "ProcedureStepDescription": "memory_things",
  "ProtocolName": "func_task-things_run-3",
  "PulseSequenceDetails": "%CustomerSeq%_cmrr_mbep2d_bold",
  "ReceiveCoilActiveElements": "HC1-7;NC1,2",
  "ReceiveCoilName": "HeadNeck_64",
  "ReconMatrixPE": 104,
  "RepetitionTime": 1.49,
  "SAR": 0.0414716,
  "ScanOptions": "FS",
  "ScanningSequence": "EP",
  "SequenceName": "epfid2d1_104",
  "SequenceVariant": "SK_SS",
  "SeriesDescription": "func_task-things_run-3",
  "SeriesNumber": 16,
  "ShimSetting": [634, -7166, -8828, 665, 103, 82, -60, -15],
  "SliceThickness": 2,
  "SliceTiming": [0, 0.785, 0.0975, 0.8825, 0.195, 0.98, 0.295, 1.0775, 0.3925, 1.175, 0.49, 1.275, 0.5875, 1.3725, 0.685, 0, 0.785, 0.0975, 0.8825, 0.195, 0.98, 0.295, 1.0775, 0.3925, 1.175, 0.49, 1.275, 0.5875, 1.3725, 0.685, 0, 0.785, 0.0975, 0.8825, 0.195, 0.98, 0.295, 1.0775, 0.3925, 1.175, 0.49, 1.275, 0.5875, 1.3725, 0.685, 0, 0.785, 0.0975, 0.8825, 0.195, 0.98, 0.295, 1.0775, 0.3925, 1.175, 0.49, 1.275, 0.5875, 1.3725, 0.685],
  "SoftwareVersions": "syngo_MR_E11",
  "SpacingBetweenSlices": 2,
  "StationName": "MRC35049",
  "TaskName": "things",
  "TotalReadoutTime": 0.0576811,
  "TxRefAmp": 250.86,
  "WipMemBlock": "47da99ce-7afd-4a11-b160-3f22be78ce69||Sequence: R016 ve11c/master r/e634e98; Dec 19 2017 11:00:25 by eja",
  "dcmmeta_affine": [
    [-1.994422435760498, -0.10277814418077469, 0.10823911428451538, 109.20347595214844],
    [-0.1339675486087799, 1.8721089363098145, -0.6908407807350159, -53.15510177612305],
    [0.06581603735685349, 0.6961644291877747, 1.8737725019454956, -66.0955810546875],
    [0.0, 0.0, 0.0, 1.0]
],
  "dcmmeta_reorient_transform": [
    [0.0, -1.0, 0.0, 103.0],
    [1.0, 0.0, 0.0, 0.0],
    [0.0, 0.0, 1.0, 0.0],
    [0.0, 0.0, 0.0, 1.0]
],
  "dcmmeta_shape": [104, 104, 60, 190],
  "dcmmeta_slice_dim": 2,
  "dcmmeta_version": 0.6,
  "global": {
    "const": {
      "AcquisitionMatrix": [104, 0, 0, 104],
      "AngioFlag": "N",
      "BitsAllocated": 16,
      "BitsStored": 16,
      "BodyPartExamined": "BRAIN",
      "Columns": 832,
      "EchoNumbers": 1,
      "EchoTime": 37.0,
      "EchoTrainLength": 104,
      "FlipAngle": 52.0,
      "HighBit": 15,
      "ImageOrientationPatient": [0.99721122981739, 0.06698377077467, 0.03290801693967, -0.0513890733038, 0.93605444852055, -0.348082220962],
      "ImagePositionPatient": [-787.1758542173, -869.88393859034, 235.05617744694],
      "ImageType": [
        "ORIGINAL",
        "PRIMARY",
        "M",
        "MB",
        "ND",
        "MOSAIC"
],
      "ImagedNucleus": "1H",
      "ImagingFrequency": 123.258899,
      "InPlanePhaseEncodingDirection": "COL",
      "MRAcquisitionType": "2D",
      "MagneticFieldStrength": 3.0,
      "Manufacturer": "SIEMENS",
      "ManufacturerModelName": "Prisma_fit",
      "Modality": "MR",
      "NumberOfAverages": 1.0,
      "NumberOfPhaseEncodingSteps": 104,
      "PercentPhaseFieldOfView": 100.0,
      "PercentSampling": 100.0,
      "PerformedProcedureStepStartTime": "165519.441000",
      "PhotometricInterpretation": "MONOCHROME2",
      "PixelBandwidth": 2290.0,
      "PixelRepresentation": 0,
      "PixelSpacing": [2.0, 2.0],
      "ProtocolName": "func_task-things_run-3",
      "RepetitionTime": 1490.0,
      "Rows": 832,
      "SAR": 0.04147159760208,
      "SamplesPerPixel": 1,
      "ScanOptions": "FS",
      "ScanningSequence": "EP",
      "SequenceName": "epfid2d1_104",
      "SequenceVariant": [
        "SK",
        "SS"
],
      "SeriesDescription": "func_task-things_run-3",
      "SeriesNumber": 16,
      "SeriesTime": "174023.873000",
      "SliceLocation": -37.653140956368,
      "SliceThickness": 2.0,
      "SmallestImagePixelValue": 0,
      "SoftwareVersions": "syngo MR E11",
      "SpacingBetweenSlices": 2.0000000480788,
      "SpecificCharacterSet": "ISO_IR 100",
      "StudyID": "1",
      "StudyTime": "165519.362000",
      "TransmitCoilName": "Body",
      "VariableFlipAngleFlag": "N",
      "WindowCenterWidthExplanation": "Algo1",
      "dBdt": 0.0},
    "slices": {}
  },
  "time": {
    "samples": {
      "AcquisitionNumber": [1, 2, 3, 4, 5, 6, 7, 8, 9, 10, 11, 12, 13, 14, 15, 16, 17, 18, 19, 20, 21, 22, 23, 24, 25, 26, 27, 28, 29, 30, 31, 32, 33, 34, 35, 36, 37, 38, 39, 40, 41, 42, 43, 44, 45, 46, 47, 48, 49, 50, 51, 52, 53, 54, 55, 56, 57, 58, 59, 60, 61, 62, 63, 64, 65, 66, 67, 68, 69, 70, 71, 72, 73, 74, 75, 76, 77, 78, 79, 80, 81, 82, 83, 84, 85, 86, 87, 88, 89, 90, 91, 92, 93, 94, 95, 96, 97, 98, 99, 100, 101, 102, 103, 104, 105, 106, 107, 108, 109, 110, 111, 112, 113, 114, 115, 116, 117, 118, 119, 120, 121, 122, 123, 124, 125, 126, 127, 128, 129, 130, 131, 132, 133, 134, 135, 136, 137, 138, 139, 140, 141, 142, 143, 144, 145, 146, 147, 148, 149, 150, 151, 152, 153, 154, 155, 156, 157, 158, 159, 160, 161, 162, 163, 164, 165, 166, 167, 168, 169, 170, 171, 172, 173, 174, 175, 176, 177, 178, 179, 180, 181, 182, 183, 184, 185, 186, 187, 188, 189, 190],
      "AcquisitionTime": ["173900.945000", "173902.435000", "173903.925000", "173905.415000", "173906.905000", "173908.395000", "173909.885000", "173911.375000", "173912.865000", "173914.355000", "173915.845000", "173917.335000", "173918.825000", "173920.315000", "173921.805000", "173923.295000", "173924.785000", "173926.275000", "173927.765000", "173929.255000", "173930.745000", "173932.235000", "173933.725000", "173935.215000", "173936.705000", "173938.195000", "173939.685000", "173941.175000", "173942.665000", "173944.155000", "173945.645000", "173947.135000", "173948.625000", "173950.115000", "173951.605000", "173953.095000", "173954.585000", "173956.075000", "173957.565000", "173959.055000", "174000.545000", "174002.035000", "174003.525000", "174005.015000", "174006.505000", "174007.995000", "174009.485000", "174010.975000", "174012.465000", "174013.955000", "174015.445000", "174016.935000", "174018.425000", "174019.915000", "174021.405000", "174022.895000", "174024.385000", "174025.875000", "174027.365000", "174028.855000", "174030.345000", "174031.835000", "174033.325000", "174034.815000", "174036.305000", "174037.795000", "174039.285000", "174040.775000", "174042.265000", "174043.755000", "174045.245000", "174046.735000", "174048.225000", "174049.715000", "174051.205000", "174052.695000", "174054.185000", "174055.675000", "174057.165000", "174058.655000", "174100.145000", "174101.635000", "174103.125000", "174104.615000", "174106.105000", "174107.595000", "174109.085000", "174110.575000", "174112.065000", "174113.555000", "174115.045000", "174116.535000", "174118.025000", "174119.515000", "174121.005000", "174122.495000", "174123.985000", "174125.475000", "174126.965000", "174128.455000", "174129.945000", "174131.435000", "174132.925000", "174134.415000", "174135.905000", "174137.395000", "174138.885000", "174140.375000", "174141.865000", "174143.355000", "174144.845000", "174146.335000", "174147.825000", "174149.315000", "174150.805000", "174152.295000", "174153.785000", "174155.275000", "174156.765000", "174158.255000", "174159.745000", "174201.235000", "174202.725000", "174204.215000", "174205.705000", "174207.195000", "174208.685000", "174210.175000", "174211.665000", "174213.155000", "174214.645000", "174216.135000", "174217.625000", "174219.115000", "174220.605000", "174222.095000", "174223.585000", "174225.075000", "174226.565000", "174228.055000", "174229.545000", "174231.035000", "174232.525000", "174234.015000", "174235.505000", "174236.995000", "174238.485000", "174239.975000", "174241.465000", "174242.955000", "174244.445000", "174245.935000", "174247.425000", "174248.915000", "174250.405000", "174251.895000", "174253.385000", "174254.875000", "174256.365000", "174257.855000", "174259.345000", "174300.835000", "174302.325000", "174303.815000", "174305.305000", "174306.795000", "174308.285000", "174309.775000", "174311.265000", "174312.755000", "174314.245000", "174315.735000", "174317.225000", "174318.715000", "174320.205000", "174321.695000", "174323.185000", "174324.675000", "174326.165000", "174327.655000", "174329.145000", "174330.635000", "174332.125000", "174333.615000", "174335.105000", "174336.595000", "174338.085000", "174339.575000", "174341.065000", "174342.555000"],
      "ContentTime": ["174023.876000", "174023.880000", "174023.884000", "174023.887000", "174023.890000", "174023.894000", "174023.897000", "174023.900000", "174023.903000", "174023.907000", "174023.910000", "174023.913000", "174023.917000", "174023.920000", "174023.923000", "174023.926000", "174023.930000", "174023.933000", "174023.936000", "174023.939000", "174023.943000", "174023.951000", "174023.955000", "174023.958000", "174023.961000", "174023.965000", "174023.968000", "174043.842000", "174043.846000", "174043.849000", "174043.852000", "174043.855000", "174043.859000", "174043.862000", "174043.865000", "174043.869000", "174043.872000", "174043.875000", "174043.879000", "174043.882000", "174043.885000", "174043.888000", "174043.892000", "174043.895000", "174043.902000", "174043.906000", "174043.909000", "174043.912000", "174103.842000", "174103.846000", "174103.849000", "174103.852000", "174103.870000", "174103.873000", "174103.877000", "174103.880000", "174103.890000", "174103.893000", "174103.896000", "174103.900000", "174103.903000", "174103.906000", "174103.910000", "174103.913000", "174103.916000", "174103.919000", "174103.923000", "174103.926000", "174123.843000", "174123.847000", "174123.850000", "174123.853000", "174123.857000", "174123.860000", "174123.863000", "174123.866000", "174123.870000", "174123.873000", "174123.876000", "174123.880000", "174123.883000", "174123.886000", "174123.889000", "174123.893000", "174123.896000", "174123.899000", "174123.903000", "174123.915000", "174143.843000", "174143.847000", "174143.850000", "174143.853000", "174143.857000", "174143.860000", "174143.863000", "174143.867000", "174143.870000", "174143.873000", "174143.876000", "174143.880000", "174143.883000", "174143.886000", "174143.890000", "174143.893000", "174143.896000", "174143.899000", "174143.903000", "174143.906000", "174223.842000", "174223.846000", "174223.849000", "174223.853000", "174223.856000", "174223.859000", "174223.862000", "174223.866000", "174223.869000", "174223.872000", "174223.876000", "174223.879000", "174223.882000", "174223.886000", "174223.889000", "174223.892000", "174223.896000", "174223.899000", "174223.902000", "174223.905000", "174223.909000", "174223.912000", "174223.915000", "174223.919000", "174223.922000", "174223.925000", "174223.928000", "174303.842000", "174303.846000", "174303.849000", "174303.852000", "174303.856000", "174303.859000", "174303.862000", "174303.866000", "174303.869000", "174303.872000", "174303.876000", "174303.879000", "174303.882000", "174303.885000", "174303.889000", "174303.892000", "174303.895000", "174303.899000", "174303.902000", "174303.916000", "174303.920000", "174303.923000", "174303.926000", "174303.930000", "174303.933000", "174303.936000", "174303.939000", "174343.843000", "174343.847000", "174343.850000", "174343.853000", "174343.857000", "174343.860000", "174343.863000", "174343.867000", "174343.870000", "174343.873000", "174343.876000", "174343.880000", "174343.883000", "174343.886000", "174343.889000", "174343.893000", "174343.896000", "174343.900000", "174343.903000", "174343.906000", "174343.910000", "174343.913000", "174343.916000", "174343.920000", "174343.923000", "174343.926000", "174343.929000", "174344.936000"],
      "InstanceCreationTime": ["174023.876000", "174023.880000", "174023.884000", "174023.887000", "174023.890000", "174023.894000", "174023.897000", "174023.900000", "174023.903000", "174023.907000", "174023.910000", "174023.913000", "174023.917000", "174023.920000", "174023.923000", "174023.926000", "174023.930000", "174023.933000", "174023.936000", "174023.939000", "174023.943000", "174023.951000", "174023.955000", "174023.958000", "174023.961000", "174023.965000", "174023.968000", "174043.842000", "174043.846000", "174043.849000", "174043.852000", "174043.855000", "174043.859000", "174043.862000", "174043.865000", "174043.869000", "174043.872000", "174043.875000", "174043.879000", "174043.882000", "174043.885000", "174043.888000", "174043.892000", "174043.895000", "174043.902000", "174043.906000", "174043.909000", "174043.912000", "174103.842000", "174103.846000", "174103.849000", "174103.852000", "174103.870000", "174103.873000", "174103.877000", "174103.880000", "174103.890000", "174103.893000", "174103.896000", "174103.900000", "174103.903000", "174103.906000", "174103.910000", "174103.913000", "174103.916000", "174103.919000", "174103.923000", "174103.926000", "174123.843000", "174123.847000", "174123.850000", "174123.853000", "174123.857000", "174123.860000", "174123.863000", "174123.866000", "174123.870000", "174123.873000", "174123.876000", "174123.880000", "174123.883000", "174123.886000", "174123.889000", "174123.893000", "174123.896000", "174123.899000", "174123.903000", "174123.915000", "174143.843000", "174143.847000", "174143.850000", "174143.853000", "174143.857000", "174143.860000", "174143.863000", "174143.867000", "174143.870000", "174143.873000", "174143.876000", "174143.880000", "174143.883000", "174143.886000", "174143.890000", "174143.893000", "174143.896000", "174143.899000", "174143.903000", "174143.906000", "174223.842000", "174223.846000", "174223.849000", "174223.853000", "174223.856000", "174223.859000", "174223.862000", "174223.866000", "174223.869000", "174223.872000", "174223.876000", "174223.879000", "174223.882000", "174223.886000", "174223.889000", "174223.892000", "174223.896000", "174223.899000", "174223.902000", "174223.905000", "174223.909000", "174223.912000", "174223.915000", "174223.919000", "174223.922000", "174223.925000", "174223.928000", "174303.842000", "174303.846000", "174303.849000", "174303.852000", "174303.856000", "174303.859000", "174303.862000", "174303.866000", "174303.869000", "174303.872000", "174303.876000", "174303.879000", "174303.882000", "174303.885000", "174303.889000", "174303.892000", "174303.895000", "174303.899000", "174303.902000", "174303.916000", "174303.920000", "174303.923000", "174303.926000", "174303.930000", "174303.933000", "174303.936000", "174303.939000", "174343.843000", "174343.847000", "174343.850000", "174343.853000", "174343.857000", "174343.860000", "174343.863000", "174343.867000", "174343.870000", "174343.873000", "174343.876000", "174343.880000", "174343.883000", "174343.886000", "174343.889000", "174343.893000", "174343.896000", "174343.900000", "174343.903000", "174343.906000", "174343.910000", "174343.913000", "174343.916000", "174343.920000", "174343.923000", "174343.926000", "174343.929000", "174344.936000"],
      "InstanceNumber": [1, 2, 3, 4, 5, 6, 7, 8, 9, 10, 11, 12, 13, 14, 15, 16, 17, 18, 19, 20, 21, 22, 23, 24, 25, 26, 27, 28, 29, 30, 31, 32, 33, 34, 35, 36, 37, 38, 39, 40, 41, 42, 43, 44, 45, 46, 47, 48, 49, 50, 51, 52, 53, 54, 55, 56, 57, 58, 59, 60, 61, 62, 63, 64, 65, 66, 67, 68, 69, 70, 71, 72, 73, 74, 75, 76, 77, 78, 79, 80, 81, 82, 83, 84, 85, 86, 87, 88, 89, 90, 91, 92, 93, 94, 95, 96, 97, 98, 99, 100, 101, 102, 103, 104, 105, 106, 107, 108, 109, 110, 111, 112, 113, 114, 115, 116, 117, 118, 119, 120, 121, 122, 123, 124, 125, 126, 127, 128, 129, 130, 131, 132, 133, 134, 135, 136, 137, 138, 139, 140, 141, 142, 143, 144, 145, 146, 147, 148, 149, 150, 151, 152, 153, 154, 155, 156, 157, 158, 159, 160, 161, 162, 163, 164, 165, 166, 167, 168, 169, 170, 171, 172, 173, 174, 175, 176, 177, 178, 179, 180, 181, 182, 183, 184, 185, 186, 187, 188, 189, 190],
      "LargestImagePixelValue": [43428, 42123, 42781, 42474, 42247, 41449, 40505, 41831, 41468, 41671, 41006, 42003, 42138, 41561, 40509, 40122, 41681, 42856, 41929, 41936, 41892, 42019, 42811, 43194, 41868, 41968, 42362, 42659, 42399, 42318, 42066, 41162, 42142, 42723, 42046, 41884, 41159, 41412, 41486, 42136, 42020, 42485, 41913, 42301, 41213, 41222, 40518, 41062, 41016, 41544, 41685, 42751, 42136, 41664, 41337, 41793, 41283, 41380, 41075, 40617, 41992, 41030, 40951, 40723, 40611, 41521, 40527, 39956, 40789, 40303, 40848, 39659, 40114, 39895, 40088, 40436, 41477, 40662, 40000, 40858, 40254, 40307, 40432, 39973, 40087, 40499, 40224, 40250, 39990, 39672, 40476, 42353, 40376, 40398, 40680, 40581, 39805, 39963, 39939, 40037, 40721, 40018, 40487, 40966, 39948, 40033, 40420, 39740, 40010, 40006, 39528, 40111, 40433, 40433, 40002, 40336, 40199, 40207, 40030, 39724, 39712, 39995, 40459, 39370, 39620, 40066, 39784, 40351, 40111, 40892, 40651, 40860, 41127, 40395, 40446, 40100, 40193, 40374, 40034, 40030, 40026, 40195, 40754, 39693, 40424, 40206, 41433, 40212, 41033, 39890, 40391, 40511, 41155, 39983, 40472, 40266, 40390, 39986, 40222, 40175, 40355, 40084, 40152, 40251, 40693, 40066, 40598, 40374, 41239, 40263, 40288, 40343, 40800, 41082, 41440, 40648, 41095, 40723, 41719, 40925, 40119, 40522, 40887, 41520, 41153, 40806, 41479, 40729, 41583, 40867],
      "WindowCenter": [10523.0, 10488.0, 10498.0, 10482.0, 10455.0, 10435.0, 10451.0, 10482.0, 10468.0, 10440.0, 10438.0, 10448.0, 10447.0, 10435.0, 10449.0, 10466.0, 10473.0, 10457.0, 10427.0, 10416.0, 10441.0, 10450.0, 10445.0, 10425.0, 10410.0, 10414.0, 10429.0, 10420.0, 10411.0, 10411.0, 10413.0, 10444.0, 10449.0, 10445.0, 10425.0, 10429.0, 10433.0, 10463.0, 10471.0, 10461.0, 10435.0, 10421.0, 10424.0, 10438.0, 10434.0, 10429.0, 10423.0, 10448.0, 10459.0, 10448.0, 10421.0, 10418.0, 10409.0, 10406.0, 10425.0, 10453.0, 10446.0, 10423.0, 10406.0, 10420.0, 10425.0, 10404.0, 10395.0, 10412.0, 10433.0, 10446.0, 10435.0, 10418.0, 10437.0, 10439.0, 10426.0, 10389.0, 10389.0, 10408.0, 10429.0, 10461.0, 10467.0, 10431.0, 10406.0, 10405.0, 10398.0, 10434.0, 10452.0, 10441.0, 10427.0, 10420.0, 10411.0, 10411.0, 10403.0, 10395.0, 10416.0, 10472.0, 10467.0, 10453.0, 10420.0, 10393.0, 10363.0, 10373.0, 10416.0, 10423.0, 10427.0, 10413.0, 10415.0, 10422.0, 10422.0, 10408.0, 10403.0, 10397.0, 10422.0, 10432.0, 10419.0, 10415.0, 10428.0, 10453.0, 10435.0, 10420.0, 10401.0, 10400.0, 10435.0, 10442.0, 10424.0, 10426.0, 10432.0, 10417.0, 10408.0, 10417.0, 10432.0, 10436.0, 10414.0, 10422.0, 10424.0, 10430.0, 10431.0, 10427.0, 10446.0, 10422.0, 10401.0, 10383.0, 10371.0, 10400.0, 10430.0, 10431.0, 10438.0, 10415.0, 10402.0, 10390.0, 10416.0, 10434.0, 10444.0, 10408.0, 10393.0, 10406.0, 10426.0, 10404.0, 10398.0, 10398.0, 10408.0, 10409.0, 10409.0, 10425.0, 10436.0, 10414.0, 10408.0, 10417.0, 10426.0, 10419.0, 10435.0, 10429.0, 10430.0, 10417.0, 10437.0, 10451.0, 10438.0, 10416.0, 10401.0, 10397.0, 10433.0, 10442.0, 10431.0, 10413.0, 10402.0, 10415.0, 10413.0, 10404.0, 10388.0, 10387.0, 10427.0, 10419.0, 10422.0, 10405.0],
      "WindowWidth": [22384.0, 22287.0, 22298.0, 22255.0, 22185.0, 22137.0, 22182.0, 22252.0, 22216.0, 22149.0, 22144.0, 22161.0, 22159.0, 22137.0, 22173.0, 22221.0, 22227.0, 22183.0, 22116.0, 22090.0, 22153.0, 22174.0, 22153.0, 22101.0, 22070.0, 22087.0, 22120.0, 22099.0, 22078.0, 22078.0, 22087.0, 22162.0, 22170.0, 22156.0, 22111.0, 22118.0, 22133.0, 22209.0, 22223.0, 22195.0, 22135.0, 22100.0, 22112.0, 22143.0, 22135.0, 22126.0, 22111.0, 22174.0, 22203.0, 22170.0, 22105.0, 22091.0, 22072.0, 22069.0, 22117.0, 22184.0, 22163.0, 22108.0, 22072.0, 22106.0, 22113.0, 22066.0, 22046.0, 22092.0, 22141.0, 22168.0, 22144.0, 22113.0, 22155.0, 22164.0, 22128.0, 22042.0, 22037.0, 22083.0, 22134.0, 22204.0, 22214.0, 22135.0, 22079.0, 22072.0, 22061.0, 22150.0, 22191.0, 22165.0, 22133.0, 22108.0, 22090.0, 22092.0, 22072.0, 22053.0, 22100.0, 22222.0, 22222.0, 22189.0, 22106.0, 22044.0, 21981.0, 22002.0, 22101.0, 22120.0, 22123.0, 22096.0, 22095.0, 22114.0, 22118.0, 22089.0, 22073.0, 22060.0, 22121.0, 22142.0, 22114.0, 22101.0, 22130.0, 22189.0, 22150.0, 22110.0, 22063.0, 22065.0, 22149.0, 22166.0, 22122.0, 22124.0, 22143.0, 22112.0, 22087.0, 22104.0, 22145.0, 22147.0, 22097.0, 22111.0, 22118.0, 22129.0, 22130.0, 22125.0, 22171.0, 22114.0, 22063.0, 22020.0, 21997.0, 22068.0, 22142.0, 22139.0, 22155.0, 22099.0, 22067.0, 22038.0, 22095.0, 22148.0, 22166.0, 22084.0, 22047.0, 22075.0, 22117.0, 22074.0, 22055.0, 22057.0, 22084.0, 22086.0, 22084.0, 22122.0, 22148.0, 22098.0, 22082.0, 22105.0, 22125.0, 22112.0, 22150.0, 22133.0, 22128.0, 22096.0, 22149.0, 22184.0, 22148.0, 22094.0, 22055.0, 22054.0, 22141.0, 22173.0, 22129.0, 22083.0, 22063.0, 22096.0, 22087.0, 22066.0, 22031.0, 22032.0, 22122.0, 22111.0, 22109.0, 22068.0]
    },
    "slices": {}
  }
}