{
  "AcquisitionMatrixPE": 104,
  "AcquisitionNumber": 1,
  "AcquisitionTime": "17:39:0.945000",
  "BandwidthPerPixelPhaseEncode": 17.17,
  "BaseResolution": 104,
  "BodyPartExamined": "BRAIN",
  "CoilString": "HC1-7;NC1_2",
  "ConsistencyInfo": "N4_VE11C_LATEST_20160120",
  "ConversionSoftware": "dcm2niix",
  "ConversionSoftwareVersion": "v1.0.20190902",
  "DerivedVendorReportedEchoSpacing": 0.000560011,
  "DeviceSerialNumber": "167006",
  "DwellTime": 2.1e-06,
  "EchoTime": 0.037,
  "EchoTrainLength": 104,
  "EffectiveEchoSpacing": 0.000560011,
  "FlipAngle": 52,
  "HeudiconvVersion": "0.10.0",
  "ImageComments": "Unaliased_MB4_PE3_LB",
  "ImageOrientationPatientDICOM": [0.997211, 0.0669838, 0.032908, -0.0513891, 0.936054, -0.348082],
  "ImageType": [
    "ORIGINAL",
    "PRIMARY",
    "P",
    "MB",
    "ND",
    "MOSAIC"
],
  "ImagingFrequency": 123.259,
  "InPlanePhaseEncodingDirectionDICOM": "COL",
  "InstitutionAddress": "Chemin_Queen-Mary_4565_Montreal_District_CA_H3W_1W5",
  "InstitutionName": "IUGM",
  "InstitutionalDepartmentName": "Department",
  "MRAcquisitionType": "2D",
  "MagneticFieldStrength": 3,
  "Manufacturer": "Siemens",
  "ManufacturersModelName": "Prisma_fit",
  "Modality": "MR",
  "MultibandAccelerationFactor": 4,
  "PartialFourier": 1,
  "PatientPosition": "HFS",
  "PercentPhaseFOV": 100,
  "PhaseEncodingDirection": "j",
  "PhaseEncodingSteps": 104,
  "PhaseResolution": 1,
  "PixelBandwidth": 2290,
  "ProcedureStepDescription": "memory_things",
  "ProtocolName": "func_task-things_run-3",
  "PulseSequenceDetails": "%CustomerSeq%_cmrr_mbep2d_bold",
  "ReceiveCoilActiveElements": "HC1-7;NC1,2",
  "ReceiveCoilName": "HeadNeck_64",
  "ReconMatrixPE": 104,
  "RepetitionTime": 1.49,
  "SAR": 0.0414716,
  "ScanOptions": "FS",
  "ScanningSequence": "EP",
  "SequenceName": "epfid2d1_104",
  "SequenceVariant": "SK_SS",
  "SeriesDescription": "func_task-things_run-3",
  "SeriesNumber": 17,
  "ShimSetting": [634, -7166, -8828, 665, 103, 82, -60, -15],
  "SliceThickness": 2,
  "SliceTiming": [0, 0.785, 0.0975, 0.8825, 0.195, 0.98, 0.295, 1.0775, 0.3925, 1.175, 0.49, 1.275, 0.5875, 1.3725, 0.685, 0, 0.785, 0.0975, 0.8825, 0.195, 0.98, 0.295, 1.0775, 0.3925, 1.175, 0.49, 1.275, 0.5875, 1.3725, 0.685, 0, 0.785, 0.0975, 0.8825, 0.195, 0.98, 0.295, 1.0775, 0.3925, 1.175, 0.49, 1.275, 0.5875, 1.3725, 0.685, 0, 0.785, 0.0975, 0.8825, 0.195, 0.98, 0.295, 1.0775, 0.3925, 1.175, 0.49, 1.275, 0.5875, 1.3725, 0.685],
  "SoftwareVersions": "syngo_MR_E11",
  "SpacingBetweenSlices": 2,
  "StationName": "MRC35049",
  "TaskName": "things",
  "TotalReadoutTime": 0.0576811,
  "TxRefAmp": 250.86,
  "WipMemBlock": "47da99ce-7afd-4a11-b160-3f22be78ce69||Sequence: R016 ve11c/master r/e634e98; Dec 19 2017 11:00:25 by eja",
  "dcmmeta_affine": [
    [-1.994422435760498, -0.10277814418077469, 0.10823911428451538, 109.20347595214844],
    [-0.1339675486087799, 1.8721089363098145, -0.6908407807350159, -53.15510177612305],
    [0.06581603735685349, 0.6961644291877747, 1.8737725019454956, -66.0955810546875],
    [0.0, 0.0, 0.0, 1.0]
],
  "dcmmeta_reorient_transform": [
    [0.0, -1.0, 0.0, 103.0],
    [1.0, 0.0, 0.0, 0.0],
    [0.0, 0.0, 1.0, 0.0],
    [0.0, 0.0, 0.0, 1.0]
],
  "dcmmeta_shape": [104, 104, 60, 190],
  "dcmmeta_slice_dim": 2,
  "dcmmeta_version": 0.6,
  "global": {
    "const": {
      "AcquisitionMatrix": [104, 0, 0, 104],
      "AngioFlag": "N",
      "BitsAllocated": 16,
      "BitsStored": 16,
      "BodyPartExamined": "BRAIN",
      "Columns": 832,
      "EchoNumbers": 1,
      "EchoTime": 37.0,
      "EchoTrainLength": 104,
      "FlipAngle": 52.0,
      "HighBit": 15,
      "ImageOrientationPatient": [0.99721122981739, 0.06698377077467, 0.03290801693967, -0.0513890733038, 0.93605444852055, -0.348082220962],
      "ImagePositionPatient": [-787.1758542173, -869.88393859034, 235.05617744694],
      "ImageType": [
        "ORIGINAL",
        "PRIMARY",
        "P",
        "MB",
        "ND",
        "MOSAIC"
],
      "ImagedNucleus": "1H",
      "ImagingFrequency": 123.258899,
      "InPlanePhaseEncodingDirection": "COL",
      "LargestImagePixelValue": 4095,
      "MRAcquisitionType": "2D",
      "MagneticFieldStrength": 3.0,
      "Manufacturer": "SIEMENS",
      "ManufacturerModelName": "Prisma_fit",
      "Modality": "MR",
      "NumberOfAverages": 1.0,
      "NumberOfPhaseEncodingSteps": 104,
      "PercentPhaseFieldOfView": 100.0,
      "PercentSampling": 100.0,
      "PerformedProcedureStepStartTime": "165519.441000",
      "PhotometricInterpretation": "MONOCHROME2",
      "PixelBandwidth": 2290.0,
      "PixelRepresentation": 0,
      "PixelSpacing": [2.0, 2.0],
      "ProtocolName": "func_task-things_run-3",
      "RepetitionTime": 1490.0,
      "RescaleIntercept": -4096.0,
      "RescaleSlope": 2.0,
      "RescaleType": "US",
      "Rows": 832,
      "SAR": 0.04147159760208,
      "SamplesPerPixel": 1,
      "ScanOptions": "FS",
      "ScanningSequence": "EP",
      "SequenceName": "epfid2d1_104",
      "SequenceVariant": [
        "SK",
        "SS"
],
      "SeriesDescription": "func_task-things_run-3",
      "SeriesNumber": 17,
      "SeriesTime": "174024.021000",
      "SliceLocation": -37.653140956368,
      "SliceThickness": 2.0,
      "SmallestImagePixelValue": 0,
      "SoftwareVersions": "syngo MR E11",
      "SpacingBetweenSlices": 2.0000000480788,
      "SpecificCharacterSet": "ISO_IR 100",
      "StudyID": "1",
      "StudyTime": "165519.362000",
      "TransmitCoilName": "Body",
      "VariableFlipAngleFlag": "N",
      "WindowCenterWidthExplanation": "Algo1",
      "dBdt": 0.0},
    "slices": {}
  },
  "time": {
    "samples": {
      "AcquisitionNumber": [1, 2, 3, 4, 5, 6, 7, 8, 9, 10, 11, 12, 13, 14, 15, 16, 17, 18, 19, 20, 21, 22, 23, 24, 25, 26, 27, 28, 29, 30, 31, 32, 33, 34, 35, 36, 37, 38, 39, 40, 41, 42, 43, 44, 45, 46, 47, 48, 49, 50, 51, 52, 53, 54, 55, 56, 57, 58, 59, 60, 61, 62, 63, 64, 65, 66, 67, 68, 69, 70, 71, 72, 73, 74, 75, 76, 77, 78, 79, 80, 81, 82, 83, 84, 85, 86, 87, 88, 89, 90, 91, 92, 93, 94, 95, 96, 97, 98, 99, 100, 101, 102, 103, 104, 105, 106, 107, 108, 109, 110, 111, 112, 113, 114, 115, 116, 117, 118, 119, 120, 121, 122, 123, 124, 125, 126, 127, 128, 129, 130, 131, 132, 133, 134, 135, 136, 137, 138, 139, 140, 141, 142, 143, 144, 145, 146, 147, 148, 149, 150, 151, 152, 153, 154, 155, 156, 157, 158, 159, 160, 161, 162, 163, 164, 165, 166, 167, 168, 169, 170, 171, 172, 173, 174, 175, 176, 177, 178, 179, 180, 181, 182, 183, 184, 185, 186, 187, 188, 189, 190],
      "AcquisitionTime": ["173900.945000", "173902.435000", "173903.925000", "173905.415000", "173906.905000", "173908.395000", "173909.885000", "173911.375000", "173912.865000", "173914.355000", "173915.845000", "173917.335000", "173918.825000", "173920.315000", "173921.805000", "173923.295000", "173924.785000", "173926.275000", "173927.765000", "173929.255000", "173930.745000", "173932.235000", "173933.725000", "173935.215000", "173936.705000", "173938.195000", "173939.685000", "173941.175000", "173942.665000", "173944.155000", "173945.645000", "173947.135000", "173948.625000", "173950.115000", "173951.605000", "173953.095000", "173954.585000", "173956.075000", "173957.565000", "173959.055000", "174000.545000", "174002.035000", "174003.525000", "174005.015000", "174006.505000", "174007.995000", "174009.485000", "174010.975000", "174012.465000", "174013.955000", "174015.445000", "174016.935000", "174018.425000", "174019.915000", "174021.405000", "174022.895000", "174024.385000", "174025.875000", "174027.365000", "174028.855000", "174030.345000", "174031.835000", "174033.325000", "174034.815000", "174036.305000", "174037.795000", "174039.285000", "174040.775000", "174042.265000", "174043.755000", "174045.245000", "174046.735000", "174048.225000", "174049.715000", "174051.205000", "174052.695000", "174054.185000", "174055.675000", "174057.165000", "174058.655000", "174100.145000", "174101.635000", "174103.125000", "174104.615000", "174106.105000", "174107.595000", "174109.085000", "174110.575000", "174112.065000", "174113.555000", "174115.045000", "174116.535000", "174118.025000", "174119.515000", "174121.005000", "174122.495000", "174123.985000", "174125.475000", "174126.965000", "174128.455000", "174129.945000", "174131.435000", "174132.925000", "174134.415000", "174135.905000", "174137.395000", "174138.885000", "174140.375000", "174141.865000", "174143.355000", "174144.845000", "174146.335000", "174147.825000", "174149.315000", "174150.805000", "174152.295000", "174153.785000", "174155.275000", "174156.765000", "174158.255000", "174159.745000", "174201.235000", "174202.725000", "174204.215000", "174205.705000", "174207.195000", "174208.685000", "174210.175000", "174211.665000", "174213.155000", "174214.645000", "174216.135000", "174217.625000", "174219.115000", "174220.605000", "174222.095000", "174223.585000", "174225.075000", "174226.565000", "174228.055000", "174229.545000", "174231.035000", "174232.525000", "174234.015000", "174235.505000", "174236.995000", "174238.485000", "174239.975000", "174241.465000", "174242.955000", "174244.445000", "174245.935000", "174247.425000", "174248.915000", "174250.405000", "174251.895000", "174253.385000", "174254.875000", "174256.365000", "174257.855000", "174259.345000", "174300.835000", "174302.325000", "174303.815000", "174305.305000", "174306.795000", "174308.285000", "174309.775000", "174311.265000", "174312.755000", "174314.245000", "174315.735000", "174317.225000", "174318.715000", "174320.205000", "174321.695000", "174323.185000", "174324.675000", "174326.165000", "174327.655000", "174329.145000", "174330.635000", "174332.125000", "174333.615000", "174335.105000", "174336.595000", "174338.085000", "174339.575000", "174341.065000", "174342.555000"],
      "ContentTime": ["174024.023000", "174024.025000", "174024.028000", "174024.030000", "174024.033000", "174024.035000", "174024.038000", "174024.040000", "174024.043000", "174024.045000", "174024.048000", "174024.050000", "174024.053000", "174024.055000", "174024.058000", "174024.060000", "174024.063000", "174024.065000", "174024.074000", "174024.077000", "174024.079000", "174024.082000", "174024.084000", "174024.087000", "174024.089000", "174024.092000", "174024.094000", "174044.242000", "174044.245000", "174044.247000", "174044.250000", "174044.252000", "174044.255000", "174044.257000", "174044.260000", "174044.262000", "174044.265000", "174044.267000", "174044.270000", "174044.272000", "174044.275000", "174044.277000", "174044.280000", "174044.282000", "174044.285000", "174044.287000", "174044.289000", "174044.292000", "174103.967000", "174103.970000", "174103.972000", "174103.975000", "174103.977000", "174103.980000", "174103.982000", "174103.985000", "174103.987000", "174103.990000", "174103.992000", "174103.995000", "174103.997000", "174104.001000", "174104.003000", "174104.006000", "174104.008000", "174104.011000", "174104.013000", "174104.016000", "174123.961000", "174123.964000", "174123.966000", "174123.969000", "174123.971000", "174123.974000", "174123.976000", "174123.979000", "174123.981000", "174123.984000", "174123.987000", "174123.990000", "174123.993000", "174123.995000", "174123.998000", "174124.001000", "174124.004000", "174124.006000", "174124.009000", "174124.011000", "174143.949000", "174143.951000", "174143.954000", "174143.957000", "174143.959000", "174143.962000", "174143.964000", "174143.967000", "174143.969000", "174143.978000", "174143.980000", "174143.983000", "174143.986000", "174143.988000", "174143.990000", "174143.993000", "174143.995000", "174143.998000", "174144.001000", "174144.004000", "174223.973000", "174223.976000", "174223.979000", "174223.981000", "174223.984000", "174223.986000", "174223.989000", "174223.991000", "174223.994000", "174223.996000", "174224.000000", "174224.002000", "174224.005000", "174224.007000", "174224.009000", "174224.012000", "174224.015000", "174224.017000", "174224.020000", "174224.022000", "174224.025000", "174224.027000", "174224.029000", "174224.032000", "174224.034000", "174224.037000", "174224.039000", "174303.998000", "174304.002000", "174304.004000", "174304.007000", "174304.009000", "174304.012000", "174304.014000", "174304.017000", "174304.019000", "174304.022000", "174304.024000", "174304.027000", "174304.029000", "174304.032000", "174304.034000", "174304.037000", "174304.039000", "174304.042000", "174304.044000", "174304.047000", "174304.049000", "174304.052000", "174304.054000", "174304.057000", "174304.059000", "174304.062000", "174304.064000", "174343.984000", "174343.986000", "174343.989000", "174343.991000", "174343.994000", "174343.996000", "174344.000000", "174344.002000", "174344.005000", "174344.007000", "174344.010000", "174344.012000", "174344.015000", "174344.018000", "174344.020000", "174344.022000", "174344.025000", "174344.027000", "174344.030000", "174344.032000", "174344.035000", "174344.037000", "174344.040000", "174344.042000", "174344.045000", "174344.047000", "174344.050000", "174344.977000"],
      "InstanceCreationTime": ["174024.023000", "174024.025000", "174024.028000", "174024.030000", "174024.033000", "174024.035000", "174024.038000", "174024.040000", "174024.043000", "174024.045000", "174024.048000", "174024.050000", "174024.053000", "174024.055000", "174024.058000", "174024.060000", "174024.063000", "174024.065000", "174024.074000", "174024.077000", "174024.079000", "174024.082000", "174024.084000", "174024.087000", "174024.089000", "174024.092000", "174024.094000", "174044.242000", "174044.245000", "174044.247000", "174044.250000", "174044.252000", "174044.255000", "174044.257000", "174044.260000", "174044.262000", "174044.265000", "174044.267000", "174044.270000", "174044.272000", "174044.275000", "174044.277000", "174044.280000", "174044.282000", "174044.285000", "174044.287000", "174044.289000", "174044.292000", "174103.967000", "174103.970000", "174103.972000", "174103.975000", "174103.977000", "174103.980000", "174103.982000", "174103.985000", "174103.987000", "174103.990000", "174103.992000", "174103.995000", "174103.997000", "174104.001000", "174104.003000", "174104.006000", "174104.008000", "174104.011000", "174104.013000", "174104.016000", "174123.961000", "174123.964000", "174123.966000", "174123.969000", "174123.971000", "174123.974000", "174123.976000", "174123.979000", "174123.981000", "174123.984000", "174123.987000", "174123.990000", "174123.993000", "174123.995000", "174123.998000", "174124.001000", "174124.004000", "174124.006000", "174124.009000", "174124.011000", "174143.949000", "174143.951000", "174143.954000", "174143.957000", "174143.959000", "174143.962000", "174143.964000", "174143.967000", "174143.969000", "174143.978000", "174143.980000", "174143.983000", "174143.986000", "174143.988000", "174143.990000", "174143.993000", "174143.995000", "174143.998000", "174144.001000", "174144.004000", "174223.973000", "174223.976000", "174223.979000", "174223.981000", "174223.984000", "174223.986000", "174223.989000", "174223.991000", "174223.994000", "174223.996000", "174224.000000", "174224.002000", "174224.005000", "174224.007000", "174224.009000", "174224.012000", "174224.015000", "174224.017000", "174224.020000", "174224.022000", "174224.025000", "174224.027000", "174224.029000", "174224.032000", "174224.034000", "174224.037000", "174224.039000", "174303.998000", "174304.002000", "174304.004000", "174304.007000", "174304.009000", "174304.012000", "174304.014000", "174304.017000", "174304.019000", "174304.022000", "174304.024000", "174304.027000", "174304.029000", "174304.032000", "174304.034000", "174304.037000", "174304.039000", "174304.042000", "174304.044000", "174304.047000", "174304.049000", "174304.052000", "174304.054000", "174304.057000", "174304.059000", "174304.062000", "174304.064000", "174343.984000", "174343.986000", "174343.989000", "174343.991000", "174343.994000", "174343.996000", "174344.000000", "174344.002000", "174344.005000", "174344.007000", "174344.010000", "174344.012000", "174344.015000", "174344.018000", "174344.020000", "174344.022000", "174344.025000", "174344.027000", "174344.030000", "174344.032000", "174344.035000", "174344.037000", "174344.040000", "174344.042000", "174344.045000", "174344.047000", "174344.050000", "174344.977000"],
      "InstanceNumber": [1, 2, 3, 4, 5, 6, 7, 8, 9, 10, 11, 12, 13, 14, 15, 16, 17, 18, 19, 20, 21, 22, 23, 24, 25, 26, 27, 28, 29, 30, 31, 32, 33, 34, 35, 36, 37, 38, 39, 40, 41, 42, 43, 44, 45, 46, 47, 48, 49, 50, 51, 52, 53, 54, 55, 56, 57, 58, 59, 60, 61, 62, 63, 64, 65, 66, 67, 68, 69, 70, 71, 72, 73, 74, 75, 76, 77, 78, 79, 80, 81, 82, 83, 84, 85, 86, 87, 88, 89, 90, 91, 92, 93, 94, 95, 96, 97, 98, 99, 100, 101, 102, 103, 104, 105, 106, 107, 108, 109, 110, 111, 112, 113, 114, 115, 116, 117, 118, 119, 120, 121, 122, 123, 124, 125, 126, 127, 128, 129, 130, 131, 132, 133, 134, 135, 136, 137, 138, 139, 140, 141, 142, 143, 144, 145, 146, 147, 148, 149, 150, 151, 152, 153, 154, 155, 156, 157, 158, 159, 160, 161, 162, 163, 164, 165, 166, 167, 168, 169, 170, 171, 172, 173, 174, 175, 176, 177, 178, 179, 180, 181, 182, 183, 184, 185, 186, 187, 188, 189, 190],
      "WindowCenter": [4878.0, 4878.0, 4880.0, 4858.0, 4876.0, 4876.0, 4876.0, 4878.0, 4878.0, 4876.0, 4878.0, 4880.0, 4874.0, 4852.0, 4850.0, 4878.0, 4856.0, 4880.0, 4878.0, 4878.0, 4854.0, 4854.0, 4876.0, 4880.0, 4876.0, 4876.0, 4880.0, 4878.0, 4878.0, 4878.0, 4876.0, 4878.0, 4854.0, 4882.0, 4876.0, 4872.0, 4876.0, 4878.0, 4880.0, 4880.0, 4856.0, 4876.0, 4856.0, 4878.0, 4880.0, 4874.0, 4872.0, 4874.0, 4878.0, 4880.0, 4858.0, 4856.0, 4878.0, 4876.0, 4854.0, 4878.0, 4878.0, 4874.0, 4880.0, 4878.0, 4880.0, 4878.0, 4878.0, 4880.0, 4880.0, 4882.0, 4876.0, 4874.0, 4876.0, 4878.0, 4878.0, 4856.0, 4880.0, 4874.0, 4874.0, 4854.0, 4878.0, 4880.0, 4880.0, 4876.0, 4878.0, 4856.0, 4878.0, 4878.0, 4878.0, 4874.0, 4878.0, 4880.0, 4876.0, 4850.0, 4850.0, 4878.0, 4856.0, 4858.0, 4858.0, 4878.0, 4874.0, 4880.0, 4878.0, 4878.0, 4878.0, 4876.0, 4854.0, 4876.0, 4878.0, 4880.0, 4854.0, 4876.0, 4880.0, 4876.0, 4878.0, 4876.0, 4878.0, 4882.0, 4880.0, 4880.0, 4876.0, 4880.0, 4878.0, 4876.0, 4852.0, 4878.0, 4882.0, 4880.0, 4878.0, 4880.0, 4858.0, 4876.0, 4874.0, 4878.0, 4880.0, 4880.0, 4876.0, 4876.0, 4880.0, 4880.0, 4878.0, 4876.0, 4854.0, 4878.0, 4876.0, 4876.0, 4876.0, 4878.0, 4874.0, 4850.0, 4876.0, 4882.0, 4882.0, 4878.0, 4876.0, 4856.0, 4854.0, 4852.0, 4874.0, 4878.0, 4878.0, 4854.0, 4878.0, 4880.0, 4878.0, 4876.0, 4876.0, 4856.0, 4874.0, 4876.0, 4856.0, 4880.0, 4872.0, 4876.0, 4850.0, 4880.0, 4856.0, 4876.0, 4876.0, 4876.0, 4878.0, 4878.0, 4876.0, 4874.0, 4876.0, 4876.0, 4878.0, 4856.0, 4876.0, 4878.0, 4878.0, 4876.0, 4876.0, 4852.0],
      "WindowWidth": [18654.0, 18654.0, 18650.0, 18618.0, 18656.0, 18658.0, 18656.0, 18654.0, 18658.0, 18654.0, 18650.0, 18648.0, 18654.0, 18632.0, 18624.0, 18650.0, 18622.0, 18650.0, 18656.0, 18654.0, 18620.0, 18628.0, 18650.0, 18662.0, 18654.0, 18654.0, 18654.0, 18648.0, 18654.0, 18656.0, 18650.0, 18652.0, 18622.0, 18654.0, 18656.0, 18652.0, 18654.0, 18648.0, 18652.0, 18656.0, 18622.0, 18652.0, 18626.0, 18648.0, 18658.0, 18656.0, 18660.0, 18656.0, 18650.0, 18648.0, 18622.0, 18626.0, 18652.0, 18656.0, 18622.0, 18658.0, 18656.0, 18660.0, 18660.0, 18652.0, 18652.0, 18650.0, 18656.0, 18652.0, 18656.0, 18660.0, 18656.0, 18660.0, 18658.0, 18646.0, 18652.0, 18620.0, 18650.0, 18652.0, 18662.0, 18628.0, 18654.0, 18654.0, 18648.0, 18656.0, 18650.0, 18622.0, 18654.0, 18650.0, 18656.0, 18656.0, 18658.0, 18652.0, 18652.0, 18628.0, 18626.0, 18656.0, 18620.0, 18620.0, 18616.0, 18650.0, 18652.0, 18660.0, 18656.0, 18654.0, 18656.0, 18656.0, 18624.0, 18652.0, 18650.0, 18652.0, 18628.0, 18652.0, 18656.0, 18648.0, 18654.0, 18658.0, 18658.0, 18656.0, 18652.0, 18654.0, 18652.0, 18658.0, 18654.0, 18654.0, 18622.0, 18652.0, 18656.0, 18658.0, 18654.0, 18658.0, 18620.0, 18654.0, 18658.0, 18650.0, 18652.0, 18660.0, 18660.0, 18656.0, 18650.0, 18654.0, 18652.0, 18654.0, 18622.0, 18652.0, 18656.0, 18656.0, 18658.0, 18660.0, 18656.0, 18626.0, 18654.0, 18656.0, 18654.0, 18650.0, 18654.0, 18624.0, 18622.0, 18624.0, 18660.0, 18656.0, 18656.0, 18624.0, 18652.0, 18656.0, 18654.0, 18658.0, 18654.0, 18624.0, 18656.0, 18652.0, 18620.0, 18660.0, 18658.0, 18666.0, 18620.0, 18654.0, 18616.0, 18654.0, 18652.0, 18652.0, 18660.0, 18656.0, 18660.0, 18658.0, 18658.0, 18658.0, 18656.0, 18622.0, 18656.0, 18652.0, 18650.0, 18652.0, 18658.0, 18628.0]
    },
    "slices": {}
  }
}