{
  "AcquisitionMatrixPE": 104,
  "AcquisitionNumber": 1,
  "AcquisitionTime": "17:54:14.307500",
  "BandwidthPerPixelPhaseEncode": 17.17,
  "BaseResolution": 104,
  "BodyPartExamined": "BRAIN",
  "CoilString": "HC1-7;NC1_2",
  "ConsistencyInfo": "N4_VE11C_LATEST_20160120",
  "ConversionSoftware": "dcm2niix",
  "ConversionSoftwareVersion": "v1.0.20190902",
  "DerivedVendorReportedEchoSpacing": 0.000560011,
  "DeviceSerialNumber": "167006",
  "DwellTime": 2.1e-06,
  "EchoTime": 0.037,
  "EchoTrainLength": 104,
  "EffectiveEchoSpacing": 0.000560011,
  "FlipAngle": 52,
  "HeudiconvVersion": "0.10.0",
  "ImageComments": "Unaliased_MB4_PE3_LB",
  "ImageOrientationPatientDICOM": [0.996593, 0.0780396, 0.0267045, -0.0632242, 0.930689, -0.360307],
  "ImageType": [
    "ORIGINAL",
    "PRIMARY",
    "P",
    "MB",
    "ND",
    "MOSAIC"
],
  "ImagingFrequency": 123.259,
  "InPlanePhaseEncodingDirectionDICOM": "COL",
  "InstitutionAddress": "Chemin_Queen-Mary_4565_Montreal_District_CA_H3W_1W5",
  "InstitutionName": "IUGM",
  "InstitutionalDepartmentName": "Department",
  "MRAcquisitionType": "2D",
  "MagneticFieldStrength": 3,
  "Manufacturer": "Siemens",
  "ManufacturersModelName": "Prisma_fit",
  "Modality": "MR",
  "MultibandAccelerationFactor": 4,
  "PartialFourier": 1,
  "PatientPosition": "HFS",
  "PercentPhaseFOV": 100,
  "PhaseEncodingDirection": "j",
  "PhaseEncodingSteps": 104,
  "PhaseResolution": 1,
  "PixelBandwidth": 2290,
  "ProcedureStepDescription": "memory_things",
  "ProtocolName": "func_task-things_run-4",
  "PulseSequenceDetails": "%CustomerSeq%_cmrr_mbep2d_bold",
  "ReceiveCoilActiveElements": "HC1-7;NC1,2",
  "ReceiveCoilName": "HeadNeck_64",
  "ReconMatrixPE": 104,
  "RepetitionTime": 1.49,
  "SAR": 0.0534283,
  "ScanOptions": "FS",
  "ScanningSequence": "EP",
  "SequenceName": "epfid2d1_104",
  "SequenceVariant": "SK_SS",
  "SeriesDescription": "func_task-things_run-4",
  "SeriesNumber": 28,
  "ShimSetting": [633, -7178, -8823, 657, 102, 36, -44, -31],
  "SliceThickness": 2,
  "SliceTiming": [0, 0.7825, 0.0975, 0.88, 0.195, 0.98, 0.2925, 1.0775, 0.39, 1.175, 0.49, 1.2725, 0.5875, 1.37, 0.685, 0, 0.7825, 0.0975, 0.88, 0.195, 0.98, 0.2925, 1.0775, 0.39, 1.175, 0.49, 1.2725, 0.5875, 1.37, 0.685, 0, 0.7825, 0.0975, 0.88, 0.195, 0.98, 0.2925, 1.0775, 0.39, 1.175, 0.49, 1.2725, 0.5875, 1.37, 0.685, 0, 0.7825, 0.0975, 0.88, 0.195, 0.98, 0.2925, 1.0775, 0.39, 1.175, 0.49, 1.2725, 0.5875, 1.37, 0.685],
  "SoftwareVersions": "syngo_MR_E11",
  "SpacingBetweenSlices": 2,
  "StationName": "MRC35049",
  "TaskName": "things",
  "TotalReadoutTime": 0.0576811,
  "TxRefAmp": 277.002,
  "WipMemBlock": "4ab15d86-54bd-4361-a2f9-a972539a9c31||Sequence: R016 ve11c/master r/e634e98; Dec 19 2017 11:00:25 by eja",
  "dcmmeta_affine": [
    [-1.993185043334961, -0.1264483779668808, 0.10594362020492554, 110.2916030883789],
    [-0.1560792177915573, 1.861377239227295, -0.7147825360298157, -50.743282318115234],
    [0.053408972918987274, 0.7206147909164429, 1.8649026155471802, -64.5977554321289],
    [0.0, 0.0, 0.0, 1.0]
],
  "dcmmeta_reorient_transform": [
    [0.0, -1.0, 0.0, 103.0],
    [1.0, 0.0, 0.0, 0.0],
    [0.0, 0.0, 1.0, 0.0],
    [0.0, 0.0, 0.0, 1.0]
],
  "dcmmeta_shape": [104, 104, 60, 190],
  "dcmmeta_slice_dim": 2,
  "dcmmeta_version": 0.6,
  "global": {
    "const": {
      "AcquisitionMatrix": [104, 0, 0, 104],
      "AngioFlag": "N",
      "BitsAllocated": 16,
      "BitsStored": 16,
      "BodyPartExamined": "BRAIN",
      "Columns": 832,
      "EchoNumbers": 1,
      "EchoTime": 37.0,
      "EchoTrainLength": 104,
      "FlipAngle": 52.0,
      "HighBit": 15,
      "ImageOrientationPatient": [0.99659253942577, 0.07803961006104, 0.02670448693433, -0.0632241865261, 0.93068861211664, -0.3603073819873],
      "ImagePositionPatient": [-776.75958065285, -875.33271596536, 252.4884749255],
      "ImageType": [
        "ORIGINAL",
        "PRIMARY",
        "P",
        "MB",
        "ND",
        "MOSAIC"
],
      "ImagedNucleus": "1H",
      "ImagingFrequency": 123.258894,
      "InPlanePhaseEncodingDirection": "COL",
      "LargestImagePixelValue": 4095,
      "MRAcquisitionType": "2D",
      "MagneticFieldStrength": 3.0,
      "Manufacturer": "SIEMENS",
      "ManufacturerModelName": "Prisma_fit",
      "Modality": "MR",
      "NumberOfAverages": 1.0,
      "NumberOfPhaseEncodingSteps": 104,
      "PercentPhaseFieldOfView": 100.0,
      "PercentSampling": 100.0,
      "PerformedProcedureStepStartTime": "165519.441000",
      "PhotometricInterpretation": "MONOCHROME2",
      "PixelBandwidth": 2290.0,
      "PixelRepresentation": 0,
      "PixelSpacing": [2.0, 2.0],
      "ProtocolName": "func_task-things_run-4",
      "RepetitionTime": 1490.0,
      "RescaleIntercept": -4096.0,
      "RescaleSlope": 2.0,
      "RescaleType": "US",
      "Rows": 832,
      "SAR": 0.05342828162829,
      "SamplesPerPixel": 1,
      "ScanOptions": "FS",
      "ScanningSequence": "EP",
      "SequenceName": "epfid2d1_104",
      "SequenceVariant": [
        "SK",
        "SS"
],
      "SeriesDescription": "func_task-things_run-4",
      "SeriesNumber": 28,
      "SeriesTime": "175543.130000",
      "SliceLocation": -36.256707399049,
      "SliceThickness": 2.0,
      "SmallestImagePixelValue": 0,
      "SoftwareVersions": "syngo MR E11",
      "SpacingBetweenSlices": 1.9999999791929,
      "SpecificCharacterSet": "ISO_IR 100",
      "StudyID": "1",
      "StudyTime": "165519.362000",
      "TransmitCoilName": "Body",
      "VariableFlipAngleFlag": "N",
      "WindowCenterWidthExplanation": "Algo1",
      "dBdt": 0.0},
    "slices": {}
  },
  "time": {
    "samples": {
      "AcquisitionNumber": [1, 2, 3, 4, 5, 6, 7, 8, 9, 10, 11, 12, 13, 14, 15, 16, 17, 18, 19, 20, 21, 22, 23, 24, 25, 26, 27, 28, 29, 30, 31, 32, 33, 34, 35, 36, 37, 38, 39, 40, 41, 42, 43, 44, 45, 46, 47, 48, 49, 50, 51, 52, 53, 54, 55, 56, 57, 58, 59, 60, 61, 62, 63, 64, 65, 66, 67, 68, 69, 70, 71, 72, 73, 74, 75, 76, 77, 78, 79, 80, 81, 82, 83, 84, 85, 86, 87, 88, 89, 90, 91, 92, 93, 94, 95, 96, 97, 98, 99, 100, 101, 102, 103, 104, 105, 106, 107, 108, 109, 110, 111, 112, 113, 114, 115, 116, 117, 118, 119, 120, 121, 122, 123, 124, 125, 126, 127, 128, 129, 130, 131, 132, 133, 134, 135, 136, 137, 138, 139, 140, 141, 142, 143, 144, 145, 146, 147, 148, 149, 150, 151, 152, 153, 154, 155, 156, 157, 158, 159, 160, 161, 162, 163, 164, 165, 166, 167, 168, 169, 170, 171, 172, 173, 174, 175, 176, 177, 178, 179, 180, 181, 182, 183, 184, 185, 186, 187, 188, 189, 190],
      "AcquisitionTime": ["175414.307500", "175415.797500", "175417.287500", "175418.777500", "175420.267500", "175421.757500", "175423.247500", "175424.737500", "175426.227500", "175427.717500", "175429.207500", "175430.697500", "175432.187500", "175433.677500", "175435.167500", "175436.657500", "175438.147500", "175439.637500", "175441.127500", "175442.617500", "175444.107500", "175445.597500", "175447.087500", "175448.577500", "175450.067500", "175451.557500", "175453.047500", "175454.537500", "175456.027500", "175457.517500", "175459.007500", "175500.497500", "175501.987500", "175503.477500", "175504.967500", "175506.457500", "175507.947500", "175509.437500", "175510.927500", "175512.417500", "175513.907500", "175515.397500", "175516.887500", "175518.377500", "175519.867500", "175521.357500", "175522.847500", "175524.337500", "175525.827500", "175527.317500", "175528.807500", "175530.297500", "175531.787500", "175533.277500", "175534.767500", "175536.257500", "175537.747500", "175539.237500", "175540.727500", "175542.217500", "175543.707500", "175545.197500", "175546.687500", "175548.177500", "175549.667500", "175551.157500", "175552.647500", "175554.137500", "175555.627500", "175557.117500", "175558.607500", "175600.097500", "175601.587500", "175603.077500", "175604.567500", "175606.057500", "175607.547500", "175609.037500", "175610.527500", "175612.017500", "175613.507500", "175614.997500", "175616.487500", "175617.977500", "175619.467500", "175620.957500", "175622.447500", "175623.937500", "175625.427500", "175626.917500", "175628.407500", "175629.897500", "175631.387500", "175632.877500", "175634.367500", "175635.857500", "175637.347500", "175638.837500", "175640.327500", "175641.817500", "175643.307500", "175644.797500", "175646.287500", "175647.777500", "175649.267500", "175650.757500", "175652.247500", "175653.737500", "175655.227500", "175656.717500", "175658.207500", "175659.697500", "175701.187500", "175702.677500", "175704.167500", "175705.657500", "175707.147500", "175708.637500", "175710.127500", "175711.617500", "175713.107500", "175714.597500", "175716.087500", "175717.577500", "175719.067500", "175720.557500", "175722.047500", "175723.537500", "175725.027500", "175726.517500", "175728.007500", "175729.497500", "175730.987500", "175732.477500", "175733.967500", "175735.457500", "175736.947500", "175738.437500", "175739.927500", "175741.417500", "175742.907500", "175744.397500", "175745.887500", "175747.377500", "175748.867500", "175750.357500", "175751.847500", "175753.337500", "175754.827500", "175756.317500", "175757.807500", "175759.297500", "175800.787500", "175802.277500", "175803.767500", "175805.257500", "175806.747500", "175808.237500", "175809.727500", "175811.217500", "175812.707500", "175814.197500", "175815.687500", "175817.177500", "175818.667500", "175820.157500", "175821.647500", "175823.137500", "175824.627500", "175826.117500", "175827.607500", "175829.097500", "175830.587500", "175832.077500", "175833.567500", "175835.057500", "175836.547500", "175838.037500", "175839.527500", "175841.017500", "175842.507500", "175843.997500", "175845.487500", "175846.977500", "175848.467500", "175849.957500", "175851.447500", "175852.937500", "175854.427500", "175855.917500"],
      "ContentTime": ["175543.132000", "175543.134000", "175543.137000", "175543.139000", "175543.147000", "175543.150000", "175543.152000", "175543.155000", "175543.157000", "175543.220000", "175543.223000", "175543.225000", "175543.227000", "175543.234000", "175543.236000", "175543.239000", "175543.241000", "175543.243000", "175543.246000", "175543.249000", "175543.251000", "175543.254000", "175543.256000", "175543.259000", "175543.261000", "175543.264000", "175543.266000", "175543.269000", "175543.271000", "175543.273000", "175543.287000", "175543.289000", "175603.020000", "175603.023000", "175603.025000", "175603.028000", "175603.030000", "175603.033000", "175603.035000", "175603.038000", "175603.040000", "175603.043000", "175603.045000", "175603.048000", "175603.050000", "175603.053000", "175603.055000", "175603.059000", "175603.062000", "175603.064000", "175603.067000", "175603.069000", "175623.031000", "175623.034000", "175623.036000", "175623.039000", "175623.041000", "175623.044000", "175623.046000", "175623.049000", "175623.051000", "175623.054000", "175623.056000", "175623.059000", "175623.061000", "175623.064000", "175623.066000", "175623.068000", "175623.071000", "175623.074000", "175623.076000", "175623.078000", "175643.035000", "175643.038000", "175643.040000", "175643.043000", "175643.045000", "175643.048000", "175643.051000", "175643.054000", "175643.056000", "175643.059000", "175643.062000", "175643.065000", "175643.069000", "175643.071000", "175643.074000", "175643.084000", "175643.086000", "175643.089000", "175643.091000", "175643.094000", "175703.028000", "175703.031000", "175703.034000", "175703.036000", "175703.038000", "175703.041000", "175703.044000", "175703.046000", "175703.053000", "175703.056000", "175703.058000", "175703.061000", "175703.063000", "175703.066000", "175703.068000", "175703.071000", "175703.073000", "175703.076000", "175703.078000", "175703.080000", "175743.054000", "175743.057000", "175743.060000", "175743.062000", "175743.064000", "175743.067000", "175743.070000", "175743.072000", "175743.074000", "175743.077000", "175743.080000", "175743.082000", "175743.084000", "175743.087000", "175743.090000", "175743.092000", "175743.095000", "175743.098000", "175743.101000", "175743.103000", "175743.106000", "175743.108000", "175743.111000", "175743.113000", "175743.115000", "175743.118000", "175743.121000", "175823.061000", "175823.064000", "175823.066000", "175823.069000", "175823.072000", "175823.074000", "175823.076000", "175823.079000", "175823.082000", "175823.084000", "175823.086000", "175823.092000", "175823.094000", "175823.097000", "175823.099000", "175823.102000", "175823.104000", "175823.107000", "175823.109000", "175823.112000", "175823.114000", "175823.117000", "175823.119000", "175823.121000", "175823.124000", "175823.127000", "175823.129000", "175858.677000", "175858.680000", "175858.682000", "175858.685000", "175858.687000", "175858.699000", "175858.701000", "175858.704000", "175858.706000", "175858.709000", "175858.711000", "175858.714000", "175858.716000", "175858.719000", "175858.721000", "175858.724000", "175858.726000", "175858.729000", "175858.731000", "175858.733000", "175858.736000", "175858.739000", "175858.742000", "175858.744000"],
      "InstanceCreationTime": ["175543.132000", "175543.134000", "175543.137000", "175543.139000", "175543.147000", "175543.150000", "175543.152000", "175543.155000", "175543.157000", "175543.220000", "175543.223000", "175543.225000", "175543.227000", "175543.234000", "175543.236000", "175543.239000", "175543.241000", "175543.243000", "175543.246000", "175543.249000", "175543.251000", "175543.254000", "175543.256000", "175543.259000", "175543.261000", "175543.264000", "175543.266000", "175543.269000", "175543.271000", "175543.273000", "175543.287000", "175543.289000", "175603.020000", "175603.023000", "175603.025000", "175603.028000", "175603.030000", "175603.033000", "175603.035000", "175603.038000", "175603.040000", "175603.043000", "175603.045000", "175603.048000", "175603.050000", "175603.053000", "175603.055000", "175603.059000", "175603.062000", "175603.064000", "175603.067000", "175603.069000", "175623.031000", "175623.034000", "175623.036000", "175623.039000", "175623.041000", "175623.044000", "175623.046000", "175623.049000", "175623.051000", "175623.054000", "175623.056000", "175623.059000", "175623.061000", "175623.064000", "175623.066000", "175623.068000", "175623.071000", "175623.074000", "175623.076000", "175623.078000", "175643.035000", "175643.038000", "175643.040000", "175643.043000", "175643.045000", "175643.048000", "175643.051000", "175643.054000", "175643.056000", "175643.059000", "175643.062000", "175643.065000", "175643.069000", "175643.071000", "175643.074000", "175643.084000", "175643.086000", "175643.089000", "175643.091000", "175643.094000", "175703.028000", "175703.031000", "175703.034000", "175703.036000", "175703.038000", "175703.041000", "175703.044000", "175703.046000", "175703.053000", "175703.056000", "175703.058000", "175703.061000", "175703.063000", "175703.066000", "175703.068000", "175703.071000", "175703.073000", "175703.076000", "175703.078000", "175703.080000", "175743.054000", "175743.057000", "175743.060000", "175743.062000", "175743.064000", "175743.067000", "175743.070000", "175743.072000", "175743.074000", "175743.077000", "175743.080000", "175743.082000", "175743.084000", "175743.087000", "175743.090000", "175743.092000", "175743.095000", "175743.098000", "175743.101000", "175743.103000", "175743.106000", "175743.108000", "175743.111000", "175743.113000", "175743.115000", "175743.118000", "175743.121000", "175823.061000", "175823.064000", "175823.066000", "175823.069000", "175823.072000", "175823.074000", "175823.076000", "175823.079000", "175823.082000", "175823.084000", "175823.086000", "175823.092000", "175823.094000", "175823.097000", "175823.099000", "175823.102000", "175823.104000", "175823.107000", "175823.109000", "175823.112000", "175823.114000", "175823.117000", "175823.119000", "175823.121000", "175823.124000", "175823.127000", "175823.129000", "175858.677000", "175858.680000", "175858.682000", "175858.685000", "175858.687000", "175858.699000", "175858.701000", "175858.704000", "175858.706000", "175858.709000", "175858.711000", "175858.714000", "175858.716000", "175858.719000", "175858.721000", "175858.724000", "175858.726000", "175858.729000", "175858.731000", "175858.733000", "175858.736000", "175858.739000", "175858.742000", "175858.744000"],
      "InstanceNumber": [1, 2, 3, 4, 5, 6, 7, 8, 9, 10, 11, 12, 13, 14, 15, 16, 17, 18, 19, 20, 21, 22, 23, 24, 25, 26, 27, 28, 29, 30, 31, 32, 33, 34, 35, 36, 37, 38, 39, 40, 41, 42, 43, 44, 45, 46, 47, 48, 49, 50, 51, 52, 53, 54, 55, 56, 57, 58, 59, 60, 61, 62, 63, 64, 65, 66, 67, 68, 69, 70, 71, 72, 73, 74, 75, 76, 77, 78, 79, 80, 81, 82, 83, 84, 85, 86, 87, 88, 89, 90, 91, 92, 93, 94, 95, 96, 97, 98, 99, 100, 101, 102, 103, 104, 105, 106, 107, 108, 109, 110, 111, 112, 113, 114, 115, 116, 117, 118, 119, 120, 121, 122, 123, 124, 125, 126, 127, 128, 129, 130, 131, 132, 133, 134, 135, 136, 137, 138, 139, 140, 141, 142, 143, 144, 145, 146, 147, 148, 149, 150, 151, 152, 153, 154, 155, 156, 157, 158, 159, 160, 161, 162, 163, 164, 165, 166, 167, 168, 169, 170, 171, 172, 173, 174, 175, 176, 177, 178, 179, 180, 181, 182, 183, 184, 185, 186, 187, 188, 189, 190],
      "WindowCenter": [4850.0, 4852.0, 4854.0, 4852.0, 4854.0, 4854.0, 4850.0, 4854.0, 4850.0, 4852.0, 4856.0, 4856.0, 4856.0, 4854.0, 4850.0, 4854.0, 4852.0, 4850.0, 4852.0, 4856.0, 4858.0, 4858.0, 4852.0, 4850.0, 4850.0, 4852.0, 4856.0, 4856.0, 4852.0, 4852.0, 4852.0, 4852.0, 4850.0, 4852.0, 4848.0, 4852.0, 4854.0, 4856.0, 4856.0, 4856.0, 4852.0, 4850.0, 4854.0, 4854.0, 4848.0, 4854.0, 4852.0, 4854.0, 4848.0, 4854.0, 4852.0, 4850.0, 4854.0, 4856.0, 4850.0, 4852.0, 4854.0, 4852.0, 4854.0, 4854.0, 4854.0, 4852.0, 4852.0, 4852.0, 4856.0, 4854.0, 4852.0, 4850.0, 4854.0, 4854.0, 4852.0, 4854.0, 4856.0, 4854.0, 4852.0, 4854.0, 4856.0, 4854.0, 4852.0, 4878.0, 4854.0, 4852.0, 4850.0, 4854.0, 4854.0, 4852.0, 4856.0, 4852.0, 4852.0, 4854.0, 4856.0, 4856.0, 4854.0, 4846.0, 4848.0, 4878.0, 4854.0, 4856.0, 4878.0, 4852.0, 4854.0, 4848.0, 4844.0, 4874.0, 4856.0, 4856.0, 4854.0, 4858.0, 4850.0, 4852.0, 4854.0, 4854.0, 4852.0, 4844.0, 4850.0, 4856.0, 4880.0, 4858.0, 4878.0, 4854.0, 4878.0, 4854.0, 4844.0, 4842.0, 4844.0, 4852.0, 4878.0, 4880.0, 4858.0, 4852.0, 4850.0, 4850.0, 4854.0, 4854.0, 4848.0, 4842.0, 4846.0, 4876.0, 4856.0, 4856.0, 4880.0, 4854.0, 4850.0, 4852.0, 4874.0, 4850.0, 4850.0, 4856.0, 4854.0, 4852.0, 4856.0, 4854.0, 4848.0, 4854.0, 4858.0, 4880.0, 4878.0, 4854.0, 4848.0, 4852.0, 4854.0, 4852.0, 4854.0, 4848.0, 4848.0, 4852.0, 4856.0, 4878.0, 4878.0, 4852.0, 4852.0, 4874.0, 4854.0, 4878.0, 4852.0, 4846.0, 4874.0, 4858.0, 4858.0, 4858.0, 4878.0, 4856.0, 4856.0, 4852.0, 4842.0, 4840.0, 4846.0, 4854.0, 4878.0, 4856.0],
      "WindowWidth": [18632.0, 18630.0, 18636.0, 18632.0, 18638.0, 18632.0, 18636.0, 18634.0, 18632.0, 18638.0, 18636.0, 18634.0, 18636.0, 18638.0, 18636.0, 18634.0, 18636.0, 18630.0, 18636.0, 18636.0, 18638.0, 18638.0, 18630.0, 18630.0, 18632.0, 18634.0, 18640.0, 18638.0, 18632.0, 18634.0, 18632.0, 18628.0, 18628.0, 18634.0, 18630.0, 18632.0, 18638.0, 18640.0, 18638.0, 18638.0, 18636.0, 18628.0, 18630.0, 18636.0, 18630.0, 18634.0, 18630.0, 18636.0, 18630.0, 18634.0, 18630.0, 18626.0, 18636.0, 18636.0, 18634.0, 18638.0, 18636.0, 18632.0, 18636.0, 18636.0, 18636.0, 18634.0, 18630.0, 18638.0, 18636.0, 18630.0, 18636.0, 18638.0, 18632.0, 18632.0, 18634.0, 18638.0, 18636.0, 18630.0, 18634.0, 18632.0, 18632.0, 18632.0, 18630.0, 18660.0, 18628.0, 18632.0, 18630.0, 18632.0, 18632.0, 18634.0, 18632.0, 18632.0, 18630.0, 18632.0, 18636.0, 18630.0, 18636.0, 18628.0, 18630.0, 18662.0, 18634.0, 18636.0, 18664.0, 18630.0, 18632.0, 18628.0, 18622.0, 18658.0, 18638.0, 18628.0, 18628.0, 18632.0, 18634.0, 18632.0, 18632.0, 18634.0, 18634.0, 18624.0, 18630.0, 18634.0, 18662.0, 18634.0, 18664.0, 18632.0, 18664.0, 18632.0, 18628.0, 18624.0, 18628.0, 18632.0, 18666.0, 18664.0, 18636.0, 18634.0, 18632.0, 18632.0, 18634.0, 18638.0, 18634.0, 18628.0, 18628.0, 18668.0, 18630.0, 18632.0, 18664.0, 18630.0, 18634.0, 18630.0, 18664.0, 18630.0, 18630.0, 18632.0, 18636.0, 18632.0, 18632.0, 18634.0, 18626.0, 18632.0, 18634.0, 18664.0, 18664.0, 18634.0, 18628.0, 18628.0, 18632.0, 18630.0, 18630.0, 18626.0, 18630.0, 18634.0, 18626.0, 18664.0, 18662.0, 18628.0, 18628.0, 18660.0, 18632.0, 18662.0, 18634.0, 18624.0, 18664.0, 18632.0, 18632.0, 18638.0, 18668.0, 18628.0, 18634.0, 18628.0, 18624.0, 18622.0, 18628.0, 18632.0, 18660.0, 18632.0]
    },
    "slices": {}
  }
}