{
  "AcquisitionMatrixPE": 104,
  "AcquisitionNumber": 1,
  "AcquisitionTime": "11:05:55.315000",
  "BandwidthPerPixelPhaseEncode": 17.17,
  "BaseResolution": 104,
  "BodyPartExamined": "BRAIN",
  "CoilString": "HC1-7;NC1_2",
  "ConsistencyInfo": "N4_VE11C_LATEST_20160120",
  "ConversionSoftware": "dcm2niix",
  "ConversionSoftwareVersion": "v1.0.20190902",
  "DerivedVendorReportedEchoSpacing": 0.000560011,
  "DeviceSerialNumber": "167006",
  "DwellTime": 2.1e-06,
  "EchoTime": 0.037,
  "EchoTrainLength": 104,
  "EffectiveEchoSpacing": 0.000560011,
  "FlipAngle": 52,
  "ImageComments": "Unaliased_MB4_PE3_LB",
  "ImageOrientationPatientDICOM": [0.999594, 0.00375705, 0.0282282, 0.0108171, 0.866867, -0.498423],
  "ImageType": [
    "ORIGINAL",
    "PRIMARY",
    "M",
    "MB",
    "ND",
    "MOSAIC"
],
  "ImagingFrequency": 123.259,
  "InPlanePhaseEncodingDirectionDICOM": "COL",
  "InstitutionAddress": "Chemin_Queen-Mary_4565_Montreal_District_CA_H3W_1W5",
  "InstitutionName": "IUGM",
  "InstitutionalDepartmentName": "Department",
  "MRAcquisitionType": "2D",
  "MagneticFieldStrength": 3,
  "Manufacturer": "Siemens",
  "ManufacturersModelName": "Prisma_fit",
  "Modality": "MR",
  "MultibandAccelerationFactor": 4,
  "PartialFourier": 1,
  "PatientPosition": "HFS",
  "PercentPhaseFOV": 100,
  "PhaseEncodingDirection": "j",
  "PhaseEncodingSteps": 104,
  "PhaseResolution": 1,
  "PixelBandwidth": 2290,
  "ProcedureStepDescription": "memory_things",
  "ProtocolName": "func_task-things_run-2",
  "PulseSequenceDetails": "%CustomerSeq%_cmrr_mbep2d_bold",
  "ReceiveCoilActiveElements": "HC1-7;NC1,2",
  "ReceiveCoilName": "HeadNeck_64",
  "ReconMatrixPE": 104,
  "RepetitionTime": 1.49,
  "SAR": 0.0468254,
  "ScanOptions": "FS",
  "ScanningSequence": "EP",
  "SequenceName": "epfid2d1_104",
  "SequenceVariant": "SK_SS",
  "SeriesDescription": "func_task-things_run-2",
  "SeriesNumber": 13,
  "ShimSetting": [614, -7183, -8860, 284, -5, -121, -31, -36],
  "SliceThickness": 2,
  "SliceTiming": [0, 0.785, 0.0975, 0.8825, 0.1975, 0.98, 0.295, 1.0775, 0.3925, 1.175, 0.49, 1.275, 0.5875, 1.3725, 0.685, 0, 0.785, 0.0975, 0.8825, 0.1975, 0.98, 0.295, 1.0775, 0.3925, 1.175, 0.49, 1.275, 0.5875, 1.3725, 0.685, 0, 0.785, 0.0975, 0.8825, 0.1975, 0.98, 0.295, 1.0775, 0.3925, 1.175, 0.49, 1.275, 0.5875, 1.3725, 0.685, 0, 0.785, 0.0975, 0.8825, 0.1975, 0.98, 0.295, 1.0775, 0.3925, 1.175, 0.49, 1.275, 0.5875, 1.3725, 0.685],
  "SoftwareVersions": "syngo_MR_E11",
  "SpacingBetweenSlices": 2,
  "StationName": "MRC35049",
  "TaskName": "things",
  "TotalReadoutTime": 0.0576811,
  "TxRefAmp": 264.055,
  "WipMemBlock": "12d5fe3b-7dc8-477d-88ad-430c08a59b84||Sequence: R016 ve11c/master r/e634e98; Dec 19 2017 11:00:25 by eja",
  "dcmmeta_affine": [
    [-1.9991888999938965, 0.02163425087928772, 0.0526854544878006, 104.6600112915039],
    [-0.007514097262173891, 1.7337334156036377, -0.9970517754554749, -52.03676223754883],
    [0.05645649880170822, 0.9968453049659729, 1.7329490184783936, -90.20436096191406],
    [0.0, 0.0, 0.0, 1.0]
],
  "dcmmeta_reorient_transform": [
    [0.0, -1.0, 0.0, 103.0],
    [1.0, 0.0, 0.0, 0.0],
    [0.0, 0.0, 1.0, 0.0],
    [0.0, 0.0, 0.0, 1.0]
],
  "dcmmeta_shape": [104, 104, 60, 190],
  "dcmmeta_slice_dim": 2,
  "dcmmeta_version": 0.6,
  "global": {
    "const": {
      "AcquisitionMatrix": [104, 0, 0, 104],
      "AngioFlag": "N",
      "BitsAllocated": 16,
      "BitsStored": 16,
      "BodyPartExamined": "BRAIN",
      "Columns": 832,
      "EchoNumbers": 1,
      "EchoTime": 37.0,
      "EchoTrainLength": 104,
      "FlipAngle": 52.0,
      "HighBit": 15,
      "ImageOrientationPatient": [0.99959444302151, 0.00375704866584, 0.02822824942925, 0.01081712584515, 0.86686668009692, -0.498422660727],
      "ImagePositionPatient": [-842.46796264008, -760.3518469937, 354.77224199051],
      "ImageType": [
        "ORIGINAL",
        "PRIMARY",
        "M",
        "MB",
        "ND",
        "MOSAIC"
],
      "ImagedNucleus": "1H",
      "ImagingFrequency": 123.258883,
      "InPlanePhaseEncodingDirection": "COL",
      "MRAcquisitionType": "2D",
      "MagneticFieldStrength": 3.0,
      "Manufacturer": "SIEMENS",
      "ManufacturerModelName": "Prisma_fit",
      "Modality": "MR",
      "NumberOfAverages": 1.0,
      "NumberOfPhaseEncodingSteps": 104,
      "PercentPhaseFieldOfView": 100.0,
      "PercentSampling": 100.0,
      "PerformedProcedureStepStartTime": "103356.019000",
      "PhotometricInterpretation": "MONOCHROME2",
      "PixelBandwidth": 2290.0,
      "PixelRepresentation": 0,
      "PixelSpacing": [2.0, 2.0],
      "ProtocolName": "func_task-things_run-2",
      "RepetitionTime": 1490.0,
      "Rows": 832,
      "SAR": 0.04682535540888,
      "SamplesPerPixel": 1,
      "ScanOptions": "FS",
      "ScanningSequence": "EP",
      "SequenceName": "epfid2d1_104",
      "SequenceVariant": [
        "SK",
        "SS"
],
      "SeriesDescription": "func_task-things_run-2",
      "SeriesNumber": 13,
      "SeriesTime": "110701.395000",
      "SliceLocation": -49.461070379451,
      "SliceThickness": 2.0,
      "SmallestImagePixelValue": 0,
      "SoftwareVersions": "syngo MR E11",
      "SpacingBetweenSlices": 2.0000000631221,
      "SpecificCharacterSet": "ISO_IR 100",
      "StudyID": "1",
      "StudyTime": "103355.941000",
      "TransmitCoilName": "Body",
      "VariableFlipAngleFlag": "N",
      "WindowCenterWidthExplanation": "Algo1",
      "dBdt": 0.0},
    "slices": {}
  },
  "time": {
    "samples": {
      "AcquisitionNumber": [1, 2, 3, 4, 5, 6, 7, 8, 9, 10, 11, 12, 13, 14, 15, 16, 17, 18, 19, 20, 21, 22, 23, 24, 25, 26, 27, 28, 29, 30, 31, 32, 33, 34, 35, 36, 37, 38, 39, 40, 41, 42, 43, 44, 45, 46, 47, 48, 49, 50, 51, 52, 53, 54, 55, 56, 57, 58, 59, 60, 61, 62, 63, 64, 65, 66, 67, 68, 69, 70, 71, 72, 73, 74, 75, 76, 77, 78, 79, 80, 81, 82, 83, 84, 85, 86, 87, 88, 89, 90, 91, 92, 93, 94, 95, 96, 97, 98, 99, 100, 101, 102, 103, 104, 105, 106, 107, 108, 109, 110, 111, 112, 113, 114, 115, 116, 117, 118, 119, 120, 121, 122, 123, 124, 125, 126, 127, 128, 129, 130, 131, 132, 133, 134, 135, 136, 137, 138, 139, 140, 141, 142, 143, 144, 145, 146, 147, 148, 149, 150, 151, 152, 153, 154, 155, 156, 157, 158, 159, 160, 161, 162, 163, 164, 165, 166, 167, 168, 169, 170, 171, 172, 173, 174, 175, 176, 177, 178, 179, 180, 181, 182, 183, 184, 185, 186, 187, 188, 189, 190],
      "AcquisitionTime": ["110555.315000", "110556.805000", "110558.295000", "110559.785000", "110601.275000", "110602.765000", "110604.255000", "110605.745000", "110607.235000", "110608.725000", "110610.215000", "110611.705000", "110613.195000", "110614.685000", "110616.175000", "110617.665000", "110619.155000", "110620.645000", "110622.135000", "110623.625000", "110625.115000", "110626.605000", "110628.095000", "110629.585000", "110631.075000", "110632.565000", "110634.055000", "110635.545000", "110637.035000", "110638.525000", "110640.015000", "110641.505000", "110642.995000", "110644.485000", "110645.975000", "110647.465000", "110648.955000", "110650.445000", "110651.935000", "110653.425000", "110654.915000", "110656.405000", "110657.895000", "110659.385000", "110700.875000", "110702.365000", "110703.855000", "110705.345000", "110706.835000", "110708.325000", "110709.815000", "110711.305000", "110712.795000", "110714.285000", "110715.775000", "110717.265000", "110718.755000", "110720.245000", "110721.735000", "110723.225000", "110724.715000", "110726.205000", "110727.695000", "110729.185000", "110730.675000", "110732.165000", "110733.655000", "110735.145000", "110736.635000", "110738.125000", "110739.615000", "110741.105000", "110742.595000", "110744.085000", "110745.575000", "110747.065000", "110748.555000", "110750.045000", "110751.535000", "110753.025000", "110754.515000", "110756.005000", "110757.495000", "110758.985000", "110800.475000", "110801.965000", "110803.455000", "110804.945000", "110806.435000", "110807.925000", "110809.415000", "110810.905000", "110812.395000", "110813.885000", "110815.375000", "110816.865000", "110818.355000", "110819.845000", "110821.335000", "110822.825000", "110824.315000", "110825.805000", "110827.295000", "110828.785000", "110830.275000", "110831.765000", "110833.255000", "110834.745000", "110836.235000", "110837.725000", "110839.215000", "110840.705000", "110842.195000", "110843.685000", "110845.175000", "110846.665000", "110848.155000", "110849.645000", "110851.135000", "110852.625000", "110854.115000", "110855.605000", "110857.095000", "110858.585000", "110900.075000", "110901.565000", "110903.055000", "110904.545000", "110906.035000", "110907.525000", "110909.015000", "110910.505000", "110911.995000", "110913.485000", "110914.975000", "110916.465000", "110917.955000", "110919.445000", "110920.935000", "110922.425000", "110923.915000", "110925.405000", "110926.895000", "110928.385000", "110929.875000", "110931.365000", "110932.855000", "110934.345000", "110935.835000", "110937.325000", "110938.815000", "110940.305000", "110941.795000", "110943.285000", "110944.775000", "110946.265000", "110947.755000", "110949.245000", "110950.735000", "110952.225000", "110953.715000", "110955.205000", "110956.695000", "110958.185000", "110959.675000", "111001.165000", "111002.655000", "111004.145000", "111005.635000", "111007.125000", "111008.615000", "111010.105000", "111011.595000", "111013.085000", "111014.575000", "111016.065000", "111017.555000", "111019.045000", "111020.535000", "111022.025000", "111023.515000", "111025.005000", "111026.495000", "111027.985000", "111029.475000", "111030.965000", "111032.455000", "111033.945000", "111035.435000", "111036.925000"],
      "ContentTime": ["110701.398000", "110701.402000", "110701.405000", "110701.408000", "110701.412000", "110701.415000", "110701.419000", "110701.423000", "110701.434000", "110701.438000", "110701.441000", "110721.352000", "110721.356000", "110721.359000", "110721.362000", "110721.366000", "110721.369000", "110721.372000", "110721.376000", "110721.379000", "110721.382000", "110721.386000", "110721.389000", "110721.392000", "110721.396000", "110721.399000", "110721.402000", "110721.406000", "110721.409000", "110721.412000", "110721.416000", "110741.352000", "110741.356000", "110741.359000", "110741.363000", "110741.366000", "110741.369000", "110741.372000", "110741.376000", "110741.379000", "110741.383000", "110741.386000", "110741.389000", "110741.392000", "110741.396000", "110741.399000", "110741.402000", "110741.406000", "110741.409000", "110741.412000", "110741.416000", "110801.351000", "110801.355000", "110801.358000", "110801.361000", "110801.365000", "110801.368000", "110801.371000", "110801.375000", "110801.378000", "110801.381000", "110801.385000", "110801.388000", "110801.391000", "110801.394000", "110801.398000", "110801.401000", "110801.404000", "110801.408000", "110801.411000", "110801.414000", "110801.418000", "110821.351000", "110821.355000", "110821.358000", "110821.361000", "110821.365000", "110821.368000", "110821.371000", "110821.375000", "110821.378000", "110821.381000", "110821.385000", "110821.388000", "110821.391000", "110821.395000", "110821.398000", "110821.401000", "110821.405000", "110821.408000", "110821.411000", "110821.415000", "110901.352000", "110901.356000", "110901.359000", "110901.373000", "110901.377000", "110901.380000", "110901.383000", "110901.387000", "110901.390000", "110901.393000", "110901.397000", "110901.400000", "110901.403000", "110901.407000", "110901.410000", "110901.413000", "110901.417000", "110901.420000", "110901.423000", "110901.427000", "110901.430000", "110901.433000", "110901.437000", "110901.440000", "110901.443000", "110901.447000", "110901.450000", "110901.453000", "110901.457000", "110901.460000", "110901.464000", "110901.467000", "110941.352000", "110941.356000", "110941.359000", "110941.363000", "110941.366000", "110941.369000", "110941.373000", "110941.376000", "110941.379000", "110941.383000", "110941.386000", "110941.389000", "110941.393000", "110941.396000", "110941.399000", "110941.403000", "110941.406000", "110941.409000", "110941.413000", "110941.416000", "110941.419000", "110941.423000", "110941.426000", "110941.429000", "110941.433000", "110941.436000", "110941.439000", "111021.351000", "111021.355000", "111021.358000", "111021.362000", "111021.365000", "111021.368000", "111021.372000", "111021.375000", "111021.379000", "111021.382000", "111021.385000", "111021.389000", "111021.392000", "111021.395000", "111021.399000", "111021.402000", "111021.405000", "111021.409000", "111021.412000", "111021.415000", "111021.419000", "111021.422000", "111021.425000", "111021.429000", "111021.432000", "111021.435000", "111021.439000", "111039.160000", "111039.164000", "111039.167000", "111039.171000", "111039.174000", "111039.178000", "111039.182000", "111039.185000", "111039.188000", "111039.192000", "111039.195000", "111039.199000"],
      "InstanceCreationTime": ["110701.398000", "110701.402000", "110701.405000", "110701.408000", "110701.412000", "110701.415000", "110701.419000", "110701.423000", "110701.434000", "110701.438000", "110701.441000", "110721.352000", "110721.356000", "110721.359000", "110721.362000", "110721.366000", "110721.369000", "110721.372000", "110721.376000", "110721.379000", "110721.382000", "110721.386000", "110721.389000", "110721.392000", "110721.396000", "110721.399000", "110721.402000", "110721.406000", "110721.409000", "110721.412000", "110721.416000", "110741.352000", "110741.356000", "110741.359000", "110741.363000", "110741.366000", "110741.369000", "110741.372000", "110741.376000", "110741.379000", "110741.383000", "110741.386000", "110741.389000", "110741.392000", "110741.396000", "110741.399000", "110741.402000", "110741.406000", "110741.409000", "110741.412000", "110741.416000", "110801.351000", "110801.355000", "110801.358000", "110801.361000", "110801.365000", "110801.368000", "110801.371000", "110801.375000", "110801.378000", "110801.381000", "110801.385000", "110801.388000", "110801.391000", "110801.394000", "110801.398000", "110801.401000", "110801.404000", "110801.408000", "110801.411000", "110801.414000", "110801.418000", "110821.351000", "110821.355000", "110821.358000", "110821.361000", "110821.365000", "110821.368000", "110821.371000", "110821.375000", "110821.378000", "110821.381000", "110821.385000", "110821.388000", "110821.391000", "110821.395000", "110821.398000", "110821.401000", "110821.405000", "110821.408000", "110821.411000", "110821.415000", "110901.352000", "110901.356000", "110901.359000", "110901.373000", "110901.377000", "110901.380000", "110901.383000", "110901.387000", "110901.390000", "110901.393000", "110901.397000", "110901.400000", "110901.403000", "110901.407000", "110901.410000", "110901.413000", "110901.417000", "110901.420000", "110901.423000", "110901.427000", "110901.430000", "110901.433000", "110901.437000", "110901.440000", "110901.443000", "110901.447000", "110901.450000", "110901.453000", "110901.457000", "110901.460000", "110901.464000", "110901.467000", "110941.352000", "110941.356000", "110941.359000", "110941.363000", "110941.366000", "110941.369000", "110941.373000", "110941.376000", "110941.379000", "110941.383000", "110941.386000", "110941.389000", "110941.393000", "110941.396000", "110941.399000", "110941.403000", "110941.406000", "110941.409000", "110941.413000", "110941.416000", "110941.419000", "110941.423000", "110941.426000", "110941.429000", "110941.433000", "110941.436000", "110941.439000", "111021.351000", "111021.355000", "111021.358000", "111021.362000", "111021.365000", "111021.368000", "111021.372000", "111021.375000", "111021.379000", "111021.382000", "111021.385000", "111021.389000", "111021.392000", "111021.395000", "111021.399000", "111021.402000", "111021.405000", "111021.409000", "111021.412000", "111021.415000", "111021.419000", "111021.422000", "111021.425000", "111021.429000", "111021.432000", "111021.435000", "111021.439000", "111039.160000", "111039.164000", "111039.167000", "111039.171000", "111039.174000", "111039.178000", "111039.182000", "111039.185000", "111039.188000", "111039.192000", "111039.195000", "111039.199000"],
      "InstanceNumber": [1, 2, 3, 4, 5, 6, 7, 8, 9, 10, 11, 12, 13, 14, 15, 16, 17, 18, 19, 20, 21, 22, 23, 24, 25, 26, 27, 28, 29, 30, 31, 32, 33, 34, 35, 36, 37, 38, 39, 40, 41, 42, 43, 44, 45, 46, 47, 48, 49, 50, 51, 52, 53, 54, 55, 56, 57, 58, 59, 60, 61, 62, 63, 64, 65, 66, 67, 68, 69, 70, 71, 72, 73, 74, 75, 76, 77, 78, 79, 80, 81, 82, 83, 84, 85, 86, 87, 88, 89, 90, 91, 92, 93, 94, 95, 96, 97, 98, 99, 100, 101, 102, 103, 104, 105, 106, 107, 108, 109, 110, 111, 112, 113, 114, 115, 116, 117, 118, 119, 120, 121, 122, 123, 124, 125, 126, 127, 128, 129, 130, 131, 132, 133, 134, 135, 136, 137, 138, 139, 140, 141, 142, 143, 144, 145, 146, 147, 148, 149, 150, 151, 152, 153, 154, 155, 156, 157, 158, 159, 160, 161, 162, 163, 164, 165, 166, 167, 168, 169, 170, 171, 172, 173, 174, 175, 176, 177, 178, 179, 180, 181, 182, 183, 184, 185, 186, 187, 188, 189, 190],
      "LargestImagePixelValue": [52183, 49613, 49905, 48756, 47470, 49137, 49163, 48316, 48677, 48973, 49634, 49507, 49458, 49180, 49760, 48550, 45585, 48633, 48976, 48790, 48587, 48755, 48385, 49052, 48448, 48416, 47626, 46889, 47711, 48182, 47453, 48544, 48467, 48059, 48798, 47998, 47173, 47739, 47023, 47022, 48142, 47542, 47857, 48140, 48489, 47171, 46258, 48031, 48021, 48411, 48841, 48125, 47762, 48261, 46995, 47625, 47976, 47689, 47764, 48233, 47956, 48569, 48268, 47311, 47914, 48286, 47145, 48231, 45536, 46590, 47613, 46914, 48122, 48214, 48173, 47988, 48140, 48313, 47986, 48085, 48036, 46556, 48031, 48463, 47913, 48286, 47720, 47734, 47606, 47382, 47989, 47120, 48106, 46918, 47834, 47420, 47022, 48014, 46524, 47658, 46420, 47548, 47256, 47801, 46616, 47344, 47458, 46418, 47506, 46688, 47032, 47033, 47853, 47543, 46700, 47155, 48134, 46751, 46768, 47828, 48096, 47128, 47388, 44956, 47103, 47403, 45783, 46295, 46291, 46971, 47000, 47200, 47112, 47460, 46860, 46443, 47230, 45030, 45895, 45412, 45803, 46053, 46430, 46437, 45306, 46133, 45461, 46115, 45046, 44984, 45282, 44567, 46100, 45658, 46726, 45048, 46873, 47141, 46017, 46045, 45270, 45639, 45628, 45701, 45712, 46217, 45664, 45552, 46293, 45615, 45758, 44995, 45586, 45007, 46065, 45717, 45876, 45646, 45385, 45605, 45990, 45097, 44654, 45129, 44889, 45483, 46829, 45058, 45215, 45350],
      "WindowCenter": [11156.0, 11096.0, 11091.0, 11067.0, 11028.0, 11014.0, 11021.0, 11055.0, 11078.0, 11072.0, 11056.0, 11057.0, 11056.0, 11049.0, 11063.0, 11077.0, 11042.0, 11035.0, 11032.0, 11045.0, 11076.0, 11114.0, 11084.0, 11080.0, 11078.0, 11058.0, 11034.0, 11035.0, 11013.0, 11015.0, 11016.0, 11047.0, 11069.0, 11060.0, 11049.0, 11046.0, 11052.0, 11060.0, 11056.0, 11050.0, 11052.0, 11045.0, 11052.0, 11050.0, 11068.0, 11072.0, 11024.0, 11015.0, 11021.0, 11054.0, 11066.0, 11029.0, 11008.0, 11020.0, 11027.0, 11022.0, 11040.0, 11043.0, 11042.0, 11055.0, 11049.0, 11046.0, 11030.0, 11013.0, 11034.0, 11059.0, 11058.0, 11076.0, 11057.0, 11063.0, 11039.0, 11028.0, 11058.0, 11075.0, 11077.0, 11045.0, 11008.0, 11015.0, 11031.0, 11034.0, 11034.0, 11018.0, 11036.0, 11040.0, 11045.0, 11039.0, 11037.0, 11036.0, 11034.0, 11020.0, 11024.0, 11013.0, 11023.0, 11019.0, 11036.0, 11047.0, 11042.0, 11043.0, 11027.0, 11036.0, 11023.0, 11036.0, 11054.0, 11039.0, 11034.0, 11040.0, 11010.0, 11005.0, 11016.0, 11006.0, 11015.0, 11025.0, 11035.0, 11029.0, 11027.0, 11021.0, 11015.0, 11025.0, 11032.0, 11046.0, 11065.0, 11054.0, 11059.0, 11021.0, 11016.0, 11002.0, 11001.0, 11019.0, 11035.0, 11041.0, 11026.0, 11022.0, 11009.0, 11006.0, 11017.0, 11012.0, 11031.0, 11021.0, 11027.0, 11012.0, 11015.0, 11043.0, 11024.0, 11028.0, 11020.0, 11017.0, 11003.0, 11005.0, 10986.0, 10985.0, 10991.0, 10951.0, 10975.0, 10994.0, 11027.0, 10999.0, 11009.0, 11007.0, 11009.0, 11007.0, 10999.0, 10999.0, 11004.0, 11004.0, 11003.0, 10994.0, 10995.0, 10990.0, 11014.0, 10979.0, 10980.0, 10989.0, 10990.0, 10983.0, 10975.0, 10975.0, 10977.0, 10993.0, 10977.0, 10983.0, 10999.0, 10983.0, 10993.0, 10991.0, 10983.0, 10998.0, 11020.0, 10993.0, 10959.0, 10955.0],
      "WindowWidth": [24083.0, 23913.0, 23875.0, 23814.0, 23727.0, 23675.0, 23684.0, 23764.0, 23818.0, 23800.0, 23759.0, 23760.0, 23760.0, 23743.0, 23778.0, 23817.0, 23752.0, 23727.0, 23712.0, 23744.0, 23813.0, 23905.0, 23833.0, 23816.0, 23818.0, 23775.0, 23718.0, 23724.0, 23675.0, 23674.0, 23676.0, 23745.0, 23797.0, 23776.0, 23748.0, 23742.0, 23761.0, 23781.0, 23774.0, 23758.0, 23762.0, 23743.0, 23760.0, 23754.0, 23795.0, 23811.0, 23704.0, 23672.0, 23686.0, 23760.0, 23784.0, 23705.0, 23654.0, 23678.0, 23710.0, 23688.0, 23728.0, 23738.0, 23736.0, 23759.0, 23751.0, 23740.0, 23705.0, 23672.0, 23715.0, 23773.0, 23780.0, 23815.0, 23785.0, 23793.0, 23734.0, 23705.0, 23771.0, 23811.0, 23812.0, 23740.0, 23652.0, 23667.0, 23705.0, 23719.0, 23715.0, 23688.0, 23722.0, 23728.0, 23744.0, 23725.0, 23723.0, 23719.0, 23713.0, 23682.0, 23690.0, 23668.0, 23686.0, 23683.0, 23722.0, 23747.0, 23741.0, 23735.0, 23702.0, 23722.0, 23694.0, 23719.0, 23764.0, 23724.0, 23714.0, 23728.0, 23659.0, 23649.0, 23672.0, 23651.0, 23670.0, 23697.0, 23717.0, 23700.0, 23701.0, 23686.0, 23671.0, 23699.0, 23714.0, 23741.0, 23785.0, 23763.0, 23772.0, 23697.0, 23675.0, 23641.0, 23644.0, 23683.0, 23716.0, 23726.0, 23689.0, 23678.0, 23650.0, 23642.0, 23671.0, 23663.0, 23704.0, 23691.0, 23707.0, 23673.0, 23676.0, 23740.0, 23688.0, 23698.0, 23686.0, 23677.0, 23646.0, 23650.0, 23609.0, 23608.0, 23621.0, 23532.0, 23577.0, 23623.0, 23698.0, 23643.0, 23658.0, 23649.0, 23657.0, 23660.0, 23639.0, 23640.0, 23648.0, 23651.0, 23645.0, 23620.0, 23624.0, 23615.0, 23671.0, 23592.0, 23594.0, 23613.0, 23615.0, 23602.0, 23579.0, 23578.0, 23583.0, 23621.0, 23584.0, 23595.0, 23636.0, 23604.0, 23627.0, 23624.0, 23605.0, 23637.0, 23684.0, 23629.0, 23556.0, 23551.0]
    },
    "slices": {}
  }
}