{
  "AcquisitionMatrixPE": 104,
  "AcquisitionNumber": 1,
  "AcquisitionTime": "11:11:56.647500",
  "BandwidthPerPixelPhaseEncode": 17.17,
  "BaseResolution": 104,
  "BodyPartExamined": "BRAIN",
  "CoilString": "HC1-7;NC1_2",
  "ConsistencyInfo": "N4_VE11C_LATEST_20160120",
  "ConversionSoftware": "dcm2niix",
  "ConversionSoftwareVersion": "v1.0.20190902",
  "DerivedVendorReportedEchoSpacing": 0.000560011,
  "DeviceSerialNumber": "167006",
  "DwellTime": 2.1e-06,
  "EchoTime": 0.037,
  "EchoTrainLength": 104,
  "EffectiveEchoSpacing": 0.000560011,
  "FlipAngle": 52,
  "ImageComments": "Unaliased_MB4_PE3_LB",
  "ImageOrientationPatientDICOM": [0.999594, 0.00375705, 0.0282282, 0.0108171, 0.866867, -0.498423],
  "ImageType": [
    "ORIGINAL",
    "PRIMARY",
    "M",
    "MB",
    "ND",
    "MOSAIC"
],
  "ImagingFrequency": 123.259,
  "InPlanePhaseEncodingDirectionDICOM": "COL",
  "InstitutionAddress": "Chemin_Queen-Mary_4565_Montreal_District_CA_H3W_1W5",
  "InstitutionName": "IUGM",
  "InstitutionalDepartmentName": "Department",
  "MRAcquisitionType": "2D",
  "MagneticFieldStrength": 3,
  "Manufacturer": "Siemens",
  "ManufacturersModelName": "Prisma_fit",
  "Modality": "MR",
  "MultibandAccelerationFactor": 4,
  "PartialFourier": 1,
  "PatientPosition": "HFS",
  "PercentPhaseFOV": 100,
  "PhaseEncodingDirection": "j",
  "PhaseEncodingSteps": 104,
  "PhaseResolution": 1,
  "PixelBandwidth": 2290,
  "ProcedureStepDescription": "memory_things",
  "ProtocolName": "func_task-things_run-3",
  "PulseSequenceDetails": "%CustomerSeq%_cmrr_mbep2d_bold",
  "ReceiveCoilActiveElements": "HC1-7;NC1,2",
  "ReceiveCoilName": "HeadNeck_64",
  "ReconMatrixPE": 104,
  "RepetitionTime": 1.49,
  "SAR": 0.0468254,
  "ScanOptions": "FS",
  "ScanningSequence": "EP",
  "SequenceName": "epfid2d1_104",
  "SequenceVariant": "SK_SS",
  "SeriesDescription": "func_task-things_run-3",
  "SeriesNumber": 16,
  "ShimSetting": [614, -7183, -8860, 284, -5, -121, -31, -36],
  "SliceThickness": 2,
  "SliceTiming": [0, 0.7825, 0.0975, 0.88, 0.195, 0.98, 0.2925, 1.0775, 0.39, 1.175, 0.49, 1.2725, 0.5875, 1.37, 0.685, 0, 0.7825, 0.0975, 0.88, 0.195, 0.98, 0.2925, 1.0775, 0.39, 1.175, 0.49, 1.2725, 0.5875, 1.37, 0.685, 0, 0.7825, 0.0975, 0.88, 0.195, 0.98, 0.2925, 1.0775, 0.39, 1.175, 0.49, 1.2725, 0.5875, 1.37, 0.685, 0, 0.7825, 0.0975, 0.88, 0.195, 0.98, 0.2925, 1.0775, 0.39, 1.175, 0.49, 1.2725, 0.5875, 1.37, 0.685],
  "SoftwareVersions": "syngo_MR_E11",
  "SpacingBetweenSlices": 2,
  "StationName": "MRC35049",
  "TaskName": "things",
  "TotalReadoutTime": 0.0576811,
  "TxRefAmp": 264.055,
  "WipMemBlock": "dfc7c6e6-c589-4922-ab0d-32968b0ece2a||Sequence: R016 ve11c/master r/e634e98; Dec 19 2017 11:00:25 by eja",
  "dcmmeta_affine": [
    [-1.9991888999938965, 0.02163425087928772, 0.0526854544878006, 104.6600112915039],
    [-0.007514097262173891, 1.7337334156036377, -0.9970517754554749, -52.03676223754883],
    [0.05645649880170822, 0.9968453049659729, 1.7329490184783936, -90.20436096191406],
    [0.0, 0.0, 0.0, 1.0]
],
  "dcmmeta_reorient_transform": [
    [0.0, -1.0, 0.0, 103.0],
    [1.0, 0.0, 0.0, 0.0],
    [0.0, 0.0, 1.0, 0.0],
    [0.0, 0.0, 0.0, 1.0]
],
  "dcmmeta_shape": [104, 104, 60, 190],
  "dcmmeta_slice_dim": 2,
  "dcmmeta_version": 0.6,
  "global": {
    "const": {
      "AcquisitionMatrix": [104, 0, 0, 104],
      "AngioFlag": "N",
      "BitsAllocated": 16,
      "BitsStored": 16,
      "BodyPartExamined": "BRAIN",
      "Columns": 832,
      "EchoNumbers": 1,
      "EchoTime": 37.0,
      "EchoTrainLength": 104,
      "FlipAngle": 52.0,
      "HighBit": 15,
      "ImageOrientationPatient": [0.99959444302151, 0.00375704866584, 0.02822824942925, 0.01081712584515, 0.86686668009692, -0.498422660727],
      "ImagePositionPatient": [-842.46796264008, -760.3518469937, 354.77224199051],
      "ImageType": [
        "ORIGINAL",
        "PRIMARY",
        "M",
        "MB",
        "ND",
        "MOSAIC"
],
      "ImagedNucleus": "1H",
      "ImagingFrequency": 123.258892,
      "InPlanePhaseEncodingDirection": "COL",
      "MRAcquisitionType": "2D",
      "MagneticFieldStrength": 3.0,
      "Manufacturer": "SIEMENS",
      "ManufacturerModelName": "Prisma_fit",
      "Modality": "MR",
      "NumberOfAverages": 1.0,
      "NumberOfPhaseEncodingSteps": 104,
      "PercentPhaseFieldOfView": 100.0,
      "PercentSampling": 100.0,
      "PerformedProcedureStepStartTime": "103356.019000",
      "PhotometricInterpretation": "MONOCHROME2",
      "PixelBandwidth": 2290.0,
      "PixelRepresentation": 0,
      "PixelSpacing": [2.0, 2.0],
      "ProtocolName": "func_task-things_run-3",
      "RepetitionTime": 1490.0,
      "Rows": 832,
      "SAR": 0.04682535540888,
      "SamplesPerPixel": 1,
      "ScanOptions": "FS",
      "ScanningSequence": "EP",
      "SequenceName": "epfid2d1_104",
      "SequenceVariant": [
        "SK",
        "SS"
],
      "SeriesDescription": "func_task-things_run-3",
      "SeriesNumber": 16,
      "SeriesTime": "111321.309000",
      "SliceLocation": -49.461070379451,
      "SliceThickness": 2.0,
      "SmallestImagePixelValue": 0,
      "SoftwareVersions": "syngo MR E11",
      "SpacingBetweenSlices": 2.0000000631221,
      "SpecificCharacterSet": "ISO_IR 100",
      "StudyID": "1",
      "StudyTime": "103355.941000",
      "TransmitCoilName": "Body",
      "VariableFlipAngleFlag": "N",
      "WindowCenterWidthExplanation": "Algo1",
      "dBdt": 0.0},
    "slices": {}
  },
  "time": {
    "samples": {
      "AcquisitionNumber": [1, 2, 3, 4, 5, 6, 7, 8, 9, 10, 11, 12, 13, 14, 15, 16, 17, 18, 19, 20, 21, 22, 23, 24, 25, 26, 27, 28, 29, 30, 31, 32, 33, 34, 35, 36, 37, 38, 39, 40, 41, 42, 43, 44, 45, 46, 47, 48, 49, 50, 51, 52, 53, 54, 55, 56, 57, 58, 59, 60, 61, 62, 63, 64, 65, 66, 67, 68, 69, 70, 71, 72, 73, 74, 75, 76, 77, 78, 79, 80, 81, 82, 83, 84, 85, 86, 87, 88, 89, 90, 91, 92, 93, 94, 95, 96, 97, 98, 99, 100, 101, 102, 103, 104, 105, 106, 107, 108, 109, 110, 111, 112, 113, 114, 115, 116, 117, 118, 119, 120, 121, 122, 123, 124, 125, 126, 127, 128, 129, 130, 131, 132, 133, 134, 135, 136, 137, 138, 139, 140, 141, 142, 143, 144, 145, 146, 147, 148, 149, 150, 151, 152, 153, 154, 155, 156, 157, 158, 159, 160, 161, 162, 163, 164, 165, 166, 167, 168, 169, 170, 171, 172, 173, 174, 175, 176, 177, 178, 179, 180, 181, 182, 183, 184, 185, 186, 187, 188, 189, 190],
      "AcquisitionTime": ["111156.647500", "111158.137500", "111159.627500", "111201.117500", "111202.607500", "111204.097500", "111205.587500", "111207.077500", "111208.567500", "111210.057500", "111211.547500", "111213.037500", "111214.527500", "111216.017500", "111217.507500", "111218.997500", "111220.487500", "111221.977500", "111223.467500", "111224.957500", "111226.447500", "111227.937500", "111229.427500", "111230.917500", "111232.407500", "111233.897500", "111235.387500", "111236.877500", "111238.367500", "111239.857500", "111241.347500", "111242.837500", "111244.327500", "111245.817500", "111247.307500", "111248.797500", "111250.287500", "111251.777500", "111253.267500", "111254.757500", "111256.247500", "111257.737500", "111259.227500", "111300.717500", "111302.207500", "111303.697500", "111305.187500", "111306.677500", "111308.167500", "111309.657500", "111311.147500", "111312.637500", "111314.127500", "111315.617500", "111317.107500", "111318.597500", "111320.087500", "111321.577500", "111323.067500", "111324.557500", "111326.047500", "111327.537500", "111329.027500", "111330.517500", "111332.007500", "111333.497500", "111334.987500", "111336.477500", "111337.967500", "111339.457500", "111340.947500", "111342.437500", "111343.927500", "111345.417500", "111346.907500", "111348.397500", "111349.887500", "111351.377500", "111352.867500", "111354.357500", "111355.847500", "111357.337500", "111358.827500", "111400.317500", "111401.807500", "111403.297500", "111404.787500", "111406.277500", "111407.767500", "111409.257500", "111410.747500", "111412.237500", "111413.727500", "111415.217500", "111416.707500", "111418.197500", "111419.687500", "111421.177500", "111422.667500", "111424.157500", "111425.647500", "111427.137500", "111428.627500", "111430.117500", "111431.607500", "111433.097500", "111434.587500", "111436.077500", "111437.567500", "111439.057500", "111440.547500", "111442.037500", "111443.527500", "111445.017500", "111446.507500", "111447.997500", "111449.487500", "111450.977500", "111452.467500", "111453.957500", "111455.447500", "111456.937500", "111458.427500", "111459.917500", "111501.407500", "111502.897500", "111504.387500", "111505.877500", "111507.367500", "111508.857500", "111510.347500", "111511.837500", "111513.327500", "111514.817500", "111516.307500", "111517.797500", "111519.287500", "111520.777500", "111522.267500", "111523.757500", "111525.247500", "111526.737500", "111528.227500", "111529.717500", "111531.207500", "111532.697500", "111534.187500", "111535.677500", "111537.167500", "111538.657500", "111540.147500", "111541.637500", "111543.127500", "111544.617500", "111546.107500", "111547.597500", "111549.087500", "111550.577500", "111552.067500", "111553.557500", "111555.047500", "111556.537500", "111558.027500", "111559.517500", "111601.007500", "111602.497500", "111603.987500", "111605.477500", "111606.967500", "111608.457500", "111609.947500", "111611.437500", "111612.927500", "111614.417500", "111615.907500", "111617.397500", "111618.887500", "111620.377500", "111621.867500", "111623.357500", "111624.847500", "111626.337500", "111627.827500", "111629.317500", "111630.807500", "111632.297500", "111633.787500", "111635.277500", "111636.767500", "111638.257500"],
      "ContentTime": ["111321.313000", "111321.316000", "111321.320000", "111321.331000", "111321.334000", "111321.337000", "111321.340000", "111321.344000", "111321.347000", "111321.350000", "111321.354000", "111321.357000", "111321.360000", "111321.364000", "111321.367000", "111321.370000", "111321.374000", "111321.377000", "111321.380000", "111321.383000", "111321.387000", "111321.390000", "111321.393000", "111321.397000", "111321.400000", "111321.403000", "111321.406000", "111321.410000", "111321.413000", "111321.416000", "111341.273000", "111341.277000", "111341.280000", "111341.283000", "111341.287000", "111341.290000", "111341.293000", "111341.296000", "111341.300000", "111341.303000", "111341.306000", "111341.310000", "111341.313000", "111341.316000", "111341.320000", "111341.323000", "111341.336000", "111341.339000", "111341.342000", "111341.345000", "111401.273000", "111401.277000", "111401.280000", "111401.284000", "111401.287000", "111401.290000", "111401.294000", "111401.297000", "111401.300000", "111401.304000", "111401.307000", "111401.310000", "111401.314000", "111401.317000", "111401.320000", "111401.324000", "111401.328000", "111401.331000", "111401.334000", "111401.338000", "111421.273000", "111421.277000", "111421.280000", "111421.283000", "111421.287000", "111421.290000", "111421.293000", "111421.297000", "111421.300000", "111421.303000", "111421.307000", "111421.310000", "111421.313000", "111421.317000", "111421.320000", "111421.323000", "111421.327000", "111421.330000", "111421.333000", "111421.337000", "111501.272000", "111501.276000", "111501.279000", "111501.283000", "111501.286000", "111501.289000", "111501.292000", "111501.296000", "111501.299000", "111501.302000", "111501.306000", "111501.309000", "111501.312000", "111501.316000", "111501.319000", "111501.322000", "111501.326000", "111501.329000", "111501.332000", "111501.336000", "111501.339000", "111501.342000", "111501.346000", "111501.349000", "111501.352000", "111501.356000", "111501.359000", "111501.362000", "111501.366000", "111501.369000", "111501.372000", "111501.376000", "111501.379000", "111541.273000", "111541.277000", "111541.280000", "111541.283000", "111541.287000", "111541.290000", "111541.293000", "111541.297000", "111541.300000", "111541.303000", "111541.307000", "111541.310000", "111541.313000", "111541.317000", "111541.320000", "111541.324000", "111541.327000", "111541.330000", "111541.334000", "111541.337000", "111541.340000", "111541.344000", "111541.347000", "111541.350000", "111541.353000", "111541.357000", "111541.360000", "111621.273000", "111621.277000", "111621.280000", "111621.284000", "111621.287000", "111621.290000", "111621.294000", "111621.297000", "111621.300000", "111621.304000", "111621.307000", "111621.310000", "111621.314000", "111621.327000", "111621.331000", "111621.334000", "111621.337000", "111621.341000", "111621.344000", "111621.347000", "111621.351000", "111621.354000", "111621.358000", "111621.361000", "111621.364000", "111621.368000", "111640.909000", "111640.913000", "111640.917000", "111640.920000", "111640.924000", "111640.927000", "111640.931000", "111640.934000", "111640.937000", "111640.941000", "111640.944000", "111640.947000", "111640.951000", "111640.954000"],
      "InstanceCreationTime": ["111321.313000", "111321.316000", "111321.320000", "111321.331000", "111321.334000", "111321.337000", "111321.340000", "111321.344000", "111321.347000", "111321.350000", "111321.354000", "111321.357000", "111321.360000", "111321.364000", "111321.367000", "111321.370000", "111321.374000", "111321.377000", "111321.380000", "111321.383000", "111321.387000", "111321.390000", "111321.393000", "111321.397000", "111321.400000", "111321.403000", "111321.406000", "111321.410000", "111321.413000", "111321.416000", "111341.273000", "111341.277000", "111341.280000", "111341.283000", "111341.287000", "111341.290000", "111341.293000", "111341.296000", "111341.300000", "111341.303000", "111341.306000", "111341.310000", "111341.313000", "111341.316000", "111341.320000", "111341.323000", "111341.336000", "111341.339000", "111341.342000", "111341.345000", "111401.273000", "111401.277000", "111401.280000", "111401.284000", "111401.287000", "111401.290000", "111401.294000", "111401.297000", "111401.300000", "111401.304000", "111401.307000", "111401.310000", "111401.314000", "111401.317000", "111401.320000", "111401.324000", "111401.328000", "111401.331000", "111401.334000", "111401.338000", "111421.273000", "111421.277000", "111421.280000", "111421.283000", "111421.287000", "111421.290000", "111421.293000", "111421.297000", "111421.300000", "111421.303000", "111421.307000", "111421.310000", "111421.313000", "111421.317000", "111421.320000", "111421.323000", "111421.327000", "111421.330000", "111421.333000", "111421.337000", "111501.272000", "111501.276000", "111501.279000", "111501.283000", "111501.286000", "111501.289000", "111501.292000", "111501.296000", "111501.299000", "111501.302000", "111501.306000", "111501.309000", "111501.312000", "111501.316000", "111501.319000", "111501.322000", "111501.326000", "111501.329000", "111501.332000", "111501.336000", "111501.339000", "111501.342000", "111501.346000", "111501.349000", "111501.352000", "111501.356000", "111501.359000", "111501.362000", "111501.366000", "111501.369000", "111501.372000", "111501.376000", "111501.379000", "111541.273000", "111541.277000", "111541.280000", "111541.283000", "111541.287000", "111541.290000", "111541.293000", "111541.297000", "111541.300000", "111541.303000", "111541.307000", "111541.310000", "111541.313000", "111541.317000", "111541.320000", "111541.324000", "111541.327000", "111541.330000", "111541.334000", "111541.337000", "111541.340000", "111541.344000", "111541.347000", "111541.350000", "111541.353000", "111541.357000", "111541.360000", "111621.273000", "111621.277000", "111621.280000", "111621.284000", "111621.287000", "111621.290000", "111621.294000", "111621.297000", "111621.300000", "111621.304000", "111621.307000", "111621.310000", "111621.314000", "111621.327000", "111621.331000", "111621.334000", "111621.337000", "111621.341000", "111621.344000", "111621.347000", "111621.351000", "111621.354000", "111621.358000", "111621.361000", "111621.364000", "111621.368000", "111640.909000", "111640.913000", "111640.917000", "111640.920000", "111640.924000", "111640.927000", "111640.931000", "111640.934000", "111640.937000", "111640.941000", "111640.944000", "111640.947000", "111640.951000", "111640.954000"],
      "InstanceNumber": [1, 2, 3, 4, 5, 6, 7, 8, 9, 10, 11, 12, 13, 14, 15, 16, 17, 18, 19, 20, 21, 22, 23, 24, 25, 26, 27, 28, 29, 30, 31, 32, 33, 34, 35, 36, 37, 38, 39, 40, 41, 42, 43, 44, 45, 46, 47, 48, 49, 50, 51, 52, 53, 54, 55, 56, 57, 58, 59, 60, 61, 62, 63, 64, 65, 66, 67, 68, 69, 70, 71, 72, 73, 74, 75, 76, 77, 78, 79, 80, 81, 82, 83, 84, 85, 86, 87, 88, 89, 90, 91, 92, 93, 94, 95, 96, 97, 98, 99, 100, 101, 102, 103, 104, 105, 106, 107, 108, 109, 110, 111, 112, 113, 114, 115, 116, 117, 118, 119, 120, 121, 122, 123, 124, 125, 126, 127, 128, 129, 130, 131, 132, 133, 134, 135, 136, 137, 138, 139, 140, 141, 142, 143, 144, 145, 146, 147, 148, 149, 150, 151, 152, 153, 154, 155, 156, 157, 158, 159, 160, 161, 162, 163, 164, 165, 166, 167, 168, 169, 170, 171, 172, 173, 174, 175, 176, 177, 178, 179, 180, 181, 182, 183, 184, 185, 186, 187, 188, 189, 190],
      "LargestImagePixelValue": [46714, 45131, 44291, 44181, 44133, 44449, 44345, 44660, 44687, 43662, 45368, 43298, 43682, 43707, 44341, 45569, 44379, 43417, 44778, 43975, 44476, 44002, 44854, 44466, 43553, 44950, 43984, 44233, 44357, 44179, 45142, 44235, 44960, 44664, 44829, 44324, 44053, 44579, 43247, 44655, 44154, 44212, 44417, 44228, 44478, 43969, 45123, 43649, 43504, 45028, 43634, 43774, 44829, 43843, 44870, 44048, 44132, 43511, 44228, 44498, 43680, 44342, 43428, 43651, 43808, 44374, 44470, 43880, 44088, 43391, 44721, 43696, 43744, 44029, 43524, 44894, 44339, 45024, 44645, 44843, 44360, 44391, 44618, 43733, 44331, 44137, 43801, 44654, 44073, 44637, 44282, 44208, 43711, 43452, 44375, 43441, 43875, 43589, 44470, 43315, 45163, 44031, 43964, 44339, 43672, 44076, 43942, 43480, 45053, 44603, 43398, 43857, 44591, 43841, 44570, 44324, 43804, 44512, 45010, 44171, 44377, 44124, 43325, 44221, 44311, 44146, 45143, 43896, 43579, 44826, 43690, 43545, 45186, 43933, 44245, 44913, 44513, 45047, 44184, 45819, 44401, 43092, 44278, 44116, 43490, 45420, 44423, 43849, 44809, 44477, 44478, 44819, 43980, 45253, 44627, 43807, 45559, 44044, 43315, 44610, 44303, 43884, 44577, 43976, 44424, 45009, 44766, 43832, 44057, 44780, 43055, 43524, 44066, 43657, 44445, 44020, 44386, 44522, 44826, 44287, 43521, 44592, 43635, 43563, 45437, 46322, 44353, 43522, 42548, 43561],
      "WindowCenter": [11109.0, 11050.0, 11013.0, 11000.0, 10979.0, 10974.0, 10971.0, 10970.0, 10971.0, 10966.0, 10991.0, 10982.0, 11007.0, 10994.0, 10991.0, 11016.0, 11018.0, 11004.0, 11013.0, 10984.0, 10978.0, 10990.0, 10987.0, 10962.0, 10948.0, 10964.0, 10963.0, 10970.0, 10951.0, 10944.0, 10955.0, 10960.0, 10965.0, 10968.0, 10965.0, 10962.0, 10979.0, 10978.0, 10953.0, 10974.0, 10953.0, 10951.0, 10956.0, 10949.0, 10958.0, 10961.0, 10972.0, 10967.0, 10960.0, 10970.0, 10956.0, 10937.0, 10937.0, 10943.0, 10973.0, 10974.0, 10962.0, 10943.0, 10933.0, 10949.0, 10944.0, 10949.0, 10938.0, 10938.0, 10944.0, 10990.0, 10997.0, 10974.0, 10939.0, 10921.0, 10961.0, 10995.0, 11002.0, 10969.0, 10953.0, 10970.0, 10972.0, 10961.0, 10947.0, 10937.0, 10933.0, 10941.0, 10941.0, 10929.0, 10929.0, 10930.0, 10933.0, 10935.0, 10931.0, 10948.0, 10947.0, 10953.0, 10958.0, 10953.0, 10962.0, 10947.0, 10948.0, 10956.0, 10975.0, 10961.0, 10982.0, 10973.0, 10967.0, 10960.0, 10949.0, 10947.0, 10947.0, 10959.0, 10974.0, 10975.0, 10961.0, 10949.0, 10940.0, 10942.0, 10950.0, 10949.0, 10938.0, 10939.0, 10944.0, 10942.0, 10944.0, 10933.0, 10915.0, 10931.0, 10941.0, 10954.0, 10973.0, 10965.0, 10960.0, 10961.0, 10945.0, 10942.0, 10955.0, 10943.0, 10953.0, 10957.0, 10957.0, 10964.0, 10956.0, 10960.0, 10951.0, 10946.0, 10955.0, 10943.0, 10950.0, 10960.0, 10967.0, 10966.0, 10960.0, 10924.0, 10929.0, 10953.0, 10964.0, 10986.0, 10981.0, 10961.0, 10964.0, 10945.0, 10935.0, 10947.0, 10934.0, 10943.0, 10970.0, 10959.0, 10968.0, 10984.0, 10987.0, 10963.0, 10949.0, 10932.0, 10904.0, 10917.0, 10959.0, 10948.0, 10969.0, 10964.0, 10956.0, 10951.0, 10941.0, 10936.0, 10924.0, 10924.0, 10912.0, 10910.0, 10938.0, 10982.0, 10987.0, 10961.0, 10900.0, 10894.0],
      "WindowWidth": [23989.0, 23809.0, 23705.0, 23657.0, 23600.0, 23583.0, 23571.0, 23567.0, 23570.0, 23570.0, 23616.0, 23603.0, 23663.0, 23634.0, 23620.0, 23669.0, 23680.0, 23653.0, 23670.0, 23605.0, 23586.0, 23615.0, 23607.0, 23550.0, 23523.0, 23549.0, 23553.0, 23569.0, 23522.0, 23508.0, 23529.0, 23542.0, 23553.0, 23564.0, 23552.0, 23551.0, 23591.0, 23587.0, 23536.0, 23576.0, 23531.0, 23526.0, 23536.0, 23520.0, 23538.0, 23549.0, 23572.0, 23564.0, 23552.0, 23566.0, 23542.0, 23500.0, 23496.0, 23510.0, 23577.0, 23578.0, 23553.0, 23517.0, 23487.0, 23521.0, 23516.0, 23522.0, 23501.0, 23500.0, 23513.0, 23612.0, 23632.0, 23582.0, 23502.0, 23460.0, 23547.0, 23629.0, 23651.0, 23573.0, 23535.0, 23565.0, 23572.0, 23545.0, 23516.0, 23489.0, 23483.0, 23507.0, 23499.0, 23476.0, 23475.0, 23477.0, 23485.0, 23485.0, 23479.0, 23518.0, 23519.0, 23531.0, 23545.0, 23538.0, 23554.0, 23522.0, 23525.0, 23546.0, 23582.0, 23557.0, 23596.0, 23581.0, 23570.0, 23551.0, 23528.0, 23525.0, 23524.0, 23551.0, 23586.0, 23582.0, 23554.0, 23528.0, 23503.0, 23506.0, 23528.0, 23519.0, 23498.0, 23495.0, 23502.0, 23501.0, 23510.0, 23484.0, 23448.0, 23479.0, 23502.0, 23532.0, 23571.0, 23558.0, 23550.0, 23551.0, 23511.0, 23509.0, 23530.0, 23508.0, 23530.0, 23536.0, 23536.0, 23549.0, 23541.0, 23538.0, 23522.0, 23520.0, 23536.0, 23510.0, 23531.0, 23541.0, 23558.0, 23560.0, 23540.0, 23462.0, 23470.0, 23524.0, 23555.0, 23608.0, 23594.0, 23551.0, 23551.0, 23512.0, 23491.0, 23514.0, 23488.0, 23507.0, 23568.0, 23545.0, 23560.0, 23596.0, 23605.0, 23557.0, 23522.0, 23479.0, 23420.0, 23451.0, 23548.0, 23525.0, 23563.0, 23553.0, 23535.0, 23522.0, 23496.0, 23485.0, 23461.0, 23458.0, 23436.0, 23436.0, 23487.0, 23581.0, 23606.0, 23555.0, 23416.0, 23393.0]
    },
    "slices": {}
  }
}