{
  "AcquisitionMatrixPE": 104,
  "AcquisitionNumber": 1,
  "AcquisitionTime": "11:11:56.647500",
  "BandwidthPerPixelPhaseEncode": 17.17,
  "BaseResolution": 104,
  "BodyPartExamined": "BRAIN",
  "CoilString": "HC1-7;NC1_2",
  "ConsistencyInfo": "N4_VE11C_LATEST_20160120",
  "ConversionSoftware": "dcm2niix",
  "ConversionSoftwareVersion": "v1.0.20190902",
  "DerivedVendorReportedEchoSpacing": 0.000560011,
  "DeviceSerialNumber": "167006",
  "DwellTime": 2.1e-06,
  "EchoTime": 0.037,
  "EchoTrainLength": 104,
  "EffectiveEchoSpacing": 0.000560011,
  "FlipAngle": 52,
  "ImageComments": "Unaliased_MB4_PE3_LB",
  "ImageOrientationPatientDICOM": [0.999594, 0.00375705, 0.0282282, 0.0108171, 0.866867, -0.498423],
  "ImageType": [
    "ORIGINAL",
    "PRIMARY",
    "P",
    "MB",
    "ND",
    "MOSAIC"
],
  "ImagingFrequency": 123.259,
  "InPlanePhaseEncodingDirectionDICOM": "COL",
  "InstitutionAddress": "Chemin_Queen-Mary_4565_Montreal_District_CA_H3W_1W5",
  "InstitutionName": "IUGM",
  "InstitutionalDepartmentName": "Department",
  "MRAcquisitionType": "2D",
  "MagneticFieldStrength": 3,
  "Manufacturer": "Siemens",
  "ManufacturersModelName": "Prisma_fit",
  "Modality": "MR",
  "MultibandAccelerationFactor": 4,
  "PartialFourier": 1,
  "PatientPosition": "HFS",
  "PercentPhaseFOV": 100,
  "PhaseEncodingDirection": "j",
  "PhaseEncodingSteps": 104,
  "PhaseResolution": 1,
  "PixelBandwidth": 2290,
  "ProcedureStepDescription": "memory_things",
  "ProtocolName": "func_task-things_run-3",
  "PulseSequenceDetails": "%CustomerSeq%_cmrr_mbep2d_bold",
  "ReceiveCoilActiveElements": "HC1-7;NC1,2",
  "ReceiveCoilName": "HeadNeck_64",
  "ReconMatrixPE": 104,
  "RepetitionTime": 1.49,
  "SAR": 0.0468254,
  "ScanOptions": "FS",
  "ScanningSequence": "EP",
  "SequenceName": "epfid2d1_104",
  "SequenceVariant": "SK_SS",
  "SeriesDescription": "func_task-things_run-3",
  "SeriesNumber": 17,
  "ShimSetting": [614, -7183, -8860, 284, -5, -121, -31, -36],
  "SliceThickness": 2,
  "SliceTiming": [0, 0.7825, 0.0975, 0.88, 0.195, 0.98, 0.2925, 1.0775, 0.39, 1.175, 0.49, 1.2725, 0.5875, 1.37, 0.685, 0, 0.7825, 0.0975, 0.88, 0.195, 0.98, 0.2925, 1.0775, 0.39, 1.175, 0.49, 1.2725, 0.5875, 1.37, 0.685, 0, 0.7825, 0.0975, 0.88, 0.195, 0.98, 0.2925, 1.0775, 0.39, 1.175, 0.49, 1.2725, 0.5875, 1.37, 0.685, 0, 0.7825, 0.0975, 0.88, 0.195, 0.98, 0.2925, 1.0775, 0.39, 1.175, 0.49, 1.2725, 0.5875, 1.37, 0.685],
  "SoftwareVersions": "syngo_MR_E11",
  "SpacingBetweenSlices": 2,
  "StationName": "MRC35049",
  "TaskName": "things",
  "TotalReadoutTime": 0.0576811,
  "TxRefAmp": 264.055,
  "WipMemBlock": "dfc7c6e6-c589-4922-ab0d-32968b0ece2a||Sequence: R016 ve11c/master r/e634e98; Dec 19 2017 11:00:25 by eja",
  "dcmmeta_affine": [
    [-1.9991888999938965, 0.02163425087928772, 0.0526854544878006, 104.6600112915039],
    [-0.007514097262173891, 1.7337334156036377, -0.9970517754554749, -52.03676223754883],
    [0.05645649880170822, 0.9968453049659729, 1.7329490184783936, -90.20436096191406],
    [0.0, 0.0, 0.0, 1.0]
],
  "dcmmeta_reorient_transform": [
    [0.0, -1.0, 0.0, 103.0],
    [1.0, 0.0, 0.0, 0.0],
    [0.0, 0.0, 1.0, 0.0],
    [0.0, 0.0, 0.0, 1.0]
],
  "dcmmeta_shape": [104, 104, 60, 190],
  "dcmmeta_slice_dim": 2,
  "dcmmeta_version": 0.6,
  "global": {
    "const": {
      "AcquisitionMatrix": [104, 0, 0, 104],
      "AngioFlag": "N",
      "BitsAllocated": 16,
      "BitsStored": 16,
      "BodyPartExamined": "BRAIN",
      "Columns": 832,
      "EchoNumbers": 1,
      "EchoTime": 37.0,
      "EchoTrainLength": 104,
      "FlipAngle": 52.0,
      "HighBit": 15,
      "ImageOrientationPatient": [0.99959444302151, 0.00375704866584, 0.02822824942925, 0.01081712584515, 0.86686668009692, -0.498422660727],
      "ImagePositionPatient": [-842.46796264008, -760.3518469937, 354.77224199051],
      "ImageType": [
        "ORIGINAL",
        "PRIMARY",
        "P",
        "MB",
        "ND",
        "MOSAIC"
],
      "ImagedNucleus": "1H",
      "ImagingFrequency": 123.258892,
      "InPlanePhaseEncodingDirection": "COL",
      "LargestImagePixelValue": 4095,
      "MRAcquisitionType": "2D",
      "MagneticFieldStrength": 3.0,
      "Manufacturer": "SIEMENS",
      "ManufacturerModelName": "Prisma_fit",
      "Modality": "MR",
      "NumberOfAverages": 1.0,
      "NumberOfPhaseEncodingSteps": 104,
      "PercentPhaseFieldOfView": 100.0,
      "PercentSampling": 100.0,
      "PerformedProcedureStepStartTime": "103356.019000",
      "PhotometricInterpretation": "MONOCHROME2",
      "PixelBandwidth": 2290.0,
      "PixelRepresentation": 0,
      "PixelSpacing": [2.0, 2.0],
      "ProtocolName": "func_task-things_run-3",
      "RepetitionTime": 1490.0,
      "RescaleIntercept": -4096.0,
      "RescaleSlope": 2.0,
      "RescaleType": "US",
      "Rows": 832,
      "SAR": 0.04682535540888,
      "SamplesPerPixel": 1,
      "ScanOptions": "FS",
      "ScanningSequence": "EP",
      "SequenceName": "epfid2d1_104",
      "SequenceVariant": [
        "SK",
        "SS"
],
      "SeriesDescription": "func_task-things_run-3",
      "SeriesNumber": 17,
      "SeriesTime": "111321.450000",
      "SliceLocation": -49.461070379451,
      "SliceThickness": 2.0,
      "SmallestImagePixelValue": 0,
      "SoftwareVersions": "syngo MR E11",
      "SpacingBetweenSlices": 2.0000000631221,
      "SpecificCharacterSet": "ISO_IR 100",
      "StudyID": "1",
      "StudyTime": "103355.941000",
      "TransmitCoilName": "Body",
      "VariableFlipAngleFlag": "N",
      "WindowCenterWidthExplanation": "Algo1",
      "dBdt": 0.0},
    "slices": {}
  },
  "time": {
    "samples": {
      "AcquisitionNumber": [1, 2, 3, 4, 5, 6, 7, 8, 9, 10, 11, 12, 13, 14, 15, 16, 17, 18, 19, 20, 21, 22, 23, 24, 25, 26, 27, 28, 29, 30, 31, 32, 33, 34, 35, 36, 37, 38, 39, 40, 41, 42, 43, 44, 45, 46, 47, 48, 49, 50, 51, 52, 53, 54, 55, 56, 57, 58, 59, 60, 61, 62, 63, 64, 65, 66, 67, 68, 69, 70, 71, 72, 73, 74, 75, 76, 77, 78, 79, 80, 81, 82, 83, 84, 85, 86, 87, 88, 89, 90, 91, 92, 93, 94, 95, 96, 97, 98, 99, 100, 101, 102, 103, 104, 105, 106, 107, 108, 109, 110, 111, 112, 113, 114, 115, 116, 117, 118, 119, 120, 121, 122, 123, 124, 125, 126, 127, 128, 129, 130, 131, 132, 133, 134, 135, 136, 137, 138, 139, 140, 141, 142, 143, 144, 145, 146, 147, 148, 149, 150, 151, 152, 153, 154, 155, 156, 157, 158, 159, 160, 161, 162, 163, 164, 165, 166, 167, 168, 169, 170, 171, 172, 173, 174, 175, 176, 177, 178, 179, 180, 181, 182, 183, 184, 185, 186, 187, 188, 189, 190],
      "AcquisitionTime": ["111156.647500", "111158.137500", "111159.627500", "111201.117500", "111202.607500", "111204.097500", "111205.587500", "111207.077500", "111208.567500", "111210.057500", "111211.547500", "111213.037500", "111214.527500", "111216.017500", "111217.507500", "111218.997500", "111220.487500", "111221.977500", "111223.467500", "111224.957500", "111226.447500", "111227.937500", "111229.427500", "111230.917500", "111232.407500", "111233.897500", "111235.387500", "111236.877500", "111238.367500", "111239.857500", "111241.347500", "111242.837500", "111244.327500", "111245.817500", "111247.307500", "111248.797500", "111250.287500", "111251.777500", "111253.267500", "111254.757500", "111256.247500", "111257.737500", "111259.227500", "111300.717500", "111302.207500", "111303.697500", "111305.187500", "111306.677500", "111308.167500", "111309.657500", "111311.147500", "111312.637500", "111314.127500", "111315.617500", "111317.107500", "111318.597500", "111320.087500", "111321.577500", "111323.067500", "111324.557500", "111326.047500", "111327.537500", "111329.027500", "111330.517500", "111332.007500", "111333.497500", "111334.987500", "111336.477500", "111337.967500", "111339.457500", "111340.947500", "111342.437500", "111343.927500", "111345.417500", "111346.907500", "111348.397500", "111349.887500", "111351.377500", "111352.867500", "111354.357500", "111355.847500", "111357.337500", "111358.827500", "111400.317500", "111401.807500", "111403.297500", "111404.787500", "111406.277500", "111407.767500", "111409.257500", "111410.747500", "111412.237500", "111413.727500", "111415.217500", "111416.707500", "111418.197500", "111419.687500", "111421.177500", "111422.667500", "111424.157500", "111425.647500", "111427.137500", "111428.627500", "111430.117500", "111431.607500", "111433.097500", "111434.587500", "111436.077500", "111437.567500", "111439.057500", "111440.547500", "111442.037500", "111443.527500", "111445.017500", "111446.507500", "111447.997500", "111449.487500", "111450.977500", "111452.467500", "111453.957500", "111455.447500", "111456.937500", "111458.427500", "111459.917500", "111501.407500", "111502.897500", "111504.387500", "111505.877500", "111507.367500", "111508.857500", "111510.347500", "111511.837500", "111513.327500", "111514.817500", "111516.307500", "111517.797500", "111519.287500", "111520.777500", "111522.267500", "111523.757500", "111525.247500", "111526.737500", "111528.227500", "111529.717500", "111531.207500", "111532.697500", "111534.187500", "111535.677500", "111537.167500", "111538.657500", "111540.147500", "111541.637500", "111543.127500", "111544.617500", "111546.107500", "111547.597500", "111549.087500", "111550.577500", "111552.067500", "111553.557500", "111555.047500", "111556.537500", "111558.027500", "111559.517500", "111601.007500", "111602.497500", "111603.987500", "111605.477500", "111606.967500", "111608.457500", "111609.947500", "111611.437500", "111612.927500", "111614.417500", "111615.907500", "111617.397500", "111618.887500", "111620.377500", "111621.867500", "111623.357500", "111624.847500", "111626.337500", "111627.827500", "111629.317500", "111630.807500", "111632.297500", "111633.787500", "111635.277500", "111636.767500", "111638.257500"],
      "ContentTime": ["111321.453000", "111321.455000", "111321.458000", "111321.460000", "111321.463000", "111321.465000", "111321.468000", "111321.470000", "111321.473000", "111321.475000", "111321.478000", "111321.480000", "111321.483000", "111321.485000", "111321.488000", "111321.490000", "111321.493000", "111321.495000", "111321.498000", "111321.500000", "111321.503000", "111321.505000", "111321.508000", "111321.510000", "111321.513000", "111321.515000", "111321.518000", "111321.520000", "111321.523000", "111321.525000", "111341.387000", "111341.390000", "111341.392000", "111341.395000", "111341.397000", "111341.400000", "111341.402000", "111341.405000", "111341.407000", "111341.410000", "111341.412000", "111341.415000", "111341.417000", "111341.420000", "111341.422000", "111341.424000", "111341.427000", "111341.429000", "111341.432000", "111341.434000", "111401.397000", "111401.400000", "111401.403000", "111401.405000", "111401.408000", "111401.410000", "111401.413000", "111401.415000", "111401.418000", "111401.420000", "111401.423000", "111401.425000", "111401.428000", "111401.430000", "111401.433000", "111401.435000", "111401.438000", "111401.440000", "111401.443000", "111401.445000", "111421.379000", "111421.382000", "111421.385000", "111421.387000", "111421.390000", "111421.392000", "111421.395000", "111421.397000", "111421.400000", "111421.402000", "111421.405000", "111421.407000", "111421.410000", "111421.412000", "111421.415000", "111421.417000", "111421.420000", "111421.423000", "111421.425000", "111421.428000", "111501.857000", "111501.859000", "111501.862000", "111501.865000", "111501.867000", "111501.870000", "111501.873000", "111501.875000", "111501.878000", "111501.880000", "111501.883000", "111501.886000", "111501.888000", "111501.891000", "111501.893000", "111501.896000", "111501.898000", "111501.901000", "111501.904000", "111501.906000", "111501.909000", "111501.911000", "111501.914000", "111501.916000", "111501.919000", "111501.922000", "111501.925000", "111501.928000", "111501.930000", "111501.933000", "111501.936000", "111501.938000", "111501.941000", "111541.419000", "111541.422000", "111541.425000", "111541.427000", "111541.430000", "111541.432000", "111541.435000", "111541.437000", "111541.440000", "111541.442000", "111541.445000", "111541.447000", "111541.450000", "111541.453000", "111541.455000", "111541.466000", "111541.468000", "111541.471000", "111541.474000", "111541.476000", "111541.479000", "111541.481000", "111541.484000", "111541.486000", "111541.489000", "111541.491000", "111541.494000", "111621.421000", "111621.423000", "111621.426000", "111621.428000", "111621.431000", "111621.433000", "111621.436000", "111621.439000", "111621.441000", "111621.444000", "111621.446000", "111621.449000", "111621.451000", "111621.454000", "111621.456000", "111621.460000", "111621.463000", "111621.466000", "111621.468000", "111621.471000", "111621.474000", "111621.477000", "111621.479000", "111621.491000", "111621.493000", "111621.496000", "111640.992000", "111640.995000", "111640.997000", "111641.001000", "111641.003000", "111641.006000", "111641.009000", "111641.011000", "111641.014000", "111641.016000", "111641.019000", "111641.021000", "111641.024000", "111641.026000"],
      "InstanceCreationTime": ["111321.453000", "111321.455000", "111321.458000", "111321.460000", "111321.463000", "111321.465000", "111321.468000", "111321.470000", "111321.473000", "111321.475000", "111321.478000", "111321.480000", "111321.483000", "111321.485000", "111321.488000", "111321.490000", "111321.493000", "111321.495000", "111321.498000", "111321.500000", "111321.503000", "111321.505000", "111321.508000", "111321.510000", "111321.513000", "111321.515000", "111321.518000", "111321.520000", "111321.523000", "111321.525000", "111341.387000", "111341.390000", "111341.392000", "111341.395000", "111341.397000", "111341.400000", "111341.402000", "111341.405000", "111341.407000", "111341.410000", "111341.412000", "111341.415000", "111341.417000", "111341.420000", "111341.422000", "111341.424000", "111341.427000", "111341.429000", "111341.432000", "111341.434000", "111401.397000", "111401.400000", "111401.403000", "111401.405000", "111401.408000", "111401.410000", "111401.413000", "111401.415000", "111401.418000", "111401.420000", "111401.423000", "111401.425000", "111401.428000", "111401.430000", "111401.433000", "111401.435000", "111401.438000", "111401.440000", "111401.443000", "111401.445000", "111421.379000", "111421.382000", "111421.385000", "111421.387000", "111421.390000", "111421.392000", "111421.395000", "111421.397000", "111421.400000", "111421.402000", "111421.405000", "111421.407000", "111421.410000", "111421.412000", "111421.415000", "111421.417000", "111421.420000", "111421.423000", "111421.425000", "111421.428000", "111501.857000", "111501.859000", "111501.862000", "111501.865000", "111501.867000", "111501.870000", "111501.873000", "111501.875000", "111501.878000", "111501.880000", "111501.883000", "111501.886000", "111501.888000", "111501.891000", "111501.893000", "111501.896000", "111501.898000", "111501.901000", "111501.904000", "111501.906000", "111501.909000", "111501.911000", "111501.914000", "111501.916000", "111501.919000", "111501.922000", "111501.925000", "111501.928000", "111501.930000", "111501.933000", "111501.936000", "111501.938000", "111501.941000", "111541.419000", "111541.422000", "111541.425000", "111541.427000", "111541.430000", "111541.432000", "111541.435000", "111541.437000", "111541.440000", "111541.442000", "111541.445000", "111541.447000", "111541.450000", "111541.453000", "111541.455000", "111541.466000", "111541.468000", "111541.471000", "111541.474000", "111541.476000", "111541.479000", "111541.481000", "111541.484000", "111541.486000", "111541.489000", "111541.491000", "111541.494000", "111621.421000", "111621.423000", "111621.426000", "111621.428000", "111621.431000", "111621.433000", "111621.436000", "111621.439000", "111621.441000", "111621.444000", "111621.446000", "111621.449000", "111621.451000", "111621.454000", "111621.456000", "111621.460000", "111621.463000", "111621.466000", "111621.468000", "111621.471000", "111621.474000", "111621.477000", "111621.479000", "111621.491000", "111621.493000", "111621.496000", "111640.992000", "111640.995000", "111640.997000", "111641.001000", "111641.003000", "111641.006000", "111641.009000", "111641.011000", "111641.014000", "111641.016000", "111641.019000", "111641.021000", "111641.024000", "111641.026000"],
      "InstanceNumber": [1, 2, 3, 4, 5, 6, 7, 8, 9, 10, 11, 12, 13, 14, 15, 16, 17, 18, 19, 20, 21, 22, 23, 24, 25, 26, 27, 28, 29, 30, 31, 32, 33, 34, 35, 36, 37, 38, 39, 40, 41, 42, 43, 44, 45, 46, 47, 48, 49, 50, 51, 52, 53, 54, 55, 56, 57, 58, 59, 60, 61, 62, 63, 64, 65, 66, 67, 68, 69, 70, 71, 72, 73, 74, 75, 76, 77, 78, 79, 80, 81, 82, 83, 84, 85, 86, 87, 88, 89, 90, 91, 92, 93, 94, 95, 96, 97, 98, 99, 100, 101, 102, 103, 104, 105, 106, 107, 108, 109, 110, 111, 112, 113, 114, 115, 116, 117, 118, 119, 120, 121, 122, 123, 124, 125, 126, 127, 128, 129, 130, 131, 132, 133, 134, 135, 136, 137, 138, 139, 140, 141, 142, 143, 144, 145, 146, 147, 148, 149, 150, 151, 152, 153, 154, 155, 156, 157, 158, 159, 160, 161, 162, 163, 164, 165, 166, 167, 168, 169, 170, 171, 172, 173, 174, 175, 176, 177, 178, 179, 180, 181, 182, 183, 184, 185, 186, 187, 188, 189, 190],
      "WindowCenter": [4884.0, 4882.0, 4862.0, 4884.0, 4860.0, 4862.0, 4884.0, 4884.0, 4902.0, 4882.0, 4902.0, 4904.0, 4864.0, 4856.0, 4832.0, 4886.0, 4906.0, 4886.0, 4884.0, 4884.0, 4906.0, 4886.0, 4886.0, 4884.0, 4884.0, 4886.0, 4862.0, 4888.0, 4884.0, 4862.0, 4884.0, 4884.0, 4888.0, 4884.0, 4880.0, 4882.0, 4862.0, 4882.0, 4864.0, 4882.0, 4886.0, 4866.0, 4884.0, 4884.0, 4882.0, 4884.0, 4902.0, 4904.0, 4886.0, 4888.0, 4884.0, 4862.0, 4886.0, 4862.0, 4888.0, 4886.0, 4884.0, 4882.0, 4884.0, 4884.0, 4884.0, 4882.0, 4884.0, 4862.0, 4860.0, 4886.0, 4886.0, 4862.0, 4904.0, 4880.0, 4900.0, 4906.0, 4864.0, 4888.0, 4832.0, 4862.0, 4862.0, 4884.0, 4886.0, 4882.0, 4884.0, 4884.0, 4904.0, 4882.0, 4884.0, 4886.0, 4858.0, 4866.0, 4864.0, 4862.0, 4882.0, 4880.0, 4882.0, 4884.0, 4902.0, 4882.0, 4888.0, 4858.0, 4888.0, 4860.0, 4888.0, 4884.0, 4882.0, 4904.0, 4882.0, 4886.0, 4886.0, 4860.0, 4886.0, 4904.0, 4884.0, 4862.0, 4888.0, 4862.0, 4886.0, 4888.0, 4884.0, 4884.0, 4904.0, 4882.0, 4884.0, 4884.0, 4862.0, 4864.0, 4864.0, 4864.0, 4884.0, 4884.0, 4884.0, 4904.0, 4882.0, 4864.0, 4884.0, 4864.0, 4860.0, 4864.0, 4862.0, 4888.0, 4882.0, 4898.0, 4904.0, 4882.0, 4884.0, 4886.0, 4860.0, 4886.0, 4886.0, 4884.0, 4884.0, 4884.0, 4882.0, 4882.0, 4888.0, 4882.0, 4884.0, 4864.0, 4882.0, 4882.0, 4864.0, 4890.0, 4884.0, 4864.0, 4886.0, 4862.0, 4886.0, 4884.0, 4902.0, 4884.0, 4886.0, 4906.0, 4862.0, 4864.0, 4862.0, 4860.0, 4862.0, 4888.0, 4880.0, 4884.0, 4904.0, 4880.0, 4884.0, 4884.0, 4886.0, 4862.0, 4904.0, 4884.0, 4900.0, 4910.0, 4856.0, 4820.0],
      "WindowWidth": [18660.0, 18666.0, 18628.0, 18654.0, 18626.0, 18630.0, 18658.0, 18660.0, 18704.0, 18664.0, 18712.0, 18714.0, 18630.0, 18612.0, 18580.0, 18670.0, 18700.0, 18664.0, 18672.0, 18660.0, 18698.0, 18660.0, 18668.0, 18668.0, 18660.0, 18668.0, 18626.0, 18662.0, 18664.0, 18630.0, 18670.0, 18666.0, 18674.0, 18664.0, 18660.0, 18672.0, 18630.0, 18660.0, 18628.0, 18658.0, 18664.0, 18628.0, 18662.0, 18662.0, 18668.0, 18662.0, 18710.0, 18698.0, 18660.0, 18666.0, 18658.0, 18622.0, 18658.0, 18626.0, 18668.0, 18662.0, 18658.0, 18660.0, 18662.0, 18664.0, 18658.0, 18660.0, 18660.0, 18630.0, 18626.0, 18658.0, 18660.0, 18630.0, 18704.0, 18656.0, 18712.0, 18706.0, 18628.0, 18660.0, 18578.0, 18622.0, 18618.0, 18658.0, 18656.0, 18670.0, 18666.0, 18664.0, 18698.0, 18660.0, 18658.0, 18660.0, 18620.0, 18632.0, 18628.0, 18624.0, 18654.0, 18660.0, 18662.0, 18660.0, 18708.0, 18656.0, 18662.0, 18614.0, 18662.0, 18622.0, 18668.0, 18658.0, 18658.0, 18700.0, 18654.0, 18664.0, 18662.0, 18618.0, 18666.0, 18700.0, 18658.0, 18628.0, 18662.0, 18630.0, 18660.0, 18664.0, 18662.0, 18656.0, 18702.0, 18664.0, 18662.0, 18662.0, 18624.0, 18626.0, 18630.0, 18628.0, 18666.0, 18664.0, 18654.0, 18706.0, 18662.0, 18622.0, 18656.0, 18628.0, 18618.0, 18634.0, 18624.0, 18666.0, 18660.0, 18706.0, 18718.0, 18658.0, 18662.0, 18656.0, 18618.0, 18662.0, 18662.0, 18660.0, 18664.0, 18664.0, 18658.0, 18664.0, 18662.0, 18664.0, 18668.0, 18628.0, 18668.0, 18666.0, 18626.0, 18664.0, 18662.0, 18632.0, 18662.0, 18630.0, 18656.0, 18666.0, 18718.0, 18666.0, 18662.0, 18708.0, 18620.0, 18622.0, 18624.0, 18616.0, 18628.0, 18662.0, 18664.0, 18660.0, 18698.0, 18666.0, 18658.0, 18668.0, 18660.0, 18622.0, 18708.0, 18742.0, 18732.0, 18698.0, 18604.0, 18564.0]
    },
    "slices": {}
  }
}