{
  "AcquisitionMatrixPE": 104,
  "AcquisitionNumber": 1,
  "AcquisitionTime": "11:30:2.845000",
  "BandwidthPerPixelPhaseEncode": 17.17,
  "BaseResolution": 104,
  "BodyPartExamined": "BRAIN",
  "CoilString": "HC1-7;NC1_2",
  "ConsistencyInfo": "N4_VE11C_LATEST_20160120",
  "ConversionSoftware": "dcm2niix",
  "ConversionSoftwareVersion": "v1.0.20190902",
  "DerivedVendorReportedEchoSpacing": 0.000560011,
  "DeviceSerialNumber": "167006",
  "DwellTime": 2.1e-06,
  "EchoTime": 0.037,
  "EchoTrainLength": 104,
  "EffectiveEchoSpacing": 0.000560011,
  "FlipAngle": 52,
  "ImageComments": "Unaliased_MB4_PE3_LB",
  "ImageOrientationPatientDICOM": [0.999594, 0.00375705, 0.0282282, 0.0108171, 0.866867, -0.498423],
  "ImageType": [
    "ORIGINAL",
    "PRIMARY",
    "M",
    "MB",
    "ND",
    "MOSAIC"
],
  "ImagingFrequency": 123.259,
  "InPlanePhaseEncodingDirectionDICOM": "COL",
  "InstitutionAddress": "Chemin_Queen-Mary_4565_Montreal_District_CA_H3W_1W5",
  "InstitutionName": "IUGM",
  "InstitutionalDepartmentName": "Department",
  "MRAcquisitionType": "2D",
  "MagneticFieldStrength": 3,
  "Manufacturer": "Siemens",
  "ManufacturersModelName": "Prisma_fit",
  "Modality": "MR",
  "MultibandAccelerationFactor": 4,
  "PartialFourier": 1,
  "PatientPosition": "HFS",
  "PercentPhaseFOV": 100,
  "PhaseEncodingDirection": "j",
  "PhaseEncodingSteps": 104,
  "PhaseResolution": 1,
  "PixelBandwidth": 2290,
  "ProcedureStepDescription": "memory_things",
  "ProtocolName": "func_task-things_run-6",
  "PulseSequenceDetails": "%CustomerSeq%_cmrr_mbep2d_bold",
  "ReceiveCoilActiveElements": "HC1-7;NC1,2",
  "ReceiveCoilName": "HeadNeck_64",
  "ReconMatrixPE": 104,
  "RepetitionTime": 1.49,
  "SAR": 0.0468254,
  "ScanOptions": "FS",
  "ScanningSequence": "EP",
  "SequenceName": "epfid2d1_104",
  "SequenceVariant": "SK_SS",
  "SeriesDescription": "func_task-things_run-6",
  "SeriesNumber": 25,
  "ShimSetting": [614, -7183, -8860, 284, -5, -121, -31, -36],
  "SliceThickness": 2,
  "SliceTiming": [0, 0.785, 0.1, 0.8825, 0.1975, 0.98, 0.295, 1.08, 0.3925, 1.1775, 0.49, 1.275, 0.59, 1.3725, 0.6875, 0, 0.785, 0.1, 0.8825, 0.1975, 0.98, 0.295, 1.08, 0.3925, 1.1775, 0.49, 1.275, 0.59, 1.3725, 0.6875, 0, 0.785, 0.1, 0.8825, 0.1975, 0.98, 0.295, 1.08, 0.3925, 1.1775, 0.49, 1.275, 0.59, 1.3725, 0.6875, 0, 0.785, 0.1, 0.8825, 0.1975, 0.98, 0.295, 1.08, 0.3925, 1.1775, 0.49, 1.275, 0.59, 1.3725, 0.6875],
  "SoftwareVersions": "syngo_MR_E11",
  "SpacingBetweenSlices": 2,
  "StationName": "MRC35049",
  "TaskName": "things",
  "TotalReadoutTime": 0.0576811,
  "TxRefAmp": 264.055,
  "WipMemBlock": "f9a6efba-9e26-44a1-aaae-ecdfb470faae||Sequence: R016 ve11c/master r/e634e98; Dec 19 2017 11:00:25 by eja",
  "dcmmeta_affine": [
    [-1.9991888999938965, 0.02163425087928772, 0.0526854544878006, 104.6600112915039],
    [-0.007514097262173891, 1.7337334156036377, -0.9970517754554749, -52.03676223754883],
    [0.05645649880170822, 0.9968453049659729, 1.7329490184783936, -90.20436096191406],
    [0.0, 0.0, 0.0, 1.0]
],
  "dcmmeta_reorient_transform": [
    [0.0, -1.0, 0.0, 103.0],
    [1.0, 0.0, 0.0, 0.0],
    [0.0, 0.0, 1.0, 0.0],
    [0.0, 0.0, 0.0, 1.0]
],
  "dcmmeta_shape": [104, 104, 60, 190],
  "dcmmeta_slice_dim": 2,
  "dcmmeta_version": 0.6,
  "global": {
    "const": {
      "AcquisitionMatrix": [104, 0, 0, 104],
      "AngioFlag": "N",
      "BitsAllocated": 16,
      "BitsStored": 16,
      "BodyPartExamined": "BRAIN",
      "Columns": 832,
      "EchoNumbers": 1,
      "EchoTime": 37.0,
      "EchoTrainLength": 104,
      "FlipAngle": 52.0,
      "HighBit": 15,
      "ImageOrientationPatient": [0.99959444302151, 0.00375704866584, 0.02822824942925, 0.01081712584515, 0.86686668009692, -0.498422660727],
      "ImagePositionPatient": [-842.46796264008, -760.3518469937, 354.77224199051],
      "ImageType": [
        "ORIGINAL",
        "PRIMARY",
        "M",
        "MB",
        "ND",
        "MOSAIC"
],
      "ImagedNucleus": "1H",
      "ImagingFrequency": 123.258901,
      "InPlanePhaseEncodingDirection": "COL",
      "MRAcquisitionType": "2D",
      "MagneticFieldStrength": 3.0,
      "Manufacturer": "SIEMENS",
      "ManufacturerModelName": "Prisma_fit",
      "Modality": "MR",
      "NumberOfAverages": 1.0,
      "NumberOfPhaseEncodingSteps": 104,
      "PercentPhaseFieldOfView": 100.0,
      "PercentSampling": 100.0,
      "PerformedProcedureStepStartTime": "103356.019000",
      "PhotometricInterpretation": "MONOCHROME2",
      "PixelBandwidth": 2290.0,
      "PixelRepresentation": 0,
      "PixelSpacing": [2.0, 2.0],
      "ProtocolName": "func_task-things_run-6",
      "RepetitionTime": 1490.0,
      "Rows": 832,
      "SAR": 0.04682535540888,
      "SamplesPerPixel": 1,
      "ScanOptions": "FS",
      "ScanningSequence": "EP",
      "SequenceName": "epfid2d1_104",
      "SequenceVariant": [
        "SK",
        "SS"
],
      "SeriesDescription": "func_task-things_run-6",
      "SeriesNumber": 25,
      "SeriesTime": "113121.303000",
      "SliceLocation": -49.461070379451,
      "SliceThickness": 2.0,
      "SmallestImagePixelValue": 0,
      "SoftwareVersions": "syngo MR E11",
      "SpacingBetweenSlices": 2.0000000631221,
      "SpecificCharacterSet": "ISO_IR 100",
      "StudyID": "1",
      "StudyTime": "103355.941000",
      "TransmitCoilName": "Body",
      "VariableFlipAngleFlag": "N",
      "WindowCenterWidthExplanation": "Algo1",
      "dBdt": 0.0},
    "slices": {}
  },
  "time": {
    "samples": {
      "AcquisitionNumber": [1, 2, 3, 4, 5, 6, 7, 8, 9, 10, 11, 12, 13, 14, 15, 16, 17, 18, 19, 20, 21, 22, 23, 24, 25, 26, 27, 28, 29, 30, 31, 32, 33, 34, 35, 36, 37, 38, 39, 40, 41, 42, 43, 44, 45, 46, 47, 48, 49, 50, 51, 52, 53, 54, 55, 56, 57, 58, 59, 60, 61, 62, 63, 64, 65, 66, 67, 68, 69, 70, 71, 72, 73, 74, 75, 76, 77, 78, 79, 80, 81, 82, 83, 84, 85, 86, 87, 88, 89, 90, 91, 92, 93, 94, 95, 96, 97, 98, 99, 100, 101, 102, 103, 104, 105, 106, 107, 108, 109, 110, 111, 112, 113, 114, 115, 116, 117, 118, 119, 120, 121, 122, 123, 124, 125, 126, 127, 128, 129, 130, 131, 132, 133, 134, 135, 136, 137, 138, 139, 140, 141, 142, 143, 144, 145, 146, 147, 148, 149, 150, 151, 152, 153, 154, 155, 156, 157, 158, 159, 160, 161, 162, 163, 164, 165, 166, 167, 168, 169, 170, 171, 172, 173, 174, 175, 176, 177, 178, 179, 180, 181, 182, 183, 184, 185, 186, 187, 188, 189, 190],
      "AcquisitionTime": ["113002.845000", "113004.335000", "113005.825000", "113007.315000", "113008.805000", "113010.295000", "113011.785000", "113013.275000", "113014.765000", "113016.255000", "113017.745000", "113019.235000", "113020.725000", "113022.215000", "113023.705000", "113025.195000", "113026.685000", "113028.175000", "113029.665000", "113031.155000", "113032.645000", "113034.135000", "113035.625000", "113037.115000", "113038.605000", "113040.095000", "113041.585000", "113043.075000", "113044.565000", "113046.055000", "113047.545000", "113049.035000", "113050.525000", "113052.015000", "113053.505000", "113054.995000", "113056.485000", "113057.975000", "113059.465000", "113100.955000", "113102.445000", "113103.935000", "113105.425000", "113106.915000", "113108.405000", "113109.895000", "113111.385000", "113112.875000", "113114.365000", "113115.855000", "113117.345000", "113118.835000", "113120.325000", "113121.815000", "113123.305000", "113124.795000", "113126.285000", "113127.775000", "113129.265000", "113130.755000", "113132.245000", "113133.735000", "113135.225000", "113136.715000", "113138.205000", "113139.695000", "113141.185000", "113142.675000", "113144.165000", "113145.655000", "113147.145000", "113148.635000", "113150.125000", "113151.615000", "113153.105000", "113154.595000", "113156.085000", "113157.575000", "113159.065000", "113200.555000", "113202.045000", "113203.535000", "113205.025000", "113206.515000", "113208.005000", "113209.495000", "113210.985000", "113212.475000", "113213.965000", "113215.455000", "113216.945000", "113218.435000", "113219.925000", "113221.415000", "113222.905000", "113224.395000", "113225.885000", "113227.375000", "113228.865000", "113230.355000", "113231.845000", "113233.335000", "113234.825000", "113236.315000", "113237.805000", "113239.295000", "113240.785000", "113242.275000", "113243.765000", "113245.255000", "113246.745000", "113248.235000", "113249.725000", "113251.215000", "113252.705000", "113254.195000", "113255.685000", "113257.175000", "113258.665000", "113300.155000", "113301.645000", "113303.135000", "113304.625000", "113306.115000", "113307.605000", "113309.095000", "113310.585000", "113312.075000", "113313.565000", "113315.055000", "113316.545000", "113318.035000", "113319.525000", "113321.015000", "113322.505000", "113323.995000", "113325.485000", "113326.975000", "113328.465000", "113329.955000", "113331.445000", "113332.935000", "113334.425000", "113335.915000", "113337.405000", "113338.895000", "113340.385000", "113341.875000", "113343.365000", "113344.855000", "113346.345000", "113347.835000", "113349.325000", "113350.815000", "113352.305000", "113353.795000", "113355.285000", "113356.775000", "113358.265000", "113359.755000", "113401.245000", "113402.735000", "113404.225000", "113405.715000", "113407.205000", "113408.695000", "113410.185000", "113411.675000", "113413.165000", "113414.655000", "113416.145000", "113417.635000", "113419.125000", "113420.615000", "113422.105000", "113423.595000", "113425.085000", "113426.575000", "113428.065000", "113429.555000", "113431.045000", "113432.535000", "113434.025000", "113435.515000", "113437.005000", "113438.495000", "113439.985000", "113441.475000", "113442.965000", "113444.455000"],
      "ContentTime": ["113121.306000", "113121.309000", "113121.313000", "113121.316000", "113121.319000", "113121.323000", "113121.326000", "113121.330000", "113121.333000", "113121.336000", "113121.339000", "113121.343000", "113121.346000", "113121.349000", "113121.353000", "113121.364000", "113121.367000", "113121.371000", "113121.374000", "113121.378000", "113121.381000", "113121.384000", "113121.388000", "113141.272000", "113141.276000", "113141.279000", "113141.282000", "113141.286000", "113141.289000", "113141.292000", "113141.296000", "113141.299000", "113141.302000", "113141.306000", "113141.309000", "113141.312000", "113141.316000", "113141.319000", "113141.322000", "113141.325000", "113141.335000", "113141.339000", "113141.342000", "113201.273000", "113201.277000", "113201.280000", "113201.283000", "113201.287000", "113201.290000", "113201.293000", "113201.297000", "113201.300000", "113201.303000", "113201.307000", "113201.311000", "113201.315000", "113201.318000", "113201.321000", "113201.325000", "113201.328000", "113201.331000", "113201.334000", "113201.339000", "113201.342000", "113221.273000", "113221.277000", "113221.280000", "113221.298000", "113221.301000", "113221.304000", "113221.308000", "113221.311000", "113221.314000", "113221.318000", "113221.321000", "113221.324000", "113221.328000", "113221.331000", "113221.334000", "113221.338000", "113221.341000", "113221.344000", "113221.348000", "113221.351000", "113241.273000", "113241.277000", "113241.280000", "113241.283000", "113241.287000", "113241.290000", "113241.293000", "113241.297000", "113241.300000", "113241.303000", "113241.307000", "113241.310000", "113241.314000", "113241.317000", "113241.321000", "113241.325000", "113241.328000", "113241.332000", "113241.336000", "113241.340000", "113321.272000", "113321.276000", "113321.279000", "113321.283000", "113321.286000", "113321.289000", "113321.293000", "113321.296000", "113321.299000", "113321.303000", "113321.306000", "113321.309000", "113321.313000", "113321.316000", "113321.319000", "113321.323000", "113321.326000", "113321.329000", "113321.333000", "113321.336000", "113321.339000", "113321.343000", "113321.346000", "113321.350000", "113321.353000", "113321.356000", "113321.360000", "113321.363000", "113401.272000", "113401.276000", "113401.279000", "113401.282000", "113401.286000", "113401.289000", "113401.293000", "113401.303000", "113401.306000", "113401.309000", "113401.313000", "113401.327000", "113401.331000", "113401.334000", "113401.337000", "113401.341000", "113401.344000", "113401.347000", "113401.351000", "113401.354000", "113401.358000", "113401.361000", "113401.364000", "113401.368000", "113401.371000", "113401.374000", "113401.378000", "113441.273000", "113441.277000", "113441.280000", "113441.283000", "113441.287000", "113441.290000", "113441.294000", "113441.297000", "113441.300000", "113441.304000", "113441.307000", "113441.310000", "113441.314000", "113441.317000", "113441.320000", "113441.324000", "113441.327000", "113441.330000", "113441.334000", "113441.337000", "113441.340000", "113441.344000", "113441.347000", "113441.350000", "113441.354000", "113441.357000", "113441.360000", "113446.915000", "113446.919000", "113446.922000", "113446.925000"],
      "InstanceCreationTime": ["113121.306000", "113121.309000", "113121.313000", "113121.316000", "113121.319000", "113121.323000", "113121.326000", "113121.330000", "113121.333000", "113121.336000", "113121.339000", "113121.343000", "113121.346000", "113121.349000", "113121.353000", "113121.364000", "113121.367000", "113121.371000", "113121.374000", "113121.378000", "113121.381000", "113121.384000", "113121.388000", "113141.272000", "113141.276000", "113141.279000", "113141.282000", "113141.286000", "113141.289000", "113141.292000", "113141.296000", "113141.299000", "113141.302000", "113141.306000", "113141.309000", "113141.312000", "113141.316000", "113141.319000", "113141.322000", "113141.325000", "113141.335000", "113141.339000", "113141.342000", "113201.273000", "113201.277000", "113201.280000", "113201.283000", "113201.287000", "113201.290000", "113201.293000", "113201.297000", "113201.300000", "113201.303000", "113201.307000", "113201.311000", "113201.315000", "113201.318000", "113201.321000", "113201.325000", "113201.328000", "113201.331000", "113201.334000", "113201.339000", "113201.342000", "113221.273000", "113221.277000", "113221.280000", "113221.298000", "113221.301000", "113221.304000", "113221.308000", "113221.311000", "113221.314000", "113221.318000", "113221.321000", "113221.324000", "113221.328000", "113221.331000", "113221.334000", "113221.338000", "113221.341000", "113221.344000", "113221.348000", "113221.351000", "113241.273000", "113241.277000", "113241.280000", "113241.283000", "113241.287000", "113241.290000", "113241.293000", "113241.297000", "113241.300000", "113241.303000", "113241.307000", "113241.310000", "113241.314000", "113241.317000", "113241.321000", "113241.325000", "113241.328000", "113241.332000", "113241.336000", "113241.340000", "113321.272000", "113321.276000", "113321.279000", "113321.283000", "113321.286000", "113321.289000", "113321.293000", "113321.296000", "113321.299000", "113321.303000", "113321.306000", "113321.309000", "113321.313000", "113321.316000", "113321.319000", "113321.323000", "113321.326000", "113321.329000", "113321.333000", "113321.336000", "113321.339000", "113321.343000", "113321.346000", "113321.350000", "113321.353000", "113321.356000", "113321.360000", "113321.363000", "113401.272000", "113401.276000", "113401.279000", "113401.282000", "113401.286000", "113401.289000", "113401.293000", "113401.303000", "113401.306000", "113401.309000", "113401.313000", "113401.327000", "113401.331000", "113401.334000", "113401.337000", "113401.341000", "113401.344000", "113401.347000", "113401.351000", "113401.354000", "113401.358000", "113401.361000", "113401.364000", "113401.368000", "113401.371000", "113401.374000", "113401.378000", "113441.273000", "113441.277000", "113441.280000", "113441.283000", "113441.287000", "113441.290000", "113441.294000", "113441.297000", "113441.300000", "113441.304000", "113441.307000", "113441.310000", "113441.314000", "113441.317000", "113441.320000", "113441.324000", "113441.327000", "113441.330000", "113441.334000", "113441.337000", "113441.340000", "113441.344000", "113441.347000", "113441.350000", "113441.354000", "113441.357000", "113441.360000", "113446.915000", "113446.919000", "113446.922000", "113446.925000"],
      "InstanceNumber": [1, 2, 3, 4, 5, 6, 7, 8, 9, 10, 11, 12, 13, 14, 15, 16, 17, 18, 19, 20, 21, 22, 23, 24, 25, 26, 27, 28, 29, 30, 31, 32, 33, 34, 35, 36, 37, 38, 39, 40, 41, 42, 43, 44, 45, 46, 47, 48, 49, 50, 51, 52, 53, 54, 55, 56, 57, 58, 59, 60, 61, 62, 63, 64, 65, 66, 67, 68, 69, 70, 71, 72, 73, 74, 75, 76, 77, 78, 79, 80, 81, 82, 83, 84, 85, 86, 87, 88, 89, 90, 91, 92, 93, 94, 95, 96, 97, 98, 99, 100, 101, 102, 103, 104, 105, 106, 107, 108, 109, 110, 111, 112, 113, 114, 115, 116, 117, 118, 119, 120, 121, 122, 123, 124, 125, 126, 127, 128, 129, 130, 131, 132, 133, 134, 135, 136, 137, 138, 139, 140, 141, 142, 143, 144, 145, 146, 147, 148, 149, 150, 151, 152, 153, 154, 155, 156, 157, 158, 159, 160, 161, 162, 163, 164, 165, 166, 167, 168, 169, 170, 171, 172, 173, 174, 175, 176, 177, 178, 179, 180, 181, 182, 183, 184, 185, 186, 187, 188, 189, 190],
      "LargestImagePixelValue": [45251, 43707, 44201, 43561, 43377, 43670, 43290, 43143, 43497, 43473, 44954, 43540, 43633, 43401, 42688, 44551, 43406, 44427, 43215, 44631, 43261, 43386, 45310, 43106, 43560, 43415, 44360, 44189, 43137, 43380, 44215, 44896, 43598, 44803, 42665, 44073, 43419, 43497, 44919, 44146, 43434, 44984, 44231, 43860, 44855, 43672, 43665, 44910, 43886, 43719, 43827, 43879, 43951, 45116, 43793, 43573, 42957, 42870, 43926, 44912, 42925, 43454, 44261, 43000, 45055, 43177, 42486, 42771, 43921, 44256, 43071, 44456, 43319, 44834, 44191, 43296, 43006, 43765, 44255, 43549, 43734, 42763, 44056, 43314, 44006, 43895, 43496, 42683, 42902, 43892, 43424, 43591, 43111, 43060, 44255, 43564, 43047, 42771, 43207, 43064, 45208, 43459, 43933, 44532, 43562, 42991, 44128, 44083, 43311, 45080, 43241, 43628, 45129, 43353, 42912, 44397, 43307, 44062, 42919, 43881, 43737, 43929, 43711, 44496, 43786, 43151, 44172, 43292, 45225, 45382, 43208, 43333, 43552, 44558, 43776, 44430, 44014, 45339, 43775, 43145, 43499, 45135, 43775, 43485, 44172, 44167, 43464, 43458, 43801, 44405, 43944, 44163, 44920, 43902, 44411, 45096, 44603, 44866, 44433, 43316, 42954, 44168, 45210, 45288, 44708, 43312, 44060, 43250, 43255, 44175, 43769, 43959, 44131, 42911, 43416, 45444, 44129, 43204, 43146, 42894, 43553, 43523, 43451, 43175, 43113, 43007, 42947, 42776, 42547, 43310],
      "WindowCenter": [11010.0, 10957.0, 10938.0, 10914.0, 10901.0, 10888.0, 10889.0, 10895.0, 10904.0, 10920.0, 10932.0, 10923.0, 10916.0, 10881.0, 10846.0, 10891.0, 10906.0, 10940.0, 10925.0, 10933.0, 10908.0, 10904.0, 10915.0, 10889.0, 10895.0, 10893.0, 10930.0, 10922.0, 10864.0, 10847.0, 10866.0, 10909.0, 10920.0, 10931.0, 10873.0, 10874.0, 10891.0, 10913.0, 10943.0, 10934.0, 10886.0, 10878.0, 10857.0, 10867.0, 10880.0, 10864.0, 10848.0, 10859.0, 10859.0, 10870.0, 10847.0, 10850.0, 10882.0, 10916.0, 10894.0, 10864.0, 10843.0, 10878.0, 10933.0, 10945.0, 10894.0, 10867.0, 10883.0, 10907.0, 10955.0, 10925.0, 10878.0, 10852.0, 10874.0, 10910.0, 10894.0, 10878.0, 10853.0, 10869.0, 10885.0, 10879.0, 10859.0, 10863.0, 10874.0, 10871.0, 10877.0, 10857.0, 10864.0, 10846.0, 10871.0, 10886.0, 10893.0, 10873.0, 10870.0, 10887.0, 10884.0, 10868.0, 10867.0, 10874.0, 10876.0, 10881.0, 10899.0, 10872.0, 10861.0, 10876.0, 10916.0, 10913.0, 10894.0, 10877.0, 10864.0, 10861.0, 10875.0, 10885.0, 10889.0, 10910.0, 10887.0, 10877.0, 10891.0, 10861.0, 10861.0, 10868.0, 10863.0, 10883.0, 10859.0, 10861.0, 10872.0, 10891.0, 10912.0, 10927.0, 10883.0, 10863.0, 10886.0, 10899.0, 10924.0, 10909.0, 10853.0, 10847.0, 10871.0, 10871.0, 10853.0, 10859.0, 10852.0, 10862.0, 10831.0, 10832.0, 10839.0, 10856.0, 10859.0, 10844.0, 10849.0, 10874.0, 10885.0, 10869.0, 10855.0, 10854.0, 10873.0, 10882.0, 10888.0, 10871.0, 10867.0, 10888.0, 10910.0, 10903.0, 10872.0, 10848.0, 10860.0, 10884.0, 10877.0, 10847.0, 10834.0, 10825.0, 10845.0, 10843.0, 10837.0, 10860.0, 10865.0, 10883.0, 10873.0, 10855.0, 10876.0, 10919.0, 10919.0, 10893.0, 10858.0, 10841.0, 10891.0, 10889.0, 10890.0, 10866.0, 10860.0, 10855.0, 10872.0, 10894.0, 10890.0, 10891.0],
      "WindowWidth": [23736.0, 23580.0, 23510.0, 23448.0, 23409.0, 23374.0, 23376.0, 23390.0, 23409.0, 23442.0, 23467.0, 23449.0, 23434.0, 23355.0, 23280.0, 23369.0, 23411.0, 23487.0, 23459.0, 23471.0, 23420.0, 23409.0, 23425.0, 23376.0, 23390.0, 23383.0, 23460.0, 23447.0, 23320.0, 23278.0, 23315.0, 23414.0, 23446.0, 23468.0, 23346.0, 23337.0, 23379.0, 23426.0, 23488.0, 23471.0, 23365.0, 23334.0, 23293.0, 23319.0, 23340.0, 23308.0, 23275.0, 23291.0, 23297.0, 23325.0, 23272.0, 23275.0, 23347.0, 23421.0, 23383.0, 23315.0, 23271.0, 23347.0, 23470.0, 23491.0, 23388.0, 23323.0, 23352.0, 23417.0, 23515.0, 23453.0, 23353.0, 23290.0, 23330.0, 23412.0, 23381.0, 23340.0, 23295.0, 23315.0, 23355.0, 23353.0, 23306.0, 23312.0, 23333.0, 23331.0, 23340.0, 23298.0, 23308.0, 23270.0, 23324.0, 23362.0, 23382.0, 23342.0, 23333.0, 23364.0, 23363.0, 23323.0, 23322.0, 23340.0, 23334.0, 23347.0, 23396.0, 23331.0, 23307.0, 23338.0, 23421.0, 23422.0, 23379.0, 23340.0, 23314.0, 23312.0, 23337.0, 23358.0, 23377.0, 23412.0, 23366.0, 23343.0, 23369.0, 23307.0, 23307.0, 23324.0, 23309.0, 23348.0, 23303.0, 23300.0, 23325.0, 23369.0, 23417.0, 23451.0, 23357.0, 23312.0, 23359.0, 23397.0, 23447.0, 23410.0, 23296.0, 23274.0, 23326.0, 23320.0, 23279.0, 23287.0, 23274.0, 23294.0, 23233.0, 23239.0, 23254.0, 23285.0, 23294.0, 23264.0, 23274.0, 23327.0, 23355.0, 23321.0, 23286.0, 23284.0, 23331.0, 23354.0, 23362.0, 23336.0, 23311.0, 23359.0, 23415.0, 23397.0, 23332.0, 23277.0, 23304.0, 23352.0, 23339.0, 23262.0, 23233.0, 23222.0, 23265.0, 23266.0, 23253.0, 23301.0, 23311.0, 23354.0, 23335.0, 23297.0, 23341.0, 23434.0, 23435.0, 23390.0, 23302.0, 23263.0, 23375.0, 23369.0, 23372.0, 23319.0, 23317.0, 23291.0, 23332.0, 23389.0, 23375.0, 23371.0]
    },
    "slices": {}
  }
}