{
  "AcquisitionMatrixPE": 104,
  "AcquisitionNumber": 1,
  "AcquisitionTime": "11:24:2.670000",
  "BandwidthPerPixelPhaseEncode": 17.17,
  "BaseResolution": 104,
  "BodyPartExamined": "BRAIN",
  "CoilString": "HC1-7;NC1_2",
  "ConsistencyInfo": "N4_VE11C_LATEST_20160120",
  "ConversionSoftware": "dcm2niix",
  "ConversionSoftwareVersion": "v1.0.20190902",
  "DerivedVendorReportedEchoSpacing": 0.000560011,
  "DeviceSerialNumber": "167006",
  "DwellTime": 2.1e-06,
  "EchoTime": 0.037,
  "EchoTrainLength": 104,
  "EffectiveEchoSpacing": 0.000560011,
  "FlipAngle": 52,
  "ImageComments": "Unaliased_MB4_PE3_LB",
  "ImageOrientationPatientDICOM": [0.999594, 0.00375705, 0.0282282, 0.0108171, 0.866867, -0.498423],
  "ImageType": [
    "ORIGINAL",
    "PRIMARY",
    "M",
    "MB",
    "ND",
    "MOSAIC"
],
  "ImagingFrequency": 123.259,
  "InPlanePhaseEncodingDirectionDICOM": "COL",
  "InstitutionAddress": "Chemin_Queen-Mary_4565_Montreal_District_CA_H3W_1W5",
  "InstitutionName": "IUGM",
  "InstitutionalDepartmentName": "Department",
  "MRAcquisitionType": "2D",
  "MagneticFieldStrength": 3,
  "Manufacturer": "Siemens",
  "ManufacturersModelName": "Prisma_fit",
  "Modality": "MR",
  "MultibandAccelerationFactor": 4,
  "PartialFourier": 1,
  "PatientPosition": "HFS",
  "PercentPhaseFOV": 100,
  "PhaseEncodingDirection": "j",
  "PhaseEncodingSteps": 104,
  "PhaseResolution": 1,
  "PixelBandwidth": 2290,
  "ProcedureStepDescription": "memory_things",
  "ProtocolName": "func_task-things_run-5",
  "PulseSequenceDetails": "%CustomerSeq%_cmrr_mbep2d_bold",
  "ReceiveCoilActiveElements": "HC1-7;NC1,2",
  "ReceiveCoilName": "HeadNeck_64",
  "ReconMatrixPE": 104,
  "RepetitionTime": 1.49,
  "SAR": 0.0468254,
  "ScanOptions": "FS",
  "ScanningSequence": "EP",
  "SequenceName": "epfid2d1_104",
  "SequenceVariant": "SK_SS",
  "SeriesDescription": "func_task-things_run-5",
  "SeriesNumber": 22,
  "ShimSetting": [614, -7183, -8860, 284, -5, -121, -31, -36],
  "SliceThickness": 2,
  "SliceTiming": [0, 0.7825, 0.0975, 0.88, 0.195, 0.98, 0.2925, 1.0775, 0.3925, 1.175, 0.49, 1.2725, 0.5875, 1.37, 0.685, 0, 0.7825, 0.0975, 0.88, 0.195, 0.98, 0.2925, 1.0775, 0.3925, 1.175, 0.49, 1.2725, 0.5875, 1.37, 0.685, 0, 0.7825, 0.0975, 0.88, 0.195, 0.98, 0.2925, 1.0775, 0.3925, 1.175, 0.49, 1.2725, 0.5875, 1.37, 0.685, 0, 0.7825, 0.0975, 0.88, 0.195, 0.98, 0.2925, 1.0775, 0.3925, 1.175, 0.49, 1.2725, 0.5875, 1.37, 0.685],
  "SoftwareVersions": "syngo_MR_E11",
  "SpacingBetweenSlices": 2,
  "StationName": "MRC35049",
  "TaskName": "things",
  "TotalReadoutTime": 0.0576811,
  "TxRefAmp": 264.055,
  "WipMemBlock": "65c64ace-a1a4-488b-a9f4-d526f108763a||Sequence: R016 ve11c/master r/e634e98; Dec 19 2017 11:00:25 by eja",
  "dcmmeta_affine": [
    [-1.9991888999938965, 0.02163425087928772, 0.0526854544878006, 104.6600112915039],
    [-0.007514097262173891, 1.7337334156036377, -0.9970517754554749, -52.03676223754883],
    [0.05645649880170822, 0.9968453049659729, 1.7329490184783936, -90.20436096191406],
    [0.0, 0.0, 0.0, 1.0]
],
  "dcmmeta_reorient_transform": [
    [0.0, -1.0, 0.0, 103.0],
    [1.0, 0.0, 0.0, 0.0],
    [0.0, 0.0, 1.0, 0.0],
    [0.0, 0.0, 0.0, 1.0]
],
  "dcmmeta_shape": [104, 104, 60, 190],
  "dcmmeta_slice_dim": 2,
  "dcmmeta_version": 0.6,
  "global": {
    "const": {
      "AcquisitionMatrix": [104, 0, 0, 104],
      "AngioFlag": "N",
      "BitsAllocated": 16,
      "BitsStored": 16,
      "BodyPartExamined": "BRAIN",
      "Columns": 832,
      "EchoNumbers": 1,
      "EchoTime": 37.0,
      "EchoTrainLength": 104,
      "FlipAngle": 52.0,
      "HighBit": 15,
      "ImageOrientationPatient": [0.99959444302151, 0.00375704866584, 0.02822824942925, 0.01081712584515, 0.86686668009692, -0.498422660727],
      "ImagePositionPatient": [-842.46796264008, -760.3518469937, 354.77224199051],
      "ImageType": [
        "ORIGINAL",
        "PRIMARY",
        "M",
        "MB",
        "ND",
        "MOSAIC"
],
      "ImagedNucleus": "1H",
      "ImagingFrequency": 123.258893,
      "InPlanePhaseEncodingDirection": "COL",
      "MRAcquisitionType": "2D",
      "MagneticFieldStrength": 3.0,
      "Manufacturer": "SIEMENS",
      "ManufacturerModelName": "Prisma_fit",
      "Modality": "MR",
      "NumberOfAverages": 1.0,
      "NumberOfPhaseEncodingSteps": 104,
      "PercentPhaseFieldOfView": 100.0,
      "PercentSampling": 100.0,
      "PerformedProcedureStepStartTime": "103356.019000",
      "PhotometricInterpretation": "MONOCHROME2",
      "PixelBandwidth": 2290.0,
      "PixelRepresentation": 0,
      "PixelSpacing": [2.0, 2.0],
      "ProtocolName": "func_task-things_run-5",
      "RepetitionTime": 1490.0,
      "Rows": 832,
      "SAR": 0.04682535540888,
      "SamplesPerPixel": 1,
      "ScanOptions": "FS",
      "ScanningSequence": "EP",
      "SequenceName": "epfid2d1_104",
      "SequenceVariant": [
        "SK",
        "SS"
],
      "SeriesDescription": "func_task-things_run-5",
      "SeriesNumber": 22,
      "SeriesTime": "112501.395000",
      "SliceLocation": -49.461070379451,
      "SliceThickness": 2.0,
      "SmallestImagePixelValue": 0,
      "SoftwareVersions": "syngo MR E11",
      "SpacingBetweenSlices": 2.0000000631221,
      "SpecificCharacterSet": "ISO_IR 100",
      "StudyID": "1",
      "StudyTime": "103355.941000",
      "TransmitCoilName": "Body",
      "VariableFlipAngleFlag": "N",
      "WindowCenterWidthExplanation": "Algo1",
      "dBdt": 0.0},
    "slices": {}
  },
  "time": {
    "samples": {
      "AcquisitionNumber": [1, 2, 3, 4, 5, 6, 7, 8, 9, 10, 11, 12, 13, 14, 15, 16, 17, 18, 19, 20, 21, 22, 23, 24, 25, 26, 27, 28, 29, 30, 31, 32, 33, 34, 35, 36, 37, 38, 39, 40, 41, 42, 43, 44, 45, 46, 47, 48, 49, 50, 51, 52, 53, 54, 55, 56, 57, 58, 59, 60, 61, 62, 63, 64, 65, 66, 67, 68, 69, 70, 71, 72, 73, 74, 75, 76, 77, 78, 79, 80, 81, 82, 83, 84, 85, 86, 87, 88, 89, 90, 91, 92, 93, 94, 95, 96, 97, 98, 99, 100, 101, 102, 103, 104, 105, 106, 107, 108, 109, 110, 111, 112, 113, 114, 115, 116, 117, 118, 119, 120, 121, 122, 123, 124, 125, 126, 127, 128, 129, 130, 131, 132, 133, 134, 135, 136, 137, 138, 139, 140, 141, 142, 143, 144, 145, 146, 147, 148, 149, 150, 151, 152, 153, 154, 155, 156, 157, 158, 159, 160, 161, 162, 163, 164, 165, 166, 167, 168, 169, 170, 171, 172, 173, 174, 175, 176, 177, 178, 179, 180, 181, 182, 183, 184, 185, 186, 187, 188, 189, 190],
      "AcquisitionTime": ["112402.670000", "112404.160000", "112405.650000", "112407.140000", "112408.630000", "112410.120000", "112411.610000", "112413.100000", "112414.590000", "112416.080000", "112417.570000", "112419.060000", "112420.550000", "112422.040000", "112423.530000", "112425.020000", "112426.510000", "112428.000000", "112429.490000", "112430.980000", "112432.470000", "112433.960000", "112435.450000", "112436.940000", "112438.430000", "112439.920000", "112441.410000", "112442.900000", "112444.390000", "112445.880000", "112447.370000", "112448.860000", "112450.350000", "112451.840000", "112453.330000", "112454.820000", "112456.310000", "112457.800000", "112459.290000", "112500.780000", "112502.270000", "112503.760000", "112505.250000", "112506.740000", "112508.230000", "112509.720000", "112511.210000", "112512.700000", "112514.190000", "112515.680000", "112517.170000", "112518.660000", "112520.150000", "112521.640000", "112523.130000", "112524.620000", "112526.110000", "112527.600000", "112529.090000", "112530.580000", "112532.070000", "112533.560000", "112535.050000", "112536.540000", "112538.030000", "112539.520000", "112541.010000", "112542.500000", "112543.990000", "112545.480000", "112546.970000", "112548.460000", "112549.950000", "112551.440000", "112552.930000", "112554.420000", "112555.910000", "112557.400000", "112558.890000", "112600.380000", "112601.870000", "112603.360000", "112604.850000", "112606.340000", "112607.830000", "112609.320000", "112610.810000", "112612.300000", "112613.790000", "112615.280000", "112616.770000", "112618.260000", "112619.750000", "112621.240000", "112622.730000", "112624.220000", "112625.710000", "112627.200000", "112628.690000", "112630.180000", "112631.670000", "112633.160000", "112634.650000", "112636.140000", "112637.630000", "112639.120000", "112640.610000", "112642.100000", "112643.590000", "112645.080000", "112646.570000", "112648.060000", "112649.550000", "112651.040000", "112652.530000", "112654.020000", "112655.510000", "112657.000000", "112658.490000", "112659.980000", "112701.470000", "112702.960000", "112704.450000", "112705.940000", "112707.430000", "112708.920000", "112710.410000", "112711.900000", "112713.390000", "112714.880000", "112716.370000", "112717.860000", "112719.350000", "112720.840000", "112722.330000", "112723.820000", "112725.310000", "112726.800000", "112728.290000", "112729.780000", "112731.270000", "112732.760000", "112734.250000", "112735.740000", "112737.230000", "112738.720000", "112740.210000", "112741.700000", "112743.190000", "112744.680000", "112746.170000", "112747.660000", "112749.150000", "112750.640000", "112752.130000", "112753.620000", "112755.110000", "112756.600000", "112758.090000", "112759.580000", "112801.070000", "112802.560000", "112804.050000", "112805.540000", "112807.030000", "112808.520000", "112810.010000", "112811.500000", "112812.990000", "112814.480000", "112815.970000", "112817.460000", "112818.950000", "112820.440000", "112821.930000", "112823.420000", "112824.910000", "112826.400000", "112827.890000", "112829.380000", "112830.870000", "112832.360000", "112833.850000", "112835.340000", "112836.830000", "112838.320000", "112839.810000", "112841.300000", "112842.790000", "112844.280000"],
      "ContentTime": ["112501.399000", "112501.403000", "112501.407000", "112501.410000", "112521.352000", "112521.356000", "112521.359000", "112521.363000", "112521.366000", "112521.369000", "112521.372000", "112521.376000", "112521.379000", "112521.382000", "112521.386000", "112521.389000", "112521.392000", "112521.395000", "112521.399000", "112521.402000", "112521.405000", "112521.409000", "112521.412000", "112521.424000", "112521.427000", "112541.352000", "112541.356000", "112541.359000", "112541.362000", "112541.366000", "112541.369000", "112541.372000", "112541.376000", "112541.379000", "112541.382000", "112541.386000", "112541.389000", "112541.392000", "112541.395000", "112541.399000", "112541.402000", "112541.405000", "112541.420000", "112541.423000", "112541.426000", "112601.352000", "112601.356000", "112601.359000", "112601.362000", "112601.366000", "112601.369000", "112601.372000", "112601.376000", "112601.379000", "112601.382000", "112601.386000", "112601.389000", "112601.392000", "112601.396000", "112601.399000", "112601.402000", "112601.406000", "112601.409000", "112601.412000", "112601.416000", "112621.351000", "112621.355000", "112621.358000", "112621.362000", "112621.365000", "112621.369000", "112621.372000", "112621.375000", "112621.379000", "112621.382000", "112621.386000", "112621.389000", "112621.392000", "112621.396000", "112621.399000", "112621.402000", "112621.406000", "112621.409000", "112621.412000", "112621.415000", "112621.419000", "112641.351000", "112641.355000", "112641.358000", "112641.362000", "112641.365000", "112641.368000", "112641.372000", "112641.375000", "112641.378000", "112641.382000", "112641.385000", "112641.388000", "112641.391000", "112641.395000", "112641.398000", "112641.402000", "112641.405000", "112641.408000", "112641.411000", "112641.415000", "112721.352000", "112721.356000", "112721.359000", "112721.363000", "112721.366000", "112721.369000", "112721.373000", "112721.376000", "112721.379000", "112721.383000", "112721.386000", "112721.389000", "112721.393000", "112721.396000", "112721.399000", "112721.403000", "112721.406000", "112721.410000", "112721.413000", "112721.417000", "112721.420000", "112721.423000", "112721.427000", "112721.430000", "112721.433000", "112721.437000", "112721.440000", "112801.352000", "112801.356000", "112801.359000", "112801.363000", "112801.366000", "112801.369000", "112801.373000", "112801.376000", "112801.379000", "112801.383000", "112801.399000", "112801.403000", "112801.406000", "112801.409000", "112801.413000", "112801.416000", "112801.419000", "112801.423000", "112801.426000", "112801.429000", "112801.433000", "112801.436000", "112801.439000", "112801.443000", "112801.446000", "112801.449000", "112801.453000", "112841.351000", "112841.355000", "112841.359000", "112841.362000", "112841.365000", "112841.368000", "112841.372000", "112841.375000", "112841.379000", "112841.382000", "112841.386000", "112841.389000", "112841.397000", "112841.401000", "112841.404000", "112841.407000", "112841.411000", "112841.414000", "112841.417000", "112841.421000", "112841.424000", "112841.427000", "112841.431000", "112841.434000", "112841.437000", "112841.441000", "112846.001000", "112846.004000", "112846.008000", "112846.011000"],
      "InstanceCreationTime": ["112501.399000", "112501.403000", "112501.407000", "112501.410000", "112521.352000", "112521.356000", "112521.359000", "112521.363000", "112521.366000", "112521.369000", "112521.372000", "112521.376000", "112521.379000", "112521.382000", "112521.386000", "112521.389000", "112521.392000", "112521.395000", "112521.399000", "112521.402000", "112521.405000", "112521.409000", "112521.412000", "112521.424000", "112521.427000", "112541.352000", "112541.356000", "112541.359000", "112541.362000", "112541.366000", "112541.369000", "112541.372000", "112541.376000", "112541.379000", "112541.382000", "112541.386000", "112541.389000", "112541.392000", "112541.395000", "112541.399000", "112541.402000", "112541.405000", "112541.420000", "112541.423000", "112541.426000", "112601.352000", "112601.356000", "112601.359000", "112601.362000", "112601.366000", "112601.369000", "112601.372000", "112601.376000", "112601.379000", "112601.382000", "112601.386000", "112601.389000", "112601.392000", "112601.396000", "112601.399000", "112601.402000", "112601.406000", "112601.409000", "112601.412000", "112601.416000", "112621.351000", "112621.355000", "112621.358000", "112621.362000", "112621.365000", "112621.369000", "112621.372000", "112621.375000", "112621.379000", "112621.382000", "112621.386000", "112621.389000", "112621.392000", "112621.396000", "112621.399000", "112621.402000", "112621.406000", "112621.409000", "112621.412000", "112621.415000", "112621.419000", "112641.351000", "112641.355000", "112641.358000", "112641.362000", "112641.365000", "112641.368000", "112641.372000", "112641.375000", "112641.378000", "112641.382000", "112641.385000", "112641.388000", "112641.391000", "112641.395000", "112641.398000", "112641.402000", "112641.405000", "112641.408000", "112641.411000", "112641.415000", "112721.352000", "112721.356000", "112721.359000", "112721.363000", "112721.366000", "112721.369000", "112721.373000", "112721.376000", "112721.379000", "112721.383000", "112721.386000", "112721.389000", "112721.393000", "112721.396000", "112721.399000", "112721.403000", "112721.406000", "112721.410000", "112721.413000", "112721.417000", "112721.420000", "112721.423000", "112721.427000", "112721.430000", "112721.433000", "112721.437000", "112721.440000", "112801.352000", "112801.356000", "112801.359000", "112801.363000", "112801.366000", "112801.369000", "112801.373000", "112801.376000", "112801.379000", "112801.383000", "112801.399000", "112801.403000", "112801.406000", "112801.409000", "112801.413000", "112801.416000", "112801.419000", "112801.423000", "112801.426000", "112801.429000", "112801.433000", "112801.436000", "112801.439000", "112801.443000", "112801.446000", "112801.449000", "112801.453000", "112841.351000", "112841.355000", "112841.359000", "112841.362000", "112841.365000", "112841.368000", "112841.372000", "112841.375000", "112841.379000", "112841.382000", "112841.386000", "112841.389000", "112841.397000", "112841.401000", "112841.404000", "112841.407000", "112841.411000", "112841.414000", "112841.417000", "112841.421000", "112841.424000", "112841.427000", "112841.431000", "112841.434000", "112841.437000", "112841.441000", "112846.001000", "112846.004000", "112846.008000", "112846.011000"],
      "InstanceNumber": [1, 2, 3, 4, 5, 6, 7, 8, 9, 10, 11, 12, 13, 14, 15, 16, 17, 18, 19, 20, 21, 22, 23, 24, 25, 26, 27, 28, 29, 30, 31, 32, 33, 34, 35, 36, 37, 38, 39, 40, 41, 42, 43, 44, 45, 46, 47, 48, 49, 50, 51, 52, 53, 54, 55, 56, 57, 58, 59, 60, 61, 62, 63, 64, 65, 66, 67, 68, 69, 70, 71, 72, 73, 74, 75, 76, 77, 78, 79, 80, 81, 82, 83, 84, 85, 86, 87, 88, 89, 90, 91, 92, 93, 94, 95, 96, 97, 98, 99, 100, 101, 102, 103, 104, 105, 106, 107, 108, 109, 110, 111, 112, 113, 114, 115, 116, 117, 118, 119, 120, 121, 122, 123, 124, 125, 126, 127, 128, 129, 130, 131, 132, 133, 134, 135, 136, 137, 138, 139, 140, 141, 142, 143, 144, 145, 146, 147, 148, 149, 150, 151, 152, 153, 154, 155, 156, 157, 158, 159, 160, 161, 162, 163, 164, 165, 166, 167, 168, 169, 170, 171, 172, 173, 174, 175, 176, 177, 178, 179, 180, 181, 182, 183, 184, 185, 186, 187, 188, 189, 190],
      "LargestImagePixelValue": [50051, 47860, 47204, 47482, 47239, 47129, 46502, 46056, 46511, 46135, 46172, 46142, 47149, 47355, 47166, 47407, 47203, 46789, 47276, 46906, 46803, 47476, 47615, 47555, 47185, 46583, 47114, 47999, 47329, 48119, 47079, 47456, 47682, 47636, 47207, 47330, 47214, 46737, 47352, 46874, 46290, 47235, 46716, 47474, 46926, 47073, 47449, 47250, 47392, 47067, 47241, 47743, 47733, 47376, 47297, 47143, 47443, 47693, 47331, 46618, 47441, 47534, 46968, 47923, 46866, 46461, 47587, 47138, 46493, 47257, 47264, 46882, 47205, 45680, 47558, 46754, 46229, 46667, 46657, 46888, 46719, 46753, 47207, 46892, 46840, 46729, 47411, 47206, 46179, 47270, 47213, 47302, 47083, 46705, 47437, 47233, 47603, 45872, 46041, 46335, 45575, 46698, 45558, 46183, 46586, 46181, 46277, 45778, 46888, 45792, 45592, 46217, 46917, 46959, 46357, 46594, 46087, 47087, 46969, 46436, 45817, 46892, 46028, 47267, 46349, 46557, 46950, 46043, 46109, 46807, 46015, 46715, 46595, 47011, 47063, 47161, 46416, 46883, 47046, 46867, 46852, 46932, 46650, 47643, 47262, 47114, 47314, 47209, 46556, 47102, 46935, 45739, 46449, 47037, 47508, 47545, 46932, 47011, 47381, 46909, 46710, 46688, 46453, 46587, 46864, 47100, 46798, 47250, 47359, 47257, 47570, 47322, 47002, 47101, 46711, 47488, 46795, 47106, 47448, 47361, 46997, 47391, 47411, 46942, 47220, 46873, 47115, 46854, 46714, 45944],
      "WindowCenter": [11077.0, 11026.0, 10978.0, 10955.0, 10952.0, 10969.0, 10980.0, 10966.0, 10938.0, 10928.0, 10935.0, 10945.0, 10975.0, 10982.0, 10966.0, 10978.0, 10979.0, 10983.0, 10990.0, 10991.0, 10984.0, 10991.0, 10995.0, 10990.0, 11014.0, 10959.0, 10969.0, 10975.0, 10964.0, 10970.0, 10961.0, 10960.0, 10982.0, 10994.0, 10968.0, 10966.0, 11002.0, 11006.0, 10992.0, 10957.0, 10940.0, 10950.0, 10976.0, 10978.0, 10960.0, 10963.0, 10977.0, 10971.0, 10953.0, 10935.0, 10941.0, 10970.0, 10968.0, 10951.0, 10947.0, 10942.0, 10951.0, 10954.0, 10926.0, 10935.0, 10966.0, 10971.0, 10947.0, 10963.0, 10933.0, 10949.0, 10965.0, 10943.0, 10921.0, 10927.0, 10946.0, 10958.0, 10975.0, 10952.0, 10963.0, 10952.0, 10951.0, 10955.0, 10947.0, 10935.0, 10935.0, 10943.0, 10958.0, 10961.0, 10953.0, 10944.0, 10947.0, 10948.0, 10933.0, 10958.0, 10960.0, 10952.0, 10951.0, 10945.0, 10957.0, 10958.0, 10997.0, 10937.0, 10929.0, 10939.0, 10926.0, 10962.0, 10949.0, 10919.0, 10913.0, 10927.0, 10945.0, 10945.0, 10975.0, 10939.0, 10938.0, 10952.0, 10936.0, 10910.0, 10900.0, 10937.0, 10930.0, 10940.0, 10942.0, 10942.0, 10935.0, 10935.0, 10916.0, 10948.0, 10937.0, 10946.0, 10972.0, 10979.0, 10974.0, 10969.0, 10941.0, 10928.0, 10944.0, 10961.0, 10960.0, 10955.0, 10938.0, 10953.0, 10947.0, 10933.0, 10930.0, 10928.0, 10921.0, 10937.0, 10941.0, 10935.0, 10957.0, 10956.0, 10936.0, 10934.0, 10957.0, 10965.0, 10962.0, 10953.0, 10934.0, 10943.0, 10953.0, 10963.0, 10966.0, 10952.0, 10944.0, 10944.0, 10946.0, 10941.0, 10942.0, 10959.0, 10947.0, 10949.0, 10955.0, 10949.0, 10955.0, 10938.0, 10921.0, 10935.0, 10952.0, 10968.0, 10943.0, 10924.0, 10925.0, 10955.0, 10963.0, 10958.0, 10937.0, 10922.0, 10946.0, 10946.0, 10944.0, 10915.0, 10907.0, 10931.0],
      "WindowWidth": [23864.0, 23726.0, 23595.0, 23528.0, 23510.0, 23547.0, 23574.0, 23543.0, 23475.0, 23453.0, 23466.0, 23492.0, 23562.0, 23583.0, 23540.0, 23568.0, 23568.0, 23576.0, 23590.0, 23596.0, 23577.0, 23601.0, 23601.0, 23592.0, 23655.0, 23525.0, 23543.0, 23555.0, 23532.0, 23539.0, 23523.0, 23520.0, 23569.0, 23598.0, 23541.0, 23535.0, 23615.0, 23630.0, 23599.0, 23521.0, 23483.0, 23501.0, 23565.0, 23567.0, 23523.0, 23534.0, 23563.0, 23550.0, 23519.0, 23472.0, 23482.0, 23544.0, 23544.0, 23503.0, 23493.0, 23483.0, 23500.0, 23511.0, 23447.0, 23465.0, 23536.0, 23548.0, 23494.0, 23530.0, 23463.0, 23500.0, 23533.0, 23484.0, 23435.0, 23445.0, 23494.0, 23519.0, 23555.0, 23510.0, 23524.0, 23502.0, 23505.0, 23511.0, 23492.0, 23465.0, 23463.0, 23482.0, 23515.0, 23522.0, 23506.0, 23487.0, 23489.0, 23491.0, 23464.0, 23515.0, 23523.0, 23503.0, 23501.0, 23488.0, 23512.0, 23515.0, 23606.0, 23472.0, 23451.0, 23477.0, 23447.0, 23523.0, 23505.0, 23440.0, 23413.0, 23453.0, 23490.0, 23491.0, 23555.0, 23477.0, 23471.0, 23508.0, 23468.0, 23409.0, 23385.0, 23470.0, 23454.0, 23470.0, 23472.0, 23475.0, 23464.0, 23459.0, 23420.0, 23486.0, 23465.0, 23487.0, 23546.0, 23566.0, 23554.0, 23541.0, 23484.0, 23448.0, 23481.0, 23520.0, 23520.0, 23517.0, 23472.0, 23501.0, 23490.0, 23455.0, 23446.0, 23442.0, 23427.0, 23460.0, 23476.0, 23460.0, 23508.0, 23506.0, 23468.0, 23459.0, 23507.0, 23540.0, 23525.0, 23504.0, 23459.0, 23475.0, 23509.0, 23526.0, 23531.0, 23500.0, 23482.0, 23482.0, 23488.0, 23475.0, 23477.0, 23516.0, 23490.0, 23493.0, 23506.0, 23490.0, 23502.0, 23467.0, 23426.0, 23457.0, 23499.0, 23533.0, 23478.0, 23436.0, 23433.0, 23502.0, 23526.0, 23513.0, 23462.0, 23434.0, 23484.0, 23489.0, 23487.0, 23419.0, 23400.0, 23458.0]
    },
    "slices": {}
  }
}