{
  "AcquisitionMatrixPE": 104,
  "AcquisitionNumber": 1,
  "AcquisitionTime": "11:30:2.845000",
  "BandwidthPerPixelPhaseEncode": 17.17,
  "BaseResolution": 104,
  "BodyPartExamined": "BRAIN",
  "CoilString": "HC1-7;NC1_2",
  "ConsistencyInfo": "N4_VE11C_LATEST_20160120",
  "ConversionSoftware": "dcm2niix",
  "ConversionSoftwareVersion": "v1.0.20190902",
  "DerivedVendorReportedEchoSpacing": 0.000560011,
  "DeviceSerialNumber": "167006",
  "DwellTime": 2.1e-06,
  "EchoTime": 0.037,
  "EchoTrainLength": 104,
  "EffectiveEchoSpacing": 0.000560011,
  "FlipAngle": 52,
  "ImageComments": "Unaliased_MB4_PE3_LB",
  "ImageOrientationPatientDICOM": [0.999594, 0.00375705, 0.0282282, 0.0108171, 0.866867, -0.498423],
  "ImageType": [
    "ORIGINAL",
    "PRIMARY",
    "P",
    "MB",
    "ND",
    "MOSAIC"
],
  "ImagingFrequency": 123.259,
  "InPlanePhaseEncodingDirectionDICOM": "COL",
  "InstitutionAddress": "Chemin_Queen-Mary_4565_Montreal_District_CA_H3W_1W5",
  "InstitutionName": "IUGM",
  "InstitutionalDepartmentName": "Department",
  "MRAcquisitionType": "2D",
  "MagneticFieldStrength": 3,
  "Manufacturer": "Siemens",
  "ManufacturersModelName": "Prisma_fit",
  "Modality": "MR",
  "MultibandAccelerationFactor": 4,
  "PartialFourier": 1,
  "PatientPosition": "HFS",
  "PercentPhaseFOV": 100,
  "PhaseEncodingDirection": "j",
  "PhaseEncodingSteps": 104,
  "PhaseResolution": 1,
  "PixelBandwidth": 2290,
  "ProcedureStepDescription": "memory_things",
  "ProtocolName": "func_task-things_run-6",
  "PulseSequenceDetails": "%CustomerSeq%_cmrr_mbep2d_bold",
  "ReceiveCoilActiveElements": "HC1-7;NC1,2",
  "ReceiveCoilName": "HeadNeck_64",
  "ReconMatrixPE": 104,
  "RepetitionTime": 1.49,
  "SAR": 0.0468254,
  "ScanOptions": "FS",
  "ScanningSequence": "EP",
  "SequenceName": "epfid2d1_104",
  "SequenceVariant": "SK_SS",
  "SeriesDescription": "func_task-things_run-6",
  "SeriesNumber": 26,
  "ShimSetting": [614, -7183, -8860, 284, -5, -121, -31, -36],
  "SliceThickness": 2,
  "SliceTiming": [0, 0.785, 0.1, 0.8825, 0.1975, 0.98, 0.295, 1.08, 0.3925, 1.1775, 0.49, 1.275, 0.59, 1.3725, 0.6875, 0, 0.785, 0.1, 0.8825, 0.1975, 0.98, 0.295, 1.08, 0.3925, 1.1775, 0.49, 1.275, 0.59, 1.3725, 0.6875, 0, 0.785, 0.1, 0.8825, 0.1975, 0.98, 0.295, 1.08, 0.3925, 1.1775, 0.49, 1.275, 0.59, 1.3725, 0.6875, 0, 0.785, 0.1, 0.8825, 0.1975, 0.98, 0.295, 1.08, 0.3925, 1.1775, 0.49, 1.275, 0.59, 1.3725, 0.6875],
  "SoftwareVersions": "syngo_MR_E11",
  "SpacingBetweenSlices": 2,
  "StationName": "MRC35049",
  "TaskName": "things",
  "TotalReadoutTime": 0.0576811,
  "TxRefAmp": 264.055,
  "WipMemBlock": "f9a6efba-9e26-44a1-aaae-ecdfb470faae||Sequence: R016 ve11c/master r/e634e98; Dec 19 2017 11:00:25 by eja",
  "dcmmeta_affine": [
    [-1.9991888999938965, 0.02163425087928772, 0.0526854544878006, 104.6600112915039],
    [-0.007514097262173891, 1.7337334156036377, -0.9970517754554749, -52.03676223754883],
    [0.05645649880170822, 0.9968453049659729, 1.7329490184783936, -90.20436096191406],
    [0.0, 0.0, 0.0, 1.0]
],
  "dcmmeta_reorient_transform": [
    [0.0, -1.0, 0.0, 103.0],
    [1.0, 0.0, 0.0, 0.0],
    [0.0, 0.0, 1.0, 0.0],
    [0.0, 0.0, 0.0, 1.0]
],
  "dcmmeta_shape": [104, 104, 60, 190],
  "dcmmeta_slice_dim": 2,
  "dcmmeta_version": 0.6,
  "global": {
    "const": {
      "AcquisitionMatrix": [104, 0, 0, 104],
      "AngioFlag": "N",
      "BitsAllocated": 16,
      "BitsStored": 16,
      "BodyPartExamined": "BRAIN",
      "Columns": 832,
      "EchoNumbers": 1,
      "EchoTime": 37.0,
      "EchoTrainLength": 104,
      "FlipAngle": 52.0,
      "HighBit": 15,
      "ImageOrientationPatient": [0.99959444302151, 0.00375704866584, 0.02822824942925, 0.01081712584515, 0.86686668009692, -0.498422660727],
      "ImagePositionPatient": [-842.46796264008, -760.3518469937, 354.77224199051],
      "ImageType": [
        "ORIGINAL",
        "PRIMARY",
        "P",
        "MB",
        "ND",
        "MOSAIC"
],
      "ImagedNucleus": "1H",
      "ImagingFrequency": 123.258901,
      "InPlanePhaseEncodingDirection": "COL",
      "LargestImagePixelValue": 4095,
      "MRAcquisitionType": "2D",
      "MagneticFieldStrength": 3.0,
      "Manufacturer": "SIEMENS",
      "ManufacturerModelName": "Prisma_fit",
      "Modality": "MR",
      "NumberOfAverages": 1.0,
      "NumberOfPhaseEncodingSteps": 104,
      "PercentPhaseFieldOfView": 100.0,
      "PercentSampling": 100.0,
      "PerformedProcedureStepStartTime": "103356.019000",
      "PhotometricInterpretation": "MONOCHROME2",
      "PixelBandwidth": 2290.0,
      "PixelRepresentation": 0,
      "PixelSpacing": [2.0, 2.0],
      "ProtocolName": "func_task-things_run-6",
      "RepetitionTime": 1490.0,
      "RescaleIntercept": -4096.0,
      "RescaleSlope": 2.0,
      "RescaleType": "US",
      "Rows": 832,
      "SAR": 0.04682535540888,
      "SamplesPerPixel": 1,
      "ScanOptions": "FS",
      "ScanningSequence": "EP",
      "SequenceName": "epfid2d1_104",
      "SequenceVariant": [
        "SK",
        "SS"
],
      "SeriesDescription": "func_task-things_run-6",
      "SeriesNumber": 26,
      "SeriesTime": "113121.431000",
      "SliceLocation": -49.461070379451,
      "SliceThickness": 2.0,
      "SmallestImagePixelValue": 0,
      "SoftwareVersions": "syngo MR E11",
      "SpacingBetweenSlices": 2.0000000631221,
      "SpecificCharacterSet": "ISO_IR 100",
      "StudyID": "1",
      "StudyTime": "103355.941000",
      "TransmitCoilName": "Body",
      "VariableFlipAngleFlag": "N",
      "WindowCenterWidthExplanation": "Algo1",
      "dBdt": 0.0},
    "slices": {}
  },
  "time": {
    "samples": {
      "AcquisitionNumber": [1, 2, 3, 4, 5, 6, 7, 8, 9, 10, 11, 12, 13, 14, 15, 16, 17, 18, 19, 20, 21, 22, 23, 24, 25, 26, 27, 28, 29, 30, 31, 32, 33, 34, 35, 36, 37, 38, 39, 40, 41, 42, 43, 44, 45, 46, 47, 48, 49, 50, 51, 52, 53, 54, 55, 56, 57, 58, 59, 60, 61, 62, 63, 64, 65, 66, 67, 68, 69, 70, 71, 72, 73, 74, 75, 76, 77, 78, 79, 80, 81, 82, 83, 84, 85, 86, 87, 88, 89, 90, 91, 92, 93, 94, 95, 96, 97, 98, 99, 100, 101, 102, 103, 104, 105, 106, 107, 108, 109, 110, 111, 112, 113, 114, 115, 116, 117, 118, 119, 120, 121, 122, 123, 124, 125, 126, 127, 128, 129, 130, 131, 132, 133, 134, 135, 136, 137, 138, 139, 140, 141, 142, 143, 144, 145, 146, 147, 148, 149, 150, 151, 152, 153, 154, 155, 156, 157, 158, 159, 160, 161, 162, 163, 164, 165, 166, 167, 168, 169, 170, 171, 172, 173, 174, 175, 176, 177, 178, 179, 180, 181, 182, 183, 184, 185, 186, 187, 188, 189, 190],
      "AcquisitionTime": ["113002.845000", "113004.335000", "113005.825000", "113007.315000", "113008.805000", "113010.295000", "113011.785000", "113013.275000", "113014.765000", "113016.255000", "113017.745000", "113019.235000", "113020.725000", "113022.215000", "113023.705000", "113025.195000", "113026.685000", "113028.175000", "113029.665000", "113031.155000", "113032.645000", "113034.135000", "113035.625000", "113037.115000", "113038.605000", "113040.095000", "113041.585000", "113043.075000", "113044.565000", "113046.055000", "113047.545000", "113049.035000", "113050.525000", "113052.015000", "113053.505000", "113054.995000", "113056.485000", "113057.975000", "113059.465000", "113100.955000", "113102.445000", "113103.935000", "113105.425000", "113106.915000", "113108.405000", "113109.895000", "113111.385000", "113112.875000", "113114.365000", "113115.855000", "113117.345000", "113118.835000", "113120.325000", "113121.815000", "113123.305000", "113124.795000", "113126.285000", "113127.775000", "113129.265000", "113130.755000", "113132.245000", "113133.735000", "113135.225000", "113136.715000", "113138.205000", "113139.695000", "113141.185000", "113142.675000", "113144.165000", "113145.655000", "113147.145000", "113148.635000", "113150.125000", "113151.615000", "113153.105000", "113154.595000", "113156.085000", "113157.575000", "113159.065000", "113200.555000", "113202.045000", "113203.535000", "113205.025000", "113206.515000", "113208.005000", "113209.495000", "113210.985000", "113212.475000", "113213.965000", "113215.455000", "113216.945000", "113218.435000", "113219.925000", "113221.415000", "113222.905000", "113224.395000", "113225.885000", "113227.375000", "113228.865000", "113230.355000", "113231.845000", "113233.335000", "113234.825000", "113236.315000", "113237.805000", "113239.295000", "113240.785000", "113242.275000", "113243.765000", "113245.255000", "113246.745000", "113248.235000", "113249.725000", "113251.215000", "113252.705000", "113254.195000", "113255.685000", "113257.175000", "113258.665000", "113300.155000", "113301.645000", "113303.135000", "113304.625000", "113306.115000", "113307.605000", "113309.095000", "113310.585000", "113312.075000", "113313.565000", "113315.055000", "113316.545000", "113318.035000", "113319.525000", "113321.015000", "113322.505000", "113323.995000", "113325.485000", "113326.975000", "113328.465000", "113329.955000", "113331.445000", "113332.935000", "113334.425000", "113335.915000", "113337.405000", "113338.895000", "113340.385000", "113341.875000", "113343.365000", "113344.855000", "113346.345000", "113347.835000", "113349.325000", "113350.815000", "113352.305000", "113353.795000", "113355.285000", "113356.775000", "113358.265000", "113359.755000", "113401.245000", "113402.735000", "113404.225000", "113405.715000", "113407.205000", "113408.695000", "113410.185000", "113411.675000", "113413.165000", "113414.655000", "113416.145000", "113417.635000", "113419.125000", "113420.615000", "113422.105000", "113423.595000", "113425.085000", "113426.575000", "113428.065000", "113429.555000", "113431.045000", "113432.535000", "113434.025000", "113435.515000", "113437.005000", "113438.495000", "113439.985000", "113441.475000", "113442.965000", "113444.455000"],
      "ContentTime": ["113121.434000", "113121.436000", "113121.439000", "113121.441000", "113121.444000", "113121.446000", "113121.449000", "113121.451000", "113121.454000", "113121.456000", "113121.459000", "113121.461000", "113121.464000", "113121.471000", "113121.473000", "113121.476000", "113121.478000", "113121.481000", "113121.483000", "113121.485000", "113121.488000", "113121.491000", "113121.493000", "113141.385000", "113141.388000", "113141.390000", "113141.393000", "113141.395000", "113141.398000", "113141.400000", "113141.403000", "113141.406000", "113141.408000", "113141.411000", "113141.413000", "113141.416000", "113141.420000", "113141.422000", "113141.425000", "113141.427000", "113141.430000", "113141.433000", "113141.437000", "113201.391000", "113201.394000", "113201.397000", "113201.399000", "113201.402000", "113201.404000", "113201.407000", "113201.409000", "113201.412000", "113201.414000", "113201.417000", "113201.419000", "113201.422000", "113201.424000", "113201.427000", "113201.429000", "113201.432000", "113201.434000", "113201.437000", "113201.439000", "113201.442000", "113221.396000", "113221.399000", "113221.401000", "113221.404000", "113221.406000", "113221.409000", "113221.411000", "113221.414000", "113221.416000", "113221.419000", "113221.421000", "113221.424000", "113221.426000", "113221.429000", "113221.431000", "113221.434000", "113221.436000", "113221.439000", "113221.441000", "113221.444000", "113241.406000", "113241.409000", "113241.411000", "113241.414000", "113241.416000", "113241.419000", "113241.421000", "113241.433000", "113241.436000", "113241.438000", "113241.441000", "113241.443000", "113241.446000", "113241.448000", "113241.451000", "113241.453000", "113241.456000", "113241.458000", "113241.461000", "113241.463000", "113321.419000", "113321.421000", "113321.424000", "113321.426000", "113321.429000", "113321.432000", "113321.442000", "113321.445000", "113321.448000", "113321.450000", "113321.453000", "113321.455000", "113321.458000", "113321.460000", "113321.463000", "113321.465000", "113321.468000", "113321.470000", "113321.473000", "113321.475000", "113321.478000", "113321.480000", "113321.483000", "113321.485000", "113321.488000", "113321.491000", "113321.493000", "113321.496000", "113401.432000", "113401.434000", "113401.437000", "113401.439000", "113401.442000", "113401.444000", "113401.447000", "113401.449000", "113401.452000", "113401.454000", "113401.457000", "113401.459000", "113401.462000", "113401.464000", "113401.467000", "113401.469000", "113401.472000", "113401.474000", "113401.477000", "113401.479000", "113401.482000", "113401.484000", "113401.487000", "113401.490000", "113401.492000", "113401.495000", "113401.497000", "113441.406000", "113441.409000", "113441.411000", "113441.414000", "113441.416000", "113441.419000", "113441.422000", "113441.424000", "113441.427000", "113441.429000", "113441.432000", "113441.434000", "113441.437000", "113441.439000", "113441.442000", "113441.444000", "113441.447000", "113441.449000", "113441.452000", "113441.454000", "113441.457000", "113441.459000", "113441.462000", "113441.464000", "113441.467000", "113441.469000", "113441.472000", "113446.944000", "113446.947000", "113446.950000", "113446.952000"],
      "InstanceCreationTime": ["113121.434000", "113121.436000", "113121.439000", "113121.441000", "113121.444000", "113121.446000", "113121.449000", "113121.451000", "113121.454000", "113121.456000", "113121.459000", "113121.461000", "113121.464000", "113121.471000", "113121.473000", "113121.476000", "113121.478000", "113121.481000", "113121.483000", "113121.485000", "113121.488000", "113121.491000", "113121.493000", "113141.385000", "113141.388000", "113141.390000", "113141.393000", "113141.395000", "113141.398000", "113141.400000", "113141.403000", "113141.406000", "113141.408000", "113141.411000", "113141.413000", "113141.416000", "113141.420000", "113141.422000", "113141.425000", "113141.427000", "113141.430000", "113141.433000", "113141.437000", "113201.391000", "113201.394000", "113201.397000", "113201.399000", "113201.402000", "113201.404000", "113201.407000", "113201.409000", "113201.412000", "113201.414000", "113201.417000", "113201.419000", "113201.422000", "113201.424000", "113201.427000", "113201.429000", "113201.432000", "113201.434000", "113201.437000", "113201.439000", "113201.442000", "113221.396000", "113221.399000", "113221.401000", "113221.404000", "113221.406000", "113221.409000", "113221.411000", "113221.414000", "113221.416000", "113221.419000", "113221.421000", "113221.424000", "113221.426000", "113221.429000", "113221.431000", "113221.434000", "113221.436000", "113221.439000", "113221.441000", "113221.444000", "113241.406000", "113241.409000", "113241.411000", "113241.414000", "113241.416000", "113241.419000", "113241.421000", "113241.433000", "113241.436000", "113241.438000", "113241.441000", "113241.443000", "113241.446000", "113241.448000", "113241.451000", "113241.453000", "113241.456000", "113241.458000", "113241.461000", "113241.463000", "113321.419000", "113321.421000", "113321.424000", "113321.426000", "113321.429000", "113321.432000", "113321.442000", "113321.445000", "113321.448000", "113321.450000", "113321.453000", "113321.455000", "113321.458000", "113321.460000", "113321.463000", "113321.465000", "113321.468000", "113321.470000", "113321.473000", "113321.475000", "113321.478000", "113321.480000", "113321.483000", "113321.485000", "113321.488000", "113321.491000", "113321.493000", "113321.496000", "113401.432000", "113401.434000", "113401.437000", "113401.439000", "113401.442000", "113401.444000", "113401.447000", "113401.449000", "113401.452000", "113401.454000", "113401.457000", "113401.459000", "113401.462000", "113401.464000", "113401.467000", "113401.469000", "113401.472000", "113401.474000", "113401.477000", "113401.479000", "113401.482000", "113401.484000", "113401.487000", "113401.490000", "113401.492000", "113401.495000", "113401.497000", "113441.406000", "113441.409000", "113441.411000", "113441.414000", "113441.416000", "113441.419000", "113441.422000", "113441.424000", "113441.427000", "113441.429000", "113441.432000", "113441.434000", "113441.437000", "113441.439000", "113441.442000", "113441.444000", "113441.447000", "113441.449000", "113441.452000", "113441.454000", "113441.457000", "113441.459000", "113441.462000", "113441.464000", "113441.467000", "113441.469000", "113441.472000", "113446.944000", "113446.947000", "113446.950000", "113446.952000"],
      "InstanceNumber": [1, 2, 3, 4, 5, 6, 7, 8, 9, 10, 11, 12, 13, 14, 15, 16, 17, 18, 19, 20, 21, 22, 23, 24, 25, 26, 27, 28, 29, 30, 31, 32, 33, 34, 35, 36, 37, 38, 39, 40, 41, 42, 43, 44, 45, 46, 47, 48, 49, 50, 51, 52, 53, 54, 55, 56, 57, 58, 59, 60, 61, 62, 63, 64, 65, 66, 67, 68, 69, 70, 71, 72, 73, 74, 75, 76, 77, 78, 79, 80, 81, 82, 83, 84, 85, 86, 87, 88, 89, 90, 91, 92, 93, 94, 95, 96, 97, 98, 99, 100, 101, 102, 103, 104, 105, 106, 107, 108, 109, 110, 111, 112, 113, 114, 115, 116, 117, 118, 119, 120, 121, 122, 123, 124, 125, 126, 127, 128, 129, 130, 131, 132, 133, 134, 135, 136, 137, 138, 139, 140, 141, 142, 143, 144, 145, 146, 147, 148, 149, 150, 151, 152, 153, 154, 155, 156, 157, 158, 159, 160, 161, 162, 163, 164, 165, 166, 167, 168, 169, 170, 171, 172, 173, 174, 175, 176, 177, 178, 179, 180, 181, 182, 183, 184, 185, 186, 187, 188, 189, 190],
      "WindowCenter": [4860.0, 4862.0, 4884.0, 4886.0, 4860.0, 4886.0, 4860.0, 4858.0, 4858.0, 4862.0, 4890.0, 4858.0, 4886.0, 4884.0, 4886.0, 4890.0, 4862.0, 4860.0, 4856.0, 4886.0, 4864.0, 4860.0, 4886.0, 4862.0, 4884.0, 4860.0, 4884.0, 4864.0, 4856.0, 4860.0, 4860.0, 4904.0, 4920.0, 4890.0, 4862.0, 4884.0, 4858.0, 4854.0, 4860.0, 4862.0, 4860.0, 4890.0, 4886.0, 4888.0, 4910.0, 4886.0, 4862.0, 4884.0, 4862.0, 4860.0, 4862.0, 4860.0, 4862.0, 4888.0, 4890.0, 4884.0, 4884.0, 4862.0, 4886.0, 4888.0, 4860.0, 4890.0, 4886.0, 4864.0, 4912.0, 4886.0, 4862.0, 4834.0, 4860.0, 4862.0, 4862.0, 4886.0, 4862.0, 4910.0, 4908.0, 4864.0, 4888.0, 4862.0, 4834.0, 4888.0, 4860.0, 4860.0, 4884.0, 4862.0, 4910.0, 4908.0, 4884.0, 4886.0, 4890.0, 4860.0, 4856.0, 4886.0, 4860.0, 4860.0, 4888.0, 4888.0, 4886.0, 4864.0, 4862.0, 4862.0, 4910.0, 4910.0, 4858.0, 4890.0, 4888.0, 4858.0, 4864.0, 4862.0, 4862.0, 4890.0, 4862.0, 4886.0, 4908.0, 4886.0, 4862.0, 4886.0, 4856.0, 4864.0, 4862.0, 4888.0, 4862.0, 4862.0, 4862.0, 4906.0, 4908.0, 4886.0, 4924.0, 4920.0, 4888.0, 4826.0, 4824.0, 4826.0, 4826.0, 4860.0, 4888.0, 4890.0, 4904.0, 4902.0, 4906.0, 4884.0, 4886.0, 4834.0, 4858.0, 4858.0, 4834.0, 4888.0, 4888.0, 4884.0, 4906.0, 4890.0, 4888.0, 4888.0, 4864.0, 4862.0, 4908.0, 4918.0, 4930.0, 4856.0, 4822.0, 4796.0, 4792.0, 4826.0, 4862.0, 4906.0, 4896.0, 4902.0, 4882.0, 4886.0, 4834.0, 4888.0, 4888.0, 4858.0, 4828.0, 4824.0, 4858.0, 4910.0, 4908.0, 4908.0, 4884.0, 4862.0, 4836.0, 4888.0, 4910.0, 4888.0, 4862.0, 4856.0, 4858.0, 4856.0, 4858.0, 4906.0],
      "WindowWidth": [18622.0, 18628.0, 18662.0, 18654.0, 18620.0, 18658.0, 18620.0, 18614.0, 18612.0, 18622.0, 18674.0, 18620.0, 18666.0, 18666.0, 18656.0, 18658.0, 18612.0, 18618.0, 18612.0, 18660.0, 18622.0, 18616.0, 18662.0, 18628.0, 18658.0, 18614.0, 18650.0, 18622.0, 18612.0, 18614.0, 18614.0, 18710.0, 18768.0, 18674.0, 18622.0, 18646.0, 18600.0, 18596.0, 18610.0, 18614.0, 18610.0, 18666.0, 18654.0, 18656.0, 18698.0, 18658.0, 18626.0, 18658.0, 18618.0, 18612.0, 18614.0, 18614.0, 18614.0, 18664.0, 18666.0, 18654.0, 18654.0, 18616.0, 18654.0, 18668.0, 18614.0, 18666.0, 18662.0, 18618.0, 18694.0, 18658.0, 18614.0, 18574.0, 18608.0, 18620.0, 18618.0, 18660.0, 18622.0, 18702.0, 18702.0, 18620.0, 18660.0, 18620.0, 18574.0, 18652.0, 18612.0, 18612.0, 18654.0, 18616.0, 18696.0, 18704.0, 18656.0, 18662.0, 18672.0, 18612.0, 18606.0, 18648.0, 18612.0, 18608.0, 18660.0, 18660.0, 18654.0, 18620.0, 18618.0, 18622.0, 18712.0, 18696.0, 18614.0, 18664.0, 18658.0, 18602.0, 18614.0, 18614.0, 18614.0, 18660.0, 18622.0, 18656.0, 18706.0, 18658.0, 18618.0, 18652.0, 18612.0, 18618.0, 18612.0, 18662.0, 18622.0, 18620.0, 18618.0, 18698.0, 18704.0, 18664.0, 18760.0, 18764.0, 18664.0, 18556.0, 18556.0, 18558.0, 18562.0, 18604.0, 18658.0, 18668.0, 18700.0, 18730.0, 18706.0, 18664.0, 18654.0, 18576.0, 18608.0, 18608.0, 18574.0, 18654.0, 18658.0, 18660.0, 18704.0, 18666.0, 18656.0, 18668.0, 18620.0, 18610.0, 18706.0, 18776.0, 18742.0, 18602.0, 18556.0, 18530.0, 18528.0, 18568.0, 18618.0, 18698.0, 18726.0, 18720.0, 18670.0, 18654.0, 18582.0, 18656.0, 18658.0, 18606.0, 18566.0, 18564.0, 18608.0, 18706.0, 18712.0, 18700.0, 18656.0, 18614.0, 18582.0, 18664.0, 18704.0, 18658.0, 18618.0, 18606.0, 18606.0, 18608.0, 18612.0, 18702.0]
    },
    "slices": {}
  }
}