{
  "AcquisitionMatrixPE": 104,
  "AcquisitionNumber": 1,
  "AcquisitionTime": "11:18:1.215000",
  "BandwidthPerPixelPhaseEncode": 17.17,
  "BaseResolution": 104,
  "BodyPartExamined": "BRAIN",
  "CoilString": "HC1-7;NC1_2",
  "ConsistencyInfo": "N4_VE11C_LATEST_20160120",
  "ConversionSoftware": "dcm2niix",
  "ConversionSoftwareVersion": "v1.0.20190902",
  "DerivedVendorReportedEchoSpacing": 0.000560011,
  "DeviceSerialNumber": "167006",
  "DwellTime": 2.1e-06,
  "EchoTime": 0.037,
  "EchoTrainLength": 104,
  "EffectiveEchoSpacing": 0.000560011,
  "FlipAngle": 52,
  "ImageComments": "Unaliased_MB4_PE3_LB",
  "ImageOrientationPatientDICOM": [0.999594, 0.00375705, 0.0282282, 0.0108171, 0.866867, -0.498423],
  "ImageType": [
    "ORIGINAL",
    "PRIMARY",
    "M",
    "MB",
    "ND",
    "MOSAIC"
],
  "ImagingFrequency": 123.259,
  "InPlanePhaseEncodingDirectionDICOM": "COL",
  "InstitutionAddress": "Chemin_Queen-Mary_4565_Montreal_District_CA_H3W_1W5",
  "InstitutionName": "IUGM",
  "InstitutionalDepartmentName": "Department",
  "MRAcquisitionType": "2D",
  "MagneticFieldStrength": 3,
  "Manufacturer": "Siemens",
  "ManufacturersModelName": "Prisma_fit",
  "Modality": "MR",
  "MultibandAccelerationFactor": 4,
  "PartialFourier": 1,
  "PatientPosition": "HFS",
  "PercentPhaseFOV": 100,
  "PhaseEncodingDirection": "j",
  "PhaseEncodingSteps": 104,
  "PhaseResolution": 1,
  "PixelBandwidth": 2290,
  "ProcedureStepDescription": "memory_things",
  "ProtocolName": "func_task-things_run-4",
  "PulseSequenceDetails": "%CustomerSeq%_cmrr_mbep2d_bold",
  "ReceiveCoilActiveElements": "HC1-7;NC1,2",
  "ReceiveCoilName": "HeadNeck_64",
  "ReconMatrixPE": 104,
  "RepetitionTime": 1.49,
  "SAR": 0.0468254,
  "ScanOptions": "FS",
  "ScanningSequence": "EP",
  "SequenceName": "epfid2d1_104",
  "SequenceVariant": "SK_SS",
  "SeriesDescription": "func_task-things_run-4",
  "SeriesNumber": 19,
  "ShimSetting": [614, -7183, -8860, 284, -5, -121, -31, -36],
  "SliceThickness": 2,
  "SliceTiming": [0, 0.7825, 0.0975, 0.88, 0.195, 0.98, 0.2925, 1.0775, 0.39, 1.175, 0.49, 1.2725, 0.5875, 1.37, 0.685, 0, 0.7825, 0.0975, 0.88, 0.195, 0.98, 0.2925, 1.0775, 0.39, 1.175, 0.49, 1.2725, 0.5875, 1.37, 0.685, 0, 0.7825, 0.0975, 0.88, 0.195, 0.98, 0.2925, 1.0775, 0.39, 1.175, 0.49, 1.2725, 0.5875, 1.37, 0.685, 0, 0.7825, 0.0975, 0.88, 0.195, 0.98, 0.2925, 1.0775, 0.39, 1.175, 0.49, 1.2725, 0.5875, 1.37, 0.685],
  "SoftwareVersions": "syngo_MR_E11",
  "SpacingBetweenSlices": 2,
  "StationName": "MRC35049",
  "TaskName": "things",
  "TotalReadoutTime": 0.0576811,
  "TxRefAmp": 264.055,
  "WipMemBlock": "0cb3bf8c-ec85-4365-8bb1-52686aae2925||Sequence: R016 ve11c/master r/e634e98; Dec 19 2017 11:00:25 by eja",
  "dcmmeta_affine": [
    [-1.9991888999938965, 0.02163425087928772, 0.0526854544878006, 104.6600112915039],
    [-0.007514097262173891, 1.7337334156036377, -0.9970517754554749, -52.03676223754883],
    [0.05645649880170822, 0.9968453049659729, 1.7329490184783936, -90.20436096191406],
    [0.0, 0.0, 0.0, 1.0]
],
  "dcmmeta_reorient_transform": [
    [0.0, -1.0, 0.0, 103.0],
    [1.0, 0.0, 0.0, 0.0],
    [0.0, 0.0, 1.0, 0.0],
    [0.0, 0.0, 0.0, 1.0]
],
  "dcmmeta_shape": [104, 104, 60, 190],
  "dcmmeta_slice_dim": 2,
  "dcmmeta_version": 0.6,
  "global": {
    "const": {
      "AcquisitionMatrix": [104, 0, 0, 104],
      "AngioFlag": "N",
      "BitsAllocated": 16,
      "BitsStored": 16,
      "BodyPartExamined": "BRAIN",
      "Columns": 832,
      "EchoNumbers": 1,
      "EchoTime": 37.0,
      "EchoTrainLength": 104,
      "FlipAngle": 52.0,
      "HighBit": 15,
      "ImageOrientationPatient": [0.99959444302151, 0.00375704866584, 0.02822824942925, 0.01081712584515, 0.86686668009692, -0.498422660727],
      "ImagePositionPatient": [-842.46796264008, -760.3518469937, 354.77224199051],
      "ImageType": [
        "ORIGINAL",
        "PRIMARY",
        "M",
        "MB",
        "ND",
        "MOSAIC"
],
      "ImagedNucleus": "1H",
      "ImagingFrequency": 123.258889,
      "InPlanePhaseEncodingDirection": "COL",
      "MRAcquisitionType": "2D",
      "MagneticFieldStrength": 3.0,
      "Manufacturer": "SIEMENS",
      "ManufacturerModelName": "Prisma_fit",
      "Modality": "MR",
      "NumberOfAverages": 1.0,
      "NumberOfPhaseEncodingSteps": 104,
      "PercentPhaseFieldOfView": 100.0,
      "PercentSampling": 100.0,
      "PerformedProcedureStepStartTime": "103356.019000",
      "PhotometricInterpretation": "MONOCHROME2",
      "PixelBandwidth": 2290.0,
      "PixelRepresentation": 0,
      "PixelSpacing": [2.0, 2.0],
      "ProtocolName": "func_task-things_run-4",
      "RepetitionTime": 1490.0,
      "Rows": 832,
      "SAR": 0.04682535540888,
      "SamplesPerPixel": 1,
      "ScanOptions": "FS",
      "ScanningSequence": "EP",
      "SequenceName": "epfid2d1_104",
      "SequenceVariant": [
        "SK",
        "SS"
],
      "SeriesDescription": "func_task-things_run-4",
      "SeriesNumber": 19,
      "SeriesTime": "111933.228000",
      "SliceLocation": -49.461070379451,
      "SliceThickness": 2.0,
      "SmallestImagePixelValue": 0,
      "SoftwareVersions": "syngo MR E11",
      "SpacingBetweenSlices": 2.0000000631221,
      "SpecificCharacterSet": "ISO_IR 100",
      "StudyID": "1",
      "StudyTime": "103355.941000",
      "TransmitCoilName": "Body",
      "VariableFlipAngleFlag": "N",
      "WindowCenterWidthExplanation": "Algo1",
      "dBdt": 0.0},
    "slices": {}
  },
  "time": {
    "samples": {
      "AcquisitionNumber": [1, 2, 3, 4, 5, 6, 7, 8, 9, 10, 11, 12, 13, 14, 15, 16, 17, 18, 19, 20, 21, 22, 23, 24, 25, 26, 27, 28, 29, 30, 31, 32, 33, 34, 35, 36, 37, 38, 39, 40, 41, 42, 43, 44, 45, 46, 47, 48, 49, 50, 51, 52, 53, 54, 55, 56, 57, 58, 59, 60, 61, 62, 63, 64, 65, 66, 67, 68, 69, 70, 71, 72, 73, 74, 75, 76, 77, 78, 79, 80, 81, 82, 83, 84, 85, 86, 87, 88, 89, 90, 91, 92, 93, 94, 95, 96, 97, 98, 99, 100, 101, 102, 103, 104, 105, 106, 107, 108, 109, 110, 111, 112, 113, 114, 115, 116, 117, 118, 119, 120, 121, 122, 123, 124, 125, 126, 127, 128, 129, 130, 131, 132, 133, 134, 135, 136, 137, 138, 139, 140, 141, 142, 143, 144, 145, 146, 147, 148, 149, 150, 151, 152, 153, 154, 155, 156, 157, 158, 159, 160, 161, 162, 163, 164, 165, 166, 167, 168, 169, 170, 171, 172, 173, 174, 175, 176, 177, 178, 179, 180, 181, 182, 183, 184, 185, 186, 187, 188, 189, 190],
      "AcquisitionTime": ["111801.215000", "111802.705000", "111804.195000", "111805.685000", "111807.175000", "111808.665000", "111810.155000", "111811.645000", "111813.135000", "111814.625000", "111816.115000", "111817.605000", "111819.095000", "111820.585000", "111822.075000", "111823.565000", "111825.055000", "111826.545000", "111828.035000", "111829.525000", "111831.015000", "111832.505000", "111833.995000", "111835.485000", "111836.975000", "111838.465000", "111839.955000", "111841.445000", "111842.935000", "111844.425000", "111845.915000", "111847.405000", "111848.895000", "111850.385000", "111851.875000", "111853.365000", "111854.855000", "111856.345000", "111857.835000", "111859.325000", "111900.815000", "111902.305000", "111903.795000", "111905.285000", "111906.775000", "111908.265000", "111909.755000", "111911.245000", "111912.735000", "111914.225000", "111915.715000", "111917.205000", "111918.695000", "111920.185000", "111921.675000", "111923.165000", "111924.655000", "111926.145000", "111927.635000", "111929.125000", "111930.615000", "111932.105000", "111933.595000", "111935.085000", "111936.575000", "111938.065000", "111939.555000", "111941.045000", "111942.535000", "111944.025000", "111945.515000", "111947.005000", "111948.495000", "111949.985000", "111951.475000", "111952.965000", "111954.455000", "111955.945000", "111957.435000", "111958.925000", "112000.415000", "112001.905000", "112003.395000", "112004.885000", "112006.375000", "112007.865000", "112009.355000", "112010.845000", "112012.335000", "112013.825000", "112015.315000", "112016.805000", "112018.295000", "112019.785000", "112021.275000", "112022.765000", "112024.255000", "112025.745000", "112027.235000", "112028.725000", "112030.215000", "112031.705000", "112033.195000", "112034.685000", "112036.175000", "112037.665000", "112039.155000", "112040.645000", "112042.135000", "112043.625000", "112045.115000", "112046.605000", "112048.095000", "112049.585000", "112051.075000", "112052.565000", "112054.055000", "112055.545000", "112057.035000", "112058.525000", "112100.015000", "112101.505000", "112102.995000", "112104.485000", "112105.975000", "112107.465000", "112108.955000", "112110.445000", "112111.935000", "112113.425000", "112114.915000", "112116.405000", "112117.895000", "112119.385000", "112120.875000", "112122.365000", "112123.855000", "112125.345000", "112126.835000", "112128.325000", "112129.815000", "112131.305000", "112132.795000", "112134.285000", "112135.775000", "112137.265000", "112138.755000", "112140.245000", "112141.735000", "112143.225000", "112144.715000", "112146.205000", "112147.695000", "112149.185000", "112150.675000", "112152.165000", "112153.655000", "112155.145000", "112156.635000", "112158.125000", "112159.615000", "112201.105000", "112202.595000", "112204.085000", "112205.575000", "112207.065000", "112208.555000", "112210.045000", "112211.535000", "112213.025000", "112214.515000", "112216.005000", "112217.495000", "112218.985000", "112220.475000", "112221.965000", "112223.455000", "112224.945000", "112226.435000", "112227.925000", "112229.415000", "112230.905000", "112232.395000", "112233.885000", "112235.375000", "112236.865000", "112238.355000", "112239.845000", "112241.335000", "112242.825000"],
      "ContentTime": ["111933.231000", "111933.235000", "111933.238000", "111933.241000", "111933.245000", "111933.248000", "111933.251000", "111933.255000", "111933.258000", "111933.261000", "111933.265000", "111933.268000", "111933.271000", "111933.275000", "111933.278000", "111933.281000", "111933.285000", "111933.288000", "111933.291000", "111933.295000", "111933.298000", "111933.301000", "111933.305000", "111933.317000", "111933.321000", "111933.324000", "111933.327000", "111933.330000", "111933.334000", "111933.337000", "111933.340000", "111933.344000", "111933.347000", "111933.350000", "111933.354000", "111933.357000", "111933.360000", "111933.364000", "111953.186000", "111953.190000", "111953.193000", "111953.197000", "111953.200000", "111953.203000", "111953.207000", "111953.225000", "111953.229000", "111953.232000", "111953.236000", "111953.239000", "111953.243000", "111953.246000", "111953.249000", "111953.253000", "111953.256000", "111953.259000", "111953.263000", "111953.266000", "111953.269000", "112013.186000", "112013.190000", "112013.193000", "112013.197000", "112013.200000", "112013.203000", "112013.207000", "112013.210000", "112013.213000", "112013.216000", "112013.220000", "112013.223000", "112013.226000", "112013.230000", "112013.233000", "112013.236000", "112013.240000", "112013.243000", "112013.246000", "112013.249000", "112033.186000", "112033.190000", "112033.193000", "112033.197000", "112033.200000", "112033.203000", "112033.207000", "112033.210000", "112033.213000", "112033.217000", "112033.220000", "112033.223000", "112033.227000", "112033.230000", "112033.233000", "112033.237000", "112033.240000", "112033.243000", "112033.246000", "112033.250000", "112113.186000", "112113.190000", "112113.193000", "112113.197000", "112113.200000", "112113.203000", "112113.207000", "112113.210000", "112113.213000", "112113.217000", "112113.220000", "112113.223000", "112113.227000", "112113.230000", "112113.233000", "112113.237000", "112113.240000", "112113.243000", "112113.247000", "112113.250000", "112113.253000", "112113.257000", "112113.260000", "112113.263000", "112113.267000", "112113.270000", "112113.273000", "112113.277000", "112113.280000", "112153.186000", "112153.190000", "112153.193000", "112153.197000", "112153.200000", "112153.203000", "112153.207000", "112153.210000", "112153.213000", "112153.217000", "112153.220000", "112153.223000", "112153.226000", "112153.230000", "112153.233000", "112153.236000", "112153.250000", "112153.253000", "112153.257000", "112153.260000", "112153.263000", "112153.267000", "112153.270000", "112153.273000", "112153.277000", "112153.280000", "112153.283000", "112233.186000", "112233.190000", "112233.193000", "112233.197000", "112233.200000", "112233.204000", "112233.207000", "112233.210000", "112233.214000", "112233.217000", "112233.221000", "112233.224000", "112233.227000", "112233.231000", "112233.235000", "112233.239000", "112233.243000", "112233.246000", "112233.250000", "112233.254000", "112233.258000", "112233.262000", "112233.265000", "112233.269000", "112233.272000", "112233.276000", "112245.230000", "112245.234000", "112245.238000", "112245.241000", "112245.245000", "112245.249000", "112245.252000", "112245.256000", "112245.259000"],
      "InstanceCreationTime": ["111933.231000", "111933.235000", "111933.238000", "111933.241000", "111933.245000", "111933.248000", "111933.251000", "111933.255000", "111933.258000", "111933.261000", "111933.265000", "111933.268000", "111933.271000", "111933.275000", "111933.278000", "111933.281000", "111933.285000", "111933.288000", "111933.291000", "111933.295000", "111933.298000", "111933.301000", "111933.305000", "111933.317000", "111933.321000", "111933.324000", "111933.327000", "111933.330000", "111933.334000", "111933.337000", "111933.340000", "111933.344000", "111933.347000", "111933.350000", "111933.354000", "111933.357000", "111933.360000", "111933.364000", "111953.186000", "111953.190000", "111953.193000", "111953.197000", "111953.200000", "111953.203000", "111953.207000", "111953.225000", "111953.229000", "111953.232000", "111953.236000", "111953.239000", "111953.243000", "111953.246000", "111953.249000", "111953.253000", "111953.256000", "111953.259000", "111953.263000", "111953.266000", "111953.269000", "112013.186000", "112013.190000", "112013.193000", "112013.197000", "112013.200000", "112013.203000", "112013.207000", "112013.210000", "112013.213000", "112013.216000", "112013.220000", "112013.223000", "112013.226000", "112013.230000", "112013.233000", "112013.236000", "112013.240000", "112013.243000", "112013.246000", "112013.249000", "112033.186000", "112033.190000", "112033.193000", "112033.197000", "112033.200000", "112033.203000", "112033.207000", "112033.210000", "112033.213000", "112033.217000", "112033.220000", "112033.223000", "112033.227000", "112033.230000", "112033.233000", "112033.237000", "112033.240000", "112033.243000", "112033.246000", "112033.250000", "112113.186000", "112113.190000", "112113.193000", "112113.197000", "112113.200000", "112113.203000", "112113.207000", "112113.210000", "112113.213000", "112113.217000", "112113.220000", "112113.223000", "112113.227000", "112113.230000", "112113.233000", "112113.237000", "112113.240000", "112113.243000", "112113.247000", "112113.250000", "112113.253000", "112113.257000", "112113.260000", "112113.263000", "112113.267000", "112113.270000", "112113.273000", "112113.277000", "112113.280000", "112153.186000", "112153.190000", "112153.193000", "112153.197000", "112153.200000", "112153.203000", "112153.207000", "112153.210000", "112153.213000", "112153.217000", "112153.220000", "112153.223000", "112153.226000", "112153.230000", "112153.233000", "112153.236000", "112153.250000", "112153.253000", "112153.257000", "112153.260000", "112153.263000", "112153.267000", "112153.270000", "112153.273000", "112153.277000", "112153.280000", "112153.283000", "112233.186000", "112233.190000", "112233.193000", "112233.197000", "112233.200000", "112233.204000", "112233.207000", "112233.210000", "112233.214000", "112233.217000", "112233.221000", "112233.224000", "112233.227000", "112233.231000", "112233.235000", "112233.239000", "112233.243000", "112233.246000", "112233.250000", "112233.254000", "112233.258000", "112233.262000", "112233.265000", "112233.269000", "112233.272000", "112233.276000", "112245.230000", "112245.234000", "112245.238000", "112245.241000", "112245.245000", "112245.249000", "112245.252000", "112245.256000", "112245.259000"],
      "InstanceNumber": [1, 2, 3, 4, 5, 6, 7, 8, 9, 10, 11, 12, 13, 14, 15, 16, 17, 18, 19, 20, 21, 22, 23, 24, 25, 26, 27, 28, 29, 30, 31, 32, 33, 34, 35, 36, 37, 38, 39, 40, 41, 42, 43, 44, 45, 46, 47, 48, 49, 50, 51, 52, 53, 54, 55, 56, 57, 58, 59, 60, 61, 62, 63, 64, 65, 66, 67, 68, 69, 70, 71, 72, 73, 74, 75, 76, 77, 78, 79, 80, 81, 82, 83, 84, 85, 86, 87, 88, 89, 90, 91, 92, 93, 94, 95, 96, 97, 98, 99, 100, 101, 102, 103, 104, 105, 106, 107, 108, 109, 110, 111, 112, 113, 114, 115, 116, 117, 118, 119, 120, 121, 122, 123, 124, 125, 126, 127, 128, 129, 130, 131, 132, 133, 134, 135, 136, 137, 138, 139, 140, 141, 142, 143, 144, 145, 146, 147, 148, 149, 150, 151, 152, 153, 154, 155, 156, 157, 158, 159, 160, 161, 162, 163, 164, 165, 166, 167, 168, 169, 170, 171, 172, 173, 174, 175, 176, 177, 178, 179, 180, 181, 182, 183, 184, 185, 186, 187, 188, 189, 190],
      "LargestImagePixelValue": [48740, 47992, 46841, 46923, 46511, 46810, 47041, 46989, 46962, 46266, 46337, 46423, 46215, 47291, 46095, 46485, 47238, 46226, 45530, 45661, 46017, 46156, 45944, 45821, 46606, 46274, 46055, 46618, 46472, 46193, 46010, 46699, 46200, 45988, 46241, 46697, 46334, 46353, 46332, 46573, 46628, 46372, 46390, 46456, 46197, 45869, 46805, 46193, 47022, 46468, 46302, 47025, 46093, 46110, 46324, 46164, 46203, 46123, 46062, 46588, 45875, 45989, 45997, 46262, 46344, 45772, 46469, 46083, 46525, 46025, 46191, 45605, 45855, 46396, 46169, 46079, 46162, 46482, 46450, 46445, 46244, 46053, 46394, 46410, 46068, 45938, 46249, 46548, 46375, 45697, 46006, 46190, 46051, 45827, 46510, 46086, 46362, 46397, 46332, 45983, 46026, 46139, 45694, 46204, 45914, 46570, 47612, 46413, 46234, 46584, 46152, 46416, 46612, 46335, 47801, 46459, 45993, 47139, 46061, 46237, 46922, 46120, 47082, 47705, 46717, 47520, 47035, 47244, 47281, 46994, 46795, 46430, 46387, 47082, 46890, 46916, 46103, 46622, 46301, 45903, 46359, 45602, 46687, 46147, 46879, 46583, 46144, 46956, 46620, 46922, 46118, 47068, 46459, 47240, 47042, 47292, 47404, 46562, 47200, 46392, 46275, 46808, 46081, 46037, 46739, 46099, 45958, 46927, 46368, 46687, 46478, 46369, 46142, 47020, 46922, 46103, 46989, 46322, 47190, 47238, 46859, 46909, 46588, 46553, 46120, 46202, 46043, 45418, 46180, 46475],
      "WindowCenter": [11083.0, 11069.0, 11039.0, 11010.0, 10989.0, 10973.0, 10971.0, 10969.0, 10972.0, 10973.0, 10963.0, 10972.0, 10989.0, 11011.0, 11004.0, 11001.0, 10990.0, 10992.0, 10995.0, 10984.0, 10985.0, 11017.0, 11037.0, 11027.0, 11009.0, 10948.0, 10920.0, 10921.0, 10929.0, 10936.0, 10954.0, 10934.0, 10933.0, 10941.0, 10944.0, 10957.0, 10959.0, 10974.0, 10986.0, 11006.0, 11006.0, 10975.0, 10947.0, 10940.0, 10950.0, 10966.0, 10980.0, 10966.0, 10972.0, 10977.0, 10968.0, 10984.0, 10957.0, 10969.0, 10998.0, 10955.0, 10954.0, 10959.0, 10954.0, 10972.0, 10964.0, 10962.0, 10969.0, 10961.0, 10951.0, 10945.0, 10979.0, 10965.0, 10959.0, 10966.0, 10989.0, 10975.0, 10946.0, 10915.0, 10918.0, 10957.0, 10978.0, 10973.0, 10964.0, 10942.0, 10940.0, 10931.0, 10926.0, 10929.0, 10942.0, 10939.0, 10940.0, 10951.0, 10959.0, 10966.0, 10967.0, 10953.0, 10962.0, 10973.0, 10969.0, 10977.0, 11006.0, 10970.0, 10970.0, 10962.0, 10952.0, 10952.0, 10956.0, 10953.0, 10954.0, 10967.0, 10988.0, 10954.0, 10977.0, 10979.0, 10967.0, 10972.0, 10976.0, 10971.0, 10998.0, 10969.0, 10972.0, 10991.0, 10980.0, 10975.0, 10983.0, 10971.0, 10979.0, 10972.0, 10965.0, 10983.0, 10975.0, 10981.0, 10979.0, 10966.0, 10967.0, 10960.0, 10959.0, 10963.0, 10964.0, 10973.0, 10958.0, 10967.0, 10980.0, 10985.0, 10990.0, 10967.0, 10966.0, 10935.0, 10934.0, 10972.0, 10985.0, 10984.0, 10964.0, 10951.0, 10935.0, 10952.0, 10951.0, 10958.0, 10944.0, 10946.0, 10961.0, 10949.0, 10958.0, 10959.0, 10968.0, 10971.0, 10958.0, 10953.0, 10972.0, 10999.0, 10974.0, 10956.0, 10923.0, 10919.0, 10932.0, 10955.0, 10968.0, 10971.0, 10972.0, 10936.0, 10954.0, 10952.0, 10952.0, 10942.0, 10935.0, 10934.0, 10936.0, 10929.0, 10925.0, 10959.0, 10969.0, 10944.0, 10912.0, 10914.0],
      "WindowWidth": [23905.0, 23838.0, 23750.0, 23667.0, 23610.0, 23565.0, 23559.0, 23557.0, 23561.0, 23569.0, 23548.0, 23566.0, 23603.0, 23652.0, 23641.0, 23630.0, 23604.0, 23611.0, 23622.0, 23600.0, 23594.0, 23670.0, 23713.0, 23690.0, 23645.0, 23505.0, 23441.0, 23444.0, 23460.0, 23481.0, 23524.0, 23474.0, 23472.0, 23491.0, 23502.0, 23527.0, 23532.0, 23566.0, 23592.0, 23641.0, 23641.0, 23569.0, 23503.0, 23486.0, 23508.0, 23552.0, 23579.0, 23549.0, 23558.0, 23570.0, 23551.0, 23590.0, 23527.0, 23554.0, 23620.0, 23524.0, 23522.0, 23532.0, 23523.0, 23558.0, 23550.0, 23539.0, 23554.0, 23539.0, 23515.0, 23503.0, 23583.0, 23552.0, 23532.0, 23556.0, 23608.0, 23571.0, 23507.0, 23439.0, 23436.0, 23525.0, 23576.0, 23562.0, 23538.0, 23486.0, 23482.0, 23460.0, 23456.0, 23456.0, 23488.0, 23486.0, 23485.0, 23509.0, 23530.0, 23547.0, 23550.0, 23517.0, 23538.0, 23565.0, 23555.0, 23572.0, 23638.0, 23554.0, 23552.0, 23535.0, 23512.0, 23509.0, 23525.0, 23518.0, 23519.0, 23544.0, 23591.0, 23517.0, 23568.0, 23574.0, 23546.0, 23559.0, 23565.0, 23556.0, 23617.0, 23553.0, 23559.0, 23599.0, 23574.0, 23565.0, 23576.0, 23558.0, 23570.0, 23555.0, 23537.0, 23573.0, 23560.0, 23577.0, 23566.0, 23540.0, 23543.0, 23528.0, 23528.0, 23532.0, 23536.0, 23561.0, 23529.0, 23548.0, 23580.0, 23594.0, 23600.0, 23548.0, 23544.0, 23478.0, 23469.0, 23556.0, 23590.0, 23585.0, 23540.0, 23506.0, 23474.0, 23509.0, 23511.0, 23518.0, 23490.0, 23491.0, 23528.0, 23506.0, 23522.0, 23528.0, 23549.0, 23557.0, 23531.0, 23521.0, 23554.0, 23622.0, 23568.0, 23518.0, 23443.0, 23434.0, 23466.0, 23516.0, 23549.0, 23552.0, 23560.0, 23482.0, 23512.0, 23512.0, 23510.0, 23482.0, 23468.0, 23465.0, 23470.0, 23464.0, 23448.0, 23528.0, 23554.0, 23504.0, 23424.0, 23428.0]
    },
    "slices": {}
  }
}