{
  "AcquisitionMatrixPE": 104,
  "AcquisitionNumber": 1,
  "AcquisitionTime": "11:19:17.985000",
  "BandwidthPerPixelPhaseEncode": 17.17,
  "BaseResolution": 104,
  "BodyPartExamined": "BRAIN",
  "CoilString": "HC1-7;NC1_2",
  "ConsistencyInfo": "N4_VE11C_LATEST_20160120",
  "ConversionSoftware": "dcm2niix",
  "ConversionSoftwareVersion": "v1.0.20190902",
  "DerivedVendorReportedEchoSpacing": 0.000560011,
  "DeviceSerialNumber": "167006",
  "DwellTime": 2.1e-06,
  "EchoTime": 0.037,
  "EchoTrainLength": 104,
  "EffectiveEchoSpacing": 0.000560011,
  "FlipAngle": 52,
  "HeudiconvVersion": "0.10.0",
  "ImageComments": "Unaliased_MB4_PE3_LB",
  "ImageOrientationPatientDICOM": [0.999611, 0.00574112, 0.0272735, 0.00767661, 0.883992, -0.46744],
  "ImageType": [
    "ORIGINAL",
    "PRIMARY",
    "P",
    "MB",
    "ND",
    "MOSAIC"
],
  "ImagingFrequency": 123.259,
  "InPlanePhaseEncodingDirectionDICOM": "COL",
  "InstitutionAddress": "Chemin_Queen-Mary_4565_Montreal_District_CA_H3W_1W5",
  "InstitutionName": "IUGM",
  "InstitutionalDepartmentName": "Department",
  "MRAcquisitionType": "2D",
  "MagneticFieldStrength": 3,
  "Manufacturer": "Siemens",
  "ManufacturersModelName": "Prisma_fit",
  "Modality": "MR",
  "MultibandAccelerationFactor": 4,
  "PartialFourier": 1,
  "PatientPosition": "HFS",
  "PercentPhaseFOV": 100,
  "PhaseEncodingDirection": "j",
  "PhaseEncodingSteps": 104,
  "PhaseResolution": 1,
  "PixelBandwidth": 2290,
  "ProcedureStepDescription": "memory_things",
  "ProtocolName": "func_task-things_run-6",
  "PulseSequenceDetails": "%CustomerSeq%_cmrr_mbep2d_bold",
  "ReceiveCoilActiveElements": "HC1-7;NC1,2",
  "ReceiveCoilName": "HeadNeck_64",
  "ReconMatrixPE": 104,
  "RepetitionTime": 1.49,
  "SAR": 0.0376928,
  "ScanOptions": "FS",
  "ScanningSequence": "EP",
  "SequenceName": "epfid2d1_104",
  "SequenceVariant": "SK_SS",
  "SeriesDescription": "func_task-things_run-6",
  "SeriesNumber": 26,
  "ShimSetting": [621, -7188, -8855, 322, 20, -114, -39, -21],
  "SliceThickness": 2,
  "SliceTiming": [0, 0.785, 0.0975, 0.8825, 0.195, 0.98, 0.295, 1.0775, 0.3925, 1.175, 0.49, 1.2725, 0.5875, 1.3725, 0.685, 0, 0.785, 0.0975, 0.8825, 0.195, 0.98, 0.295, 1.0775, 0.3925, 1.175, 0.49, 1.2725, 0.5875, 1.3725, 0.685, 0, 0.785, 0.0975, 0.8825, 0.195, 0.98, 0.295, 1.0775, 0.3925, 1.175, 0.49, 1.2725, 0.5875, 1.3725, 0.685, 0, 0.785, 0.0975, 0.8825, 0.195, 0.98, 0.295, 1.0775, 0.3925, 1.175, 0.49, 1.2725, 0.5875, 1.3725, 0.685],
  "SoftwareVersions": "syngo_MR_E11",
  "SpacingBetweenSlices": 2,
  "StationName": "MRC35049",
  "TaskName": "things",
  "TotalReadoutTime": 0.0576811,
  "TxRefAmp": 247.032,
  "WipMemBlock": "c93be899-339e-4880-ae74-a833ce1012ab||Sequence: R016 ve11c/master r/e634e98; Dec 19 2017 11:00:25 by eja",
  "dcmmeta_affine": [
    [-1.999222993850708, 0.015353218652307987, 0.053586434572935104, 104.61088562011719],
    [-0.011482249945402145, 1.7679834365844727, -0.9349347352981567, -53.8828239440918],
    [0.05454709008336067, 0.9348791241645813, 1.767208456993103, -92.1695556640625],
    [0.0, 0.0, 0.0, 1.0]
],
  "dcmmeta_reorient_transform": [
    [0.0, -1.0, 0.0, 103.0],
    [1.0, 0.0, 0.0, 0.0],
    [0.0, 0.0, 1.0, 0.0],
    [0.0, 0.0, 0.0, 1.0]
],
  "dcmmeta_shape": [104, 104, 60, 190],
  "dcmmeta_slice_dim": 2,
  "dcmmeta_version": 0.6,
  "global": {
    "const": {
      "AcquisitionMatrix": [104, 0, 0, 104],
      "AngioFlag": "N",
      "BitsAllocated": 16,
      "BitsStored": 16,
      "BodyPartExamined": "BRAIN",
      "Columns": 832,
      "EchoNumbers": 1,
      "EchoTime": 37.0,
      "EchoTrainLength": 104,
      "FlipAngle": 52.0,
      "HighBit": 15,
      "ImageOrientationPatient": [0.99961152116401, 0.00574112511156, 0.02727354466572, 0.00767660929051, 0.88399169531802, -0.4674395707239],
      "ImagePositionPatient": [-839.49802949078, -775.94495864209, 324.56385969362],
      "ImageType": [
        "ORIGINAL",
        "PRIMARY",
        "P",
        "MB",
        "ND",
        "MOSAIC"
],
      "ImagedNucleus": "1H",
      "ImagingFrequency": 123.258893,
      "InPlanePhaseEncodingDirection": "COL",
      "LargestImagePixelValue": 4095,
      "MRAcquisitionType": "2D",
      "MagneticFieldStrength": 3.0,
      "Manufacturer": "SIEMENS",
      "ManufacturerModelName": "Prisma_fit",
      "Modality": "MR",
      "NumberOfAverages": 1.0,
      "NumberOfPhaseEncodingSteps": 104,
      "PercentPhaseFieldOfView": 100.0,
      "PercentSampling": 100.0,
      "PerformedProcedureStepStartTime": "101834.173000",
      "PhotometricInterpretation": "MONOCHROME2",
      "PixelBandwidth": 2290.0,
      "PixelRepresentation": 0,
      "PixelSpacing": [2.0, 2.0],
      "ProtocolName": "func_task-things_run-6",
      "RepetitionTime": 1490.0,
      "RescaleIntercept": -4096.0,
      "RescaleSlope": 2.0,
      "RescaleType": "US",
      "Rows": 832,
      "SAR": 0.03769276568359,
      "SamplesPerPixel": 1,
      "ScanOptions": "FS",
      "ScanningSequence": "EP",
      "SequenceName": "epfid2d1_104",
      "SequenceVariant": [
        "SK",
        "SS"
],
      "SeriesDescription": "func_task-things_run-6",
      "SeriesNumber": 26,
      "SeriesTime": "112032.992000",
      "SliceLocation": -53.450087348739,
      "SliceThickness": 2.0,
      "SmallestImagePixelValue": 0,
      "SoftwareVersions": "syngo MR E11",
      "SpacingBetweenSlices": 2.0000000494446,
      "SpecificCharacterSet": "ISO_IR 100",
      "StudyID": "1",
      "StudyTime": "101834.103000",
      "TransmitCoilName": "Body",
      "VariableFlipAngleFlag": "N",
      "WindowCenterWidthExplanation": "Algo1",
      "dBdt": 0.0},
    "slices": {}
  },
  "time": {
    "samples": {
      "AcquisitionNumber": [1, 2, 3, 4, 5, 6, 7, 8, 9, 10, 11, 12, 13, 14, 15, 16, 17, 18, 19, 20, 21, 22, 23, 24, 25, 26, 27, 28, 29, 30, 31, 32, 33, 34, 35, 36, 37, 38, 39, 40, 41, 42, 43, 44, 45, 46, 47, 48, 49, 50, 51, 52, 53, 54, 55, 56, 57, 58, 59, 60, 61, 62, 63, 64, 65, 66, 67, 68, 69, 70, 71, 72, 73, 74, 75, 76, 77, 78, 79, 80, 81, 82, 83, 84, 85, 86, 87, 88, 89, 90, 91, 92, 93, 94, 95, 96, 97, 98, 99, 100, 101, 102, 103, 104, 105, 106, 107, 108, 109, 110, 111, 112, 113, 114, 115, 116, 117, 118, 119, 120, 121, 122, 123, 124, 125, 126, 127, 128, 129, 130, 131, 132, 133, 134, 135, 136, 137, 138, 139, 140, 141, 142, 143, 144, 145, 146, 147, 148, 149, 150, 151, 152, 153, 154, 155, 156, 157, 158, 159, 160, 161, 162, 163, 164, 165, 166, 167, 168, 169, 170, 171, 172, 173, 174, 175, 176, 177, 178, 179, 180, 181, 182, 183, 184, 185, 186, 187, 188, 189, 190],
      "AcquisitionTime": ["111917.985000", "111919.475000", "111920.965000", "111922.455000", "111923.945000", "111925.435000", "111926.925000", "111928.415000", "111929.905000", "111931.395000", "111932.885000", "111934.375000", "111935.865000", "111937.355000", "111938.845000", "111940.335000", "111941.825000", "111943.315000", "111944.805000", "111946.295000", "111947.785000", "111949.275000", "111950.765000", "111952.255000", "111953.745000", "111955.235000", "111956.725000", "111958.215000", "111959.705000", "112001.195000", "112002.685000", "112004.175000", "112005.665000", "112007.155000", "112008.645000", "112010.135000", "112011.625000", "112013.115000", "112014.605000", "112016.095000", "112017.585000", "112019.075000", "112020.565000", "112022.055000", "112023.545000", "112025.035000", "112026.525000", "112028.015000", "112029.505000", "112030.995000", "112032.485000", "112033.975000", "112035.465000", "112036.955000", "112038.445000", "112039.935000", "112041.425000", "112042.915000", "112044.405000", "112045.895000", "112047.385000", "112048.875000", "112050.365000", "112051.855000", "112053.345000", "112054.835000", "112056.325000", "112057.815000", "112059.305000", "112100.795000", "112102.285000", "112103.775000", "112105.265000", "112106.755000", "112108.245000", "112109.735000", "112111.225000", "112112.715000", "112114.205000", "112115.695000", "112117.185000", "112118.675000", "112120.165000", "112121.655000", "112123.145000", "112124.635000", "112126.125000", "112127.615000", "112129.105000", "112130.595000", "112132.085000", "112133.575000", "112135.065000", "112136.555000", "112138.045000", "112139.535000", "112141.025000", "112142.515000", "112144.005000", "112145.495000", "112146.985000", "112148.475000", "112149.965000", "112151.455000", "112152.945000", "112154.435000", "112155.925000", "112157.415000", "112158.905000", "112200.395000", "112201.885000", "112203.375000", "112204.865000", "112206.355000", "112207.845000", "112209.335000", "112210.825000", "112212.315000", "112213.805000", "112215.295000", "112216.785000", "112218.275000", "112219.765000", "112221.255000", "112222.745000", "112224.235000", "112225.725000", "112227.215000", "112228.705000", "112230.195000", "112231.685000", "112233.175000", "112234.665000", "112236.155000", "112237.645000", "112239.135000", "112240.625000", "112242.115000", "112243.605000", "112245.095000", "112246.585000", "112248.075000", "112249.565000", "112251.055000", "112252.545000", "112254.035000", "112255.525000", "112257.015000", "112258.505000", "112259.995000", "112301.485000", "112302.975000", "112304.465000", "112305.955000", "112307.445000", "112308.935000", "112310.425000", "112311.915000", "112313.405000", "112314.895000", "112316.385000", "112317.875000", "112319.365000", "112320.855000", "112322.345000", "112323.835000", "112325.325000", "112326.815000", "112328.305000", "112329.795000", "112331.285000", "112332.775000", "112334.265000", "112335.755000", "112337.245000", "112338.735000", "112340.225000", "112341.715000", "112343.205000", "112344.695000", "112346.185000", "112347.675000", "112349.165000", "112350.655000", "112352.145000", "112353.635000", "112355.125000", "112356.615000", "112358.105000", "112359.595000"],
      "ContentTime": ["112032.994000", "112032.997000", "112033.000000", "112033.003000", "112033.005000", "112033.008000", "112033.010000", "112033.013000", "112033.015000", "112033.018000", "112033.020000", "112033.023000", "112033.025000", "112033.028000", "112033.030000", "112033.033000", "112033.035000", "112033.038000", "112033.040000", "112033.043000", "112033.045000", "112052.928000", "112052.931000", "112052.934000", "112052.936000", "112052.938000", "112052.941000", "112052.943000", "112052.946000", "112052.948000", "112052.951000", "112052.953000", "112052.956000", "112052.958000", "112052.961000", "112052.963000", "112052.966000", "112052.968000", "112052.971000", "112052.973000", "112052.975000", "112112.939000", "112112.942000", "112112.944000", "112112.947000", "112112.949000", "112112.952000", "112112.954000", "112112.957000", "112112.959000", "112112.962000", "112112.964000", "112112.966000", "112112.969000", "112112.971000", "112112.974000", "112112.976000", "112112.979000", "112112.981000", "112112.984000", "112112.986000", "112132.943000", "112132.946000", "112132.949000", "112132.951000", "112132.954000", "112132.956000", "112132.959000", "112132.961000", "112132.964000", "112132.966000", "112132.969000", "112132.971000", "112132.974000", "112132.976000", "112132.978000", "112132.981000", "112132.983000", "112132.986000", "112132.988000", "112132.991000", "112152.926000", "112152.928000", "112152.931000", "112152.933000", "112152.936000", "112152.938000", "112152.941000", "112152.943000", "112152.946000", "112152.948000", "112152.951000", "112152.953000", "112152.956000", "112152.958000", "112152.961000", "112152.963000", "112152.966000", "112152.968000", "112152.971000", "112152.973000", "112152.976000", "112232.963000", "112232.966000", "112232.968000", "112232.971000", "112232.973000", "112232.976000", "112232.978000", "112232.981000", "112232.983000", "112232.986000", "112232.988000", "112232.991000", "112232.993000", "112232.996000", "112232.998000", "112233.002000", "112233.004000", "112233.007000", "112233.009000", "112233.012000", "112233.014000", "112233.017000", "112233.019000", "112233.022000", "112233.024000", "112233.027000", "112233.029000", "112233.032000", "112312.941000", "112312.944000", "112312.947000", "112312.949000", "112312.952000", "112312.954000", "112312.957000", "112312.961000", "112312.965000", "112312.968000", "112312.970000", "112312.973000", "112312.976000", "112312.979000", "112312.983000", "112312.985000", "112312.988000", "112312.991000", "112312.993000", "112312.996000", "112312.998000", "112313.002000", "112313.004000", "112313.007000", "112313.009000", "112313.012000", "112352.961000", "112352.963000", "112352.966000", "112352.968000", "112352.971000", "112352.973000", "112352.976000", "112352.978000", "112352.981000", "112352.983000", "112352.986000", "112352.988000", "112352.991000", "112352.993000", "112352.996000", "112352.998000", "112353.002000", "112353.004000", "112353.007000", "112353.009000", "112353.012000", "112353.014000", "112353.017000", "112353.019000", "112353.022000", "112353.024000", "112353.027000", "112402.280000", "112402.282000", "112402.285000", "112402.287000", "112402.290000", "112402.292000", "112402.295000"],
      "InstanceCreationTime": ["112032.994000", "112032.997000", "112033.000000", "112033.003000", "112033.005000", "112033.008000", "112033.010000", "112033.013000", "112033.015000", "112033.018000", "112033.020000", "112033.023000", "112033.025000", "112033.028000", "112033.030000", "112033.033000", "112033.035000", "112033.038000", "112033.040000", "112033.043000", "112033.045000", "112052.928000", "112052.931000", "112052.934000", "112052.936000", "112052.938000", "112052.941000", "112052.943000", "112052.946000", "112052.948000", "112052.951000", "112052.953000", "112052.956000", "112052.958000", "112052.961000", "112052.963000", "112052.966000", "112052.968000", "112052.971000", "112052.973000", "112052.975000", "112112.939000", "112112.942000", "112112.944000", "112112.947000", "112112.949000", "112112.952000", "112112.954000", "112112.957000", "112112.959000", "112112.962000", "112112.964000", "112112.966000", "112112.969000", "112112.971000", "112112.974000", "112112.976000", "112112.979000", "112112.981000", "112112.984000", "112112.986000", "112132.943000", "112132.946000", "112132.949000", "112132.951000", "112132.954000", "112132.956000", "112132.959000", "112132.961000", "112132.964000", "112132.966000", "112132.969000", "112132.971000", "112132.974000", "112132.976000", "112132.978000", "112132.981000", "112132.983000", "112132.986000", "112132.988000", "112132.991000", "112152.926000", "112152.928000", "112152.931000", "112152.933000", "112152.936000", "112152.938000", "112152.941000", "112152.943000", "112152.946000", "112152.948000", "112152.951000", "112152.953000", "112152.956000", "112152.958000", "112152.961000", "112152.963000", "112152.966000", "112152.968000", "112152.971000", "112152.973000", "112152.976000", "112232.963000", "112232.966000", "112232.968000", "112232.971000", "112232.973000", "112232.976000", "112232.978000", "112232.981000", "112232.983000", "112232.986000", "112232.988000", "112232.991000", "112232.993000", "112232.996000", "112232.998000", "112233.002000", "112233.004000", "112233.007000", "112233.009000", "112233.012000", "112233.014000", "112233.017000", "112233.019000", "112233.022000", "112233.024000", "112233.027000", "112233.029000", "112233.032000", "112312.941000", "112312.944000", "112312.947000", "112312.949000", "112312.952000", "112312.954000", "112312.957000", "112312.961000", "112312.965000", "112312.968000", "112312.970000", "112312.973000", "112312.976000", "112312.979000", "112312.983000", "112312.985000", "112312.988000", "112312.991000", "112312.993000", "112312.996000", "112312.998000", "112313.002000", "112313.004000", "112313.007000", "112313.009000", "112313.012000", "112352.961000", "112352.963000", "112352.966000", "112352.968000", "112352.971000", "112352.973000", "112352.976000", "112352.978000", "112352.981000", "112352.983000", "112352.986000", "112352.988000", "112352.991000", "112352.993000", "112352.996000", "112352.998000", "112353.002000", "112353.004000", "112353.007000", "112353.009000", "112353.012000", "112353.014000", "112353.017000", "112353.019000", "112353.022000", "112353.024000", "112353.027000", "112402.280000", "112402.282000", "112402.285000", "112402.287000", "112402.290000", "112402.292000", "112402.295000"],
      "InstanceNumber": [1, 2, 3, 4, 5, 6, 7, 8, 9, 10, 11, 12, 13, 14, 15, 16, 17, 18, 19, 20, 21, 22, 23, 24, 25, 26, 27, 28, 29, 30, 31, 32, 33, 34, 35, 36, 37, 38, 39, 40, 41, 42, 43, 44, 45, 46, 47, 48, 49, 50, 51, 52, 53, 54, 55, 56, 57, 58, 59, 60, 61, 62, 63, 64, 65, 66, 67, 68, 69, 70, 71, 72, 73, 74, 75, 76, 77, 78, 79, 80, 81, 82, 83, 84, 85, 86, 87, 88, 89, 90, 91, 92, 93, 94, 95, 96, 97, 98, 99, 100, 101, 102, 103, 104, 105, 106, 107, 108, 109, 110, 111, 112, 113, 114, 115, 116, 117, 118, 119, 120, 121, 122, 123, 124, 125, 126, 127, 128, 129, 130, 131, 132, 133, 134, 135, 136, 137, 138, 139, 140, 141, 142, 143, 144, 145, 146, 147, 148, 149, 150, 151, 152, 153, 154, 155, 156, 157, 158, 159, 160, 161, 162, 163, 164, 165, 166, 167, 168, 169, 170, 171, 172, 173, 174, 175, 176, 177, 178, 179, 180, 181, 182, 183, 184, 185, 186, 187, 188, 189, 190],
      "WindowCenter": [4778.0, 4778.0, 4778.0, 4778.0, 4774.0, 4788.0, 4782.0, 4802.0, 4808.0, 4804.0, 4798.0, 4778.0, 4774.0, 4774.0, 4778.0, 4776.0, 4802.0, 4786.0, 4802.0, 4782.0, 4826.0, 4828.0, 4790.0, 4748.0, 4768.0, 4824.0, 4792.0, 4770.0, 4800.0, 4816.0, 4792.0, 4816.0, 4784.0, 4802.0, 4814.0, 4792.0, 4780.0, 4768.0, 4768.0, 4768.0, 4770.0, 4778.0, 4780.0, 4812.0, 4818.0, 4816.0, 4810.0, 4780.0, 4772.0, 4800.0, 4774.0, 4774.0, 4776.0, 4786.0, 4782.0, 4810.0, 4808.0, 4784.0, 4802.0, 4782.0, 4778.0, 4772.0, 4798.0, 4808.0, 4826.0, 4824.0, 4782.0, 4772.0, 4772.0, 4798.0, 4798.0, 4800.0, 4810.0, 4790.0, 4812.0, 4816.0, 4808.0, 4804.0, 4798.0, 4776.0, 4772.0, 4772.0, 4776.0, 4772.0, 4776.0, 4776.0, 4800.0, 4802.0, 4810.0, 4806.0, 4810.0, 4824.0, 4784.0, 4776.0, 4770.0, 4772.0, 4796.0, 4774.0, 4800.0, 4812.0, 4808.0, 4814.0, 4806.0, 4808.0, 4802.0, 4774.0, 4774.0, 4778.0, 4800.0, 4814.0, 4826.0, 4818.0, 4800.0, 4798.0, 4798.0, 4774.0, 4776.0, 4774.0, 4802.0, 4804.0, 4810.0, 4808.0, 4802.0, 4804.0, 4800.0, 4800.0, 4804.0, 4774.0, 4776.0, 4774.0, 4800.0, 4780.0, 4800.0, 4806.0, 4800.0, 4810.0, 4804.0, 4800.0, 4804.0, 4800.0, 4800.0, 4796.0, 4802.0, 4800.0, 4806.0, 4802.0, 4812.0, 4802.0, 4810.0, 4802.0, 4804.0, 4802.0, 4776.0, 4802.0, 4802.0, 4804.0, 4802.0, 4808.0, 4806.0, 4800.0, 4804.0, 4800.0, 4802.0, 4812.0, 4810.0, 4800.0, 4798.0, 4798.0, 4798.0, 4812.0, 4820.0, 4812.0, 4808.0, 4804.0, 4798.0, 4798.0, 4776.0, 4798.0, 4798.0, 4804.0, 4804.0, 4804.0, 4808.0, 4800.0, 4808.0, 4824.0, 4824.0, 4794.0, 4774.0, 4752.0],
      "WindowWidth": [18580.0, 18576.0, 18584.0, 18582.0, 18584.0, 18588.0, 18588.0, 18620.0, 18618.0, 18616.0, 18614.0, 18584.0, 18580.0, 18582.0, 18582.0, 18584.0, 18618.0, 18590.0, 18616.0, 18588.0, 18616.0, 18608.0, 18584.0, 18542.0, 18568.0, 18636.0, 18600.0, 18580.0, 18614.0, 18618.0, 18572.0, 18618.0, 18590.0, 18614.0, 18612.0, 18580.0, 18578.0, 18570.0, 18572.0, 18568.0, 18572.0, 18586.0, 18586.0, 18620.0, 18608.0, 18618.0, 18620.0, 18584.0, 18576.0, 18614.0, 18576.0, 18578.0, 18578.0, 18588.0, 18590.0, 18622.0, 18620.0, 18590.0, 18614.0, 18582.0, 18580.0, 18580.0, 18612.0, 18616.0, 18610.0, 18618.0, 18584.0, 18580.0, 18574.0, 18604.0, 18610.0, 18612.0, 18624.0, 18590.0, 18618.0, 18622.0, 18622.0, 18616.0, 18610.0, 18578.0, 18572.0, 18574.0, 18580.0, 18578.0, 18580.0, 18580.0, 18612.0, 18620.0, 18622.0, 18622.0, 18622.0, 18618.0, 18584.0, 18580.0, 18578.0, 18576.0, 18614.0, 18580.0, 18618.0, 18628.0, 18626.0, 18630.0, 18626.0, 18624.0, 18614.0, 18582.0, 18584.0, 18582.0, 18616.0, 18620.0, 18612.0, 18616.0, 18616.0, 18616.0, 18614.0, 18580.0, 18582.0, 18586.0, 18618.0, 18620.0, 18626.0, 18630.0, 18622.0, 18620.0, 18618.0, 18618.0, 18614.0, 18582.0, 18584.0, 18580.0, 18616.0, 18588.0, 18618.0, 18620.0, 18620.0, 18624.0, 18620.0, 18612.0, 18622.0, 18620.0, 18616.0, 18610.0, 18616.0, 18618.0, 18622.0, 18618.0, 18630.0, 18622.0, 18624.0, 18618.0, 18618.0, 18616.0, 18578.0, 18620.0, 18618.0, 18620.0, 18622.0, 18626.0, 18622.0, 18620.0, 18622.0, 18614.0, 18622.0, 18626.0, 18626.0, 18620.0, 18616.0, 18614.0, 18614.0, 18624.0, 18620.0, 18628.0, 18624.0, 18624.0, 18620.0, 18614.0, 18580.0, 18616.0, 18616.0, 18620.0, 18622.0, 18618.0, 18620.0, 18616.0, 18622.0, 18620.0, 18612.0, 18588.0, 18572.0, 18544.0]
    },
    "slices": {}
  }
}