{
  "AcquisitionMatrixPE": 104,
  "AcquisitionNumber": 1,
  "AcquisitionTime": "10:48:30.272500",
  "BandwidthPerPixelPhaseEncode": 17.17,
  "BaseResolution": 104,
  "BodyPartExamined": "BRAIN",
  "CoilString": "HC1-7;NC1_2",
  "ConsistencyInfo": "N4_VE11C_LATEST_20160120",
  "ConversionSoftware": "dcm2niix",
  "ConversionSoftwareVersion": "v1.0.20190902",
  "DerivedVendorReportedEchoSpacing": 0.000560011,
  "DeviceSerialNumber": "167006",
  "DwellTime": 2.1e-06,
  "EchoTime": 0.037,
  "EchoTrainLength": 104,
  "EffectiveEchoSpacing": 0.000560011,
  "FlipAngle": 52,
  "HeudiconvVersion": "0.10.0",
  "ImageComments": "Unaliased_MB4_PE3_LB",
  "ImageOrientationPatientDICOM": [0.999611, 0.00574112, 0.0272735, 0.00767661, 0.883992, -0.46744],
  "ImageType": [
    "ORIGINAL",
    "PRIMARY",
    "P",
    "MB",
    "ND",
    "MOSAIC"
],
  "ImagingFrequency": 123.259,
  "InPlanePhaseEncodingDirectionDICOM": "COL",
  "InstitutionAddress": "Chemin_Queen-Mary_4565_Montreal_District_CA_H3W_1W5",
  "InstitutionName": "IUGM",
  "InstitutionalDepartmentName": "Department",
  "MRAcquisitionType": "2D",
  "MagneticFieldStrength": 3,
  "Manufacturer": "Siemens",
  "ManufacturersModelName": "Prisma_fit",
  "Modality": "MR",
  "MultibandAccelerationFactor": 4,
  "PartialFourier": 1,
  "PatientPosition": "HFS",
  "PercentPhaseFOV": 100,
  "PhaseEncodingDirection": "j",
  "PhaseEncodingSteps": 104,
  "PhaseResolution": 1,
  "PixelBandwidth": 2290,
  "ProcedureStepDescription": "memory_things",
  "ProtocolName": "func_task-things_run-1",
  "PulseSequenceDetails": "%CustomerSeq%_cmrr_mbep2d_bold",
  "ReceiveCoilActiveElements": "HC1-7;NC1,2",
  "ReceiveCoilName": "HeadNeck_64",
  "ReconMatrixPE": 104,
  "RepetitionTime": 1.49,
  "SAR": 0.0376928,
  "ScanOptions": "FS",
  "ScanningSequence": "EP",
  "SequenceName": "epfid2d1_104",
  "SequenceVariant": "SK_SS",
  "SeriesDescription": "func_task-things_run-1",
  "SeriesNumber": 11,
  "ShimSetting": [621, -7188, -8855, 322, 20, -114, -39, -21],
  "SliceThickness": 2,
  "SliceTiming": [0, 0.785, 0.1, 0.8825, 0.1975, 0.98, 0.295, 1.08, 0.3925, 1.1775, 0.49, 1.275, 0.59, 1.3725, 0.6875, 0, 0.785, 0.1, 0.8825, 0.1975, 0.98, 0.295, 1.08, 0.3925, 1.1775, 0.49, 1.275, 0.59, 1.3725, 0.6875, 0, 0.785, 0.1, 0.8825, 0.1975, 0.98, 0.295, 1.08, 0.3925, 1.1775, 0.49, 1.275, 0.59, 1.3725, 0.6875, 0, 0.785, 0.1, 0.8825, 0.1975, 0.98, 0.295, 1.08, 0.3925, 1.1775, 0.49, 1.275, 0.59, 1.3725, 0.6875],
  "SoftwareVersions": "syngo_MR_E11",
  "SpacingBetweenSlices": 2,
  "StationName": "MRC35049",
  "TaskName": "things",
  "TotalReadoutTime": 0.0576811,
  "TxRefAmp": 247.032,
  "WipMemBlock": "0ea06f66-334f-4077-8110-95988c339a50||Sequence: R016 ve11c/master r/e634e98; Dec 19 2017 11:00:25 by eja",
  "dcmmeta_affine": [
    [-1.999222993850708, 0.015353218652307987, 0.053586434572935104, 104.61088562011719],
    [-0.011482249945402145, 1.7679834365844727, -0.9349347352981567, -53.8828239440918],
    [0.05454709008336067, 0.9348791241645813, 1.767208456993103, -92.1695556640625],
    [0.0, 0.0, 0.0, 1.0]
],
  "dcmmeta_reorient_transform": [
    [0.0, -1.0, 0.0, 103.0],
    [1.0, 0.0, 0.0, 0.0],
    [0.0, 0.0, 1.0, 0.0],
    [0.0, 0.0, 0.0, 1.0]
],
  "dcmmeta_shape": [104, 104, 60, 190],
  "dcmmeta_slice_dim": 2,
  "dcmmeta_version": 0.6,
  "global": {
    "const": {
      "AcquisitionMatrix": [104, 0, 0, 104],
      "AngioFlag": "N",
      "BitsAllocated": 16,
      "BitsStored": 16,
      "BodyPartExamined": "BRAIN",
      "Columns": 832,
      "EchoNumbers": 1,
      "EchoTime": 37.0,
      "EchoTrainLength": 104,
      "FlipAngle": 52.0,
      "HighBit": 15,
      "ImageOrientationPatient": [0.99961152116401, 0.00574112511156, 0.02727354466572, 0.00767660929051, 0.88399169531802, -0.4674395707239],
      "ImagePositionPatient": [-839.49802949078, -775.94495864209, 324.56385969362],
      "ImageType": [
        "ORIGINAL",
        "PRIMARY",
        "P",
        "MB",
        "ND",
        "MOSAIC"
],
      "ImagedNucleus": "1H",
      "ImagingFrequency": 123.258879,
      "InPlanePhaseEncodingDirection": "COL",
      "LargestImagePixelValue": 4095,
      "MRAcquisitionType": "2D",
      "MagneticFieldStrength": 3.0,
      "Manufacturer": "SIEMENS",
      "ManufacturerModelName": "Prisma_fit",
      "Modality": "MR",
      "NumberOfAverages": 1.0,
      "NumberOfPhaseEncodingSteps": 104,
      "PercentPhaseFieldOfView": 100.0,
      "PercentSampling": 100.0,
      "PerformedProcedureStepStartTime": "101834.173000",
      "PhotometricInterpretation": "MONOCHROME2",
      "PixelBandwidth": 2290.0,
      "PixelRepresentation": 0,
      "PixelSpacing": [2.0, 2.0],
      "ProtocolName": "func_task-things_run-1",
      "RepetitionTime": 1490.0,
      "RescaleIntercept": -4096.0,
      "RescaleSlope": 2.0,
      "RescaleType": "US",
      "Rows": 832,
      "SAR": 0.03769276568359,
      "SamplesPerPixel": 1,
      "ScanOptions": "FS",
      "ScanningSequence": "EP",
      "SequenceName": "epfid2d1_104",
      "SequenceVariant": [
        "SK",
        "SS"
],
      "SeriesDescription": "func_task-things_run-1",
      "SeriesNumber": 11,
      "SeriesTime": "104952.094000",
      "SliceLocation": -53.450087348739,
      "SliceThickness": 2.0,
      "SmallestImagePixelValue": 0,
      "SoftwareVersions": "syngo MR E11",
      "SpacingBetweenSlices": 2.0000000494446,
      "SpecificCharacterSet": "ISO_IR 100",
      "StudyID": "1",
      "StudyTime": "101834.103000",
      "TransmitCoilName": "Body",
      "VariableFlipAngleFlag": "N",
      "WindowCenterWidthExplanation": "Algo1",
      "dBdt": 0.0},
    "slices": {}
  },
  "time": {
    "samples": {
      "AcquisitionNumber": [1, 2, 3, 4, 5, 6, 7, 8, 9, 10, 11, 12, 13, 14, 15, 16, 17, 18, 19, 20, 21, 22, 23, 24, 25, 26, 27, 28, 29, 30, 31, 32, 33, 34, 35, 36, 37, 38, 39, 40, 41, 42, 43, 44, 45, 46, 47, 48, 49, 50, 51, 52, 53, 54, 55, 56, 57, 58, 59, 60, 61, 62, 63, 64, 65, 66, 67, 68, 69, 70, 71, 72, 73, 74, 75, 76, 77, 78, 79, 80, 81, 82, 83, 84, 85, 86, 87, 88, 89, 90, 91, 92, 93, 94, 95, 96, 97, 98, 99, 100, 101, 102, 103, 104, 105, 106, 107, 108, 109, 110, 111, 112, 113, 114, 115, 116, 117, 118, 119, 120, 121, 122, 123, 124, 125, 126, 127, 128, 129, 130, 131, 132, 133, 134, 135, 136, 137, 138, 139, 140, 141, 142, 143, 144, 145, 146, 147, 148, 149, 150, 151, 152, 153, 154, 155, 156, 157, 158, 159, 160, 161, 162, 163, 164, 165, 166, 167, 168, 169, 170, 171, 172, 173, 174, 175, 176, 177, 178, 179, 180, 181, 182, 183, 184, 185, 186, 187, 188, 189, 190],
      "AcquisitionTime": ["104830.272500", "104831.762500", "104833.252500", "104834.742500", "104836.232500", "104837.722500", "104839.212500", "104840.702500", "104842.192500", "104843.682500", "104845.172500", "104846.662500", "104848.152500", "104849.642500", "104851.132500", "104852.622500", "104854.112500", "104855.602500", "104857.092500", "104858.582500", "104900.072500", "104901.562500", "104903.052500", "104904.542500", "104906.032500", "104907.522500", "104909.012500", "104910.502500", "104911.992500", "104913.482500", "104914.972500", "104916.462500", "104917.952500", "104919.442500", "104920.932500", "104922.422500", "104923.912500", "104925.402500", "104926.892500", "104928.382500", "104929.872500", "104931.362500", "104932.852500", "104934.342500", "104935.832500", "104937.322500", "104938.812500", "104940.302500", "104941.792500", "104943.282500", "104944.772500", "104946.262500", "104947.752500", "104949.242500", "104950.732500", "104952.222500", "104953.712500", "104955.202500", "104956.692500", "104958.182500", "104959.672500", "105001.162500", "105002.652500", "105004.142500", "105005.632500", "105007.122500", "105008.612500", "105010.102500", "105011.592500", "105013.082500", "105014.572500", "105016.062500", "105017.552500", "105019.042500", "105020.532500", "105022.022500", "105023.512500", "105025.002500", "105026.492500", "105027.982500", "105029.472500", "105030.962500", "105032.452500", "105033.942500", "105035.432500", "105036.922500", "105038.412500", "105039.902500", "105041.392500", "105042.882500", "105044.372500", "105045.862500", "105047.352500", "105048.842500", "105050.332500", "105051.822500", "105053.312500", "105054.802500", "105056.292500", "105057.782500", "105059.272500", "105100.762500", "105102.252500", "105103.742500", "105105.232500", "105106.722500", "105108.212500", "105109.702500", "105111.192500", "105112.682500", "105114.172500", "105115.662500", "105117.152500", "105118.642500", "105120.132500", "105121.622500", "105123.112500", "105124.602500", "105126.092500", "105127.582500", "105129.072500", "105130.562500", "105132.052500", "105133.542500", "105135.032500", "105136.522500", "105138.012500", "105139.502500", "105140.992500", "105142.482500", "105143.972500", "105145.462500", "105146.952500", "105148.442500", "105149.932500", "105151.422500", "105152.912500", "105154.402500", "105155.892500", "105157.382500", "105158.872500", "105200.362500", "105201.852500", "105203.342500", "105204.832500", "105206.322500", "105207.812500", "105209.302500", "105210.792500", "105212.282500", "105213.772500", "105215.262500", "105216.752500", "105218.242500", "105219.732500", "105221.222500", "105222.712500", "105224.202500", "105225.692500", "105227.182500", "105228.672500", "105230.162500", "105231.652500", "105233.142500", "105234.632500", "105236.122500", "105237.612500", "105239.102500", "105240.592500", "105242.082500", "105243.572500", "105245.062500", "105246.552500", "105248.042500", "105249.532500", "105251.022500", "105252.512500", "105254.002500", "105255.492500", "105256.982500", "105258.472500", "105259.962500", "105301.452500", "105302.942500", "105304.432500", "105305.922500", "105307.412500", "105308.902500", "105310.392500", "105311.882500"],
      "ContentTime": ["104952.096000", "104952.099000", "104952.101000", "104952.110000", "104952.112000", "104952.115000", "104952.117000", "104952.120000", "104952.122000", "104952.125000", "104952.127000", "104952.129000", "104952.132000", "104952.134000", "104952.137000", "104952.139000", "104952.142000", "104952.144000", "104952.147000", "104952.151000", "104952.154000", "104952.156000", "104952.159000", "104952.161000", "104952.164000", "105011.567000", "105011.570000", "105011.572000", "105011.575000", "105011.577000", "105011.580000", "105011.582000", "105011.585000", "105011.587000", "105011.590000", "105011.592000", "105011.595000", "105011.597000", "105011.599000", "105011.602000", "105011.605000", "105011.607000", "105011.609000", "105011.619000", "105011.621000", "105031.572000", "105031.582000", "105031.584000", "105031.587000", "105031.589000", "105031.591000", "105031.594000", "105031.596000", "105031.599000", "105031.601000", "105031.604000", "105031.606000", "105031.609000", "105031.611000", "105031.614000", "105031.616000", "105031.619000", "105031.621000", "105031.624000", "105031.626000", "105051.583000", "105051.585000", "105051.588000", "105051.590000", "105051.593000", "105051.595000", "105051.598000", "105051.600000", "105051.603000", "105051.605000", "105051.607000", "105051.610000", "105051.613000", "105051.615000", "105051.618000", "105051.620000", "105051.622000", "105051.625000", "105051.627000", "105051.630000", "105111.576000", "105111.579000", "105111.581000", "105111.584000", "105111.586000", "105111.589000", "105111.591000", "105111.594000", "105111.596000", "105111.599000", "105111.601000", "105111.604000", "105111.608000", "105111.611000", "105111.614000", "105111.616000", "105111.619000", "105111.622000", "105111.624000", "105111.627000", "105151.606000", "105151.609000", "105151.612000", "105151.614000", "105151.617000", "105151.619000", "105151.622000", "105151.631000", "105151.633000", "105151.636000", "105151.638000", "105151.641000", "105151.643000", "105151.646000", "105151.648000", "105151.651000", "105151.653000", "105151.656000", "105151.658000", "105151.661000", "105151.663000", "105151.666000", "105151.668000", "105151.671000", "105151.673000", "105151.676000", "105151.678000", "105151.681000", "105151.683000", "105231.609000", "105231.612000", "105231.614000", "105231.617000", "105231.619000", "105231.622000", "105231.624000", "105231.627000", "105231.629000", "105231.632000", "105231.634000", "105231.637000", "105231.639000", "105231.642000", "105231.644000", "105231.647000", "105231.649000", "105231.652000", "105231.654000", "105231.657000", "105231.659000", "105231.662000", "105231.664000", "105231.667000", "105231.675000", "105231.677000", "105231.680000", "105311.600000", "105311.602000", "105311.605000", "105311.607000", "105311.610000", "105311.612000", "105311.615000", "105311.617000", "105311.620000", "105311.622000", "105311.625000", "105311.627000", "105311.630000", "105311.632000", "105311.635000", "105311.637000", "105311.640000", "105311.642000", "105311.645000", "105311.647000", "105311.650000", "105311.652000", "105311.655000", "105311.657000", "105311.660000", "105311.663000", "105311.665000", "105314.183000", "105314.187000"],
      "InstanceCreationTime": ["104952.096000", "104952.099000", "104952.101000", "104952.110000", "104952.112000", "104952.115000", "104952.117000", "104952.120000", "104952.122000", "104952.125000", "104952.127000", "104952.129000", "104952.132000", "104952.134000", "104952.137000", "104952.139000", "104952.142000", "104952.144000", "104952.147000", "104952.151000", "104952.154000", "104952.156000", "104952.159000", "104952.161000", "104952.164000", "105011.567000", "105011.570000", "105011.572000", "105011.575000", "105011.577000", "105011.580000", "105011.582000", "105011.585000", "105011.587000", "105011.590000", "105011.592000", "105011.595000", "105011.597000", "105011.599000", "105011.602000", "105011.605000", "105011.607000", "105011.609000", "105011.619000", "105011.621000", "105031.572000", "105031.582000", "105031.584000", "105031.587000", "105031.589000", "105031.591000", "105031.594000", "105031.596000", "105031.599000", "105031.601000", "105031.604000", "105031.606000", "105031.609000", "105031.611000", "105031.614000", "105031.616000", "105031.619000", "105031.621000", "105031.624000", "105031.626000", "105051.583000", "105051.585000", "105051.588000", "105051.590000", "105051.593000", "105051.595000", "105051.598000", "105051.600000", "105051.603000", "105051.605000", "105051.607000", "105051.610000", "105051.613000", "105051.615000", "105051.618000", "105051.620000", "105051.622000", "105051.625000", "105051.627000", "105051.630000", "105111.576000", "105111.579000", "105111.581000", "105111.584000", "105111.586000", "105111.589000", "105111.591000", "105111.594000", "105111.596000", "105111.599000", "105111.601000", "105111.604000", "105111.608000", "105111.611000", "105111.614000", "105111.616000", "105111.619000", "105111.622000", "105111.624000", "105111.627000", "105151.606000", "105151.609000", "105151.612000", "105151.614000", "105151.617000", "105151.619000", "105151.622000", "105151.631000", "105151.633000", "105151.636000", "105151.638000", "105151.641000", "105151.643000", "105151.646000", "105151.648000", "105151.651000", "105151.653000", "105151.656000", "105151.658000", "105151.661000", "105151.663000", "105151.666000", "105151.668000", "105151.671000", "105151.673000", "105151.676000", "105151.678000", "105151.681000", "105151.683000", "105231.609000", "105231.612000", "105231.614000", "105231.617000", "105231.619000", "105231.622000", "105231.624000", "105231.627000", "105231.629000", "105231.632000", "105231.634000", "105231.637000", "105231.639000", "105231.642000", "105231.644000", "105231.647000", "105231.649000", "105231.652000", "105231.654000", "105231.657000", "105231.659000", "105231.662000", "105231.664000", "105231.667000", "105231.675000", "105231.677000", "105231.680000", "105311.600000", "105311.602000", "105311.605000", "105311.607000", "105311.610000", "105311.612000", "105311.615000", "105311.617000", "105311.620000", "105311.622000", "105311.625000", "105311.627000", "105311.630000", "105311.632000", "105311.635000", "105311.637000", "105311.640000", "105311.642000", "105311.645000", "105311.647000", "105311.650000", "105311.652000", "105311.655000", "105311.657000", "105311.660000", "105311.663000", "105311.665000", "105314.183000", "105314.187000"],
      "InstanceNumber": [1, 2, 3, 4, 5, 6, 7, 8, 9, 10, 11, 12, 13, 14, 15, 16, 17, 18, 19, 20, 21, 22, 23, 24, 25, 26, 27, 28, 29, 30, 31, 32, 33, 34, 35, 36, 37, 38, 39, 40, 41, 42, 43, 44, 45, 46, 47, 48, 49, 50, 51, 52, 53, 54, 55, 56, 57, 58, 59, 60, 61, 62, 63, 64, 65, 66, 67, 68, 69, 70, 71, 72, 73, 74, 75, 76, 77, 78, 79, 80, 81, 82, 83, 84, 85, 86, 87, 88, 89, 90, 91, 92, 93, 94, 95, 96, 97, 98, 99, 100, 101, 102, 103, 104, 105, 106, 107, 108, 109, 110, 111, 112, 113, 114, 115, 116, 117, 118, 119, 120, 121, 122, 123, 124, 125, 126, 127, 128, 129, 130, 131, 132, 133, 134, 135, 136, 137, 138, 139, 140, 141, 142, 143, 144, 145, 146, 147, 148, 149, 150, 151, 152, 153, 154, 155, 156, 157, 158, 159, 160, 161, 162, 163, 164, 165, 166, 167, 168, 169, 170, 171, 172, 173, 174, 175, 176, 177, 178, 179, 180, 181, 182, 183, 184, 185, 186, 187, 188, 189, 190],
      "WindowCenter": [4828.0, 4804.0, 4812.0, 4802.0, 4830.0, 4828.0, 4830.0, 4834.0, 4806.0, 4828.0, 4806.0, 4806.0, 4804.0, 4808.0, 4802.0, 4804.0, 4802.0, 4830.0, 4828.0, 4830.0, 4804.0, 4804.0, 4808.0, 4804.0, 4804.0, 4804.0, 4798.0, 4802.0, 4800.0, 4830.0, 4830.0, 4830.0, 4800.0, 4828.0, 4804.0, 4800.0, 4802.0, 4808.0, 4806.0, 4804.0, 4832.0, 4826.0, 4828.0, 4802.0, 4802.0, 4824.0, 4800.0, 4802.0, 4826.0, 4802.0, 4826.0, 4802.0, 4804.0, 4826.0, 4806.0, 4816.0, 4814.0, 4800.0, 4802.0, 4864.0, 4860.0, 4834.0, 4800.0, 4802.0, 4804.0, 4800.0, 4804.0, 4804.0, 4804.0, 4800.0, 4830.0, 4826.0, 4826.0, 4828.0, 4798.0, 4804.0, 4806.0, 4788.0, 4802.0, 4826.0, 4826.0, 4830.0, 4828.0, 4800.0, 4822.0, 4802.0, 4806.0, 4800.0, 4806.0, 4824.0, 4828.0, 4830.0, 4798.0, 4802.0, 4800.0, 4806.0, 4802.0, 4826.0, 4802.0, 4802.0, 4824.0, 4830.0, 4826.0, 4808.0, 4804.0, 4804.0, 4826.0, 4824.0, 4826.0, 4824.0, 4826.0, 4822.0, 4804.0, 4802.0, 4802.0, 4804.0, 4806.0, 4804.0, 4824.0, 4824.0, 4824.0, 4828.0, 4828.0, 4828.0, 4808.0, 4784.0, 4800.0, 4804.0, 4802.0, 4824.0, 4830.0, 4834.0, 4824.0, 4824.0, 4804.0, 4800.0, 4802.0, 4804.0, 4800.0, 4802.0, 4826.0, 4824.0, 4802.0, 4802.0, 4828.0, 4802.0, 4800.0, 4822.0, 4802.0, 4802.0, 4802.0, 4802.0, 4800.0, 4830.0, 4824.0, 4804.0, 4824.0, 4828.0, 4826.0, 4798.0, 4802.0, 4802.0, 4828.0, 4804.0, 4826.0, 4806.0, 4806.0, 4822.0, 4826.0, 4824.0, 4832.0, 4832.0, 4826.0, 4826.0, 4802.0, 4828.0, 4806.0, 4828.0, 4802.0, 4826.0, 4826.0, 4832.0, 4824.0, 4824.0, 4828.0, 4806.0, 4806.0, 4802.0, 4824.0, 4804.0],
      "WindowWidth": [18652.0, 18618.0, 18624.0, 18616.0, 18652.0, 18640.0, 18650.0, 18646.0, 18622.0, 18652.0, 18624.0, 18626.0, 18626.0, 18624.0, 18620.0, 18616.0, 18612.0, 18640.0, 18640.0, 18644.0, 18622.0, 18626.0, 18622.0, 18624.0, 18622.0, 18616.0, 18618.0, 18616.0, 18612.0, 18640.0, 18644.0, 18642.0, 18614.0, 18656.0, 18620.0, 18616.0, 18630.0, 18622.0, 18618.0, 18612.0, 18642.0, 18636.0, 18646.0, 18614.0, 18618.0, 18646.0, 18616.0, 18624.0, 18654.0, 18624.0, 18656.0, 18626.0, 18628.0, 18650.0, 18624.0, 18622.0, 18620.0, 18616.0, 18610.0, 18680.0, 18674.0, 18650.0, 18618.0, 18628.0, 18626.0, 18622.0, 18626.0, 18624.0, 18630.0, 18620.0, 18642.0, 18648.0, 18646.0, 18642.0, 18614.0, 18628.0, 18622.0, 18592.0, 18620.0, 18644.0, 18640.0, 18644.0, 18648.0, 18618.0, 18650.0, 18622.0, 18626.0, 18622.0, 18628.0, 18646.0, 18646.0, 18650.0, 18614.0, 18624.0, 18622.0, 18628.0, 18622.0, 18656.0, 18622.0, 18614.0, 18644.0, 18646.0, 18650.0, 18626.0, 18626.0, 18628.0, 18650.0, 18648.0, 18652.0, 18650.0, 18654.0, 18654.0, 18624.0, 18626.0, 18626.0, 18622.0, 18628.0, 18624.0, 18640.0, 18644.0, 18642.0, 18644.0, 18652.0, 18656.0, 18614.0, 18590.0, 18626.0, 18626.0, 18620.0, 18644.0, 18642.0, 18650.0, 18646.0, 18648.0, 18626.0, 18628.0, 18628.0, 18626.0, 18628.0, 18624.0, 18648.0, 18646.0, 18622.0, 18622.0, 18644.0, 18622.0, 18618.0, 18652.0, 18620.0, 18628.0, 18628.0, 18622.0, 18626.0, 18654.0, 18654.0, 18626.0, 18656.0, 18650.0, 18650.0, 18620.0, 18626.0, 18628.0, 18662.0, 18630.0, 18656.0, 18630.0, 18626.0, 18646.0, 18648.0, 18648.0, 18652.0, 18656.0, 18658.0, 18660.0, 18628.0, 18664.0, 18626.0, 18660.0, 18626.0, 18650.0, 18650.0, 18658.0, 18652.0, 18654.0, 18658.0, 18628.0, 18630.0, 18624.0, 18656.0, 18626.0]
    },
    "slices": {}
  }
}