{
  "AcquisitionMatrixPE": 104,
  "AcquisitionNumber": 1,
  "AcquisitionTime": "11:06:58.172500",
  "BandwidthPerPixelPhaseEncode": 17.17,
  "BaseResolution": 104,
  "BodyPartExamined": "BRAIN",
  "CoilString": "HC1-7;NC1_2",
  "ConsistencyInfo": "N4_VE11C_LATEST_20160120",
  "ConversionSoftware": "dcm2niix",
  "ConversionSoftwareVersion": "v1.0.20190902",
  "DerivedVendorReportedEchoSpacing": 0.000560011,
  "DeviceSerialNumber": "167006",
  "DwellTime": 2.1e-06,
  "EchoTime": 0.037,
  "EchoTrainLength": 104,
  "EffectiveEchoSpacing": 0.000560011,
  "FlipAngle": 52,
  "HeudiconvVersion": "0.10.0",
  "ImageComments": "Unaliased_MB4_PE3_LB",
  "ImageOrientationPatientDICOM": [0.999611, 0.00574112, 0.0272735, 0.00767661, 0.883992, -0.46744],
  "ImageType": [
    "ORIGINAL",
    "PRIMARY",
    "P",
    "MB",
    "ND",
    "MOSAIC"
],
  "ImagingFrequency": 123.259,
  "InPlanePhaseEncodingDirectionDICOM": "COL",
  "InstitutionAddress": "Chemin_Queen-Mary_4565_Montreal_District_CA_H3W_1W5",
  "InstitutionName": "IUGM",
  "InstitutionalDepartmentName": "Department",
  "MRAcquisitionType": "2D",
  "MagneticFieldStrength": 3,
  "Manufacturer": "Siemens",
  "ManufacturersModelName": "Prisma_fit",
  "Modality": "MR",
  "MultibandAccelerationFactor": 4,
  "PartialFourier": 1,
  "PatientPosition": "HFS",
  "PercentPhaseFOV": 100,
  "PhaseEncodingDirection": "j",
  "PhaseEncodingSteps": 104,
  "PhaseResolution": 1,
  "PixelBandwidth": 2290,
  "ProcedureStepDescription": "memory_things",
  "ProtocolName": "func_task-things_run-4",
  "PulseSequenceDetails": "%CustomerSeq%_cmrr_mbep2d_bold",
  "ReceiveCoilActiveElements": "HC1-7;NC1,2",
  "ReceiveCoilName": "HeadNeck_64",
  "ReconMatrixPE": 104,
  "RepetitionTime": 1.49,
  "SAR": 0.0376928,
  "ScanOptions": "FS",
  "ScanningSequence": "EP",
  "SequenceName": "epfid2d1_104",
  "SequenceVariant": "SK_SS",
  "SeriesDescription": "func_task-things_run-4",
  "SeriesNumber": 20,
  "ShimSetting": [621, -7188, -8855, 322, 20, -114, -39, -21],
  "SliceThickness": 2,
  "SliceTiming": [0, 0.7825, 0.0975, 0.88, 0.195, 0.98, 0.2925, 1.0775, 0.39, 1.175, 0.49, 1.2725, 0.5875, 1.37, 0.685, 0, 0.7825, 0.0975, 0.88, 0.195, 0.98, 0.2925, 1.0775, 0.39, 1.175, 0.49, 1.2725, 0.5875, 1.37, 0.685, 0, 0.7825, 0.0975, 0.88, 0.195, 0.98, 0.2925, 1.0775, 0.39, 1.175, 0.49, 1.2725, 0.5875, 1.37, 0.685, 0, 0.7825, 0.0975, 0.88, 0.195, 0.98, 0.2925, 1.0775, 0.39, 1.175, 0.49, 1.2725, 0.5875, 1.37, 0.685],
  "SoftwareVersions": "syngo_MR_E11",
  "SpacingBetweenSlices": 2,
  "StationName": "MRC35049",
  "TaskName": "things",
  "TotalReadoutTime": 0.0576811,
  "TxRefAmp": 247.032,
  "WipMemBlock": "174c90a7-e1d9-4379-b991-3fc92d0c8942||Sequence: R016 ve11c/master r/e634e98; Dec 19 2017 11:00:25 by eja",
  "dcmmeta_affine": [
    [-1.999222993850708, 0.015353218652307987, 0.053586434572935104, 104.61088562011719],
    [-0.011482249945402145, 1.7679834365844727, -0.9349347352981567, -53.8828239440918],
    [0.05454709008336067, 0.9348791241645813, 1.767208456993103, -92.1695556640625],
    [0.0, 0.0, 0.0, 1.0]
],
  "dcmmeta_reorient_transform": [
    [0.0, -1.0, 0.0, 103.0],
    [1.0, 0.0, 0.0, 0.0],
    [0.0, 0.0, 1.0, 0.0],
    [0.0, 0.0, 0.0, 1.0]
],
  "dcmmeta_shape": [104, 104, 60, 190],
  "dcmmeta_slice_dim": 2,
  "dcmmeta_version": 0.6,
  "global": {
    "const": {
      "AcquisitionMatrix": [104, 0, 0, 104],
      "AngioFlag": "N",
      "BitsAllocated": 16,
      "BitsStored": 16,
      "BodyPartExamined": "BRAIN",
      "Columns": 832,
      "EchoNumbers": 1,
      "EchoTime": 37.0,
      "EchoTrainLength": 104,
      "FlipAngle": 52.0,
      "HighBit": 15,
      "ImageOrientationPatient": [0.99961152116401, 0.00574112511156, 0.02727354466572, 0.00767660929051, 0.88399169531802, -0.4674395707239],
      "ImagePositionPatient": [-839.49802949078, -775.94495864209, 324.56385969362],
      "ImageType": [
        "ORIGINAL",
        "PRIMARY",
        "P",
        "MB",
        "ND",
        "MOSAIC"
],
      "ImagedNucleus": "1H",
      "ImagingFrequency": 123.258887,
      "InPlanePhaseEncodingDirection": "COL",
      "LargestImagePixelValue": 4095,
      "MRAcquisitionType": "2D",
      "MagneticFieldStrength": 3.0,
      "Manufacturer": "SIEMENS",
      "ManufacturerModelName": "Prisma_fit",
      "Modality": "MR",
      "NumberOfAverages": 1.0,
      "NumberOfPhaseEncodingSteps": 104,
      "PercentPhaseFieldOfView": 100.0,
      "PercentSampling": 100.0,
      "PerformedProcedureStepStartTime": "101834.173000",
      "PhotometricInterpretation": "MONOCHROME2",
      "PixelBandwidth": 2290.0,
      "PixelRepresentation": 0,
      "PixelSpacing": [2.0, 2.0],
      "ProtocolName": "func_task-things_run-4",
      "RepetitionTime": 1490.0,
      "RescaleIntercept": -4096.0,
      "RescaleSlope": 2.0,
      "RescaleType": "US",
      "Rows": 832,
      "SAR": 0.03769276568359,
      "SamplesPerPixel": 1,
      "ScanOptions": "FS",
      "ScanningSequence": "EP",
      "SequenceName": "epfid2d1_104",
      "SequenceVariant": [
        "SK",
        "SS"
],
      "SeriesDescription": "func_task-things_run-4",
      "SeriesNumber": 20,
      "SeriesTime": "110831.688000",
      "SliceLocation": -53.450087348739,
      "SliceThickness": 2.0,
      "SmallestImagePixelValue": 0,
      "SoftwareVersions": "syngo MR E11",
      "SpacingBetweenSlices": 2.0000000494446,
      "SpecificCharacterSet": "ISO_IR 100",
      "StudyID": "1",
      "StudyTime": "101834.103000",
      "TransmitCoilName": "Body",
      "VariableFlipAngleFlag": "N",
      "WindowCenterWidthExplanation": "Algo1",
      "dBdt": 0.0},
    "slices": {}
  },
  "time": {
    "samples": {
      "AcquisitionNumber": [1, 2, 3, 4, 5, 6, 7, 8, 9, 10, 11, 12, 13, 14, 15, 16, 17, 18, 19, 20, 21, 22, 23, 24, 25, 26, 27, 28, 29, 30, 31, 32, 33, 34, 35, 36, 37, 38, 39, 40, 41, 42, 43, 44, 45, 46, 47, 48, 49, 50, 51, 52, 53, 54, 55, 56, 57, 58, 59, 60, 61, 62, 63, 64, 65, 66, 67, 68, 69, 70, 71, 72, 73, 74, 75, 76, 77, 78, 79, 80, 81, 82, 83, 84, 85, 86, 87, 88, 89, 90, 91, 92, 93, 94, 95, 96, 97, 98, 99, 100, 101, 102, 103, 104, 105, 106, 107, 108, 109, 110, 111, 112, 113, 114, 115, 116, 117, 118, 119, 120, 121, 122, 123, 124, 125, 126, 127, 128, 129, 130, 131, 132, 133, 134, 135, 136, 137, 138, 139, 140, 141, 142, 143, 144, 145, 146, 147, 148, 149, 150, 151, 152, 153, 154, 155, 156, 157, 158, 159, 160, 161, 162, 163, 164, 165, 166, 167, 168, 169, 170, 171, 172, 173, 174, 175, 176, 177, 178, 179, 180, 181, 182, 183, 184, 185, 186, 187, 188, 189, 190],
      "AcquisitionTime": ["110658.172500", "110659.662500", "110701.152500", "110702.642500", "110704.132500", "110705.622500", "110707.112500", "110708.602500", "110710.092500", "110711.582500", "110713.072500", "110714.562500", "110716.052500", "110717.542500", "110719.032500", "110720.522500", "110722.012500", "110723.502500", "110724.992500", "110726.482500", "110727.972500", "110729.462500", "110730.952500", "110732.442500", "110733.932500", "110735.422500", "110736.912500", "110738.402500", "110739.892500", "110741.382500", "110742.872500", "110744.362500", "110745.852500", "110747.342500", "110748.832500", "110750.322500", "110751.812500", "110753.302500", "110754.792500", "110756.282500", "110757.772500", "110759.262500", "110800.752500", "110802.242500", "110803.732500", "110805.222500", "110806.712500", "110808.202500", "110809.692500", "110811.182500", "110812.672500", "110814.162500", "110815.652500", "110817.142500", "110818.632500", "110820.122500", "110821.612500", "110823.102500", "110824.592500", "110826.082500", "110827.572500", "110829.062500", "110830.552500", "110832.042500", "110833.532500", "110835.022500", "110836.512500", "110838.002500", "110839.492500", "110840.982500", "110842.472500", "110843.962500", "110845.452500", "110846.942500", "110848.432500", "110849.922500", "110851.412500", "110852.902500", "110854.392500", "110855.882500", "110857.372500", "110858.862500", "110900.352500", "110901.842500", "110903.332500", "110904.822500", "110906.312500", "110907.802500", "110909.292500", "110910.782500", "110912.272500", "110913.762500", "110915.252500", "110916.742500", "110918.232500", "110919.722500", "110921.212500", "110922.702500", "110924.192500", "110925.682500", "110927.172500", "110928.662500", "110930.152500", "110931.642500", "110933.132500", "110934.622500", "110936.112500", "110937.602500", "110939.092500", "110940.582500", "110942.072500", "110943.562500", "110945.052500", "110946.542500", "110948.032500", "110949.522500", "110951.012500", "110952.502500", "110953.992500", "110955.482500", "110956.972500", "110958.462500", "110959.952500", "111001.442500", "111002.932500", "111004.422500", "111005.912500", "111007.402500", "111008.892500", "111010.382500", "111011.872500", "111013.362500", "111014.852500", "111016.342500", "111017.832500", "111019.322500", "111020.812500", "111022.302500", "111023.792500", "111025.282500", "111026.772500", "111028.262500", "111029.752500", "111031.242500", "111032.732500", "111034.222500", "111035.712500", "111037.202500", "111038.692500", "111040.182500", "111041.672500", "111043.162500", "111044.652500", "111046.142500", "111047.632500", "111049.122500", "111050.612500", "111052.102500", "111053.592500", "111055.082500", "111056.572500", "111058.062500", "111059.552500", "111101.042500", "111102.532500", "111104.022500", "111105.512500", "111107.002500", "111108.492500", "111109.982500", "111111.472500", "111112.962500", "111114.452500", "111115.942500", "111117.432500", "111118.922500", "111120.412500", "111121.902500", "111123.392500", "111124.882500", "111126.372500", "111127.862500", "111129.352500", "111130.842500", "111132.332500", "111133.822500", "111135.312500", "111136.802500", "111138.292500", "111139.782500"],
      "ContentTime": ["110831.690000", "110831.693000", "110831.695000", "110831.698000", "110831.700000", "110831.703000", "110831.705000", "110831.707000", "110831.710000", "110831.712000", "110831.715000", "110831.717000", "110831.720000", "110831.722000", "110831.725000", "110831.727000", "110831.730000", "110831.732000", "110831.735000", "110831.737000", "110831.740000", "110831.742000", "110831.745000", "110831.747000", "110831.749000", "110831.752000", "110831.754000", "110831.757000", "110831.759000", "110831.762000", "110831.764000", "110831.767000", "110831.801000", "110831.803000", "110831.805000", "110831.808000", "110831.810000", "110831.813000", "110831.815000", "110851.578000", "110851.581000", "110851.584000", "110851.586000", "110851.589000", "110851.591000", "110851.594000", "110851.596000", "110851.599000", "110851.601000", "110851.604000", "110851.606000", "110851.609000", "110851.611000", "110851.614000", "110851.616000", "110851.618000", "110851.621000", "110851.624000", "110851.626000", "110911.572000", "110911.575000", "110911.578000", "110911.580000", "110911.583000", "110911.585000", "110911.588000", "110911.590000", "110911.593000", "110911.595000", "110911.598000", "110911.600000", "110911.603000", "110911.605000", "110911.608000", "110911.610000", "110911.613000", "110911.615000", "110911.618000", "110911.620000", "110931.582000", "110931.585000", "110931.588000", "110931.590000", "110931.593000", "110931.595000", "110931.598000", "110931.600000", "110931.603000", "110931.605000", "110931.608000", "110931.610000", "110931.612000", "110931.615000", "110931.617000", "110931.620000", "110931.622000", "110931.625000", "110931.627000", "110931.630000", "111011.607000", "111011.610000", "111011.622000", "111011.625000", "111011.627000", "111011.630000", "111011.633000", "111011.635000", "111011.638000", "111011.640000", "111011.642000", "111011.645000", "111011.648000", "111011.650000", "111011.652000", "111011.655000", "111011.657000", "111011.660000", "111011.662000", "111011.665000", "111011.667000", "111011.670000", "111011.672000", "111011.675000", "111011.677000", "111011.680000", "111011.682000", "111011.685000", "111011.687000", "111011.690000", "111051.604000", "111051.607000", "111051.610000", "111051.612000", "111051.615000", "111051.617000", "111051.620000", "111051.622000", "111051.625000", "111051.627000", "111051.630000", "111051.632000", "111051.635000", "111051.637000", "111051.640000", "111051.642000", "111051.645000", "111051.647000", "111051.650000", "111051.652000", "111051.655000", "111051.657000", "111051.660000", "111051.662000", "111051.665000", "111051.667000", "111051.669000", "111131.618000", "111131.621000", "111131.625000", "111131.628000", "111131.631000", "111131.633000", "111131.636000", "111131.639000", "111131.642000", "111131.645000", "111131.647000", "111131.650000", "111131.652000", "111131.655000", "111131.657000", "111131.660000", "111131.662000", "111131.665000", "111131.667000", "111131.670000", "111131.672000", "111131.675000", "111131.677000", "111131.680000", "111131.682000", "111131.685000", "111142.187000", "111142.190000", "111142.193000", "111142.195000", "111142.198000", "111142.200000", "111142.203000", "111142.205000"],
      "InstanceCreationTime": ["110831.690000", "110831.693000", "110831.695000", "110831.698000", "110831.700000", "110831.703000", "110831.705000", "110831.707000", "110831.710000", "110831.712000", "110831.715000", "110831.717000", "110831.720000", "110831.722000", "110831.725000", "110831.727000", "110831.730000", "110831.732000", "110831.735000", "110831.737000", "110831.740000", "110831.742000", "110831.745000", "110831.747000", "110831.749000", "110831.752000", "110831.754000", "110831.757000", "110831.759000", "110831.762000", "110831.764000", "110831.767000", "110831.801000", "110831.803000", "110831.805000", "110831.808000", "110831.810000", "110831.813000", "110831.815000", "110851.578000", "110851.581000", "110851.584000", "110851.586000", "110851.589000", "110851.591000", "110851.594000", "110851.596000", "110851.599000", "110851.601000", "110851.604000", "110851.606000", "110851.609000", "110851.611000", "110851.614000", "110851.616000", "110851.618000", "110851.621000", "110851.624000", "110851.626000", "110911.572000", "110911.575000", "110911.578000", "110911.580000", "110911.583000", "110911.585000", "110911.588000", "110911.590000", "110911.593000", "110911.595000", "110911.598000", "110911.600000", "110911.603000", "110911.605000", "110911.608000", "110911.610000", "110911.613000", "110911.615000", "110911.618000", "110911.620000", "110931.582000", "110931.585000", "110931.588000", "110931.590000", "110931.593000", "110931.595000", "110931.598000", "110931.600000", "110931.603000", "110931.605000", "110931.608000", "110931.610000", "110931.612000", "110931.615000", "110931.617000", "110931.620000", "110931.622000", "110931.625000", "110931.627000", "110931.630000", "111011.607000", "111011.610000", "111011.622000", "111011.625000", "111011.627000", "111011.630000", "111011.633000", "111011.635000", "111011.638000", "111011.640000", "111011.642000", "111011.645000", "111011.648000", "111011.650000", "111011.652000", "111011.655000", "111011.657000", "111011.660000", "111011.662000", "111011.665000", "111011.667000", "111011.670000", "111011.672000", "111011.675000", "111011.677000", "111011.680000", "111011.682000", "111011.685000", "111011.687000", "111011.690000", "111051.604000", "111051.607000", "111051.610000", "111051.612000", "111051.615000", "111051.617000", "111051.620000", "111051.622000", "111051.625000", "111051.627000", "111051.630000", "111051.632000", "111051.635000", "111051.637000", "111051.640000", "111051.642000", "111051.645000", "111051.647000", "111051.650000", "111051.652000", "111051.655000", "111051.657000", "111051.660000", "111051.662000", "111051.665000", "111051.667000", "111051.669000", "111131.618000", "111131.621000", "111131.625000", "111131.628000", "111131.631000", "111131.633000", "111131.636000", "111131.639000", "111131.642000", "111131.645000", "111131.647000", "111131.650000", "111131.652000", "111131.655000", "111131.657000", "111131.660000", "111131.662000", "111131.665000", "111131.667000", "111131.670000", "111131.672000", "111131.675000", "111131.677000", "111131.680000", "111131.682000", "111131.685000", "111142.187000", "111142.190000", "111142.193000", "111142.195000", "111142.198000", "111142.200000", "111142.203000", "111142.205000"],
      "InstanceNumber": [1, 2, 3, 4, 5, 6, 7, 8, 9, 10, 11, 12, 13, 14, 15, 16, 17, 18, 19, 20, 21, 22, 23, 24, 25, 26, 27, 28, 29, 30, 31, 32, 33, 34, 35, 36, 37, 38, 39, 40, 41, 42, 43, 44, 45, 46, 47, 48, 49, 50, 51, 52, 53, 54, 55, 56, 57, 58, 59, 60, 61, 62, 63, 64, 65, 66, 67, 68, 69, 70, 71, 72, 73, 74, 75, 76, 77, 78, 79, 80, 81, 82, 83, 84, 85, 86, 87, 88, 89, 90, 91, 92, 93, 94, 95, 96, 97, 98, 99, 100, 101, 102, 103, 104, 105, 106, 107, 108, 109, 110, 111, 112, 113, 114, 115, 116, 117, 118, 119, 120, 121, 122, 123, 124, 125, 126, 127, 128, 129, 130, 131, 132, 133, 134, 135, 136, 137, 138, 139, 140, 141, 142, 143, 144, 145, 146, 147, 148, 149, 150, 151, 152, 153, 154, 155, 156, 157, 158, 159, 160, 161, 162, 163, 164, 165, 166, 167, 168, 169, 170, 171, 172, 173, 174, 175, 176, 177, 178, 179, 180, 181, 182, 183, 184, 185, 186, 187, 188, 189, 190],
      "WindowCenter": [4810.0, 4810.0, 4808.0, 4812.0, 4818.0, 4820.0, 4820.0, 4814.0, 4812.0, 4804.0, 4802.0, 4810.0, 4806.0, 4812.0, 4818.0, 4820.0, 4814.0, 4810.0, 4810.0, 4806.0, 4780.0, 4824.0, 4828.0, 4818.0, 4806.0, 4804.0, 4808.0, 4806.0, 4824.0, 4820.0, 4814.0, 4814.0, 4808.0, 4808.0, 4806.0, 4818.0, 4818.0, 4816.0, 4812.0, 4820.0, 4818.0, 4812.0, 4802.0, 4820.0, 4818.0, 4816.0, 4788.0, 4784.0, 4806.0, 4808.0, 4808.0, 4814.0, 4796.0, 4796.0, 4818.0, 4784.0, 4804.0, 4782.0, 4802.0, 4808.0, 4810.0, 4810.0, 4812.0, 4816.0, 4814.0, 4810.0, 4812.0, 4822.0, 4822.0, 4808.0, 4814.0, 4784.0, 4804.0, 4814.0, 4812.0, 4816.0, 4808.0, 4818.0, 4814.0, 4814.0, 4820.0, 4810.0, 4814.0, 4828.0, 4824.0, 4788.0, 4782.0, 4778.0, 4806.0, 4818.0, 4820.0, 4814.0, 4814.0, 4818.0, 4828.0, 4826.0, 4782.0, 4778.0, 4776.0, 4774.0, 4790.0, 4816.0, 4816.0, 4794.0, 4818.0, 4814.0, 4812.0, 4786.0, 4808.0, 4784.0, 4806.0, 4784.0, 4812.0, 4820.0, 4816.0, 4816.0, 4818.0, 4812.0, 4814.0, 4818.0, 4812.0, 4778.0, 4776.0, 4806.0, 4814.0, 4814.0, 4818.0, 4818.0, 4820.0, 4818.0, 4820.0, 4806.0, 4784.0, 4820.0, 4820.0, 4818.0, 4786.0, 4808.0, 4808.0, 4812.0, 4824.0, 4824.0, 4824.0, 4812.0, 4778.0, 4778.0, 4776.0, 4784.0, 4814.0, 4800.0, 4800.0, 4820.0, 4816.0, 4776.0, 4776.0, 4776.0, 4778.0, 4812.0, 4816.0, 4818.0, 4794.0, 4822.0, 4822.0, 4814.0, 4780.0, 4780.0, 4784.0, 4780.0, 4780.0, 4816.0, 4824.0, 4824.0, 4824.0, 4810.0, 4780.0, 4788.0, 4788.0, 4788.0, 4786.0, 4784.0, 4818.0, 4824.0, 4822.0, 4822.0, 4788.0, 4780.0, 4802.0, 4814.0, 4840.0, 4830.0],
      "WindowWidth": [18620.0, 18624.0, 18620.0, 18626.0, 18622.0, 18600.0, 18614.0, 18626.0, 18622.0, 18618.0, 18614.0, 18620.0, 18622.0, 18620.0, 18598.0, 18612.0, 18618.0, 18624.0, 18618.0, 18618.0, 18584.0, 18622.0, 18610.0, 18614.0, 18618.0, 18614.0, 18618.0, 18614.0, 18610.0, 18618.0, 18620.0, 18622.0, 18618.0, 18620.0, 18620.0, 18622.0, 18618.0, 18624.0, 18618.0, 18610.0, 18618.0, 18622.0, 18618.0, 18626.0, 18612.0, 18618.0, 18590.0, 18582.0, 18616.0, 18622.0, 18620.0, 18620.0, 18560.0, 18564.0, 18618.0, 18588.0, 18618.0, 18582.0, 18616.0, 18616.0, 18618.0, 18620.0, 18622.0, 18616.0, 18620.0, 18618.0, 18618.0, 18610.0, 18614.0, 18618.0, 18620.0, 18586.0, 18616.0, 18620.0, 18620.0, 18620.0, 18622.0, 18620.0, 18624.0, 18618.0, 18622.0, 18618.0, 18614.0, 18608.0, 18614.0, 18584.0, 18582.0, 18582.0, 18614.0, 18620.0, 18620.0, 18618.0, 18618.0, 18608.0, 18588.0, 18612.0, 18584.0, 18580.0, 18578.0, 18576.0, 18588.0, 18620.0, 18618.0, 18562.0, 18608.0, 18618.0, 18616.0, 18584.0, 18614.0, 18582.0, 18618.0, 18582.0, 18620.0, 18622.0, 18620.0, 18612.0, 18606.0, 18624.0, 18614.0, 18608.0, 18614.0, 18578.0, 18580.0, 18618.0, 18618.0, 18622.0, 18612.0, 18588.0, 18614.0, 18612.0, 18618.0, 18612.0, 18582.0, 18616.0, 18614.0, 18616.0, 18584.0, 18614.0, 18620.0, 18620.0, 18604.0, 18578.0, 18608.0, 18614.0, 18584.0, 18584.0, 18576.0, 18584.0, 18618.0, 18538.0, 18546.0, 18594.0, 18618.0, 18578.0, 18578.0, 18578.0, 18582.0, 18620.0, 18622.0, 18620.0, 18570.0, 18578.0, 18600.0, 18616.0, 18582.0, 18578.0, 18580.0, 18580.0, 18582.0, 18608.0, 18586.0, 18590.0, 18618.0, 18614.0, 18584.0, 18580.0, 18582.0, 18582.0, 18584.0, 18586.0, 18618.0, 18594.0, 18600.0, 18622.0, 18586.0, 18578.0, 18616.0, 18614.0, 18582.0, 18572.0]
    },
    "slices": {}
  }
}