{
  "AcquisitionMatrixPE": 104,
  "AcquisitionNumber": 1,
  "AcquisitionTime": "10:48:30.272500",
  "BandwidthPerPixelPhaseEncode": 17.17,
  "BaseResolution": 104,
  "BodyPartExamined": "BRAIN",
  "CoilString": "HC1-7;NC1_2",
  "ConsistencyInfo": "N4_VE11C_LATEST_20160120",
  "ConversionSoftware": "dcm2niix",
  "ConversionSoftwareVersion": "v1.0.20190902",
  "DerivedVendorReportedEchoSpacing": 0.000560011,
  "DeviceSerialNumber": "167006",
  "DwellTime": 2.1e-06,
  "EchoTime": 0.037,
  "EchoTrainLength": 104,
  "EffectiveEchoSpacing": 0.000560011,
  "FlipAngle": 52,
  "HeudiconvVersion": "0.10.0",
  "ImageComments": "Unaliased_MB4_PE3_LB",
  "ImageOrientationPatientDICOM": [0.999611, 0.00574112, 0.0272735, 0.00767661, 0.883992, -0.46744],
  "ImageType": [
    "ORIGINAL",
    "PRIMARY",
    "M",
    "MB",
    "ND",
    "MOSAIC"
],
  "ImagingFrequency": 123.259,
  "InPlanePhaseEncodingDirectionDICOM": "COL",
  "InstitutionAddress": "Chemin_Queen-Mary_4565_Montreal_District_CA_H3W_1W5",
  "InstitutionName": "IUGM",
  "InstitutionalDepartmentName": "Department",
  "MRAcquisitionType": "2D",
  "MagneticFieldStrength": 3,
  "Manufacturer": "Siemens",
  "ManufacturersModelName": "Prisma_fit",
  "Modality": "MR",
  "MultibandAccelerationFactor": 4,
  "PartialFourier": 1,
  "PatientPosition": "HFS",
  "PercentPhaseFOV": 100,
  "PhaseEncodingDirection": "j",
  "PhaseEncodingSteps": 104,
  "PhaseResolution": 1,
  "PixelBandwidth": 2290,
  "ProcedureStepDescription": "memory_things",
  "ProtocolName": "func_task-things_run-1",
  "PulseSequenceDetails": "%CustomerSeq%_cmrr_mbep2d_bold",
  "ReceiveCoilActiveElements": "HC1-7;NC1,2",
  "ReceiveCoilName": "HeadNeck_64",
  "ReconMatrixPE": 104,
  "RepetitionTime": 1.49,
  "SAR": 0.0376928,
  "ScanOptions": "FS",
  "ScanningSequence": "EP",
  "SequenceName": "epfid2d1_104",
  "SequenceVariant": "SK_SS",
  "SeriesDescription": "func_task-things_run-1",
  "SeriesNumber": 10,
  "ShimSetting": [621, -7188, -8855, 322, 20, -114, -39, -21],
  "SliceThickness": 2,
  "SliceTiming": [0, 0.785, 0.1, 0.8825, 0.1975, 0.98, 0.295, 1.08, 0.3925, 1.1775, 0.49, 1.275, 0.59, 1.3725, 0.6875, 0, 0.785, 0.1, 0.8825, 0.1975, 0.98, 0.295, 1.08, 0.3925, 1.1775, 0.49, 1.275, 0.59, 1.3725, 0.6875, 0, 0.785, 0.1, 0.8825, 0.1975, 0.98, 0.295, 1.08, 0.3925, 1.1775, 0.49, 1.275, 0.59, 1.3725, 0.6875, 0, 0.785, 0.1, 0.8825, 0.1975, 0.98, 0.295, 1.08, 0.3925, 1.1775, 0.49, 1.275, 0.59, 1.3725, 0.6875],
  "SoftwareVersions": "syngo_MR_E11",
  "SpacingBetweenSlices": 2,
  "StationName": "MRC35049",
  "TaskName": "things",
  "TotalReadoutTime": 0.0576811,
  "TxRefAmp": 247.032,
  "WipMemBlock": "0ea06f66-334f-4077-8110-95988c339a50||Sequence: R016 ve11c/master r/e634e98; Dec 19 2017 11:00:25 by eja",
  "dcmmeta_affine": [
    [-1.999222993850708, 0.015353218652307987, 0.053586434572935104, 104.61088562011719],
    [-0.011482249945402145, 1.7679834365844727, -0.9349347352981567, -53.8828239440918],
    [0.05454709008336067, 0.9348791241645813, 1.767208456993103, -92.1695556640625],
    [0.0, 0.0, 0.0, 1.0]
],
  "dcmmeta_reorient_transform": [
    [0.0, -1.0, 0.0, 103.0],
    [1.0, 0.0, 0.0, 0.0],
    [0.0, 0.0, 1.0, 0.0],
    [0.0, 0.0, 0.0, 1.0]
],
  "dcmmeta_shape": [104, 104, 60, 190],
  "dcmmeta_slice_dim": 2,
  "dcmmeta_version": 0.6,
  "global": {
    "const": {
      "AcquisitionMatrix": [104, 0, 0, 104],
      "AngioFlag": "N",
      "BitsAllocated": 16,
      "BitsStored": 16,
      "BodyPartExamined": "BRAIN",
      "Columns": 832,
      "EchoNumbers": 1,
      "EchoTime": 37.0,
      "EchoTrainLength": 104,
      "FlipAngle": 52.0,
      "HighBit": 15,
      "ImageOrientationPatient": [0.99961152116401, 0.00574112511156, 0.02727354466572, 0.00767660929051, 0.88399169531802, -0.4674395707239],
      "ImagePositionPatient": [-839.49802949078, -775.94495864209, 324.56385969362],
      "ImageType": [
        "ORIGINAL",
        "PRIMARY",
        "M",
        "MB",
        "ND",
        "MOSAIC"
],
      "ImagedNucleus": "1H",
      "ImagingFrequency": 123.258879,
      "InPlanePhaseEncodingDirection": "COL",
      "MRAcquisitionType": "2D",
      "MagneticFieldStrength": 3.0,
      "Manufacturer": "SIEMENS",
      "ManufacturerModelName": "Prisma_fit",
      "Modality": "MR",
      "NumberOfAverages": 1.0,
      "NumberOfPhaseEncodingSteps": 104,
      "PercentPhaseFieldOfView": 100.0,
      "PercentSampling": 100.0,
      "PerformedProcedureStepStartTime": "101834.173000",
      "PhotometricInterpretation": "MONOCHROME2",
      "PixelBandwidth": 2290.0,
      "PixelRepresentation": 0,
      "PixelSpacing": [2.0, 2.0],
      "ProtocolName": "func_task-things_run-1",
      "RepetitionTime": 1490.0,
      "Rows": 832,
      "SAR": 0.03769276568359,
      "SamplesPerPixel": 1,
      "ScanOptions": "FS",
      "ScanningSequence": "EP",
      "SequenceName": "epfid2d1_104",
      "SequenceVariant": [
        "SK",
        "SS"
],
      "SeriesDescription": "func_task-things_run-1",
      "SeriesNumber": 10,
      "SeriesTime": "104951.503000",
      "SliceLocation": -53.450087348739,
      "SliceThickness": 2.0,
      "SmallestImagePixelValue": 0,
      "SoftwareVersions": "syngo MR E11",
      "SpacingBetweenSlices": 2.0000000494446,
      "SpecificCharacterSet": "ISO_IR 100",
      "StudyID": "1",
      "StudyTime": "101834.103000",
      "TransmitCoilName": "Body",
      "VariableFlipAngleFlag": "N",
      "WindowCenterWidthExplanation": "Algo1",
      "dBdt": 0.0},
    "slices": {}
  },
  "time": {
    "samples": {
      "AcquisitionNumber": [1, 2, 3, 4, 5, 6, 7, 8, 9, 10, 11, 12, 13, 14, 15, 16, 17, 18, 19, 20, 21, 22, 23, 24, 25, 26, 27, 28, 29, 30, 31, 32, 33, 34, 35, 36, 37, 38, 39, 40, 41, 42, 43, 44, 45, 46, 47, 48, 49, 50, 51, 52, 53, 54, 55, 56, 57, 58, 59, 60, 61, 62, 63, 64, 65, 66, 67, 68, 69, 70, 71, 72, 73, 74, 75, 76, 77, 78, 79, 80, 81, 82, 83, 84, 85, 86, 87, 88, 89, 90, 91, 92, 93, 94, 95, 96, 97, 98, 99, 100, 101, 102, 103, 104, 105, 106, 107, 108, 109, 110, 111, 112, 113, 114, 115, 116, 117, 118, 119, 120, 121, 122, 123, 124, 125, 126, 127, 128, 129, 130, 131, 132, 133, 134, 135, 136, 137, 138, 139, 140, 141, 142, 143, 144, 145, 146, 147, 148, 149, 150, 151, 152, 153, 154, 155, 156, 157, 158, 159, 160, 161, 162, 163, 164, 165, 166, 167, 168, 169, 170, 171, 172, 173, 174, 175, 176, 177, 178, 179, 180, 181, 182, 183, 184, 185, 186, 187, 188, 189, 190],
      "AcquisitionTime": ["104830.272500", "104831.762500", "104833.252500", "104834.742500", "104836.232500", "104837.722500", "104839.212500", "104840.702500", "104842.192500", "104843.682500", "104845.172500", "104846.662500", "104848.152500", "104849.642500", "104851.132500", "104852.622500", "104854.112500", "104855.602500", "104857.092500", "104858.582500", "104900.072500", "104901.562500", "104903.052500", "104904.542500", "104906.032500", "104907.522500", "104909.012500", "104910.502500", "104911.992500", "104913.482500", "104914.972500", "104916.462500", "104917.952500", "104919.442500", "104920.932500", "104922.422500", "104923.912500", "104925.402500", "104926.892500", "104928.382500", "104929.872500", "104931.362500", "104932.852500", "104934.342500", "104935.832500", "104937.322500", "104938.812500", "104940.302500", "104941.792500", "104943.282500", "104944.772500", "104946.262500", "104947.752500", "104949.242500", "104950.732500", "104952.222500", "104953.712500", "104955.202500", "104956.692500", "104958.182500", "104959.672500", "105001.162500", "105002.652500", "105004.142500", "105005.632500", "105007.122500", "105008.612500", "105010.102500", "105011.592500", "105013.082500", "105014.572500", "105016.062500", "105017.552500", "105019.042500", "105020.532500", "105022.022500", "105023.512500", "105025.002500", "105026.492500", "105027.982500", "105029.472500", "105030.962500", "105032.452500", "105033.942500", "105035.432500", "105036.922500", "105038.412500", "105039.902500", "105041.392500", "105042.882500", "105044.372500", "105045.862500", "105047.352500", "105048.842500", "105050.332500", "105051.822500", "105053.312500", "105054.802500", "105056.292500", "105057.782500", "105059.272500", "105100.762500", "105102.252500", "105103.742500", "105105.232500", "105106.722500", "105108.212500", "105109.702500", "105111.192500", "105112.682500", "105114.172500", "105115.662500", "105117.152500", "105118.642500", "105120.132500", "105121.622500", "105123.112500", "105124.602500", "105126.092500", "105127.582500", "105129.072500", "105130.562500", "105132.052500", "105133.542500", "105135.032500", "105136.522500", "105138.012500", "105139.502500", "105140.992500", "105142.482500", "105143.972500", "105145.462500", "105146.952500", "105148.442500", "105149.932500", "105151.422500", "105152.912500", "105154.402500", "105155.892500", "105157.382500", "105158.872500", "105200.362500", "105201.852500", "105203.342500", "105204.832500", "105206.322500", "105207.812500", "105209.302500", "105210.792500", "105212.282500", "105213.772500", "105215.262500", "105216.752500", "105218.242500", "105219.732500", "105221.222500", "105222.712500", "105224.202500", "105225.692500", "105227.182500", "105228.672500", "105230.162500", "105231.652500", "105233.142500", "105234.632500", "105236.122500", "105237.612500", "105239.102500", "105240.592500", "105242.082500", "105243.572500", "105245.062500", "105246.552500", "105248.042500", "105249.532500", "105251.022500", "105252.512500", "105254.002500", "105255.492500", "105256.982500", "105258.472500", "105259.962500", "105301.452500", "105302.942500", "105304.432500", "105305.922500", "105307.412500", "105308.902500", "105310.392500", "105311.882500"],
      "ContentTime": ["104951.506000", "104951.510000", "104951.513000", "104951.516000", "104951.520000", "104951.523000", "104951.526000", "104951.529000", "104951.533000", "104951.536000", "104951.539000", "104951.542000", "104951.546000", "104951.549000", "104951.552000", "104951.556000", "104951.559000", "104951.562000", "104951.565000", "104951.569000", "104951.572000", "104951.575000", "104951.579000", "104951.582000", "104951.585000", "105011.467000", "105011.471000", "105011.474000", "105011.477000", "105011.481000", "105011.484000", "105011.487000", "105011.490000", "105011.494000", "105011.497000", "105011.500000", "105011.504000", "105011.507000", "105011.510000", "105011.513000", "105011.517000", "105011.520000", "105011.523000", "105011.526000", "105011.530000", "105031.466000", "105031.470000", "105031.473000", "105031.476000", "105031.479000", "105031.484000", "105031.487000", "105031.490000", "105031.494000", "105031.497000", "105031.500000", "105031.503000", "105031.507000", "105031.510000", "105031.520000", "105031.524000", "105031.527000", "105031.530000", "105031.534000", "105031.537000", "105051.466000", "105051.470000", "105051.473000", "105051.476000", "105051.479000", "105051.483000", "105051.486000", "105051.489000", "105051.493000", "105051.496000", "105051.499000", "105051.503000", "105051.506000", "105051.509000", "105051.512000", "105051.516000", "105051.519000", "105051.529000", "105051.532000", "105051.535000", "105111.466000", "105111.470000", "105111.473000", "105111.476000", "105111.480000", "105111.483000", "105111.486000", "105111.490000", "105111.493000", "105111.496000", "105111.499000", "105111.503000", "105111.506000", "105111.509000", "105111.513000", "105111.516000", "105111.519000", "105111.522000", "105111.525000", "105111.529000", "105151.466000", "105151.470000", "105151.473000", "105151.476000", "105151.480000", "105151.483000", "105151.486000", "105151.489000", "105151.493000", "105151.496000", "105151.499000", "105151.503000", "105151.506000", "105151.510000", "105151.513000", "105151.516000", "105151.520000", "105151.523000", "105151.527000", "105151.530000", "105151.533000", "105151.536000", "105151.540000", "105151.543000", "105151.546000", "105151.550000", "105151.553000", "105151.556000", "105151.560000", "105231.467000", "105231.471000", "105231.474000", "105231.478000", "105231.481000", "105231.484000", "105231.488000", "105231.491000", "105231.494000", "105231.497000", "105231.501000", "105231.504000", "105231.507000", "105231.511000", "105231.514000", "105231.517000", "105231.521000", "105231.524000", "105231.527000", "105231.530000", "105231.534000", "105231.537000", "105231.540000", "105231.543000", "105231.556000", "105231.560000", "105231.563000", "105311.466000", "105311.470000", "105311.473000", "105311.476000", "105311.480000", "105311.483000", "105311.486000", "105311.490000", "105311.493000", "105311.496000", "105311.499000", "105311.503000", "105311.506000", "105311.509000", "105311.512000", "105311.516000", "105311.519000", "105311.522000", "105311.526000", "105311.529000", "105311.532000", "105311.535000", "105311.539000", "105311.542000", "105311.545000", "105311.549000", "105311.552000", "105314.161000", "105314.165000"],
      "InstanceCreationTime": ["104951.506000", "104951.510000", "104951.513000", "104951.516000", "104951.520000", "104951.523000", "104951.526000", "104951.529000", "104951.533000", "104951.536000", "104951.539000", "104951.542000", "104951.546000", "104951.549000", "104951.552000", "104951.556000", "104951.559000", "104951.562000", "104951.565000", "104951.569000", "104951.572000", "104951.575000", "104951.579000", "104951.582000", "104951.585000", "105011.467000", "105011.471000", "105011.474000", "105011.477000", "105011.481000", "105011.484000", "105011.487000", "105011.490000", "105011.494000", "105011.497000", "105011.500000", "105011.504000", "105011.507000", "105011.510000", "105011.513000", "105011.517000", "105011.520000", "105011.523000", "105011.526000", "105011.530000", "105031.466000", "105031.470000", "105031.473000", "105031.476000", "105031.479000", "105031.484000", "105031.487000", "105031.490000", "105031.494000", "105031.497000", "105031.500000", "105031.503000", "105031.507000", "105031.510000", "105031.520000", "105031.524000", "105031.527000", "105031.530000", "105031.534000", "105031.537000", "105051.466000", "105051.470000", "105051.473000", "105051.476000", "105051.479000", "105051.483000", "105051.486000", "105051.489000", "105051.493000", "105051.496000", "105051.499000", "105051.503000", "105051.506000", "105051.509000", "105051.512000", "105051.516000", "105051.519000", "105051.529000", "105051.532000", "105051.535000", "105111.466000", "105111.470000", "105111.473000", "105111.476000", "105111.480000", "105111.483000", "105111.486000", "105111.490000", "105111.493000", "105111.496000", "105111.499000", "105111.503000", "105111.506000", "105111.509000", "105111.513000", "105111.516000", "105111.519000", "105111.522000", "105111.525000", "105111.529000", "105151.466000", "105151.470000", "105151.473000", "105151.476000", "105151.480000", "105151.483000", "105151.486000", "105151.489000", "105151.493000", "105151.496000", "105151.499000", "105151.503000", "105151.506000", "105151.510000", "105151.513000", "105151.516000", "105151.520000", "105151.523000", "105151.527000", "105151.530000", "105151.533000", "105151.536000", "105151.540000", "105151.543000", "105151.546000", "105151.550000", "105151.553000", "105151.556000", "105151.560000", "105231.467000", "105231.471000", "105231.474000", "105231.478000", "105231.481000", "105231.484000", "105231.488000", "105231.491000", "105231.494000", "105231.497000", "105231.501000", "105231.504000", "105231.507000", "105231.511000", "105231.514000", "105231.517000", "105231.521000", "105231.524000", "105231.527000", "105231.530000", "105231.534000", "105231.537000", "105231.540000", "105231.543000", "105231.556000", "105231.560000", "105231.563000", "105311.466000", "105311.470000", "105311.473000", "105311.476000", "105311.480000", "105311.483000", "105311.486000", "105311.490000", "105311.493000", "105311.496000", "105311.499000", "105311.503000", "105311.506000", "105311.509000", "105311.512000", "105311.516000", "105311.519000", "105311.522000", "105311.526000", "105311.529000", "105311.532000", "105311.535000", "105311.539000", "105311.542000", "105311.545000", "105311.549000", "105311.552000", "105314.161000", "105314.165000"],
      "InstanceNumber": [1, 2, 3, 4, 5, 6, 7, 8, 9, 10, 11, 12, 13, 14, 15, 16, 17, 18, 19, 20, 21, 22, 23, 24, 25, 26, 27, 28, 29, 30, 31, 32, 33, 34, 35, 36, 37, 38, 39, 40, 41, 42, 43, 44, 45, 46, 47, 48, 49, 50, 51, 52, 53, 54, 55, 56, 57, 58, 59, 60, 61, 62, 63, 64, 65, 66, 67, 68, 69, 70, 71, 72, 73, 74, 75, 76, 77, 78, 79, 80, 81, 82, 83, 84, 85, 86, 87, 88, 89, 90, 91, 92, 93, 94, 95, 96, 97, 98, 99, 100, 101, 102, 103, 104, 105, 106, 107, 108, 109, 110, 111, 112, 113, 114, 115, 116, 117, 118, 119, 120, 121, 122, 123, 124, 125, 126, 127, 128, 129, 130, 131, 132, 133, 134, 135, 136, 137, 138, 139, 140, 141, 142, 143, 144, 145, 146, 147, 148, 149, 150, 151, 152, 153, 154, 155, 156, 157, 158, 159, 160, 161, 162, 163, 164, 165, 166, 167, 168, 169, 170, 171, 172, 173, 174, 175, 176, 177, 178, 179, 180, 181, 182, 183, 184, 185, 186, 187, 188, 189, 190],
      "LargestImagePixelValue": [45727, 44407, 43314, 44658, 43994, 44275, 42742, 42607, 42999, 42991, 43040, 43874, 43501, 44013, 44209, 43477, 43942, 43415, 43149, 42442, 43011, 44376, 42804, 43456, 44209, 42756, 43573, 43432, 43679, 44254, 42491, 41392, 41387, 41304, 41658, 41703, 42984, 41634, 42917, 44279, 43672, 43016, 43220, 41519, 42413, 43422, 40995, 41069, 40744, 41043, 41220, 40943, 41200, 41530, 40954, 40878, 41577, 43234, 43004, 42819, 41707, 41558, 42210, 41924, 41380, 41534, 41937, 41466, 41540, 42449, 42079, 41134, 41236, 41526, 41831, 41613, 41297, 41294, 42594, 43052, 41382, 41320, 41727, 41900, 41931, 41149, 41363, 42424, 42292, 42453, 41544, 41124, 41744, 41503, 42127, 41634, 41804, 42465, 41107, 42234, 42692, 42204, 41889, 41341, 42294, 42329, 42380, 41284, 41116, 41069, 41771, 41720, 41497, 41651, 42177, 41792, 41929, 42992, 43204, 42270, 42329, 41620, 41823, 41825, 42564, 41845, 43492, 41977, 41661, 41812, 41636, 41799, 41810, 41694, 41783, 42225, 41537, 41804, 42387, 41380, 42339, 41006, 41781, 41961, 42044, 42145, 42441, 41749, 42197, 41854, 41554, 41360, 41706, 41421, 41118, 41156, 41042, 41449, 41253, 41851, 42013, 41633, 41905, 41807, 41809, 41224, 41605, 43497, 44114, 43217, 43278, 42337, 43142, 43483, 42870, 43360, 42992, 44402, 43345, 44492, 43522, 44293, 43803, 43842, 44117, 44074, 44038, 44733, 44653, 44080],
      "WindowCenter": [10967.0, 10920.0, 10888.0, 10892.0, 10861.0, 10837.0, 10818.0, 10836.0, 10852.0, 10858.0, 10860.0, 10859.0, 10857.0, 10855.0, 10863.0, 10863.0, 10871.0, 10881.0, 10871.0, 10863.0, 10871.0, 10890.0, 10864.0, 10860.0, 10861.0, 10845.0, 10872.0, 10877.0, 10864.0, 10862.0, 10838.0, 10829.0, 10830.0, 10830.0, 10838.0, 10839.0, 10848.0, 10826.0, 10844.0, 10867.0, 10839.0, 10837.0, 10855.0, 10854.0, 10869.0, 10854.0, 10808.0, 10807.0, 10810.0, 10816.0, 10813.0, 10799.0, 10806.0, 10819.0, 10806.0, 10803.0, 10847.0, 10871.0, 10838.0, 10825.0, 10823.0, 10842.0, 10858.0, 10848.0, 10816.0, 10805.0, 10817.0, 10810.0, 10810.0, 10838.0, 10819.0, 10800.0, 10819.0, 10839.0, 10847.0, 10858.0, 10841.0, 10836.0, 10847.0, 10837.0, 10804.0, 10828.0, 10863.0, 10867.0, 10860.0, 10833.0, 10825.0, 10837.0, 10821.0, 10814.0, 10803.0, 10821.0, 10846.0, 10847.0, 10840.0, 10820.0, 10823.0, 10842.0, 10818.0, 10851.0, 10867.0, 10865.0, 10855.0, 10853.0, 10865.0, 10833.0, 10802.0, 10785.0, 10808.0, 10836.0, 10848.0, 10845.0, 10833.0, 10828.0, 10838.0, 10821.0, 10834.0, 10857.0, 10859.0, 10843.0, 10852.0, 10861.0, 10866.0, 10864.0, 10880.0, 10878.0, 10875.0, 10823.0, 10812.0, 10835.0, 10841.0, 10840.0, 10846.0, 10852.0, 10843.0, 10848.0, 10831.0, 10821.0, 10820.0, 10808.0, 10818.0, 10803.0, 10826.0, 10865.0, 10861.0, 10856.0, 10852.0, 10837.0, 10831.0, 10823.0, 10818.0, 10799.0, 10795.0, 10788.0, 10773.0, 10786.0, 10799.0, 10801.0, 10797.0, 10825.0, 10840.0, 10834.0, 10823.0, 10813.0, 10819.0, 10809.0, 10824.0, 10862.0, 10851.0, 10846.0, 10839.0, 10835.0, 10848.0, 10849.0, 10826.0, 10819.0, 10806.0, 10822.0, 10810.0, 10829.0, 10835.0, 10849.0, 10852.0, 10852.0, 10852.0, 10849.0, 10843.0, 10838.0, 10837.0, 10836.0],
      "WindowWidth": [23576.0, 23438.0, 23349.0, 23340.0, 23269.0, 23207.0, 23168.0, 23209.0, 23240.0, 23258.0, 23257.0, 23254.0, 23249.0, 23244.0, 23265.0, 23266.0, 23284.0, 23305.0, 23285.0, 23269.0, 23284.0, 23321.0, 23266.0, 23256.0, 23256.0, 23224.0, 23284.0, 23298.0, 23268.0, 23262.0, 23213.0, 23194.0, 23196.0, 23195.0, 23212.0, 23215.0, 23230.0, 23188.0, 23222.0, 23269.0, 23209.0, 23204.0, 23245.0, 23256.0, 23281.0, 23241.0, 23145.0, 23143.0, 23152.0, 23163.0, 23153.0, 23125.0, 23139.0, 23166.0, 23141.0, 23135.0, 23232.0, 23281.0, 23210.0, 23180.0, 23177.0, 23219.0, 23253.0, 23236.0, 23159.0, 23133.0, 23159.0, 23148.0, 23151.0, 23209.0, 23171.0, 23128.0, 23169.0, 23216.0, 23231.0, 23259.0, 23219.0, 23210.0, 23231.0, 23205.0, 23139.0, 23190.0, 23267.0, 23277.0, 23259.0, 23198.0, 23181.0, 23207.0, 23169.0, 23152.0, 23133.0, 23174.0, 23228.0, 23234.0, 23213.0, 23168.0, 23175.0, 23216.0, 23172.0, 23240.0, 23276.0, 23274.0, 23247.0, 23246.0, 23270.0, 23199.0, 23128.0, 23092.0, 23148.0, 23210.0, 23235.0, 23228.0, 23202.0, 23191.0, 23213.0, 23176.0, 23201.0, 23252.0, 23258.0, 23222.0, 23242.0, 23267.0, 23277.0, 23275.0, 23301.0, 23302.0, 23287.0, 23180.0, 23153.0, 23205.0, 23223.0, 23219.0, 23229.0, 23247.0, 23222.0, 23229.0, 23192.0, 23167.0, 23170.0, 23147.0, 23166.0, 23138.0, 23183.0, 23274.0, 23264.0, 23254.0, 23234.0, 23208.0, 23191.0, 23173.0, 23165.0, 23122.0, 23111.0, 23097.0, 23064.0, 23088.0, 23122.0, 23126.0, 23115.0, 23174.0, 23211.0, 23200.0, 23174.0, 23150.0, 23163.0, 23147.0, 23179.0, 23256.0, 23233.0, 23223.0, 23207.0, 23197.0, 23226.0, 23226.0, 23174.0, 23155.0, 23130.0, 23163.0, 23141.0, 23181.0, 23197.0, 23224.0, 23233.0, 23230.0, 23229.0, 23223.0, 23212.0, 23197.0, 23199.0, 23197.0]
    },
    "slices": {}
  }
}