{
  "AcquisitionMatrixPE": 104,
  "AcquisitionNumber": 1,
  "AcquisitionTime": "11:13:3.895000",
  "BandwidthPerPixelPhaseEncode": 17.17,
  "BaseResolution": 104,
  "BodyPartExamined": "BRAIN",
  "CoilString": "HC1-7;NC1_2",
  "ConsistencyInfo": "N4_VE11C_LATEST_20160120",
  "ConversionSoftware": "dcm2niix",
  "ConversionSoftwareVersion": "v1.0.20190902",
  "DerivedVendorReportedEchoSpacing": 0.000560011,
  "DeviceSerialNumber": "167006",
  "DwellTime": 2.1e-06,
  "EchoTime": 0.037,
  "EchoTrainLength": 104,
  "EffectiveEchoSpacing": 0.000560011,
  "FlipAngle": 52,
  "HeudiconvVersion": "0.10.0",
  "ImageComments": "Unaliased_MB4_PE3_LB",
  "ImageOrientationPatientDICOM": [0.999611, 0.00574112, 0.0272735, 0.00767661, 0.883992, -0.46744],
  "ImageType": [
    "ORIGINAL",
    "PRIMARY",
    "P",
    "MB",
    "ND",
    "MOSAIC"
],
  "ImagingFrequency": 123.259,
  "InPlanePhaseEncodingDirectionDICOM": "COL",
  "InstitutionAddress": "Chemin_Queen-Mary_4565_Montreal_District_CA_H3W_1W5",
  "InstitutionName": "IUGM",
  "InstitutionalDepartmentName": "Department",
  "MRAcquisitionType": "2D",
  "MagneticFieldStrength": 3,
  "Manufacturer": "Siemens",
  "ManufacturersModelName": "Prisma_fit",
  "Modality": "MR",
  "MultibandAccelerationFactor": 4,
  "PartialFourier": 1,
  "PatientPosition": "HFS",
  "PercentPhaseFOV": 100,
  "PhaseEncodingDirection": "j",
  "PhaseEncodingSteps": 104,
  "PhaseResolution": 1,
  "PixelBandwidth": 2290,
  "ProcedureStepDescription": "memory_things",
  "ProtocolName": "func_task-things_run-5",
  "PulseSequenceDetails": "%CustomerSeq%_cmrr_mbep2d_bold",
  "ReceiveCoilActiveElements": "HC1-7;NC1,2",
  "ReceiveCoilName": "HeadNeck_64",
  "ReconMatrixPE": 104,
  "RepetitionTime": 1.49,
  "SAR": 0.0376928,
  "ScanOptions": "FS",
  "ScanningSequence": "EP",
  "SequenceName": "epfid2d1_104",
  "SequenceVariant": "SK_SS",
  "SeriesDescription": "func_task-things_run-5",
  "SeriesNumber": 23,
  "ShimSetting": [621, -7188, -8855, 322, 20, -114, -39, -21],
  "SliceThickness": 2,
  "SliceTiming": [0, 0.785, 0.1, 0.8825, 0.1975, 0.98, 0.295, 1.08, 0.3925, 1.1775, 0.49, 1.275, 0.59, 1.3725, 0.6875, 0, 0.785, 0.1, 0.8825, 0.1975, 0.98, 0.295, 1.08, 0.3925, 1.1775, 0.49, 1.275, 0.59, 1.3725, 0.6875, 0, 0.785, 0.1, 0.8825, 0.1975, 0.98, 0.295, 1.08, 0.3925, 1.1775, 0.49, 1.275, 0.59, 1.3725, 0.6875, 0, 0.785, 0.1, 0.8825, 0.1975, 0.98, 0.295, 1.08, 0.3925, 1.1775, 0.49, 1.275, 0.59, 1.3725, 0.6875],
  "SoftwareVersions": "syngo_MR_E11",
  "SpacingBetweenSlices": 2,
  "StationName": "MRC35049",
  "TaskName": "things",
  "TotalReadoutTime": 0.0576811,
  "TxRefAmp": 247.032,
  "WipMemBlock": "e4cf29d8-8bba-428f-a5ff-d1426b4766a2||Sequence: R016 ve11c/master r/e634e98; Dec 19 2017 11:00:25 by eja",
  "dcmmeta_affine": [
    [-1.999222993850708, 0.015353218652307987, 0.053586434572935104, 104.61088562011719],
    [-0.011482249945402145, 1.7679834365844727, -0.9349347352981567, -53.8828239440918],
    [0.05454709008336067, 0.9348791241645813, 1.767208456993103, -92.1695556640625],
    [0.0, 0.0, 0.0, 1.0]
],
  "dcmmeta_reorient_transform": [
    [0.0, -1.0, 0.0, 103.0],
    [1.0, 0.0, 0.0, 0.0],
    [0.0, 0.0, 1.0, 0.0],
    [0.0, 0.0, 0.0, 1.0]
],
  "dcmmeta_shape": [104, 104, 60, 190],
  "dcmmeta_slice_dim": 2,
  "dcmmeta_version": 0.6,
  "global": {
    "const": {
      "AcquisitionMatrix": [104, 0, 0, 104],
      "AngioFlag": "N",
      "BitsAllocated": 16,
      "BitsStored": 16,
      "BodyPartExamined": "BRAIN",
      "Columns": 832,
      "EchoNumbers": 1,
      "EchoTime": 37.0,
      "EchoTrainLength": 104,
      "FlipAngle": 52.0,
      "HighBit": 15,
      "ImageOrientationPatient": [0.99961152116401, 0.00574112511156, 0.02727354466572, 0.00767660929051, 0.88399169531802, -0.4674395707239],
      "ImagePositionPatient": [-839.49802949078, -775.94495864209, 324.56385969362],
      "ImageType": [
        "ORIGINAL",
        "PRIMARY",
        "P",
        "MB",
        "ND",
        "MOSAIC"
],
      "ImagedNucleus": "1H",
      "ImagingFrequency": 123.258892,
      "InPlanePhaseEncodingDirection": "COL",
      "LargestImagePixelValue": 4095,
      "MRAcquisitionType": "2D",
      "MagneticFieldStrength": 3.0,
      "Manufacturer": "SIEMENS",
      "ManufacturerModelName": "Prisma_fit",
      "Modality": "MR",
      "NumberOfAverages": 1.0,
      "NumberOfPhaseEncodingSteps": 104,
      "PercentPhaseFieldOfView": 100.0,
      "PercentSampling": 100.0,
      "PerformedProcedureStepStartTime": "101834.173000",
      "PhotometricInterpretation": "MONOCHROME2",
      "PixelBandwidth": 2290.0,
      "PixelRepresentation": 0,
      "PixelSpacing": [2.0, 2.0],
      "ProtocolName": "func_task-things_run-5",
      "RepetitionTime": 1490.0,
      "RescaleIntercept": -4096.0,
      "RescaleSlope": 2.0,
      "RescaleType": "US",
      "Rows": 832,
      "SAR": 0.03769276568359,
      "SamplesPerPixel": 1,
      "ScanOptions": "FS",
      "ScanningSequence": "EP",
      "SequenceName": "epfid2d1_104",
      "SequenceVariant": [
        "SK",
        "SS"
],
      "SeriesDescription": "func_task-things_run-5",
      "SeriesNumber": 23,
      "SeriesTime": "111412.888000",
      "SliceLocation": -53.450087348739,
      "SliceThickness": 2.0,
      "SmallestImagePixelValue": 0,
      "SoftwareVersions": "syngo MR E11",
      "SpacingBetweenSlices": 2.0000000494446,
      "SpecificCharacterSet": "ISO_IR 100",
      "StudyID": "1",
      "StudyTime": "101834.103000",
      "TransmitCoilName": "Body",
      "VariableFlipAngleFlag": "N",
      "WindowCenterWidthExplanation": "Algo1",
      "dBdt": 0.0},
    "slices": {}
  },
  "time": {
    "samples": {
      "AcquisitionNumber": [1, 2, 3, 4, 5, 6, 7, 8, 9, 10, 11, 12, 13, 14, 15, 16, 17, 18, 19, 20, 21, 22, 23, 24, 25, 26, 27, 28, 29, 30, 31, 32, 33, 34, 35, 36, 37, 38, 39, 40, 41, 42, 43, 44, 45, 46, 47, 48, 49, 50, 51, 52, 53, 54, 55, 56, 57, 58, 59, 60, 61, 62, 63, 64, 65, 66, 67, 68, 69, 70, 71, 72, 73, 74, 75, 76, 77, 78, 79, 80, 81, 82, 83, 84, 85, 86, 87, 88, 89, 90, 91, 92, 93, 94, 95, 96, 97, 98, 99, 100, 101, 102, 103, 104, 105, 106, 107, 108, 109, 110, 111, 112, 113, 114, 115, 116, 117, 118, 119, 120, 121, 122, 123, 124, 125, 126, 127, 128, 129, 130, 131, 132, 133, 134, 135, 136, 137, 138, 139, 140, 141, 142, 143, 144, 145, 146, 147, 148, 149, 150, 151, 152, 153, 154, 155, 156, 157, 158, 159, 160, 161, 162, 163, 164, 165, 166, 167, 168, 169, 170, 171, 172, 173, 174, 175, 176, 177, 178, 179, 180, 181, 182, 183, 184, 185, 186, 187, 188, 189, 190],
      "AcquisitionTime": ["111303.895000", "111305.385000", "111306.875000", "111308.365000", "111309.855000", "111311.345000", "111312.835000", "111314.325000", "111315.815000", "111317.305000", "111318.795000", "111320.285000", "111321.775000", "111323.265000", "111324.755000", "111326.245000", "111327.735000", "111329.225000", "111330.715000", "111332.205000", "111333.695000", "111335.185000", "111336.675000", "111338.165000", "111339.655000", "111341.145000", "111342.635000", "111344.125000", "111345.615000", "111347.105000", "111348.595000", "111350.085000", "111351.575000", "111353.065000", "111354.555000", "111356.045000", "111357.535000", "111359.025000", "111400.515000", "111402.005000", "111403.495000", "111404.985000", "111406.475000", "111407.965000", "111409.455000", "111410.945000", "111412.435000", "111413.925000", "111415.415000", "111416.905000", "111418.395000", "111419.885000", "111421.375000", "111422.865000", "111424.355000", "111425.845000", "111427.335000", "111428.825000", "111430.315000", "111431.805000", "111433.295000", "111434.785000", "111436.275000", "111437.765000", "111439.255000", "111440.745000", "111442.235000", "111443.725000", "111445.215000", "111446.705000", "111448.195000", "111449.685000", "111451.175000", "111452.665000", "111454.155000", "111455.645000", "111457.135000", "111458.625000", "111500.115000", "111501.605000", "111503.095000", "111504.585000", "111506.075000", "111507.565000", "111509.055000", "111510.545000", "111512.035000", "111513.525000", "111515.015000", "111516.505000", "111517.995000", "111519.485000", "111520.975000", "111522.465000", "111523.955000", "111525.445000", "111526.935000", "111528.425000", "111529.915000", "111531.405000", "111532.895000", "111534.385000", "111535.875000", "111537.365000", "111538.855000", "111540.345000", "111541.835000", "111543.325000", "111544.815000", "111546.305000", "111547.795000", "111549.285000", "111550.775000", "111552.265000", "111553.755000", "111555.245000", "111556.735000", "111558.225000", "111559.715000", "111601.205000", "111602.695000", "111604.185000", "111605.675000", "111607.165000", "111608.655000", "111610.145000", "111611.635000", "111613.125000", "111614.615000", "111616.105000", "111617.595000", "111619.085000", "111620.575000", "111622.065000", "111623.555000", "111625.045000", "111626.535000", "111628.025000", "111629.515000", "111631.005000", "111632.495000", "111633.985000", "111635.475000", "111636.965000", "111638.455000", "111639.945000", "111641.435000", "111642.925000", "111644.415000", "111645.905000", "111647.395000", "111648.885000", "111650.375000", "111651.865000", "111653.355000", "111654.845000", "111656.335000", "111657.825000", "111659.315000", "111700.805000", "111702.295000", "111703.785000", "111705.275000", "111706.765000", "111708.255000", "111709.745000", "111711.235000", "111712.725000", "111714.215000", "111715.705000", "111717.195000", "111718.685000", "111720.175000", "111721.665000", "111723.155000", "111724.645000", "111726.135000", "111727.625000", "111729.115000", "111730.605000", "111732.095000", "111733.585000", "111735.075000", "111736.565000", "111738.055000", "111739.545000", "111741.035000", "111742.525000", "111744.015000", "111745.505000"],
      "ContentTime": ["111412.890000", "111412.893000", "111412.896000", "111412.898000", "111412.901000", "111412.903000", "111412.906000", "111412.908000", "111412.917000", "111412.920000", "111412.923000", "111412.925000", "111412.928000", "111412.930000", "111432.883000", "111432.887000", "111432.891000", "111432.895000", "111432.898000", "111432.901000", "111432.905000", "111432.907000", "111432.911000", "111432.914000", "111432.916000", "111432.919000", "111432.923000", "111432.925000", "111432.928000", "111432.931000", "111432.933000", "111432.936000", "111432.938000", "111432.941000", "111452.887000", "111452.890000", "111452.892000", "111452.895000", "111452.897000", "111452.909000", "111452.912000", "111452.914000", "111452.917000", "111452.919000", "111452.922000", "111452.924000", "111452.927000", "111452.929000", "111452.932000", "111452.934000", "111452.937000", "111452.946000", "111452.949000", "111452.951000", "111512.916000", "111512.918000", "111512.921000", "111512.923000", "111512.926000", "111512.933000", "111512.935000", "111512.938000", "111512.940000", "111512.943000", "111512.945000", "111512.948000", "111512.950000", "111512.954000", "111512.957000", "111512.959000", "111512.962000", "111512.964000", "111512.967000", "111512.969000", "111512.972000", "111532.886000", "111532.889000", "111532.891000", "111532.894000", "111532.896000", "111532.899000", "111532.901000", "111532.904000", "111532.906000", "111532.909000", "111532.911000", "111532.914000", "111532.916000", "111532.919000", "111532.921000", "111532.924000", "111532.926000", "111532.929000", "111532.932000", "111532.934000", "111612.935000", "111612.938000", "111612.940000", "111612.943000", "111612.945000", "111612.948000", "111612.950000", "111612.953000", "111612.955000", "111612.958000", "111612.960000", "111612.963000", "111612.965000", "111612.968000", "111612.971000", "111612.973000", "111612.976000", "111612.978000", "111612.981000", "111612.983000", "111612.986000", "111612.988000", "111612.991000", "111612.993000", "111612.996000", "111612.998000", "111613.002000", "111613.005000", "111613.007000", "111613.010000", "111613.012000", "111652.931000", "111652.935000", "111652.937000", "111652.940000", "111652.943000", "111652.945000", "111652.948000", "111652.950000", "111652.953000", "111652.956000", "111652.958000", "111652.961000", "111652.963000", "111652.966000", "111652.968000", "111652.971000", "111652.974000", "111652.976000", "111652.979000", "111652.981000", "111652.984000", "111652.986000", "111652.989000", "111652.991000", "111652.994000", "111652.996000", "111732.933000", "111732.936000", "111732.938000", "111732.941000", "111732.944000", "111732.946000", "111732.948000", "111732.951000", "111732.954000", "111732.956000", "111732.958000", "111732.961000", "111732.964000", "111732.966000", "111732.969000", "111732.971000", "111732.974000", "111732.976000", "111732.979000", "111732.981000", "111732.984000", "111732.986000", "111732.989000", "111732.991000", "111732.994000", "111732.996000", "111733.000000", "111748.202000", "111748.205000", "111748.207000", "111748.210000", "111748.215000", "111748.218000", "111748.220000", "111748.223000", "111748.226000", "111748.228000", "111748.231000"],
      "InstanceCreationTime": ["111412.890000", "111412.893000", "111412.896000", "111412.898000", "111412.901000", "111412.903000", "111412.906000", "111412.908000", "111412.917000", "111412.920000", "111412.923000", "111412.925000", "111412.928000", "111412.930000", "111432.883000", "111432.887000", "111432.891000", "111432.895000", "111432.898000", "111432.901000", "111432.905000", "111432.907000", "111432.911000", "111432.914000", "111432.916000", "111432.919000", "111432.923000", "111432.925000", "111432.928000", "111432.931000", "111432.933000", "111432.936000", "111432.938000", "111432.941000", "111452.887000", "111452.890000", "111452.892000", "111452.895000", "111452.897000", "111452.909000", "111452.912000", "111452.914000", "111452.917000", "111452.919000", "111452.922000", "111452.924000", "111452.927000", "111452.929000", "111452.932000", "111452.934000", "111452.937000", "111452.946000", "111452.949000", "111452.951000", "111512.916000", "111512.918000", "111512.921000", "111512.923000", "111512.926000", "111512.933000", "111512.935000", "111512.938000", "111512.940000", "111512.943000", "111512.945000", "111512.948000", "111512.950000", "111512.954000", "111512.957000", "111512.959000", "111512.962000", "111512.964000", "111512.967000", "111512.969000", "111512.972000", "111532.886000", "111532.889000", "111532.891000", "111532.894000", "111532.896000", "111532.899000", "111532.901000", "111532.904000", "111532.906000", "111532.909000", "111532.911000", "111532.914000", "111532.916000", "111532.919000", "111532.921000", "111532.924000", "111532.926000", "111532.929000", "111532.932000", "111532.934000", "111612.935000", "111612.938000", "111612.940000", "111612.943000", "111612.945000", "111612.948000", "111612.950000", "111612.953000", "111612.955000", "111612.958000", "111612.960000", "111612.963000", "111612.965000", "111612.968000", "111612.971000", "111612.973000", "111612.976000", "111612.978000", "111612.981000", "111612.983000", "111612.986000", "111612.988000", "111612.991000", "111612.993000", "111612.996000", "111612.998000", "111613.002000", "111613.005000", "111613.007000", "111613.010000", "111613.012000", "111652.931000", "111652.935000", "111652.937000", "111652.940000", "111652.943000", "111652.945000", "111652.948000", "111652.950000", "111652.953000", "111652.956000", "111652.958000", "111652.961000", "111652.963000", "111652.966000", "111652.968000", "111652.971000", "111652.974000", "111652.976000", "111652.979000", "111652.981000", "111652.984000", "111652.986000", "111652.989000", "111652.991000", "111652.994000", "111652.996000", "111732.933000", "111732.936000", "111732.938000", "111732.941000", "111732.944000", "111732.946000", "111732.948000", "111732.951000", "111732.954000", "111732.956000", "111732.958000", "111732.961000", "111732.964000", "111732.966000", "111732.969000", "111732.971000", "111732.974000", "111732.976000", "111732.979000", "111732.981000", "111732.984000", "111732.986000", "111732.989000", "111732.991000", "111732.994000", "111732.996000", "111733.000000", "111748.202000", "111748.205000", "111748.207000", "111748.210000", "111748.215000", "111748.218000", "111748.220000", "111748.223000", "111748.226000", "111748.228000", "111748.231000"],
      "InstanceNumber": [1, 2, 3, 4, 5, 6, 7, 8, 9, 10, 11, 12, 13, 14, 15, 16, 17, 18, 19, 20, 21, 22, 23, 24, 25, 26, 27, 28, 29, 30, 31, 32, 33, 34, 35, 36, 37, 38, 39, 40, 41, 42, 43, 44, 45, 46, 47, 48, 49, 50, 51, 52, 53, 54, 55, 56, 57, 58, 59, 60, 61, 62, 63, 64, 65, 66, 67, 68, 69, 70, 71, 72, 73, 74, 75, 76, 77, 78, 79, 80, 81, 82, 83, 84, 85, 86, 87, 88, 89, 90, 91, 92, 93, 94, 95, 96, 97, 98, 99, 100, 101, 102, 103, 104, 105, 106, 107, 108, 109, 110, 111, 112, 113, 114, 115, 116, 117, 118, 119, 120, 121, 122, 123, 124, 125, 126, 127, 128, 129, 130, 131, 132, 133, 134, 135, 136, 137, 138, 139, 140, 141, 142, 143, 144, 145, 146, 147, 148, 149, 150, 151, 152, 153, 154, 155, 156, 157, 158, 159, 160, 161, 162, 163, 164, 165, 166, 167, 168, 169, 170, 171, 172, 173, 174, 175, 176, 177, 178, 179, 180, 181, 182, 183, 184, 185, 186, 187, 188, 189, 190],
      "WindowCenter": [4774.0, 4774.0, 4776.0, 4800.0, 4776.0, 4798.0, 4776.0, 4802.0, 4782.0, 4812.0, 4778.0, 4772.0, 4800.0, 4772.0, 4748.0, 4772.0, 4796.0, 4776.0, 4772.0, 4802.0, 4784.0, 4780.0, 4784.0, 4784.0, 4774.0, 4796.0, 4770.0, 4774.0, 4796.0, 4774.0, 4774.0, 4774.0, 4776.0, 4774.0, 4776.0, 4774.0, 4772.0, 4776.0, 4776.0, 4774.0, 4774.0, 4776.0, 4772.0, 4774.0, 4778.0, 4776.0, 4770.0, 4772.0, 4770.0, 4792.0, 4796.0, 4796.0, 4786.0, 4790.0, 4782.0, 4782.0, 4776.0, 4776.0, 4772.0, 4770.0, 4770.0, 4772.0, 4772.0, 4776.0, 4778.0, 4778.0, 4776.0, 4774.0, 4776.0, 4772.0, 4774.0, 4774.0, 4774.0, 4778.0, 4788.0, 4784.0, 4772.0, 4798.0, 4766.0, 4794.0, 4770.0, 4772.0, 4774.0, 4780.0, 4778.0, 4776.0, 4774.0, 4770.0, 4772.0, 4796.0, 4774.0, 4770.0, 4776.0, 4782.0, 4786.0, 4776.0, 4776.0, 4756.0, 4750.0, 4744.0, 4766.0, 4792.0, 4768.0, 4774.0, 4776.0, 4812.0, 4786.0, 4774.0, 4784.0, 4776.0, 4770.0, 4824.0, 4824.0, 4792.0, 4776.0, 4776.0, 4818.0, 4820.0, 4804.0, 4776.0, 4772.0, 4794.0, 4748.0, 4748.0, 4746.0, 4746.0, 4770.0, 4772.0, 4772.0, 4776.0, 4794.0, 4798.0, 4782.0, 4750.0, 4770.0, 4796.0, 4794.0, 4768.0, 4776.0, 4774.0, 4782.0, 4786.0, 4782.0, 4774.0, 4772.0, 4772.0, 4752.0, 4752.0, 4770.0, 4790.0, 4792.0, 4794.0, 4800.0, 4776.0, 4814.0, 4816.0, 4782.0, 4776.0, 4796.0, 4792.0, 4794.0, 4772.0, 4774.0, 4772.0, 4776.0, 4778.0, 4796.0, 4786.0, 4784.0, 4768.0, 4794.0, 4822.0, 4774.0, 4776.0, 4778.0, 4774.0, 4774.0, 4784.0, 4786.0, 4772.0, 4772.0, 4768.0, 4790.0, 4820.0, 4774.0, 4800.0, 4830.0, 4786.0, 4768.0, 4790.0],
      "WindowWidth": [18574.0, 18574.0, 18578.0, 18610.0, 18578.0, 18606.0, 18582.0, 18608.0, 18582.0, 18612.0, 18574.0, 18572.0, 18606.0, 18572.0, 18538.0, 18572.0, 18600.0, 18574.0, 18574.0, 18610.0, 18582.0, 18582.0, 18586.0, 18582.0, 18574.0, 18598.0, 18574.0, 18572.0, 18598.0, 18574.0, 18574.0, 18576.0, 18580.0, 18576.0, 18576.0, 18576.0, 18570.0, 18576.0, 18576.0, 18574.0, 18572.0, 18576.0, 18576.0, 18578.0, 18576.0, 18570.0, 18570.0, 18574.0, 18570.0, 18598.0, 18602.0, 18604.0, 18582.0, 18584.0, 18582.0, 18578.0, 18576.0, 18572.0, 18572.0, 18572.0, 18570.0, 18574.0, 18578.0, 18578.0, 18580.0, 18580.0, 18578.0, 18578.0, 18576.0, 18576.0, 18572.0, 18576.0, 18576.0, 18582.0, 18580.0, 18578.0, 18576.0, 18604.0, 18566.0, 18600.0, 18572.0, 18574.0, 18582.0, 18580.0, 18578.0, 18574.0, 18574.0, 18576.0, 18574.0, 18598.0, 18578.0, 18572.0, 18580.0, 18578.0, 18582.0, 18576.0, 18578.0, 18538.0, 18540.0, 18540.0, 18564.0, 18598.0, 18564.0, 18576.0, 18572.0, 18612.0, 18582.0, 18574.0, 18576.0, 18574.0, 18572.0, 18638.0, 18638.0, 18596.0, 18576.0, 18574.0, 18614.0, 18620.0, 18614.0, 18574.0, 18578.0, 18596.0, 18540.0, 18540.0, 18540.0, 18542.0, 18576.0, 18574.0, 18572.0, 18578.0, 18580.0, 18584.0, 18578.0, 18542.0, 18570.0, 18600.0, 18598.0, 18568.0, 18578.0, 18578.0, 18582.0, 18582.0, 18586.0, 18576.0, 18572.0, 18570.0, 18536.0, 18544.0, 18572.0, 18604.0, 18594.0, 18598.0, 18606.0, 18576.0, 18618.0, 18616.0, 18584.0, 18576.0, 18606.0, 18602.0, 18596.0, 18572.0, 18580.0, 18578.0, 18580.0, 18582.0, 18610.0, 18576.0, 18582.0, 18572.0, 18600.0, 18632.0, 18570.0, 18576.0, 18582.0, 18576.0, 18580.0, 18578.0, 18582.0, 18572.0, 18572.0, 18566.0, 18598.0, 18632.0, 18576.0, 18576.0, 18598.0, 18578.0, 18572.0, 18596.0]
    },
    "slices": {}
  }
}