{
  "AcquisitionMatrixPE": 104,
  "AcquisitionNumber": 1,
  "AcquisitionTime": "10:54:41.442500",
  "BandwidthPerPixelPhaseEncode": 17.17,
  "BaseResolution": 104,
  "BodyPartExamined": "BRAIN",
  "CoilString": "HC1-7;NC1_2",
  "ConsistencyInfo": "N4_VE11C_LATEST_20160120",
  "ConversionSoftware": "dcm2niix",
  "ConversionSoftwareVersion": "v1.0.20190902",
  "DerivedVendorReportedEchoSpacing": 0.000560011,
  "DeviceSerialNumber": "167006",
  "DwellTime": 2.1e-06,
  "EchoTime": 0.037,
  "EchoTrainLength": 104,
  "EffectiveEchoSpacing": 0.000560011,
  "FlipAngle": 52,
  "HeudiconvVersion": "0.10.0",
  "ImageComments": "Unaliased_MB4_PE3_LB",
  "ImageOrientationPatientDICOM": [0.999611, 0.00574112, 0.0272735, 0.00767661, 0.883992, -0.46744],
  "ImageType": [
    "ORIGINAL",
    "PRIMARY",
    "M",
    "MB",
    "ND",
    "MOSAIC"
],
  "ImagingFrequency": 123.259,
  "InPlanePhaseEncodingDirectionDICOM": "COL",
  "InstitutionAddress": "Chemin_Queen-Mary_4565_Montreal_District_CA_H3W_1W5",
  "InstitutionName": "IUGM",
  "InstitutionalDepartmentName": "Department",
  "MRAcquisitionType": "2D",
  "MagneticFieldStrength": 3,
  "Manufacturer": "Siemens",
  "ManufacturersModelName": "Prisma_fit",
  "Modality": "MR",
  "MultibandAccelerationFactor": 4,
  "PartialFourier": 1,
  "PatientPosition": "HFS",
  "PercentPhaseFOV": 100,
  "PhaseEncodingDirection": "j",
  "PhaseEncodingSteps": 104,
  "PhaseResolution": 1,
  "PixelBandwidth": 2290,
  "ProcedureStepDescription": "memory_things",
  "ProtocolName": "func_task-things_run-2",
  "PulseSequenceDetails": "%CustomerSeq%_cmrr_mbep2d_bold",
  "ReceiveCoilActiveElements": "HC1-7;NC1,2",
  "ReceiveCoilName": "HeadNeck_64",
  "ReconMatrixPE": 104,
  "RepetitionTime": 1.49,
  "SAR": 0.0376928,
  "ScanOptions": "FS",
  "ScanningSequence": "EP",
  "SequenceName": "epfid2d1_104",
  "SequenceVariant": "SK_SS",
  "SeriesDescription": "func_task-things_run-2",
  "SeriesNumber": 13,
  "ShimSetting": [621, -7188, -8855, 322, 20, -114, -39, -21],
  "SliceThickness": 2,
  "SliceTiming": [0, 0.785, 0.0975, 0.8825, 0.195, 0.98, 0.295, 1.0775, 0.3925, 1.175, 0.49, 1.2725, 0.5875, 1.3725, 0.685, 0, 0.785, 0.0975, 0.8825, 0.195, 0.98, 0.295, 1.0775, 0.3925, 1.175, 0.49, 1.2725, 0.5875, 1.3725, 0.685, 0, 0.785, 0.0975, 0.8825, 0.195, 0.98, 0.295, 1.0775, 0.3925, 1.175, 0.49, 1.2725, 0.5875, 1.3725, 0.685, 0, 0.785, 0.0975, 0.8825, 0.195, 0.98, 0.295, 1.0775, 0.3925, 1.175, 0.49, 1.2725, 0.5875, 1.3725, 0.685],
  "SoftwareVersions": "syngo_MR_E11",
  "SpacingBetweenSlices": 2,
  "StationName": "MRC35049",
  "TaskName": "things",
  "TotalReadoutTime": 0.0576811,
  "TxRefAmp": 247.032,
  "WipMemBlock": "bafb7116-b59c-4f72-ad2b-5b052a958c19||Sequence: R016 ve11c/master r/e634e98; Dec 19 2017 11:00:25 by eja",
  "dcmmeta_affine": [
    [-1.999222993850708, 0.015353218652307987, 0.053586434572935104, 104.61088562011719],
    [-0.011482249945402145, 1.7679834365844727, -0.9349347352981567, -53.8828239440918],
    [0.05454709008336067, 0.9348791241645813, 1.767208456993103, -92.1695556640625],
    [0.0, 0.0, 0.0, 1.0]
],
  "dcmmeta_reorient_transform": [
    [0.0, -1.0, 0.0, 103.0],
    [1.0, 0.0, 0.0, 0.0],
    [0.0, 0.0, 1.0, 0.0],
    [0.0, 0.0, 0.0, 1.0]
],
  "dcmmeta_shape": [104, 104, 60, 190],
  "dcmmeta_slice_dim": 2,
  "dcmmeta_version": 0.6,
  "global": {
    "const": {
      "AcquisitionMatrix": [104, 0, 0, 104],
      "AngioFlag": "N",
      "BitsAllocated": 16,
      "BitsStored": 16,
      "BodyPartExamined": "BRAIN",
      "Columns": 832,
      "EchoNumbers": 1,
      "EchoTime": 37.0,
      "EchoTrainLength": 104,
      "FlipAngle": 52.0,
      "HighBit": 15,
      "ImageOrientationPatient": [0.99961152116401, 0.00574112511156, 0.02727354466572, 0.00767660929051, 0.88399169531802, -0.4674395707239],
      "ImagePositionPatient": [-839.49802949078, -775.94495864209, 324.56385969362],
      "ImageType": [
        "ORIGINAL",
        "PRIMARY",
        "M",
        "MB",
        "ND",
        "MOSAIC"
],
      "ImagedNucleus": "1H",
      "ImagingFrequency": 123.258881,
      "InPlanePhaseEncodingDirection": "COL",
      "MRAcquisitionType": "2D",
      "MagneticFieldStrength": 3.0,
      "Manufacturer": "SIEMENS",
      "ManufacturerModelName": "Prisma_fit",
      "Modality": "MR",
      "NumberOfAverages": 1.0,
      "NumberOfPhaseEncodingSteps": 104,
      "PercentPhaseFieldOfView": 100.0,
      "PercentSampling": 100.0,
      "PerformedProcedureStepStartTime": "101834.173000",
      "PhotometricInterpretation": "MONOCHROME2",
      "PixelBandwidth": 2290.0,
      "PixelRepresentation": 0,
      "PixelSpacing": [2.0, 2.0],
      "ProtocolName": "func_task-things_run-2",
      "RepetitionTime": 1490.0,
      "Rows": 832,
      "SAR": 0.03769276568359,
      "SamplesPerPixel": 1,
      "ScanOptions": "FS",
      "ScanningSequence": "EP",
      "SequenceName": "epfid2d1_104",
      "SequenceVariant": [
        "SK",
        "SS"
],
      "SeriesDescription": "func_task-things_run-2",
      "SeriesNumber": 13,
      "SeriesTime": "105612.807000",
      "SliceLocation": -53.450087348739,
      "SliceThickness": 2.0,
      "SmallestImagePixelValue": 0,
      "SoftwareVersions": "syngo MR E11",
      "SpacingBetweenSlices": 2.0000000494446,
      "SpecificCharacterSet": "ISO_IR 100",
      "StudyID": "1",
      "StudyTime": "101834.103000",
      "TransmitCoilName": "Body",
      "VariableFlipAngleFlag": "N",
      "WindowCenterWidthExplanation": "Algo1",
      "dBdt": 0.0},
    "slices": {}
  },
  "time": {
    "samples": {
      "AcquisitionNumber": [1, 2, 3, 4, 5, 6, 7, 8, 9, 10, 11, 12, 13, 14, 15, 16, 17, 18, 19, 20, 21, 22, 23, 24, 25, 26, 27, 28, 29, 30, 31, 32, 33, 34, 35, 36, 37, 38, 39, 40, 41, 42, 43, 44, 45, 46, 47, 48, 49, 50, 51, 52, 53, 54, 55, 56, 57, 58, 59, 60, 61, 62, 63, 64, 65, 66, 67, 68, 69, 70, 71, 72, 73, 74, 75, 76, 77, 78, 79, 80, 81, 82, 83, 84, 85, 86, 87, 88, 89, 90, 91, 92, 93, 94, 95, 96, 97, 98, 99, 100, 101, 102, 103, 104, 105, 106, 107, 108, 109, 110, 111, 112, 113, 114, 115, 116, 117, 118, 119, 120, 121, 122, 123, 124, 125, 126, 127, 128, 129, 130, 131, 132, 133, 134, 135, 136, 137, 138, 139, 140, 141, 142, 143, 144, 145, 146, 147, 148, 149, 150, 151, 152, 153, 154, 155, 156, 157, 158, 159, 160, 161, 162, 163, 164, 165, 166, 167, 168, 169, 170, 171, 172, 173, 174, 175, 176, 177, 178, 179, 180, 181, 182, 183, 184, 185, 186, 187, 188, 189, 190],
      "AcquisitionTime": ["105441.442500", "105442.932500", "105444.422500", "105445.912500", "105447.402500", "105448.892500", "105450.382500", "105451.872500", "105453.362500", "105454.852500", "105456.342500", "105457.832500", "105459.322500", "105500.812500", "105502.302500", "105503.792500", "105505.282500", "105506.772500", "105508.262500", "105509.752500", "105511.242500", "105512.732500", "105514.222500", "105515.712500", "105517.202500", "105518.692500", "105520.182500", "105521.672500", "105523.162500", "105524.652500", "105526.142500", "105527.632500", "105529.122500", "105530.612500", "105532.102500", "105533.592500", "105535.082500", "105536.572500", "105538.062500", "105539.552500", "105541.042500", "105542.532500", "105544.022500", "105545.512500", "105547.002500", "105548.492500", "105549.982500", "105551.472500", "105552.962500", "105554.452500", "105555.942500", "105557.432500", "105558.922500", "105600.412500", "105601.902500", "105603.392500", "105604.882500", "105606.372500", "105607.862500", "105609.352500", "105610.842500", "105612.332500", "105613.822500", "105615.312500", "105616.802500", "105618.292500", "105619.782500", "105621.272500", "105622.762500", "105624.252500", "105625.742500", "105627.232500", "105628.722500", "105630.212500", "105631.702500", "105633.192500", "105634.682500", "105636.172500", "105637.662500", "105639.152500", "105640.642500", "105642.132500", "105643.622500", "105645.112500", "105646.602500", "105648.092500", "105649.582500", "105651.072500", "105652.562500", "105654.052500", "105655.542500", "105657.032500", "105658.522500", "105700.012500", "105701.502500", "105702.992500", "105704.482500", "105705.972500", "105707.462500", "105708.952500", "105710.442500", "105711.932500", "105713.422500", "105714.912500", "105716.402500", "105717.892500", "105719.382500", "105720.872500", "105722.362500", "105723.852500", "105725.342500", "105726.832500", "105728.322500", "105729.812500", "105731.302500", "105732.792500", "105734.282500", "105735.772500", "105737.262500", "105738.752500", "105740.242500", "105741.732500", "105743.222500", "105744.712500", "105746.202500", "105747.692500", "105749.182500", "105750.672500", "105752.162500", "105753.652500", "105755.142500", "105756.632500", "105758.122500", "105759.612500", "105801.102500", "105802.592500", "105804.082500", "105805.572500", "105807.062500", "105808.552500", "105810.042500", "105811.532500", "105813.022500", "105814.512500", "105816.002500", "105817.492500", "105818.982500", "105820.472500", "105821.962500", "105823.452500", "105824.942500", "105826.432500", "105827.922500", "105829.412500", "105830.902500", "105832.392500", "105833.882500", "105835.372500", "105836.862500", "105838.352500", "105839.842500", "105841.332500", "105842.822500", "105844.312500", "105845.802500", "105847.292500", "105848.782500", "105850.272500", "105851.762500", "105853.252500", "105854.742500", "105856.232500", "105857.722500", "105859.212500", "105900.702500", "105902.192500", "105903.682500", "105905.172500", "105906.662500", "105908.152500", "105909.642500", "105911.132500", "105912.622500", "105914.112500", "105915.602500", "105917.092500", "105918.582500", "105920.072500", "105921.562500", "105923.052500"],
      "ContentTime": ["105612.810000", "105612.814000", "105612.817000", "105612.821000", "105612.824000", "105612.827000", "105612.831000", "105612.834000", "105612.837000", "105612.841000", "105612.844000", "105612.847000", "105612.851000", "105612.854000", "105612.857000", "105612.860000", "105612.864000", "105612.867000", "105612.871000", "105612.874000", "105612.877000", "105612.880000", "105612.884000", "105612.887000", "105612.890000", "105612.893000", "105612.897000", "105612.900000", "105612.903000", "105612.909000", "105612.913000", "105612.916000", "105612.919000", "105612.922000", "105632.778000", "105632.782000", "105632.785000", "105632.788000", "105632.791000", "105632.795000", "105632.798000", "105632.801000", "105632.804000", "105632.811000", "105632.815000", "105632.818000", "105632.821000", "105632.824000", "105632.828000", "105632.831000", "105632.834000", "105632.838000", "105632.841000", "105632.844000", "105652.778000", "105652.788000", "105652.791000", "105652.795000", "105652.798000", "105652.801000", "105652.805000", "105652.808000", "105652.811000", "105652.815000", "105652.818000", "105652.834000", "105652.837000", "105652.841000", "105652.844000", "105652.847000", "105652.850000", "105652.854000", "105652.857000", "105652.860000", "105712.778000", "105712.782000", "105712.785000", "105712.789000", "105712.792000", "105712.795000", "105712.798000", "105712.801000", "105712.805000", "105712.808000", "105712.811000", "105712.815000", "105712.818000", "105712.821000", "105712.824000", "105712.828000", "105712.831000", "105712.834000", "105712.837000", "105712.841000", "105732.777000", "105732.781000", "105732.784000", "105732.788000", "105732.791000", "105732.794000", "105732.797000", "105732.801000", "105732.804000", "105732.807000", "105732.811000", "105732.814000", "105732.817000", "105732.821000", "105732.824000", "105732.827000", "105732.830000", "105732.834000", "105732.837000", "105732.840000", "105812.777000", "105812.781000", "105812.784000", "105812.788000", "105812.791000", "105812.795000", "105812.798000", "105812.801000", "105812.804000", "105812.808000", "105812.811000", "105812.815000", "105812.818000", "105812.821000", "105812.825000", "105812.828000", "105812.831000", "105812.835000", "105812.838000", "105812.841000", "105812.844000", "105812.848000", "105812.851000", "105812.854000", "105812.857000", "105812.861000", "105812.864000", "105852.778000", "105852.782000", "105852.785000", "105852.789000", "105852.792000", "105852.795000", "105852.799000", "105852.802000", "105852.805000", "105852.808000", "105852.812000", "105852.815000", "105852.818000", "105852.821000", "105852.825000", "105852.828000", "105852.832000", "105852.835000", "105852.838000", "105852.842000", "105852.845000", "105852.848000", "105852.852000", "105852.870000", "105852.873000", "105852.877000", "105925.711000", "105925.714000", "105925.717000", "105925.721000", "105925.725000", "105925.728000", "105925.731000", "105925.739000", "105925.743000", "105925.746000", "105925.750000", "105925.754000", "105925.757000", "105925.760000", "105925.764000", "105925.767000", "105925.793000", "105925.796000", "105925.799000", "105925.803000", "105925.806000", "105925.809000", "105925.812000"],
      "InstanceCreationTime": ["105612.810000", "105612.814000", "105612.817000", "105612.821000", "105612.824000", "105612.827000", "105612.831000", "105612.834000", "105612.837000", "105612.841000", "105612.844000", "105612.847000", "105612.851000", "105612.854000", "105612.857000", "105612.860000", "105612.864000", "105612.867000", "105612.871000", "105612.874000", "105612.877000", "105612.880000", "105612.884000", "105612.887000", "105612.890000", "105612.893000", "105612.897000", "105612.900000", "105612.903000", "105612.909000", "105612.913000", "105612.916000", "105612.919000", "105612.922000", "105632.778000", "105632.782000", "105632.785000", "105632.788000", "105632.791000", "105632.795000", "105632.798000", "105632.801000", "105632.804000", "105632.811000", "105632.815000", "105632.818000", "105632.821000", "105632.824000", "105632.828000", "105632.831000", "105632.834000", "105632.838000", "105632.841000", "105632.844000", "105652.778000", "105652.788000", "105652.791000", "105652.795000", "105652.798000", "105652.801000", "105652.805000", "105652.808000", "105652.811000", "105652.815000", "105652.818000", "105652.834000", "105652.837000", "105652.841000", "105652.844000", "105652.847000", "105652.850000", "105652.854000", "105652.857000", "105652.860000", "105712.778000", "105712.782000", "105712.785000", "105712.789000", "105712.792000", "105712.795000", "105712.798000", "105712.801000", "105712.805000", "105712.808000", "105712.811000", "105712.815000", "105712.818000", "105712.821000", "105712.824000", "105712.828000", "105712.831000", "105712.834000", "105712.837000", "105712.841000", "105732.777000", "105732.781000", "105732.784000", "105732.788000", "105732.791000", "105732.794000", "105732.797000", "105732.801000", "105732.804000", "105732.807000", "105732.811000", "105732.814000", "105732.817000", "105732.821000", "105732.824000", "105732.827000", "105732.830000", "105732.834000", "105732.837000", "105732.840000", "105812.777000", "105812.781000", "105812.784000", "105812.788000", "105812.791000", "105812.795000", "105812.798000", "105812.801000", "105812.804000", "105812.808000", "105812.811000", "105812.815000", "105812.818000", "105812.821000", "105812.825000", "105812.828000", "105812.831000", "105812.835000", "105812.838000", "105812.841000", "105812.844000", "105812.848000", "105812.851000", "105812.854000", "105812.857000", "105812.861000", "105812.864000", "105852.778000", "105852.782000", "105852.785000", "105852.789000", "105852.792000", "105852.795000", "105852.799000", "105852.802000", "105852.805000", "105852.808000", "105852.812000", "105852.815000", "105852.818000", "105852.821000", "105852.825000", "105852.828000", "105852.832000", "105852.835000", "105852.838000", "105852.842000", "105852.845000", "105852.848000", "105852.852000", "105852.870000", "105852.873000", "105852.877000", "105925.711000", "105925.714000", "105925.717000", "105925.721000", "105925.725000", "105925.728000", "105925.731000", "105925.739000", "105925.743000", "105925.746000", "105925.750000", "105925.754000", "105925.757000", "105925.760000", "105925.764000", "105925.767000", "105925.793000", "105925.796000", "105925.799000", "105925.803000", "105925.806000", "105925.809000", "105925.812000"],
      "InstanceNumber": [1, 2, 3, 4, 5, 6, 7, 8, 9, 10, 11, 12, 13, 14, 15, 16, 17, 18, 19, 20, 21, 22, 23, 24, 25, 26, 27, 28, 29, 30, 31, 32, 33, 34, 35, 36, 37, 38, 39, 40, 41, 42, 43, 44, 45, 46, 47, 48, 49, 50, 51, 52, 53, 54, 55, 56, 57, 58, 59, 60, 61, 62, 63, 64, 65, 66, 67, 68, 69, 70, 71, 72, 73, 74, 75, 76, 77, 78, 79, 80, 81, 82, 83, 84, 85, 86, 87, 88, 89, 90, 91, 92, 93, 94, 95, 96, 97, 98, 99, 100, 101, 102, 103, 104, 105, 106, 107, 108, 109, 110, 111, 112, 113, 114, 115, 116, 117, 118, 119, 120, 121, 122, 123, 124, 125, 126, 127, 128, 129, 130, 131, 132, 133, 134, 135, 136, 137, 138, 139, 140, 141, 142, 143, 144, 145, 146, 147, 148, 149, 150, 151, 152, 153, 154, 155, 156, 157, 158, 159, 160, 161, 162, 163, 164, 165, 166, 167, 168, 169, 170, 171, 172, 173, 174, 175, 176, 177, 178, 179, 180, 181, 182, 183, 184, 185, 186, 187, 188, 189, 190],
      "LargestImagePixelValue": [45568, 45025, 43994, 44098, 43787, 44766, 43391, 44784, 44231, 44460, 44238, 44668, 44454, 43720, 44108, 44053, 43943, 44364, 43781, 44362, 43427, 43928, 42751, 44447, 43483, 44301, 45116, 44457, 43297, 44971, 43178, 44764, 43122, 44778, 43401, 45177, 44541, 44461, 43881, 44334, 43328, 43342, 43746, 42740, 44499, 43509, 44804, 43318, 44915, 43982, 44319, 44113, 44247, 42566, 44516, 44237, 43831, 43298, 43597, 42993, 44170, 43232, 44528, 43646, 44289, 44442, 44879, 43688, 43311, 44464, 42976, 43359, 44438, 43966, 44434, 43812, 43396, 44654, 43300, 43685, 44036, 42535, 43892, 43107, 43860, 43218, 43387, 43905, 43133, 43814, 43886, 42697, 43927, 43825, 43286, 43983, 43563, 43843, 43308, 43805, 42861, 43675, 43676, 43459, 43810, 43351, 43517, 43934, 43562, 43307, 44099, 43319, 43440, 43423, 43844, 43553, 43556, 43575, 43115, 43624, 43665, 42409, 43813, 44303, 43527, 43586, 43798, 42971, 44041, 44095, 43436, 43014, 43858, 43932, 43876, 43602, 43480, 43363, 43467, 43222, 43640, 43642, 43813, 42975, 43469, 43587, 44078, 43965, 42207, 44348, 43921, 43653, 43849, 43658, 43064, 43547, 43437, 43685, 43250, 43098, 43569, 43330, 43877, 44266, 43163, 43777, 43798, 44401, 43750, 43577, 44079, 43483, 43540, 43024, 43501, 43263, 43318, 43520, 44180, 44664, 43825, 43419, 44273, 44348, 43719, 42976, 42826, 44260, 42625, 44513],
      "WindowCenter": [10955.0, 10908.0, 10880.0, 10861.0, 10843.0, 10841.0, 10820.0, 10833.0, 10832.0, 10864.0, 10861.0, 10865.0, 10863.0, 10851.0, 10839.0, 10839.0, 10825.0, 10836.0, 10830.0, 10831.0, 10812.0, 10831.0, 10812.0, 10834.0, 10818.0, 10818.0, 10828.0, 10825.0, 10817.0, 10848.0, 10822.0, 10833.0, 10807.0, 10826.0, 10814.0, 10830.0, 10831.0, 10826.0, 10822.0, 10827.0, 10817.0, 10809.0, 10805.0, 10794.0, 10817.0, 10816.0, 10833.0, 10827.0, 10853.0, 10833.0, 10832.0, 10829.0, 10811.0, 10795.0, 10826.0, 10811.0, 10806.0, 10801.0, 10824.0, 10822.0, 10831.0, 10808.0, 10812.0, 10806.0, 10803.0, 10808.0, 10822.0, 10821.0, 10825.0, 10838.0, 10807.0, 10811.0, 10828.0, 10806.0, 10812.0, 10813.0, 10817.0, 10845.0, 10816.0, 10817.0, 10818.0, 10793.0, 10809.0, 10804.0, 10810.0, 10804.0, 10811.0, 10817.0, 10803.0, 10809.0, 10808.0, 10784.0, 10817.0, 10835.0, 10824.0, 10842.0, 10841.0, 10837.0, 10823.0, 10823.0, 10810.0, 10820.0, 10821.0, 10812.0, 10827.0, 10824.0, 10838.0, 10854.0, 10840.0, 10834.0, 10844.0, 10824.0, 10822.0, 10824.0, 10820.0, 10801.0, 10802.0, 10813.0, 10822.0, 10831.0, 10823.0, 10806.0, 10829.0, 10818.0, 10793.0, 10802.0, 10827.0, 10826.0, 10853.0, 10841.0, 10814.0, 10809.0, 10824.0, 10813.0, 10800.0, 10805.0, 10821.0, 10824.0, 10825.0, 10812.0, 10826.0, 10826.0, 10813.0, 10805.0, 10840.0, 10858.0, 10849.0, 10841.0, 10833.0, 10868.0, 10857.0, 10827.0, 10814.0, 10827.0, 10833.0, 10841.0, 10831.0, 10817.0, 10803.0, 10811.0, 10807.0, 10815.0, 10839.0, 10839.0, 10826.0, 10842.0, 10844.0, 10822.0, 10803.0, 10809.0, 10831.0, 10818.0, 10816.0, 10815.0, 10821.0, 10814.0, 10803.0, 10816.0, 10822.0, 10814.0, 10800.0, 10834.0, 10867.0, 10853.0, 10835.0, 10831.0, 10840.0, 10863.0, 10809.0, 10791.0],
      "WindowWidth": [23551.0, 23406.0, 23324.0, 23273.0, 23225.0, 23214.0, 23166.0, 23192.0, 23190.0, 23267.0, 23258.0, 23266.0, 23260.0, 23233.0, 23205.0, 23204.0, 23177.0, 23197.0, 23189.0, 23184.0, 23148.0, 23191.0, 23149.0, 23190.0, 23165.0, 23159.0, 23180.0, 23172.0, 23158.0, 23219.0, 23174.0, 23189.0, 23135.0, 23176.0, 23153.0, 23179.0, 23183.0, 23173.0, 23167.0, 23176.0, 23156.0, 23140.0, 23128.0, 23105.0, 23153.0, 23160.0, 23188.0, 23178.0, 23234.0, 23191.0, 23189.0, 23180.0, 23138.0, 23108.0, 23169.0, 23140.0, 23131.0, 23120.0, 23169.0, 23167.0, 23184.0, 23133.0, 23140.0, 23133.0, 23121.0, 23133.0, 23161.0, 23163.0, 23170.0, 23199.0, 23135.0, 23141.0, 23175.0, 23128.0, 23140.0, 23143.0, 23153.0, 23211.0, 23154.0, 23150.0, 23152.0, 23103.0, 23131.0, 23125.0, 23135.0, 23124.0, 23139.0, 23152.0, 23120.0, 23134.0, 23133.0, 23085.0, 23152.0, 23193.0, 23172.0, 23208.0, 23215.0, 23199.0, 23169.0, 23168.0, 23140.0, 23159.0, 23164.0, 23143.0, 23174.0, 23171.0, 23200.0, 23235.0, 23205.0, 23192.0, 23211.0, 23168.0, 23163.0, 23171.0, 23160.0, 23114.0, 23118.0, 23146.0, 23167.0, 23186.0, 23168.0, 23134.0, 23179.0, 23155.0, 23100.0, 23119.0, 23175.0, 23177.0, 23234.0, 23209.0, 23148.0, 23137.0, 23170.0, 23146.0, 23113.0, 23128.0, 23161.0, 23170.0, 23173.0, 23147.0, 23174.0, 23177.0, 23143.0, 23128.0, 23205.0, 23247.0, 23226.0, 23210.0, 23195.0, 23269.0, 23246.0, 23178.0, 23146.0, 23177.0, 23188.0, 23206.0, 23188.0, 23152.0, 23124.0, 23144.0, 23130.0, 23148.0, 23202.0, 23200.0, 23173.0, 23209.0, 23216.0, 23163.0, 23120.0, 23134.0, 23181.0, 23154.0, 23149.0, 23149.0, 23161.0, 23149.0, 23122.0, 23154.0, 23165.0, 23143.0, 23113.0, 23190.0, 23263.0, 23233.0, 23191.0, 23184.0, 23205.0, 23261.0, 23147.0, 23096.0]
    },
    "slices": {}
  }
}