{
  "AcquisitionMatrixPE": 104,
  "AcquisitionNumber": 1,
  "AcquisitionTime": "16:04:15.420000",
  "BandwidthPerPixelPhaseEncode": 17.17,
  "BaseResolution": 104,
  "BodyPartExamined": "BRAIN",
  "CoilString": "HC1-7;NC1_2",
  "ConsistencyInfo": "N4_VE11C_LATEST_20160120",
  "ConversionSoftware": "dcm2niix",
  "ConversionSoftwareVersion": "v1.0.20190902",
  "DerivedVendorReportedEchoSpacing": 0.000560011,
  "DeviceSerialNumber": "167006",
  "DwellTime": 2.1e-06,
  "EchoTime": 0.037,
  "EchoTrainLength": 104,
  "EffectiveEchoSpacing": 0.000560011,
  "FlipAngle": 52,
  "ImageComments": "Unaliased_MB4_PE3_LB",
  "ImageOrientationPatientDICOM": [0.999362, -0.0354926, 0.00407688, 0.0348985, 0.945415, -0.323994],
  "ImageType": [
    "ORIGINAL",
    "PRIMARY",
    "P",
    "MB",
    "ND",
    "MOSAIC"
],
  "ImagingFrequency": 123.259,
  "InPlanePhaseEncodingDirectionDICOM": "COL",
  "InstitutionAddress": "Chemin_Queen-Mary_4565_Montreal_District_CA_H3W_1W5",
  "InstitutionName": "IUGM",
  "InstitutionalDepartmentName": "Department",
  "MRAcquisitionType": "2D",
  "MagneticFieldStrength": 3,
  "Manufacturer": "Siemens",
  "ManufacturersModelName": "Prisma_fit",
  "Modality": "MR",
  "MultibandAccelerationFactor": 4,
  "PartialFourier": 1,
  "PatientPosition": "HFS",
  "PercentPhaseFOV": 100,
  "PhaseEncodingDirection": "j",
  "PhaseEncodingSteps": 104,
  "PhaseResolution": 1,
  "PixelBandwidth": 2290,
  "ProcedureStepDescription": "memory_things",
  "ProtocolName": "func_task-things_run-6",
  "PulseSequenceDetails": "%CustomerSeq%_cmrr_mbep2d_bold",
  "ReceiveCoilActiveElements": "HC1-7;NC1,2",
  "ReceiveCoilName": "HeadNeck_64",
  "ReconMatrixPE": 104,
  "RepetitionTime": 1.49,
  "SAR": 0.0374755,
  "ScanOptions": "FS",
  "ScanningSequence": "EP",
  "SequenceName": "epfid2d1_104",
  "SequenceVariant": "SK_SS",
  "SeriesDescription": "func_task-things_run-6",
  "SeriesNumber": 26,
  "ShimSetting": [627, -7244, -8814, 605, 9, -149, 30, -14],
  "SliceThickness": 2,
  "SliceTiming": [0, 0.7825, 0.0975, 0.88, 0.195, 0.98, 0.2925, 1.0775, 0.39, 1.175, 0.49, 1.2725, 0.5875, 1.37, 0.685, 0, 0.7825, 0.0975, 0.88, 0.195, 0.98, 0.2925, 1.0775, 0.39, 1.175, 0.49, 1.2725, 0.5875, 1.37, 0.685, 0, 0.7825, 0.0975, 0.88, 0.195, 0.98, 0.2925, 1.0775, 0.39, 1.175, 0.49, 1.2725, 0.5875, 1.37, 0.685, 0, 0.7825, 0.0975, 0.88, 0.195, 0.98, 0.2925, 1.0775, 0.39, 1.175, 0.49, 1.2725, 0.5875, 1.37, 0.685],
  "SoftwareVersions": "syngo_MR_E11",
  "SpacingBetweenSlices": 2,
  "StationName": "MRC35049",
  "TaskName": "things",
  "TotalReadoutTime": 0.0576811,
  "TxRefAmp": 239.22,
  "WipMemBlock": "c79acfe9-fc4b-40a7-acc9-efc46f9610de||Sequence: R016 ve11c/master r/e634e98; Dec 19 2017 11:00:25 by eja",
  "dcmmeta_affine": [
    [-1.9987232685089111, 0.06979690492153168, -0.0152900954708457, 103.27568054199219],
    [0.07098528742790222, 1.8908307552337646, -0.6478580832481384, -69.75907135009766],
    [0.008153751492500305, 0.6479871869087219, 1.8921009302139282, -62.66720199584961],
    [0.0, 0.0, 0.0, 1.0]
],
  "dcmmeta_reorient_transform": [
    [0.0, -1.0, 0.0, 103.0],
    [1.0, 0.0, 0.0, 0.0],
    [0.0, 0.0, 1.0, 0.0],
    [0.0, 0.0, 0.0, 1.0]
],
  "dcmmeta_shape": [104, 104, 60, 190],
  "dcmmeta_slice_dim": 2,
  "dcmmeta_version": 0.6,
  "global": {
    "const": {
      "AcquisitionMatrix": [104, 0, 0, 104],
      "AngioFlag": "N",
      "BitsAllocated": 16,
      "BitsStored": 16,
      "BodyPartExamined": "BRAIN",
      "Columns": 832,
      "EchoNumbers": 1,
      "EchoTime": 37.0,
      "EchoTrainLength": 104,
      "FlipAngle": 52.0,
      "HighBit": 15,
      "ImageOrientationPatient": [0.99936162192752, -0.0354926429382, 0.00407687572231, 0.03489845067501, 0.94541538372808, -0.323993596157],
      "ImagePositionPatient": [-863.40609258449, -787.42025280786, 236.97485149264],
      "ImageType": [
        "ORIGINAL",
        "PRIMARY",
        "P",
        "MB",
        "ND",
        "MOSAIC"
],
      "ImagedNucleus": "1H",
      "ImagingFrequency": 123.258923,
      "InPlanePhaseEncodingDirection": "COL",
      "LargestImagePixelValue": 4095,
      "MRAcquisitionType": "2D",
      "MagneticFieldStrength": 3.0,
      "Manufacturer": "SIEMENS",
      "ManufacturerModelName": "Prisma_fit",
      "Modality": "MR",
      "NumberOfAverages": 1.0,
      "NumberOfPhaseEncodingSteps": 104,
      "PercentPhaseFieldOfView": 100.0,
      "PercentSampling": 100.0,
      "PerformedProcedureStepStartTime": "143227.336000",
      "PhotometricInterpretation": "MONOCHROME2",
      "PixelBandwidth": 2290.0,
      "PixelRepresentation": 0,
      "PixelSpacing": [2.0, 2.0],
      "ProtocolName": "func_task-things_run-6",
      "RepetitionTime": 1490.0,
      "RescaleIntercept": -4096.0,
      "RescaleSlope": 2.0,
      "RescaleType": "US",
      "Rows": 832,
      "SAR": 0.03747551216775,
      "SamplesPerPixel": 1,
      "ScanOptions": "FS",
      "ScanningSequence": "EP",
      "SequenceName": "epfid2d1_104",
      "SequenceVariant": [
        "SK",
        "SS"
],
      "SeriesDescription": "func_task-things_run-6",
      "SeriesNumber": 26,
      "SeriesTime": "160551.810000",
      "SliceLocation": -37.478895214034,
      "SliceThickness": 2.0,
      "SmallestImagePixelValue": 0,
      "SoftwareVersions": "syngo MR E11",
      "SpacingBetweenSlices": 1.9999999457527,
      "SpecificCharacterSet": "ISO_IR 100",
      "StudyID": "1",
      "StudyTime": "143227.277000",
      "TransmitCoilName": "Body",
      "VariableFlipAngleFlag": "N",
      "WindowCenterWidthExplanation": "Algo1",
      "dBdt": 0.0},
    "slices": {}
  },
  "time": {
    "samples": {
      "AcquisitionNumber": [1, 2, 3, 4, 5, 6, 7, 8, 9, 10, 11, 12, 13, 14, 15, 16, 17, 18, 19, 20, 21, 22, 23, 24, 25, 26, 27, 28, 29, 30, 31, 32, 33, 34, 35, 36, 37, 38, 39, 40, 41, 42, 43, 44, 45, 46, 47, 48, 49, 50, 51, 52, 53, 54, 55, 56, 57, 58, 59, 60, 61, 62, 63, 64, 65, 66, 67, 68, 69, 70, 71, 72, 73, 74, 75, 76, 77, 78, 79, 80, 81, 82, 83, 84, 85, 86, 87, 88, 89, 90, 91, 92, 93, 94, 95, 96, 97, 98, 99, 100, 101, 102, 103, 104, 105, 106, 107, 108, 109, 110, 111, 112, 113, 114, 115, 116, 117, 118, 119, 120, 121, 122, 123, 124, 125, 126, 127, 128, 129, 130, 131, 132, 133, 134, 135, 136, 137, 138, 139, 140, 141, 142, 143, 144, 145, 146, 147, 148, 149, 150, 151, 152, 153, 154, 155, 156, 157, 158, 159, 160, 161, 162, 163, 164, 165, 166, 167, 168, 169, 170, 171, 172, 173, 174, 175, 176, 177, 178, 179, 180, 181, 182, 183, 184, 185, 186, 187, 188, 189, 190],
      "AcquisitionTime": ["160415.420000", "160416.910000", "160418.400000", "160419.890000", "160421.380000", "160422.870000", "160424.360000", "160425.850000", "160427.340000", "160428.830000", "160430.320000", "160431.810000", "160433.300000", "160434.790000", "160436.280000", "160437.770000", "160439.260000", "160440.750000", "160442.240000", "160443.730000", "160445.220000", "160446.710000", "160448.200000", "160449.690000", "160451.180000", "160452.670000", "160454.160000", "160455.650000", "160457.140000", "160458.630000", "160500.120000", "160501.610000", "160503.100000", "160504.590000", "160506.080000", "160507.570000", "160509.060000", "160510.550000", "160512.040000", "160513.530000", "160515.020000", "160516.510000", "160518.000000", "160519.490000", "160520.980000", "160522.470000", "160523.960000", "160525.450000", "160526.940000", "160528.430000", "160529.920000", "160531.410000", "160532.900000", "160534.390000", "160535.880000", "160537.370000", "160538.860000", "160540.350000", "160541.840000", "160543.330000", "160544.820000", "160546.310000", "160547.800000", "160549.290000", "160550.780000", "160552.270000", "160553.760000", "160555.250000", "160556.740000", "160558.230000", "160559.720000", "160601.210000", "160602.700000", "160604.190000", "160605.680000", "160607.170000", "160608.660000", "160610.150000", "160611.640000", "160613.130000", "160614.620000", "160616.110000", "160617.600000", "160619.090000", "160620.580000", "160622.070000", "160623.560000", "160625.050000", "160626.540000", "160628.030000", "160629.520000", "160631.010000", "160632.500000", "160633.990000", "160635.480000", "160636.970000", "160638.460000", "160639.950000", "160641.440000", "160642.930000", "160644.420000", "160645.910000", "160647.400000", "160648.890000", "160650.380000", "160651.870000", "160653.360000", "160654.850000", "160656.340000", "160657.830000", "160659.320000", "160700.810000", "160702.300000", "160703.790000", "160705.280000", "160706.770000", "160708.260000", "160709.750000", "160711.240000", "160712.730000", "160714.220000", "160715.710000", "160717.200000", "160718.690000", "160720.180000", "160721.670000", "160723.160000", "160724.650000", "160726.140000", "160727.630000", "160729.120000", "160730.610000", "160732.100000", "160733.590000", "160735.080000", "160736.570000", "160738.060000", "160739.550000", "160741.040000", "160742.530000", "160744.020000", "160745.510000", "160747.000000", "160748.490000", "160749.980000", "160751.470000", "160752.960000", "160754.450000", "160755.940000", "160757.430000", "160758.920000", "160800.410000", "160801.900000", "160803.390000", "160804.880000", "160806.370000", "160807.860000", "160809.350000", "160810.840000", "160812.330000", "160813.820000", "160815.310000", "160816.800000", "160818.290000", "160819.780000", "160821.270000", "160822.760000", "160824.250000", "160825.740000", "160827.230000", "160828.720000", "160830.210000", "160831.700000", "160833.190000", "160834.680000", "160836.170000", "160837.660000", "160839.150000", "160840.640000", "160842.130000", "160843.620000", "160845.110000", "160846.600000", "160848.090000", "160849.580000", "160851.070000", "160852.560000", "160854.050000", "160855.540000", "160857.030000"],
      "ContentTime": ["160551.812000", "160551.815000", "160551.818000", "160551.820000", "160551.823000", "160551.826000", "160551.828000", "160551.831000", "160551.833000", "160551.836000", "160551.838000", "160551.841000", "160551.843000", "160551.846000", "160551.849000", "160551.851000", "160551.853000", "160551.856000", "160551.859000", "160551.861000", "160551.864000", "160551.867000", "160551.869000", "160551.872000", "160551.874000", "160551.877000", "160551.879000", "160551.882000", "160551.884000", "160551.887000", "160551.890000", "160551.892000", "160551.895000", "160551.897000", "160551.900000", "160551.902000", "160551.905000", "160551.907000", "160611.678000", "160611.681000", "160611.683000", "160611.686000", "160611.688000", "160611.691000", "160611.693000", "160611.696000", "160611.698000", "160611.701000", "160611.703000", "160611.706000", "160611.708000", "160611.711000", "160611.714000", "160611.716000", "160611.719000", "160611.721000", "160611.724000", "160611.726000", "160611.729000", "160631.667000", "160631.669000", "160631.672000", "160631.674000", "160631.677000", "160631.680000", "160631.682000", "160631.685000", "160631.687000", "160631.690000", "160631.692000", "160631.695000", "160631.697000", "160631.700000", "160631.702000", "160631.705000", "160631.708000", "160631.710000", "160631.713000", "160631.715000", "160651.688000", "160651.691000", "160651.694000", "160651.696000", "160651.699000", "160651.701000", "160651.704000", "160651.706000", "160651.714000", "160651.718000", "160651.722000", "160651.725000", "160651.728000", "160651.731000", "160651.735000", "160651.737000", "160651.740000", "160651.742000", "160651.745000", "160651.748000", "160731.725000", "160731.728000", "160731.731000", "160731.733000", "160731.736000", "160731.738000", "160731.741000", "160731.743000", "160731.746000", "160731.749000", "160731.751000", "160731.754000", "160731.756000", "160731.759000", "160731.761000", "160731.764000", "160731.766000", "160731.769000", "160731.772000", "160731.774000", "160731.777000", "160731.780000", "160731.782000", "160731.785000", "160731.787000", "160731.790000", "160731.793000", "160731.796000", "160731.798000", "160731.801000", "160731.804000", "160811.699000", "160811.701000", "160811.704000", "160811.707000", "160811.709000", "160811.712000", "160811.714000", "160811.717000", "160811.719000", "160811.723000", "160811.726000", "160811.728000", "160811.731000", "160811.734000", "160811.736000", "160811.739000", "160811.741000", "160811.744000", "160811.746000", "160811.749000", "160811.752000", "160811.754000", "160811.757000", "160811.759000", "160811.762000", "160811.764000", "160811.767000", "160851.701000", "160851.704000", "160851.714000", "160851.717000", "160851.719000", "160851.722000", "160851.724000", "160851.727000", "160851.729000", "160851.732000", "160851.735000", "160851.737000", "160851.740000", "160851.742000", "160851.745000", "160851.748000", "160851.750000", "160851.753000", "160851.755000", "160851.758000", "160851.760000", "160851.769000", "160851.772000", "160851.774000", "160851.777000", "160851.779000", "160851.782000", "160859.646000", "160859.649000", "160859.651000", "160859.654000", "160859.657000", "160859.659000"],
      "InstanceCreationTime": ["160551.812000", "160551.815000", "160551.818000", "160551.820000", "160551.823000", "160551.826000", "160551.828000", "160551.831000", "160551.833000", "160551.836000", "160551.838000", "160551.841000", "160551.843000", "160551.846000", "160551.849000", "160551.851000", "160551.853000", "160551.856000", "160551.859000", "160551.861000", "160551.864000", "160551.867000", "160551.869000", "160551.872000", "160551.874000", "160551.877000", "160551.879000", "160551.882000", "160551.884000", "160551.887000", "160551.890000", "160551.892000", "160551.895000", "160551.897000", "160551.900000", "160551.902000", "160551.905000", "160551.907000", "160611.678000", "160611.681000", "160611.683000", "160611.686000", "160611.688000", "160611.691000", "160611.693000", "160611.696000", "160611.698000", "160611.701000", "160611.703000", "160611.706000", "160611.708000", "160611.711000", "160611.714000", "160611.716000", "160611.719000", "160611.721000", "160611.724000", "160611.726000", "160611.729000", "160631.667000", "160631.669000", "160631.672000", "160631.674000", "160631.677000", "160631.680000", "160631.682000", "160631.685000", "160631.687000", "160631.690000", "160631.692000", "160631.695000", "160631.697000", "160631.700000", "160631.702000", "160631.705000", "160631.708000", "160631.710000", "160631.713000", "160631.715000", "160651.688000", "160651.691000", "160651.694000", "160651.696000", "160651.699000", "160651.701000", "160651.704000", "160651.706000", "160651.714000", "160651.718000", "160651.722000", "160651.725000", "160651.728000", "160651.731000", "160651.735000", "160651.737000", "160651.740000", "160651.742000", "160651.745000", "160651.748000", "160731.725000", "160731.728000", "160731.731000", "160731.733000", "160731.736000", "160731.738000", "160731.741000", "160731.743000", "160731.746000", "160731.749000", "160731.751000", "160731.754000", "160731.756000", "160731.759000", "160731.761000", "160731.764000", "160731.766000", "160731.769000", "160731.772000", "160731.774000", "160731.777000", "160731.780000", "160731.782000", "160731.785000", "160731.787000", "160731.790000", "160731.793000", "160731.796000", "160731.798000", "160731.801000", "160731.804000", "160811.699000", "160811.701000", "160811.704000", "160811.707000", "160811.709000", "160811.712000", "160811.714000", "160811.717000", "160811.719000", "160811.723000", "160811.726000", "160811.728000", "160811.731000", "160811.734000", "160811.736000", "160811.739000", "160811.741000", "160811.744000", "160811.746000", "160811.749000", "160811.752000", "160811.754000", "160811.757000", "160811.759000", "160811.762000", "160811.764000", "160811.767000", "160851.701000", "160851.704000", "160851.714000", "160851.717000", "160851.719000", "160851.722000", "160851.724000", "160851.727000", "160851.729000", "160851.732000", "160851.735000", "160851.737000", "160851.740000", "160851.742000", "160851.745000", "160851.748000", "160851.750000", "160851.753000", "160851.755000", "160851.758000", "160851.760000", "160851.769000", "160851.772000", "160851.774000", "160851.777000", "160851.779000", "160851.782000", "160859.646000", "160859.649000", "160859.651000", "160859.654000", "160859.657000", "160859.659000"],
      "InstanceNumber": [1, 2, 3, 4, 5, 6, 7, 8, 9, 10, 11, 12, 13, 14, 15, 16, 17, 18, 19, 20, 21, 22, 23, 24, 25, 26, 27, 28, 29, 30, 31, 32, 33, 34, 35, 36, 37, 38, 39, 40, 41, 42, 43, 44, 45, 46, 47, 48, 49, 50, 51, 52, 53, 54, 55, 56, 57, 58, 59, 60, 61, 62, 63, 64, 65, 66, 67, 68, 69, 70, 71, 72, 73, 74, 75, 76, 77, 78, 79, 80, 81, 82, 83, 84, 85, 86, 87, 88, 89, 90, 91, 92, 93, 94, 95, 96, 97, 98, 99, 100, 101, 102, 103, 104, 105, 106, 107, 108, 109, 110, 111, 112, 113, 114, 115, 116, 117, 118, 119, 120, 121, 122, 123, 124, 125, 126, 127, 128, 129, 130, 131, 132, 133, 134, 135, 136, 137, 138, 139, 140, 141, 142, 143, 144, 145, 146, 147, 148, 149, 150, 151, 152, 153, 154, 155, 156, 157, 158, 159, 160, 161, 162, 163, 164, 165, 166, 167, 168, 169, 170, 171, 172, 173, 174, 175, 176, 177, 178, 179, 180, 181, 182, 183, 184, 185, 186, 187, 188, 189, 190],
      "WindowCenter": [4784.0, 4778.0, 4782.0, 4782.0, 4782.0, 4786.0, 4792.0, 4784.0, 4786.0, 4782.0, 4780.0, 4784.0, 4782.0, 4782.0, 4780.0, 4782.0, 4788.0, 4786.0, 4782.0, 4780.0, 4786.0, 4784.0, 4784.0, 4784.0, 4786.0, 4780.0, 4786.0, 4784.0, 4788.0, 4790.0, 4782.0, 4788.0, 4790.0, 4780.0, 4810.0, 4808.0, 4810.0, 4784.0, 4784.0, 4790.0, 4824.0, 4798.0, 4788.0, 4788.0, 4808.0, 4810.0, 4788.0, 4786.0, 4784.0, 4788.0, 4788.0, 4792.0, 4790.0, 4788.0, 4784.0, 4782.0, 4786.0, 4786.0, 4784.0, 4762.0, 4790.0, 4784.0, 4784.0, 4786.0, 4782.0, 4784.0, 4784.0, 4784.0, 4788.0, 4790.0, 4786.0, 4784.0, 4784.0, 4782.0, 4786.0, 4778.0, 4786.0, 4786.0, 4786.0, 4788.0, 4786.0, 4786.0, 4784.0, 4782.0, 4782.0, 4786.0, 4784.0, 4788.0, 4788.0, 4782.0, 4760.0, 4810.0, 4812.0, 4790.0, 4790.0, 4790.0, 4786.0, 4790.0, 4800.0, 4826.0, 4800.0, 4778.0, 4806.0, 4802.0, 4812.0, 4812.0, 4786.0, 4794.0, 4824.0, 4800.0, 4792.0, 4786.0, 4784.0, 4810.0, 4810.0, 4788.0, 4782.0, 4784.0, 4798.0, 4792.0, 4788.0, 4786.0, 4786.0, 4782.0, 4786.0, 4786.0, 4786.0, 4784.0, 4784.0, 4784.0, 4784.0, 4786.0, 4784.0, 4786.0, 4786.0, 4788.0, 4790.0, 4784.0, 4784.0, 4782.0, 4784.0, 4782.0, 4786.0, 4786.0, 4788.0, 4788.0, 4790.0, 4798.0, 4790.0, 4784.0, 4808.0, 4810.0, 4782.0, 4782.0, 4792.0, 4788.0, 4794.0, 4792.0, 4784.0, 4782.0, 4782.0, 4782.0, 4784.0, 4784.0, 4784.0, 4786.0, 4796.0, 4792.0, 4784.0, 4780.0, 4778.0, 4782.0, 4784.0, 4786.0, 4790.0, 4786.0, 4784.0, 4786.0, 4784.0, 4784.0, 4784.0, 4782.0, 4782.0, 4784.0, 4784.0, 4796.0, 4792.0, 4784.0, 4784.0, 4788.0],
      "WindowWidth": [18568.0, 18572.0, 18568.0, 18566.0, 18568.0, 18556.0, 18554.0, 18548.0, 18552.0, 18556.0, 18554.0, 18568.0, 18564.0, 18564.0, 18564.0, 18556.0, 18550.0, 18552.0, 18558.0, 18554.0, 18552.0, 18570.0, 18570.0, 18570.0, 18568.0, 18556.0, 18562.0, 18556.0, 18552.0, 18554.0, 18552.0, 18552.0, 18542.0, 18558.0, 18612.0, 18612.0, 18614.0, 18556.0, 18544.0, 18546.0, 18580.0, 18556.0, 18552.0, 18576.0, 18616.0, 18618.0, 18558.0, 18558.0, 18554.0, 18560.0, 18550.0, 18550.0, 18560.0, 18562.0, 18570.0, 18564.0, 18562.0, 18564.0, 18560.0, 18516.0, 18540.0, 18550.0, 18564.0, 18582.0, 18578.0, 18580.0, 18568.0, 18560.0, 18554.0, 18542.0, 18548.0, 18558.0, 18566.0, 18568.0, 18570.0, 18562.0, 18554.0, 18558.0, 18564.0, 18556.0, 18558.0, 18562.0, 18564.0, 18560.0, 18558.0, 18550.0, 18550.0, 18546.0, 18558.0, 18554.0, 18528.0, 18596.0, 18602.0, 18562.0, 18564.0, 18560.0, 18554.0, 18544.0, 18542.0, 18578.0, 18548.0, 18562.0, 18624.0, 18620.0, 18620.0, 18614.0, 18552.0, 18550.0, 18578.0, 18544.0, 18546.0, 18556.0, 18576.0, 18614.0, 18620.0, 18588.0, 18568.0, 18554.0, 18546.0, 18554.0, 18556.0, 18560.0, 18548.0, 18558.0, 18578.0, 18574.0, 18560.0, 18562.0, 18560.0, 18546.0, 18556.0, 18562.0, 18560.0, 18566.0, 18562.0, 18546.0, 18552.0, 18568.0, 18568.0, 18570.0, 18572.0, 18560.0, 18564.0, 18558.0, 18556.0, 18558.0, 18552.0, 18550.0, 18550.0, 18576.0, 18616.0, 18622.0, 18582.0, 18564.0, 18558.0, 18552.0, 18544.0, 18554.0, 18552.0, 18552.0, 18570.0, 18562.0, 18578.0, 18580.0, 18576.0, 18562.0, 18550.0, 18554.0, 18556.0, 18566.0, 18562.0, 18572.0, 18564.0, 18554.0, 18552.0, 18562.0, 18560.0, 18562.0, 18562.0, 18564.0, 18566.0, 18568.0, 18560.0, 18558.0, 18554.0, 18550.0, 18550.0, 18546.0, 18560.0, 18546.0]
    },
    "slices": {}
  }
}