{
  "AcquisitionMatrixPE": 104,
  "AcquisitionNumber": 1,
  "AcquisitionTime": "15:57:58.217500",
  "BandwidthPerPixelPhaseEncode": 17.17,
  "BaseResolution": 104,
  "BodyPartExamined": "BRAIN",
  "CoilString": "HC1-7;NC1_2",
  "ConsistencyInfo": "N4_VE11C_LATEST_20160120",
  "ConversionSoftware": "dcm2niix",
  "ConversionSoftwareVersion": "v1.0.20190902",
  "DerivedVendorReportedEchoSpacing": 0.000560011,
  "DeviceSerialNumber": "167006",
  "DwellTime": 2.1e-06,
  "EchoTime": 0.037,
  "EchoTrainLength": 104,
  "EffectiveEchoSpacing": 0.000560011,
  "FlipAngle": 52,
  "ImageComments": "Unaliased_MB4_PE3_LB",
  "ImageOrientationPatientDICOM": [0.999362, -0.0354926, 0.00407688, 0.0348985, 0.945415, -0.323994],
  "ImageType": [
    "ORIGINAL",
    "PRIMARY",
    "P",
    "MB",
    "ND",
    "MOSAIC"
],
  "ImagingFrequency": 123.259,
  "InPlanePhaseEncodingDirectionDICOM": "COL",
  "InstitutionAddress": "Chemin_Queen-Mary_4565_Montreal_District_CA_H3W_1W5",
  "InstitutionName": "IUGM",
  "InstitutionalDepartmentName": "Department",
  "MRAcquisitionType": "2D",
  "MagneticFieldStrength": 3,
  "Manufacturer": "Siemens",
  "ManufacturersModelName": "Prisma_fit",
  "Modality": "MR",
  "MultibandAccelerationFactor": 4,
  "PartialFourier": 1,
  "PatientPosition": "HFS",
  "PercentPhaseFOV": 100,
  "PhaseEncodingDirection": "j",
  "PhaseEncodingSteps": 104,
  "PhaseResolution": 1,
  "PixelBandwidth": 2290,
  "ProcedureStepDescription": "memory_things",
  "ProtocolName": "func_task-things_run-5",
  "PulseSequenceDetails": "%CustomerSeq%_cmrr_mbep2d_bold",
  "ReceiveCoilActiveElements": "HC1-7;NC1,2",
  "ReceiveCoilName": "HeadNeck_64",
  "ReconMatrixPE": 104,
  "RepetitionTime": 1.49,
  "SAR": 0.0374755,
  "ScanOptions": "FS",
  "ScanningSequence": "EP",
  "SequenceName": "epfid2d1_104",
  "SequenceVariant": "SK_SS",
  "SeriesDescription": "func_task-things_run-5",
  "SeriesNumber": 23,
  "ShimSetting": [627, -7244, -8814, 605, 9, -149, 30, -14],
  "SliceThickness": 2,
  "SliceTiming": [0, 0.7825, 0.0975, 0.8825, 0.195, 0.98, 0.2925, 1.0775, 0.3925, 1.175, 0.49, 1.2725, 0.5875, 1.3725, 0.685, 0, 0.7825, 0.0975, 0.8825, 0.195, 0.98, 0.2925, 1.0775, 0.3925, 1.175, 0.49, 1.2725, 0.5875, 1.3725, 0.685, 0, 0.7825, 0.0975, 0.8825, 0.195, 0.98, 0.2925, 1.0775, 0.3925, 1.175, 0.49, 1.2725, 0.5875, 1.3725, 0.685, 0, 0.7825, 0.0975, 0.8825, 0.195, 0.98, 0.2925, 1.0775, 0.3925, 1.175, 0.49, 1.2725, 0.5875, 1.3725, 0.685],
  "SoftwareVersions": "syngo_MR_E11",
  "SpacingBetweenSlices": 2,
  "StationName": "MRC35049",
  "TaskName": "things",
  "TotalReadoutTime": 0.0576811,
  "TxRefAmp": 239.22,
  "WipMemBlock": "82324db5-242c-4d87-905b-ee8868c17110||Sequence: R016 ve11c/master r/e634e98; Dec 19 2017 11:00:25 by eja",
  "dcmmeta_affine": [
    [-1.9987232685089111, 0.06979690492153168, -0.0152900954708457, 103.27568054199219],
    [0.07098528742790222, 1.8908307552337646, -0.6478580832481384, -69.75907135009766],
    [0.008153751492500305, 0.6479871869087219, 1.8921009302139282, -62.66720199584961],
    [0.0, 0.0, 0.0, 1.0]
],
  "dcmmeta_reorient_transform": [
    [0.0, -1.0, 0.0, 103.0],
    [1.0, 0.0, 0.0, 0.0],
    [0.0, 0.0, 1.0, 0.0],
    [0.0, 0.0, 0.0, 1.0]
],
  "dcmmeta_shape": [104, 104, 60, 190],
  "dcmmeta_slice_dim": 2,
  "dcmmeta_version": 0.6,
  "global": {
    "const": {
      "AcquisitionMatrix": [104, 0, 0, 104],
      "AngioFlag": "N",
      "BitsAllocated": 16,
      "BitsStored": 16,
      "BodyPartExamined": "BRAIN",
      "Columns": 832,
      "EchoNumbers": 1,
      "EchoTime": 37.0,
      "EchoTrainLength": 104,
      "FlipAngle": 52.0,
      "HighBit": 15,
      "ImageOrientationPatient": [0.99936162192752, -0.0354926429382, 0.00407687572231, 0.03489845067501, 0.94541538372808, -0.323993596157],
      "ImagePositionPatient": [-863.40609258449, -787.42025280786, 236.97485149264],
      "ImageType": [
        "ORIGINAL",
        "PRIMARY",
        "P",
        "MB",
        "ND",
        "MOSAIC"
],
      "ImagedNucleus": "1H",
      "ImagingFrequency": 123.258923,
      "InPlanePhaseEncodingDirection": "COL",
      "LargestImagePixelValue": 4095,
      "MRAcquisitionType": "2D",
      "MagneticFieldStrength": 3.0,
      "Manufacturer": "SIEMENS",
      "ManufacturerModelName": "Prisma_fit",
      "Modality": "MR",
      "NumberOfAverages": 1.0,
      "NumberOfPhaseEncodingSteps": 104,
      "PercentPhaseFieldOfView": 100.0,
      "PercentSampling": 100.0,
      "PerformedProcedureStepStartTime": "143227.336000",
      "PhotometricInterpretation": "MONOCHROME2",
      "PixelBandwidth": 2290.0,
      "PixelRepresentation": 0,
      "PixelSpacing": [2.0, 2.0],
      "ProtocolName": "func_task-things_run-5",
      "RepetitionTime": 1490.0,
      "RescaleIntercept": -4096.0,
      "RescaleSlope": 2.0,
      "RescaleType": "US",
      "Rows": 832,
      "SAR": 0.03747551216775,
      "SamplesPerPixel": 1,
      "ScanOptions": "FS",
      "ScanningSequence": "EP",
      "SequenceName": "epfid2d1_104",
      "SequenceVariant": [
        "SK",
        "SS"
],
      "SeriesDescription": "func_task-things_run-5",
      "SeriesNumber": 23,
      "SeriesTime": "155923.333000",
      "SliceLocation": -37.478895214034,
      "SliceThickness": 2.0,
      "SmallestImagePixelValue": 0,
      "SoftwareVersions": "syngo MR E11",
      "SpacingBetweenSlices": 1.9999999457527,
      "SpecificCharacterSet": "ISO_IR 100",
      "StudyID": "1",
      "StudyTime": "143227.277000",
      "TransmitCoilName": "Body",
      "VariableFlipAngleFlag": "N",
      "WindowCenterWidthExplanation": "Algo1",
      "dBdt": 0.0},
    "slices": {}
  },
  "time": {
    "samples": {
      "AcquisitionNumber": [1, 2, 3, 4, 5, 6, 7, 8, 9, 10, 11, 12, 13, 14, 15, 16, 17, 18, 19, 20, 21, 22, 23, 24, 25, 26, 27, 28, 29, 30, 31, 32, 33, 34, 35, 36, 37, 38, 39, 40, 41, 42, 43, 44, 45, 46, 47, 48, 49, 50, 51, 52, 53, 54, 55, 56, 57, 58, 59, 60, 61, 62, 63, 64, 65, 66, 67, 68, 69, 70, 71, 72, 73, 74, 75, 76, 77, 78, 79, 80, 81, 82, 83, 84, 85, 86, 87, 88, 89, 90, 91, 92, 93, 94, 95, 96, 97, 98, 99, 100, 101, 102, 103, 104, 105, 106, 107, 108, 109, 110, 111, 112, 113, 114, 115, 116, 117, 118, 119, 120, 121, 122, 123, 124, 125, 126, 127, 128, 129, 130, 131, 132, 133, 134, 135, 136, 137, 138, 139, 140, 141, 142, 143, 144, 145, 146, 147, 148, 149, 150, 151, 152, 153, 154, 155, 156, 157, 158, 159, 160, 161, 162, 163, 164, 165, 166, 167, 168, 169, 170, 171, 172, 173, 174, 175, 176, 177, 178, 179, 180, 181, 182, 183, 184, 185, 186, 187, 188, 189, 190],
      "AcquisitionTime": ["155758.217500", "155759.707500", "155801.197500", "155802.687500", "155804.177500", "155805.667500", "155807.157500", "155808.647500", "155810.137500", "155811.627500", "155813.117500", "155814.607500", "155816.097500", "155817.587500", "155819.077500", "155820.567500", "155822.057500", "155823.547500", "155825.037500", "155826.527500", "155828.017500", "155829.507500", "155830.997500", "155832.487500", "155833.977500", "155835.467500", "155836.957500", "155838.447500", "155839.937500", "155841.427500", "155842.917500", "155844.407500", "155845.897500", "155847.387500", "155848.877500", "155850.367500", "155851.857500", "155853.347500", "155854.837500", "155856.327500", "155857.817500", "155859.307500", "155900.797500", "155902.287500", "155903.777500", "155905.267500", "155906.757500", "155908.247500", "155909.737500", "155911.227500", "155912.717500", "155914.207500", "155915.697500", "155917.187500", "155918.677500", "155920.167500", "155921.657500", "155923.147500", "155924.637500", "155926.127500", "155927.617500", "155929.107500", "155930.597500", "155932.087500", "155933.577500", "155935.067500", "155936.557500", "155938.047500", "155939.537500", "155941.027500", "155942.517500", "155944.007500", "155945.497500", "155946.987500", "155948.477500", "155949.967500", "155951.457500", "155952.947500", "155954.437500", "155955.927500", "155957.417500", "155958.907500", "160000.397500", "160001.887500", "160003.377500", "160004.867500", "160006.357500", "160007.847500", "160009.337500", "160010.827500", "160012.317500", "160013.807500", "160015.297500", "160016.787500", "160018.277500", "160019.767500", "160021.257500", "160022.747500", "160024.237500", "160025.727500", "160027.217500", "160028.707500", "160030.197500", "160031.687500", "160033.177500", "160034.667500", "160036.157500", "160037.647500", "160039.137500", "160040.627500", "160042.117500", "160043.607500", "160045.097500", "160046.587500", "160048.077500", "160049.567500", "160051.057500", "160052.547500", "160054.037500", "160055.527500", "160057.017500", "160058.507500", "160059.997500", "160101.487500", "160102.977500", "160104.467500", "160105.957500", "160107.447500", "160108.937500", "160110.427500", "160111.917500", "160113.407500", "160114.897500", "160116.387500", "160117.877500", "160119.367500", "160120.857500", "160122.347500", "160123.837500", "160125.327500", "160126.817500", "160128.307500", "160129.797500", "160131.287500", "160132.777500", "160134.267500", "160135.757500", "160137.247500", "160138.737500", "160140.227500", "160141.717500", "160143.207500", "160144.697500", "160146.187500", "160147.677500", "160149.167500", "160150.657500", "160152.147500", "160153.637500", "160155.127500", "160156.617500", "160158.107500", "160159.597500", "160201.087500", "160202.577500", "160204.067500", "160205.557500", "160207.047500", "160208.537500", "160210.027500", "160211.517500", "160213.007500", "160214.497500", "160215.987500", "160217.477500", "160218.967500", "160220.457500", "160221.947500", "160223.437500", "160224.927500", "160226.417500", "160227.907500", "160229.397500", "160230.887500", "160232.377500", "160233.867500", "160235.357500", "160236.847500", "160238.337500", "160239.827500"],
      "ContentTime": ["155923.336000", "155923.339000", "155923.342000", "155923.344000", "155923.347000", "155923.350000", "155923.352000", "155923.355000", "155923.358000", "155923.360000", "155923.363000", "155923.366000", "155923.369000", "155923.371000", "155923.374000", "155923.377000", "155923.379000", "155923.382000", "155923.385000", "155923.387000", "155923.390000", "155923.393000", "155923.396000", "155923.398000", "155923.401000", "155923.404000", "155923.406000", "155923.409000", "155923.412000", "155923.414000", "155923.417000", "155923.420000", "155943.201000", "155943.204000", "155943.206000", "155943.209000", "155943.211000", "155943.214000", "155943.217000", "155943.219000", "155943.222000", "155943.224000", "155943.227000", "155943.229000", "155943.232000", "155943.235000", "155943.238000", "155943.241000", "155943.244000", "155943.247000", "155943.249000", "155943.252000", "160003.216000", "160003.219000", "160003.221000", "160003.224000", "160003.236000", "160003.239000", "160003.241000", "160003.244000", "160003.247000", "160003.249000", "160003.252000", "160003.254000", "160003.257000", "160003.259000", "160003.262000", "160003.264000", "160003.267000", "160003.269000", "160003.272000", "160003.274000", "160023.192000", "160023.195000", "160023.197000", "160023.200000", "160023.203000", "160023.205000", "160023.208000", "160023.210000", "160023.213000", "160023.215000", "160023.218000", "160023.221000", "160023.223000", "160023.226000", "160023.228000", "160023.231000", "160023.233000", "160023.236000", "160023.238000", "160023.241000", "160023.243000", "160103.253000", "160103.255000", "160103.258000", "160103.260000", "160103.263000", "160103.266000", "160103.268000", "160103.271000", "160103.273000", "160103.276000", "160103.278000", "160103.281000", "160103.283000", "160103.286000", "160103.288000", "160103.291000", "160103.294000", "160103.296000", "160103.299000", "160103.301000", "160103.304000", "160103.306000", "160103.309000", "160103.311000", "160103.314000", "160103.317000", "160103.319000", "160103.322000", "160103.324000", "160103.327000", "160143.231000", "160143.234000", "160143.237000", "160143.239000", "160143.242000", "160143.244000", "160143.247000", "160143.250000", "160143.252000", "160143.255000", "160143.257000", "160143.260000", "160143.263000", "160143.266000", "160143.269000", "160143.272000", "160143.275000", "160143.277000", "160143.280000", "160143.282000", "160143.285000", "160143.287000", "160143.290000", "160143.293000", "160143.295000", "160143.298000", "160143.300000", "160223.245000", "160223.247000", "160223.250000", "160223.252000", "160223.255000", "160223.258000", "160223.260000", "160223.263000", "160223.265000", "160223.268000", "160223.271000", "160223.273000", "160223.276000", "160223.278000", "160223.281000", "160223.283000", "160223.286000", "160223.289000", "160223.291000", "160223.294000", "160223.296000", "160223.299000", "160223.302000", "160223.304000", "160223.307000", "160223.309000", "160223.312000", "160242.131000", "160242.133000", "160242.136000", "160242.139000", "160242.141000", "160242.148000", "160242.151000", "160242.154000", "160242.157000", "160242.159000", "160242.162000", "160242.165000", "160242.167000"],
      "InstanceCreationTime": ["155923.336000", "155923.339000", "155923.342000", "155923.344000", "155923.347000", "155923.350000", "155923.352000", "155923.355000", "155923.358000", "155923.360000", "155923.363000", "155923.366000", "155923.369000", "155923.371000", "155923.374000", "155923.377000", "155923.379000", "155923.382000", "155923.385000", "155923.387000", "155923.390000", "155923.393000", "155923.396000", "155923.398000", "155923.401000", "155923.404000", "155923.406000", "155923.409000", "155923.412000", "155923.414000", "155923.417000", "155923.420000", "155943.201000", "155943.204000", "155943.206000", "155943.209000", "155943.211000", "155943.214000", "155943.217000", "155943.219000", "155943.222000", "155943.224000", "155943.227000", "155943.229000", "155943.232000", "155943.235000", "155943.238000", "155943.241000", "155943.244000", "155943.247000", "155943.249000", "155943.252000", "160003.216000", "160003.219000", "160003.221000", "160003.224000", "160003.236000", "160003.239000", "160003.241000", "160003.244000", "160003.247000", "160003.249000", "160003.252000", "160003.254000", "160003.257000", "160003.259000", "160003.262000", "160003.264000", "160003.267000", "160003.269000", "160003.272000", "160003.274000", "160023.192000", "160023.195000", "160023.197000", "160023.200000", "160023.203000", "160023.205000", "160023.208000", "160023.210000", "160023.213000", "160023.215000", "160023.218000", "160023.221000", "160023.223000", "160023.226000", "160023.228000", "160023.231000", "160023.233000", "160023.236000", "160023.238000", "160023.241000", "160023.243000", "160103.253000", "160103.255000", "160103.258000", "160103.260000", "160103.263000", "160103.266000", "160103.268000", "160103.271000", "160103.273000", "160103.276000", "160103.278000", "160103.281000", "160103.283000", "160103.286000", "160103.288000", "160103.291000", "160103.294000", "160103.296000", "160103.299000", "160103.301000", "160103.304000", "160103.306000", "160103.309000", "160103.311000", "160103.314000", "160103.317000", "160103.319000", "160103.322000", "160103.324000", "160103.327000", "160143.231000", "160143.234000", "160143.237000", "160143.239000", "160143.242000", "160143.244000", "160143.247000", "160143.250000", "160143.252000", "160143.255000", "160143.257000", "160143.260000", "160143.263000", "160143.266000", "160143.269000", "160143.272000", "160143.275000", "160143.277000", "160143.280000", "160143.282000", "160143.285000", "160143.287000", "160143.290000", "160143.293000", "160143.295000", "160143.298000", "160143.300000", "160223.245000", "160223.247000", "160223.250000", "160223.252000", "160223.255000", "160223.258000", "160223.260000", "160223.263000", "160223.265000", "160223.268000", "160223.271000", "160223.273000", "160223.276000", "160223.278000", "160223.281000", "160223.283000", "160223.286000", "160223.289000", "160223.291000", "160223.294000", "160223.296000", "160223.299000", "160223.302000", "160223.304000", "160223.307000", "160223.309000", "160223.312000", "160242.131000", "160242.133000", "160242.136000", "160242.139000", "160242.141000", "160242.148000", "160242.151000", "160242.154000", "160242.157000", "160242.159000", "160242.162000", "160242.165000", "160242.167000"],
      "InstanceNumber": [1, 2, 3, 4, 5, 6, 7, 8, 9, 10, 11, 12, 13, 14, 15, 16, 17, 18, 19, 20, 21, 22, 23, 24, 25, 26, 27, 28, 29, 30, 31, 32, 33, 34, 35, 36, 37, 38, 39, 40, 41, 42, 43, 44, 45, 46, 47, 48, 49, 50, 51, 52, 53, 54, 55, 56, 57, 58, 59, 60, 61, 62, 63, 64, 65, 66, 67, 68, 69, 70, 71, 72, 73, 74, 75, 76, 77, 78, 79, 80, 81, 82, 83, 84, 85, 86, 87, 88, 89, 90, 91, 92, 93, 94, 95, 96, 97, 98, 99, 100, 101, 102, 103, 104, 105, 106, 107, 108, 109, 110, 111, 112, 113, 114, 115, 116, 117, 118, 119, 120, 121, 122, 123, 124, 125, 126, 127, 128, 129, 130, 131, 132, 133, 134, 135, 136, 137, 138, 139, 140, 141, 142, 143, 144, 145, 146, 147, 148, 149, 150, 151, 152, 153, 154, 155, 156, 157, 158, 159, 160, 161, 162, 163, 164, 165, 166, 167, 168, 169, 170, 171, 172, 173, 174, 175, 176, 177, 178, 179, 180, 181, 182, 183, 184, 185, 186, 187, 188, 189, 190],
      "WindowCenter": [4806.0, 4782.0, 4786.0, 4808.0, 4806.0, 4806.0, 4806.0, 4808.0, 4786.0, 4784.0, 4808.0, 4786.0, 4806.0, 4806.0, 4812.0, 4782.0, 4808.0, 4806.0, 4812.0, 4806.0, 4808.0, 4786.0, 4782.0, 4786.0, 4806.0, 4810.0, 4808.0, 4808.0, 4786.0, 4804.0, 4808.0, 4786.0, 4784.0, 4788.0, 4782.0, 4808.0, 4802.0, 4808.0, 4808.0, 4784.0, 4788.0, 4780.0, 4786.0, 4784.0, 4806.0, 4810.0, 4810.0, 4810.0, 4808.0, 4808.0, 4808.0, 4784.0, 4786.0, 4784.0, 4784.0, 4786.0, 4786.0, 4806.0, 4802.0, 4808.0, 4808.0, 4810.0, 4812.0, 4786.0, 4782.0, 4784.0, 4790.0, 4814.0, 4784.0, 4810.0, 4808.0, 4812.0, 4808.0, 4812.0, 4810.0, 4786.0, 4784.0, 4812.0, 4812.0, 4808.0, 4812.0, 4808.0, 4806.0, 4808.0, 4808.0, 4810.0, 4806.0, 4810.0, 4786.0, 4786.0, 4806.0, 4782.0, 4810.0, 4806.0, 4812.0, 4802.0, 4808.0, 4808.0, 4808.0, 4810.0, 4786.0, 4788.0, 4784.0, 4810.0, 4808.0, 4808.0, 4784.0, 4806.0, 4806.0, 4810.0, 4786.0, 4808.0, 4812.0, 4810.0, 4782.0, 4810.0, 4806.0, 4808.0, 4786.0, 4784.0, 4786.0, 4808.0, 4808.0, 4810.0, 4806.0, 4808.0, 4810.0, 4808.0, 4810.0, 4808.0, 4784.0, 4782.0, 4782.0, 4782.0, 4786.0, 4806.0, 4808.0, 4808.0, 4806.0, 4808.0, 4808.0, 4786.0, 4788.0, 4796.0, 4784.0, 4806.0, 4804.0, 4804.0, 4808.0, 4806.0, 4810.0, 4786.0, 4784.0, 4784.0, 4786.0, 4780.0, 4782.0, 4804.0, 4812.0, 4812.0, 4808.0, 4806.0, 4790.0, 4810.0, 4806.0, 4810.0, 4808.0, 4788.0, 4810.0, 4792.0, 4784.0, 4808.0, 4806.0, 4808.0, 4808.0, 4810.0, 4806.0, 4786.0, 4782.0, 4780.0, 4782.0, 4806.0, 4810.0, 4810.0, 4812.0, 4782.0, 4784.0, 4810.0, 4806.0, 4806.0],
      "WindowWidth": [18616.0, 18578.0, 18574.0, 18616.0, 18622.0, 18624.0, 18622.0, 18616.0, 18578.0, 18588.0, 18612.0, 18586.0, 18620.0, 18618.0, 18618.0, 18590.0, 18624.0, 18618.0, 18626.0, 18616.0, 18618.0, 18584.0, 18582.0, 18572.0, 18616.0, 18618.0, 18614.0, 18620.0, 18584.0, 18620.0, 18618.0, 18582.0, 18562.0, 18550.0, 18564.0, 18622.0, 18618.0, 18614.0, 18626.0, 18582.0, 18552.0, 18556.0, 18572.0, 18580.0, 18612.0, 18618.0, 18622.0, 18630.0, 18628.0, 18620.0, 18618.0, 18584.0, 18584.0, 18576.0, 18570.0, 18558.0, 18576.0, 18620.0, 18622.0, 18622.0, 18622.0, 18624.0, 18624.0, 18578.0, 18564.0, 18578.0, 18564.0, 18600.0, 18582.0, 18622.0, 18618.0, 18618.0, 18620.0, 18616.0, 18610.0, 18554.0, 18574.0, 18618.0, 18622.0, 18622.0, 18618.0, 18624.0, 18622.0, 18622.0, 18618.0, 18620.0, 18614.0, 18616.0, 18582.0, 18582.0, 18622.0, 18572.0, 18608.0, 18626.0, 18628.0, 18620.0, 18622.0, 18618.0, 18620.0, 18614.0, 18578.0, 18584.0, 18580.0, 18616.0, 18624.0, 18620.0, 18584.0, 18624.0, 18616.0, 18622.0, 18584.0, 18618.0, 18618.0, 18608.0, 18584.0, 18622.0, 18618.0, 18618.0, 18574.0, 18590.0, 18576.0, 18626.0, 18616.0, 18622.0, 18616.0, 18624.0, 18620.0, 18618.0, 18620.0, 18610.0, 18580.0, 18576.0, 18570.0, 18560.0, 18574.0, 18624.0, 18626.0, 18626.0, 18622.0, 18612.0, 18614.0, 18580.0, 18560.0, 18542.0, 18542.0, 18618.0, 18626.0, 18618.0, 18620.0, 18618.0, 18626.0, 18578.0, 18566.0, 18560.0, 18566.0, 18568.0, 18576.0, 18618.0, 18618.0, 18626.0, 18626.0, 18622.0, 18580.0, 18620.0, 18616.0, 18618.0, 18610.0, 18582.0, 18612.0, 18542.0, 18564.0, 18626.0, 18618.0, 18628.0, 18622.0, 18622.0, 18612.0, 18578.0, 18568.0, 18566.0, 18570.0, 18614.0, 18624.0, 18620.0, 18620.0, 18562.0, 18566.0, 18626.0, 18622.0, 18618.0]
    },
    "slices": {}
  }
}