{
  "AcquisitionMatrixPE": 104,
  "AcquisitionNumber": 1,
  "AcquisitionTime": "15:37:50.170000",
  "BandwidthPerPixelPhaseEncode": 17.17,
  "BaseResolution": 104,
  "BodyPartExamined": "BRAIN",
  "CoilString": "HC1-7;NC1_2",
  "ConsistencyInfo": "N4_VE11C_LATEST_20160120",
  "ConversionSoftware": "dcm2niix",
  "ConversionSoftwareVersion": "v1.0.20190902",
  "DerivedVendorReportedEchoSpacing": 0.000560011,
  "DeviceSerialNumber": "167006",
  "DwellTime": 2.1e-06,
  "EchoTime": 0.037,
  "EchoTrainLength": 104,
  "EffectiveEchoSpacing": 0.000560011,
  "FlipAngle": 52,
  "ImageComments": "Unaliased_MB4_PE3_LB",
  "ImageOrientationPatientDICOM": [0.999362, -0.0354926, 0.00407688, 0.0348985, 0.945415, -0.323994],
  "ImageType": [
    "ORIGINAL",
    "PRIMARY",
    "M",
    "MB",
    "ND",
    "MOSAIC"
],
  "ImagingFrequency": 123.259,
  "InPlanePhaseEncodingDirectionDICOM": "COL",
  "InstitutionAddress": "Chemin_Queen-Mary_4565_Montreal_District_CA_H3W_1W5",
  "InstitutionName": "IUGM",
  "InstitutionalDepartmentName": "Department",
  "MRAcquisitionType": "2D",
  "MagneticFieldStrength": 3,
  "Manufacturer": "Siemens",
  "ManufacturersModelName": "Prisma_fit",
  "Modality": "MR",
  "MultibandAccelerationFactor": 4,
  "PartialFourier": 1,
  "PatientPosition": "HFS",
  "PercentPhaseFOV": 100,
  "PhaseEncodingDirection": "j",
  "PhaseEncodingSteps": 104,
  "PhaseResolution": 1,
  "PixelBandwidth": 2290,
  "ProcedureStepDescription": "memory_things",
  "ProtocolName": "func_task-things_run-2",
  "PulseSequenceDetails": "%CustomerSeq%_cmrr_mbep2d_bold",
  "ReceiveCoilActiveElements": "HC1-7;NC1,2",
  "ReceiveCoilName": "HeadNeck_64",
  "ReconMatrixPE": 104,
  "RepetitionTime": 1.49,
  "SAR": 0.0374755,
  "ScanOptions": "FS",
  "ScanningSequence": "EP",
  "SequenceName": "epfid2d1_104",
  "SequenceVariant": "SK_SS",
  "SeriesDescription": "func_task-things_run-2",
  "SeriesNumber": 13,
  "ShimSetting": [627, -7244, -8814, 605, 9, -149, 30, -14],
  "SliceThickness": 2,
  "SliceTiming": [0, 0.7825, 0.0975, 0.8825, 0.195, 0.98, 0.2925, 1.0775, 0.3925, 1.175, 0.49, 1.2725, 0.5875, 1.3725, 0.685, 0, 0.7825, 0.0975, 0.8825, 0.195, 0.98, 0.2925, 1.0775, 0.3925, 1.175, 0.49, 1.2725, 0.5875, 1.3725, 0.685, 0, 0.7825, 0.0975, 0.8825, 0.195, 0.98, 0.2925, 1.0775, 0.3925, 1.175, 0.49, 1.2725, 0.5875, 1.3725, 0.685, 0, 0.7825, 0.0975, 0.8825, 0.195, 0.98, 0.2925, 1.0775, 0.3925, 1.175, 0.49, 1.2725, 0.5875, 1.3725, 0.685],
  "SoftwareVersions": "syngo_MR_E11",
  "SpacingBetweenSlices": 2,
  "StationName": "MRC35049",
  "TaskName": "things",
  "TotalReadoutTime": 0.0576811,
  "TxRefAmp": 239.22,
  "WipMemBlock": "32f96ebf-eacb-48c7-aea4-c62b17152750||Sequence: R016 ve11c/master r/e634e98; Dec 19 2017 11:00:25 by eja",
  "dcmmeta_affine": [
    [-1.9987232685089111, 0.06979690492153168, -0.0152900954708457, 103.27568054199219],
    [0.07098528742790222, 1.8908307552337646, -0.6478580832481384, -69.75907135009766],
    [0.008153751492500305, 0.6479871869087219, 1.8921009302139282, -62.66720199584961],
    [0.0, 0.0, 0.0, 1.0]
],
  "dcmmeta_reorient_transform": [
    [0.0, -1.0, 0.0, 103.0],
    [1.0, 0.0, 0.0, 0.0],
    [0.0, 0.0, 1.0, 0.0],
    [0.0, 0.0, 0.0, 1.0]
],
  "dcmmeta_shape": [104, 104, 60, 190],
  "dcmmeta_slice_dim": 2,
  "dcmmeta_version": 0.6,
  "global": {
    "const": {
      "AcquisitionMatrix": [104, 0, 0, 104],
      "AngioFlag": "N",
      "BitsAllocated": 16,
      "BitsStored": 16,
      "BodyPartExamined": "BRAIN",
      "Columns": 832,
      "EchoNumbers": 1,
      "EchoTime": 37.0,
      "EchoTrainLength": 104,
      "FlipAngle": 52.0,
      "HighBit": 15,
      "ImageOrientationPatient": [0.99936162192752, -0.0354926429382, 0.00407687572231, 0.03489845067501, 0.94541538372808, -0.323993596157],
      "ImagePositionPatient": [-863.40609258449, -787.42025280786, 236.97485149264],
      "ImageType": [
        "ORIGINAL",
        "PRIMARY",
        "M",
        "MB",
        "ND",
        "MOSAIC"
],
      "ImagedNucleus": "1H",
      "ImagingFrequency": 123.258911,
      "InPlanePhaseEncodingDirection": "COL",
      "MRAcquisitionType": "2D",
      "MagneticFieldStrength": 3.0,
      "Manufacturer": "SIEMENS",
      "ManufacturerModelName": "Prisma_fit",
      "Modality": "MR",
      "NumberOfAverages": 1.0,
      "NumberOfPhaseEncodingSteps": 104,
      "PercentPhaseFieldOfView": 100.0,
      "PercentSampling": 100.0,
      "PerformedProcedureStepStartTime": "143227.336000",
      "PhotometricInterpretation": "MONOCHROME2",
      "PixelBandwidth": 2290.0,
      "PixelRepresentation": 0,
      "PixelSpacing": [2.0, 2.0],
      "ProtocolName": "func_task-things_run-2",
      "RepetitionTime": 1490.0,
      "Rows": 832,
      "SAR": 0.03747551216775,
      "SamplesPerPixel": 1,
      "ScanOptions": "FS",
      "ScanningSequence": "EP",
      "SequenceName": "epfid2d1_104",
      "SequenceVariant": [
        "SK",
        "SS"
],
      "SeriesDescription": "func_task-things_run-2",
      "SeriesNumber": 13,
      "SeriesTime": "153923.125000",
      "SliceLocation": -37.478895214034,
      "SliceThickness": 2.0,
      "SmallestImagePixelValue": 0,
      "SoftwareVersions": "syngo MR E11",
      "SpacingBetweenSlices": 1.9999999457527,
      "SpecificCharacterSet": "ISO_IR 100",
      "StudyID": "1",
      "StudyTime": "143227.277000",
      "TransmitCoilName": "Body",
      "VariableFlipAngleFlag": "N",
      "WindowCenterWidthExplanation": "Algo1",
      "dBdt": 0.0},
    "slices": {}
  },
  "time": {
    "samples": {
      "AcquisitionNumber": [1, 2, 3, 4, 5, 6, 7, 8, 9, 10, 11, 12, 13, 14, 15, 16, 17, 18, 19, 20, 21, 22, 23, 24, 25, 26, 27, 28, 29, 30, 31, 32, 33, 34, 35, 36, 37, 38, 39, 40, 41, 42, 43, 44, 45, 46, 47, 48, 49, 50, 51, 52, 53, 54, 55, 56, 57, 58, 59, 60, 61, 62, 63, 64, 65, 66, 67, 68, 69, 70, 71, 72, 73, 74, 75, 76, 77, 78, 79, 80, 81, 82, 83, 84, 85, 86, 87, 88, 89, 90, 91, 92, 93, 94, 95, 96, 97, 98, 99, 100, 101, 102, 103, 104, 105, 106, 107, 108, 109, 110, 111, 112, 113, 114, 115, 116, 117, 118, 119, 120, 121, 122, 123, 124, 125, 126, 127, 128, 129, 130, 131, 132, 133, 134, 135, 136, 137, 138, 139, 140, 141, 142, 143, 144, 145, 146, 147, 148, 149, 150, 151, 152, 153, 154, 155, 156, 157, 158, 159, 160, 161, 162, 163, 164, 165, 166, 167, 168, 169, 170, 171, 172, 173, 174, 175, 176, 177, 178, 179, 180, 181, 182, 183, 184, 185, 186, 187, 188, 189, 190],
      "AcquisitionTime": ["153750.170000", "153751.660000", "153753.150000", "153754.640000", "153756.130000", "153757.620000", "153759.110000", "153800.600000", "153802.090000", "153803.580000", "153805.070000", "153806.560000", "153808.050000", "153809.540000", "153811.030000", "153812.520000", "153814.010000", "153815.500000", "153816.990000", "153818.480000", "153819.970000", "153821.460000", "153822.950000", "153824.440000", "153825.930000", "153827.420000", "153828.910000", "153830.400000", "153831.890000", "153833.380000", "153834.870000", "153836.360000", "153837.850000", "153839.340000", "153840.830000", "153842.320000", "153843.810000", "153845.300000", "153846.790000", "153848.280000", "153849.770000", "153851.260000", "153852.750000", "153854.240000", "153855.730000", "153857.220000", "153858.710000", "153900.200000", "153901.690000", "153903.180000", "153904.670000", "153906.160000", "153907.650000", "153909.140000", "153910.630000", "153912.120000", "153913.610000", "153915.100000", "153916.590000", "153918.080000", "153919.570000", "153921.060000", "153922.550000", "153924.040000", "153925.530000", "153927.020000", "153928.510000", "153930.000000", "153931.490000", "153932.980000", "153934.470000", "153935.960000", "153937.450000", "153938.940000", "153940.430000", "153941.920000", "153943.410000", "153944.900000", "153946.390000", "153947.880000", "153949.370000", "153950.860000", "153952.350000", "153953.840000", "153955.330000", "153956.820000", "153958.310000", "153959.800000", "154001.290000", "154002.780000", "154004.270000", "154005.760000", "154007.250000", "154008.740000", "154010.230000", "154011.720000", "154013.210000", "154014.700000", "154016.190000", "154017.680000", "154019.170000", "154020.660000", "154022.150000", "154023.640000", "154025.130000", "154026.620000", "154028.110000", "154029.600000", "154031.090000", "154032.580000", "154034.070000", "154035.560000", "154037.050000", "154038.540000", "154040.030000", "154041.520000", "154043.010000", "154044.500000", "154045.990000", "154047.480000", "154048.970000", "154050.460000", "154051.950000", "154053.440000", "154054.930000", "154056.420000", "154057.910000", "154059.400000", "154100.890000", "154102.380000", "154103.870000", "154105.360000", "154106.850000", "154108.340000", "154109.830000", "154111.320000", "154112.810000", "154114.300000", "154115.790000", "154117.280000", "154118.770000", "154120.260000", "154121.750000", "154123.240000", "154124.730000", "154126.220000", "154127.710000", "154129.200000", "154130.690000", "154132.180000", "154133.670000", "154135.160000", "154136.650000", "154138.140000", "154139.630000", "154141.120000", "154142.610000", "154144.100000", "154145.590000", "154147.080000", "154148.570000", "154150.060000", "154151.550000", "154153.040000", "154154.530000", "154156.020000", "154157.510000", "154159.000000", "154200.490000", "154201.980000", "154203.470000", "154204.960000", "154206.450000", "154207.940000", "154209.430000", "154210.920000", "154212.410000", "154213.900000", "154215.390000", "154216.880000", "154218.370000", "154219.860000", "154221.350000", "154222.840000", "154224.330000", "154225.820000", "154227.310000", "154228.800000", "154230.290000", "154231.780000"],
      "ContentTime": ["153923.128000", "153923.132000", "153923.135000", "153923.138000", "153923.142000", "153923.145000", "153923.149000", "153923.152000", "153923.155000", "153923.159000", "153923.162000", "153923.165000", "153923.169000", "153923.172000", "153923.175000", "153923.179000", "153923.182000", "153923.186000", "153923.189000", "153923.192000", "153923.196000", "153923.199000", "153923.202000", "153923.206000", "153923.209000", "153923.213000", "153923.216000", "153923.224000", "153923.227000", "153923.230000", "153923.235000", "153923.238000", "153923.247000", "153923.250000", "153923.254000", "153923.257000", "153923.261000", "153923.264000", "153943.091000", "153943.095000", "153943.098000", "153943.102000", "153943.105000", "153943.108000", "153943.112000", "153943.115000", "153943.118000", "153943.122000", "153943.125000", "153943.129000", "153943.132000", "153943.135000", "153943.144000", "153943.147000", "153943.151000", "153943.154000", "153943.157000", "153943.161000", "154003.091000", "154003.095000", "154003.099000", "154003.102000", "154003.106000", "154003.109000", "154003.113000", "154003.116000", "154003.120000", "154003.123000", "154003.126000", "154003.130000", "154003.133000", "154003.137000", "154003.140000", "154003.144000", "154003.147000", "154003.150000", "154003.154000", "154003.157000", "154023.091000", "154023.095000", "154023.098000", "154023.102000", "154023.105000", "154023.109000", "154023.112000", "154023.115000", "154023.119000", "154023.122000", "154023.125000", "154023.129000", "154023.132000", "154023.136000", "154023.139000", "154023.142000", "154023.146000", "154023.149000", "154023.152000", "154023.163000", "154023.166000", "154103.091000", "154103.095000", "154103.098000", "154103.102000", "154103.105000", "154103.109000", "154103.113000", "154103.116000", "154103.120000", "154103.123000", "154103.126000", "154103.130000", "154103.133000", "154103.137000", "154103.140000", "154103.143000", "154103.147000", "154103.150000", "154103.153000", "154103.163000", "154103.166000", "154103.170000", "154103.173000", "154103.176000", "154103.180000", "154103.183000", "154103.187000", "154103.190000", "154103.193000", "154143.090000", "154143.107000", "154143.111000", "154143.114000", "154143.118000", "154143.121000", "154143.124000", "154143.128000", "154143.131000", "154143.135000", "154143.138000", "154143.141000", "154143.145000", "154143.148000", "154143.151000", "154143.155000", "154143.158000", "154143.161000", "154143.165000", "154143.168000", "154143.171000", "154143.175000", "154143.178000", "154143.182000", "154143.185000", "154143.188000", "154143.191000", "154223.091000", "154223.095000", "154223.099000", "154223.102000", "154223.105000", "154223.109000", "154223.112000", "154223.116000", "154223.119000", "154223.122000", "154223.126000", "154223.129000", "154223.132000", "154223.136000", "154223.139000", "154223.143000", "154223.146000", "154223.149000", "154223.153000", "154223.156000", "154223.159000", "154223.163000", "154223.166000", "154223.169000", "154223.173000", "154223.176000", "154223.180000", "154234.147000", "154234.150000", "154234.154000", "154234.158000", "154234.161000", "154234.164000", "154234.168000", "154234.171000"],
      "InstanceCreationTime": ["153923.128000", "153923.132000", "153923.135000", "153923.138000", "153923.142000", "153923.145000", "153923.149000", "153923.152000", "153923.155000", "153923.159000", "153923.162000", "153923.165000", "153923.169000", "153923.172000", "153923.175000", "153923.179000", "153923.182000", "153923.186000", "153923.189000", "153923.192000", "153923.196000", "153923.199000", "153923.202000", "153923.206000", "153923.209000", "153923.213000", "153923.216000", "153923.224000", "153923.227000", "153923.230000", "153923.235000", "153923.238000", "153923.247000", "153923.250000", "153923.254000", "153923.257000", "153923.261000", "153923.264000", "153943.091000", "153943.095000", "153943.098000", "153943.102000", "153943.105000", "153943.108000", "153943.112000", "153943.115000", "153943.118000", "153943.122000", "153943.125000", "153943.129000", "153943.132000", "153943.135000", "153943.144000", "153943.147000", "153943.151000", "153943.154000", "153943.157000", "153943.161000", "154003.091000", "154003.095000", "154003.099000", "154003.102000", "154003.106000", "154003.109000", "154003.113000", "154003.116000", "154003.120000", "154003.123000", "154003.126000", "154003.130000", "154003.133000", "154003.137000", "154003.140000", "154003.144000", "154003.147000", "154003.150000", "154003.154000", "154003.157000", "154023.091000", "154023.095000", "154023.098000", "154023.102000", "154023.105000", "154023.109000", "154023.112000", "154023.115000", "154023.119000", "154023.122000", "154023.125000", "154023.129000", "154023.132000", "154023.136000", "154023.139000", "154023.142000", "154023.146000", "154023.149000", "154023.152000", "154023.163000", "154023.166000", "154103.091000", "154103.095000", "154103.098000", "154103.102000", "154103.105000", "154103.109000", "154103.113000", "154103.116000", "154103.120000", "154103.123000", "154103.126000", "154103.130000", "154103.133000", "154103.137000", "154103.140000", "154103.143000", "154103.147000", "154103.150000", "154103.153000", "154103.163000", "154103.166000", "154103.170000", "154103.173000", "154103.176000", "154103.180000", "154103.183000", "154103.187000", "154103.190000", "154103.193000", "154143.090000", "154143.107000", "154143.111000", "154143.114000", "154143.118000", "154143.121000", "154143.124000", "154143.128000", "154143.131000", "154143.135000", "154143.138000", "154143.141000", "154143.145000", "154143.148000", "154143.151000", "154143.155000", "154143.158000", "154143.161000", "154143.165000", "154143.168000", "154143.171000", "154143.175000", "154143.178000", "154143.182000", "154143.185000", "154143.188000", "154143.191000", "154223.091000", "154223.095000", "154223.099000", "154223.102000", "154223.105000", "154223.109000", "154223.112000", "154223.116000", "154223.119000", "154223.122000", "154223.126000", "154223.129000", "154223.132000", "154223.136000", "154223.139000", "154223.143000", "154223.146000", "154223.149000", "154223.153000", "154223.156000", "154223.159000", "154223.163000", "154223.166000", "154223.169000", "154223.173000", "154223.176000", "154223.180000", "154234.147000", "154234.150000", "154234.154000", "154234.158000", "154234.161000", "154234.164000", "154234.168000", "154234.171000"],
      "InstanceNumber": [1, 2, 3, 4, 5, 6, 7, 8, 9, 10, 11, 12, 13, 14, 15, 16, 17, 18, 19, 20, 21, 22, 23, 24, 25, 26, 27, 28, 29, 30, 31, 32, 33, 34, 35, 36, 37, 38, 39, 40, 41, 42, 43, 44, 45, 46, 47, 48, 49, 50, 51, 52, 53, 54, 55, 56, 57, 58, 59, 60, 61, 62, 63, 64, 65, 66, 67, 68, 69, 70, 71, 72, 73, 74, 75, 76, 77, 78, 79, 80, 81, 82, 83, 84, 85, 86, 87, 88, 89, 90, 91, 92, 93, 94, 95, 96, 97, 98, 99, 100, 101, 102, 103, 104, 105, 106, 107, 108, 109, 110, 111, 112, 113, 114, 115, 116, 117, 118, 119, 120, 121, 122, 123, 124, 125, 126, 127, 128, 129, 130, 131, 132, 133, 134, 135, 136, 137, 138, 139, 140, 141, 142, 143, 144, 145, 146, 147, 148, 149, 150, 151, 152, 153, 154, 155, 156, 157, 158, 159, 160, 161, 162, 163, 164, 165, 166, 167, 168, 169, 170, 171, 172, 173, 174, 175, 176, 177, 178, 179, 180, 181, 182, 183, 184, 185, 186, 187, 188, 189, 190],
      "LargestImagePixelValue": [44559, 43798, 43544, 42600, 43698, 42763, 43617, 43042, 42339, 42463, 42118, 41782, 40933, 40709, 40570, 41304, 41462, 42154, 42466, 42149, 42825, 42500, 42302, 42481, 42219, 41951, 41800, 42238, 42385, 42287, 42342, 42332, 42290, 42347, 42422, 42645, 42259, 42688, 42188, 42229, 42360, 42103, 42155, 42326, 41480, 41226, 41773, 42159, 42223, 41892, 41971, 41989, 41880, 41574, 41764, 41796, 42861, 42590, 42052, 41680, 42500, 42381, 41614, 41921, 41261, 41284, 42390, 41442, 40880, 41440, 41306, 41473, 41384, 41652, 42396, 42211, 43112, 42639, 42871, 41380, 41434, 42026, 41981, 41357, 41690, 41652, 41771, 41825, 42214, 42789, 42419, 42409, 42971, 42171, 42451, 43006, 41821, 41714, 41428, 41901, 42610, 42738, 43520, 42553, 42629, 42307, 41687, 42261, 42259, 42375, 42444, 42119, 42942, 42982, 42872, 43696, 44092, 43660, 42294, 42502, 42106, 42249, 40561, 43477, 43815, 43662, 43703, 43064, 43531, 42038, 40782, 41544, 42339, 41765, 42423, 42439, 42145, 42183, 41985, 42213, 41755, 41620, 41815, 41972, 41765, 42109, 41551, 41257, 41273, 41679, 42427, 42048, 41890, 42904, 41788, 42133, 42094, 42441, 41977, 41804, 42003, 42213, 42091, 42047, 41979, 41959, 41889, 41741, 41714, 42031, 41237, 41584, 41987, 41796, 41998, 42381, 42440, 42302, 41965, 41278, 42354, 41515, 41935, 42278, 41911, 42006, 41713, 42915, 42319, 41623],
      "WindowCenter": [10383.0, 10299.0, 10274.0, 10279.0, 10323.0, 10346.0, 10343.0, 10297.0, 10265.0, 10256.0, 10263.0, 10287.0, 10271.0, 10242.0, 10224.0, 10236.0, 10258.0, 10282.0, 10268.0, 10260.0, 10279.0, 10282.0, 10282.0, 10291.0, 10300.0, 10300.0, 10302.0, 10309.0, 10296.0, 10287.0, 10283.0, 10290.0, 10331.0, 10333.0, 10303.0, 10284.0, 10290.0, 10295.0, 10317.0, 10339.0, 10319.0, 10294.0, 10277.0, 10268.0, 10262.0, 10277.0, 10290.0, 10305.0, 10310.0, 10306.0, 10295.0, 10296.0, 10286.0, 10285.0, 10325.0, 10334.0, 10318.0, 10287.0, 10269.0, 10263.0, 10260.0, 10244.0, 10245.0, 10265.0, 10269.0, 10271.0, 10287.0, 10286.0, 10273.0, 10276.0, 10286.0, 10287.0, 10271.0, 10267.0, 10286.0, 10319.0, 10341.0, 10309.0, 10291.0, 10272.0, 10271.0, 10263.0, 10259.0, 10268.0, 10292.0, 10287.0, 10274.0, 10267.0, 10280.0, 10301.0, 10305.0, 10305.0, 10304.0, 10306.0, 10315.0, 10313.0, 10277.0, 10269.0, 10267.0, 10287.0, 10336.0, 10349.0, 10329.0, 10300.0, 10291.0, 10282.0, 10277.0, 10318.0, 10331.0, 10330.0, 10313.0, 10307.0, 10297.0, 10288.0, 10289.0, 10298.0, 10337.0, 10373.0, 10317.0, 10283.0, 10264.0, 10259.0, 10244.0, 10272.0, 10289.0, 10299.0, 10279.0, 10252.0, 10268.0, 10273.0, 10281.0, 10296.0, 10275.0, 10243.0, 10256.0, 10265.0, 10259.0, 10265.0, 10270.0, 10275.0, 10266.0, 10276.0, 10306.0, 10317.0, 10300.0, 10281.0, 10267.0, 10269.0, 10261.0, 10259.0, 10261.0, 10282.0, 10319.0, 10327.0, 10291.0, 10272.0, 10284.0, 10312.0, 10329.0, 10308.0, 10268.0, 10247.0, 10251.0, 10293.0, 10366.0, 10339.0, 10281.0, 10257.0, 10248.0, 10245.0, 10239.0, 10230.0, 10228.0, 10235.0, 10252.0, 10275.0, 10284.0, 10279.0, 10285.0, 10297.0, 10311.0, 10289.0, 10293.0, 10298.0, 10297.0, 10304.0, 10305.0, 10307.0, 10286.0, 10279.0],
      "WindowWidth": [22482.0, 22249.0, 22167.0, 22168.0, 22255.0, 22307.0, 22300.0, 22192.0, 22121.0, 22095.0, 22114.0, 22176.0, 22146.0, 22079.0, 22034.0, 22061.0, 22112.0, 22163.0, 22131.0, 22111.0, 22151.0, 22165.0, 22163.0, 22185.0, 22203.0, 22210.0, 22210.0, 22223.0, 22196.0, 22175.0, 22165.0, 22182.0, 22276.0, 22283.0, 22215.0, 22170.0, 22183.0, 22195.0, 22244.0, 22298.0, 22250.0, 22190.0, 22154.0, 22135.0, 22125.0, 22162.0, 22188.0, 22221.0, 22234.0, 22226.0, 22203.0, 22207.0, 22186.0, 22181.0, 22270.0, 22292.0, 22253.0, 22182.0, 22140.0, 22130.0, 22124.0, 22087.0, 22089.0, 22132.0, 22148.0, 22154.0, 22182.0, 22184.0, 22158.0, 22161.0, 22184.0, 22184.0, 22148.0, 22139.0, 22177.0, 22254.0, 22301.0, 22235.0, 22193.0, 22153.0, 22151.0, 22130.0, 22119.0, 22142.0, 22194.0, 22181.0, 22151.0, 22138.0, 22165.0, 22210.0, 22222.0, 22223.0, 22220.0, 22228.0, 22247.0, 22240.0, 22162.0, 22141.0, 22138.0, 22181.0, 22292.0, 22324.0, 22274.0, 22210.0, 22190.0, 22171.0, 22161.0, 22250.0, 22283.0, 22283.0, 22241.0, 22229.0, 22203.0, 22183.0, 22183.0, 22199.0, 22285.0, 22375.0, 22258.0, 22176.0, 22131.0, 22116.0, 22086.0, 22131.0, 22169.0, 22194.0, 22155.0, 22095.0, 22128.0, 22151.0, 22167.0, 22198.0, 22142.0, 22064.0, 22089.0, 22110.0, 22097.0, 22110.0, 22126.0, 22139.0, 22125.0, 22148.0, 22214.0, 22239.0, 22199.0, 22150.0, 22122.0, 22128.0, 22107.0, 22103.0, 22108.0, 22158.0, 22246.0, 22262.0, 22183.0, 22136.0, 22162.0, 22223.0, 22266.0, 22218.0, 22126.0, 22077.0, 22089.0, 22187.0, 22358.0, 22301.0, 22163.0, 22105.0, 22083.0, 22069.0, 22059.0, 22037.0, 22029.0, 22049.0, 22091.0, 22143.0, 22165.0, 22154.0, 22168.0, 22199.0, 22225.0, 22177.0, 22181.0, 22193.0, 22197.0, 22213.0, 22215.0, 22212.0, 22168.0, 22154.0]
    },
    "slices": {}
  }
}