{
  "AcquisitionMatrixPE": 104,
  "AcquisitionNumber": 1,
  "AcquisitionTime": "16:04:15.420000",
  "BandwidthPerPixelPhaseEncode": 17.17,
  "BaseResolution": 104,
  "BodyPartExamined": "BRAIN",
  "CoilString": "HC1-7;NC1_2",
  "ConsistencyInfo": "N4_VE11C_LATEST_20160120",
  "ConversionSoftware": "dcm2niix",
  "ConversionSoftwareVersion": "v1.0.20190902",
  "DerivedVendorReportedEchoSpacing": 0.000560011,
  "DeviceSerialNumber": "167006",
  "DwellTime": 2.1e-06,
  "EchoTime": 0.037,
  "EchoTrainLength": 104,
  "EffectiveEchoSpacing": 0.000560011,
  "FlipAngle": 52,
  "ImageComments": "Unaliased_MB4_PE3_LB",
  "ImageOrientationPatientDICOM": [0.999362, -0.0354926, 0.00407688, 0.0348985, 0.945415, -0.323994],
  "ImageType": [
    "ORIGINAL",
    "PRIMARY",
    "M",
    "MB",
    "ND",
    "MOSAIC"
],
  "ImagingFrequency": 123.259,
  "InPlanePhaseEncodingDirectionDICOM": "COL",
  "InstitutionAddress": "Chemin_Queen-Mary_4565_Montreal_District_CA_H3W_1W5",
  "InstitutionName": "IUGM",
  "InstitutionalDepartmentName": "Department",
  "MRAcquisitionType": "2D",
  "MagneticFieldStrength": 3,
  "Manufacturer": "Siemens",
  "ManufacturersModelName": "Prisma_fit",
  "Modality": "MR",
  "MultibandAccelerationFactor": 4,
  "PartialFourier": 1,
  "PatientPosition": "HFS",
  "PercentPhaseFOV": 100,
  "PhaseEncodingDirection": "j",
  "PhaseEncodingSteps": 104,
  "PhaseResolution": 1,
  "PixelBandwidth": 2290,
  "ProcedureStepDescription": "memory_things",
  "ProtocolName": "func_task-things_run-6",
  "PulseSequenceDetails": "%CustomerSeq%_cmrr_mbep2d_bold",
  "ReceiveCoilActiveElements": "HC1-7;NC1,2",
  "ReceiveCoilName": "HeadNeck_64",
  "ReconMatrixPE": 104,
  "RepetitionTime": 1.49,
  "SAR": 0.0374755,
  "ScanOptions": "FS",
  "ScanningSequence": "EP",
  "SequenceName": "epfid2d1_104",
  "SequenceVariant": "SK_SS",
  "SeriesDescription": "func_task-things_run-6",
  "SeriesNumber": 25,
  "ShimSetting": [627, -7244, -8814, 605, 9, -149, 30, -14],
  "SliceThickness": 2,
  "SliceTiming": [0, 0.7825, 0.0975, 0.88, 0.195, 0.98, 0.2925, 1.0775, 0.39, 1.175, 0.49, 1.2725, 0.5875, 1.37, 0.685, 0, 0.7825, 0.0975, 0.88, 0.195, 0.98, 0.2925, 1.0775, 0.39, 1.175, 0.49, 1.2725, 0.5875, 1.37, 0.685, 0, 0.7825, 0.0975, 0.88, 0.195, 0.98, 0.2925, 1.0775, 0.39, 1.175, 0.49, 1.2725, 0.5875, 1.37, 0.685, 0, 0.7825, 0.0975, 0.88, 0.195, 0.98, 0.2925, 1.0775, 0.39, 1.175, 0.49, 1.2725, 0.5875, 1.37, 0.685],
  "SoftwareVersions": "syngo_MR_E11",
  "SpacingBetweenSlices": 2,
  "StationName": "MRC35049",
  "TaskName": "things",
  "TotalReadoutTime": 0.0576811,
  "TxRefAmp": 239.22,
  "WipMemBlock": "c79acfe9-fc4b-40a7-acc9-efc46f9610de||Sequence: R016 ve11c/master r/e634e98; Dec 19 2017 11:00:25 by eja",
  "dcmmeta_affine": [
    [-1.9987232685089111, 0.06979690492153168, -0.0152900954708457, 103.27568054199219],
    [0.07098528742790222, 1.8908307552337646, -0.6478580832481384, -69.75907135009766],
    [0.008153751492500305, 0.6479871869087219, 1.8921009302139282, -62.66720199584961],
    [0.0, 0.0, 0.0, 1.0]
],
  "dcmmeta_reorient_transform": [
    [0.0, -1.0, 0.0, 103.0],
    [1.0, 0.0, 0.0, 0.0],
    [0.0, 0.0, 1.0, 0.0],
    [0.0, 0.0, 0.0, 1.0]
],
  "dcmmeta_shape": [104, 104, 60, 190],
  "dcmmeta_slice_dim": 2,
  "dcmmeta_version": 0.6,
  "global": {
    "const": {
      "AcquisitionMatrix": [104, 0, 0, 104],
      "AngioFlag": "N",
      "BitsAllocated": 16,
      "BitsStored": 16,
      "BodyPartExamined": "BRAIN",
      "Columns": 832,
      "EchoNumbers": 1,
      "EchoTime": 37.0,
      "EchoTrainLength": 104,
      "FlipAngle": 52.0,
      "HighBit": 15,
      "ImageOrientationPatient": [0.99936162192752, -0.0354926429382, 0.00407687572231, 0.03489845067501, 0.94541538372808, -0.323993596157],
      "ImagePositionPatient": [-863.40609258449, -787.42025280786, 236.97485149264],
      "ImageType": [
        "ORIGINAL",
        "PRIMARY",
        "M",
        "MB",
        "ND",
        "MOSAIC"
],
      "ImagedNucleus": "1H",
      "ImagingFrequency": 123.258923,
      "InPlanePhaseEncodingDirection": "COL",
      "MRAcquisitionType": "2D",
      "MagneticFieldStrength": 3.0,
      "Manufacturer": "SIEMENS",
      "ManufacturerModelName": "Prisma_fit",
      "Modality": "MR",
      "NumberOfAverages": 1.0,
      "NumberOfPhaseEncodingSteps": 104,
      "PercentPhaseFieldOfView": 100.0,
      "PercentSampling": 100.0,
      "PerformedProcedureStepStartTime": "143227.336000",
      "PhotometricInterpretation": "MONOCHROME2",
      "PixelBandwidth": 2290.0,
      "PixelRepresentation": 0,
      "PixelSpacing": [2.0, 2.0],
      "ProtocolName": "func_task-things_run-6",
      "RepetitionTime": 1490.0,
      "Rows": 832,
      "SAR": 0.03747551216775,
      "SamplesPerPixel": 1,
      "ScanOptions": "FS",
      "ScanningSequence": "EP",
      "SequenceName": "epfid2d1_104",
      "SequenceVariant": [
        "SK",
        "SS"
],
      "SeriesDescription": "func_task-things_run-6",
      "SeriesNumber": 25,
      "SeriesTime": "160551.611000",
      "SliceLocation": -37.478895214034,
      "SliceThickness": 2.0,
      "SmallestImagePixelValue": 0,
      "SoftwareVersions": "syngo MR E11",
      "SpacingBetweenSlices": 1.9999999457527,
      "SpecificCharacterSet": "ISO_IR 100",
      "StudyID": "1",
      "StudyTime": "143227.277000",
      "TransmitCoilName": "Body",
      "VariableFlipAngleFlag": "N",
      "WindowCenterWidthExplanation": "Algo1",
      "dBdt": 0.0},
    "slices": {}
  },
  "time": {
    "samples": {
      "AcquisitionNumber": [1, 2, 3, 4, 5, 6, 7, 8, 9, 10, 11, 12, 13, 14, 15, 16, 17, 18, 19, 20, 21, 22, 23, 24, 25, 26, 27, 28, 29, 30, 31, 32, 33, 34, 35, 36, 37, 38, 39, 40, 41, 42, 43, 44, 45, 46, 47, 48, 49, 50, 51, 52, 53, 54, 55, 56, 57, 58, 59, 60, 61, 62, 63, 64, 65, 66, 67, 68, 69, 70, 71, 72, 73, 74, 75, 76, 77, 78, 79, 80, 81, 82, 83, 84, 85, 86, 87, 88, 89, 90, 91, 92, 93, 94, 95, 96, 97, 98, 99, 100, 101, 102, 103, 104, 105, 106, 107, 108, 109, 110, 111, 112, 113, 114, 115, 116, 117, 118, 119, 120, 121, 122, 123, 124, 125, 126, 127, 128, 129, 130, 131, 132, 133, 134, 135, 136, 137, 138, 139, 140, 141, 142, 143, 144, 145, 146, 147, 148, 149, 150, 151, 152, 153, 154, 155, 156, 157, 158, 159, 160, 161, 162, 163, 164, 165, 166, 167, 168, 169, 170, 171, 172, 173, 174, 175, 176, 177, 178, 179, 180, 181, 182, 183, 184, 185, 186, 187, 188, 189, 190],
      "AcquisitionTime": ["160415.420000", "160416.910000", "160418.400000", "160419.890000", "160421.380000", "160422.870000", "160424.360000", "160425.850000", "160427.340000", "160428.830000", "160430.320000", "160431.810000", "160433.300000", "160434.790000", "160436.280000", "160437.770000", "160439.260000", "160440.750000", "160442.240000", "160443.730000", "160445.220000", "160446.710000", "160448.200000", "160449.690000", "160451.180000", "160452.670000", "160454.160000", "160455.650000", "160457.140000", "160458.630000", "160500.120000", "160501.610000", "160503.100000", "160504.590000", "160506.080000", "160507.570000", "160509.060000", "160510.550000", "160512.040000", "160513.530000", "160515.020000", "160516.510000", "160518.000000", "160519.490000", "160520.980000", "160522.470000", "160523.960000", "160525.450000", "160526.940000", "160528.430000", "160529.920000", "160531.410000", "160532.900000", "160534.390000", "160535.880000", "160537.370000", "160538.860000", "160540.350000", "160541.840000", "160543.330000", "160544.820000", "160546.310000", "160547.800000", "160549.290000", "160550.780000", "160552.270000", "160553.760000", "160555.250000", "160556.740000", "160558.230000", "160559.720000", "160601.210000", "160602.700000", "160604.190000", "160605.680000", "160607.170000", "160608.660000", "160610.150000", "160611.640000", "160613.130000", "160614.620000", "160616.110000", "160617.600000", "160619.090000", "160620.580000", "160622.070000", "160623.560000", "160625.050000", "160626.540000", "160628.030000", "160629.520000", "160631.010000", "160632.500000", "160633.990000", "160635.480000", "160636.970000", "160638.460000", "160639.950000", "160641.440000", "160642.930000", "160644.420000", "160645.910000", "160647.400000", "160648.890000", "160650.380000", "160651.870000", "160653.360000", "160654.850000", "160656.340000", "160657.830000", "160659.320000", "160700.810000", "160702.300000", "160703.790000", "160705.280000", "160706.770000", "160708.260000", "160709.750000", "160711.240000", "160712.730000", "160714.220000", "160715.710000", "160717.200000", "160718.690000", "160720.180000", "160721.670000", "160723.160000", "160724.650000", "160726.140000", "160727.630000", "160729.120000", "160730.610000", "160732.100000", "160733.590000", "160735.080000", "160736.570000", "160738.060000", "160739.550000", "160741.040000", "160742.530000", "160744.020000", "160745.510000", "160747.000000", "160748.490000", "160749.980000", "160751.470000", "160752.960000", "160754.450000", "160755.940000", "160757.430000", "160758.920000", "160800.410000", "160801.900000", "160803.390000", "160804.880000", "160806.370000", "160807.860000", "160809.350000", "160810.840000", "160812.330000", "160813.820000", "160815.310000", "160816.800000", "160818.290000", "160819.780000", "160821.270000", "160822.760000", "160824.250000", "160825.740000", "160827.230000", "160828.720000", "160830.210000", "160831.700000", "160833.190000", "160834.680000", "160836.170000", "160837.660000", "160839.150000", "160840.640000", "160842.130000", "160843.620000", "160845.110000", "160846.600000", "160848.090000", "160849.580000", "160851.070000", "160852.560000", "160854.050000", "160855.540000", "160857.030000"],
      "ContentTime": ["160551.614000", "160551.617000", "160551.621000", "160551.624000", "160551.628000", "160551.631000", "160551.634000", "160551.638000", "160551.641000", "160551.644000", "160551.648000", "160551.651000", "160551.655000", "160551.658000", "160551.661000", "160551.665000", "160551.669000", "160551.672000", "160551.676000", "160551.679000", "160551.682000", "160551.686000", "160551.689000", "160551.692000", "160551.696000", "160551.699000", "160551.703000", "160551.706000", "160551.709000", "160551.713000", "160551.716000", "160551.720000", "160551.723000", "160551.727000", "160551.730000", "160551.733000", "160551.737000", "160551.740000", "160611.563000", "160611.567000", "160611.570000", "160611.574000", "160611.577000", "160611.580000", "160611.584000", "160611.587000", "160611.591000", "160611.594000", "160611.598000", "160611.601000", "160611.604000", "160611.607000", "160611.611000", "160611.624000", "160611.627000", "160611.631000", "160611.634000", "160611.637000", "160611.641000", "160631.564000", "160631.568000", "160631.571000", "160631.575000", "160631.578000", "160631.582000", "160631.585000", "160631.588000", "160631.592000", "160631.595000", "160631.598000", "160631.602000", "160631.605000", "160631.609000", "160631.612000", "160631.615000", "160631.619000", "160631.622000", "160631.625000", "160631.629000", "160651.563000", "160651.567000", "160651.570000", "160651.574000", "160651.577000", "160651.581000", "160651.584000", "160651.587000", "160651.591000", "160651.594000", "160651.597000", "160651.601000", "160651.606000", "160651.609000", "160651.613000", "160651.616000", "160651.619000", "160651.623000", "160651.626000", "160651.629000", "160731.563000", "160731.567000", "160731.570000", "160731.574000", "160731.577000", "160731.580000", "160731.584000", "160731.587000", "160731.591000", "160731.594000", "160731.597000", "160731.601000", "160731.604000", "160731.608000", "160731.611000", "160731.614000", "160731.618000", "160731.621000", "160731.625000", "160731.629000", "160731.633000", "160731.636000", "160731.641000", "160731.644000", "160731.647000", "160731.651000", "160731.654000", "160731.658000", "160731.661000", "160731.665000", "160731.668000", "160811.563000", "160811.567000", "160811.570000", "160811.574000", "160811.577000", "160811.580000", "160811.584000", "160811.588000", "160811.591000", "160811.594000", "160811.598000", "160811.601000", "160811.604000", "160811.608000", "160811.611000", "160811.615000", "160811.618000", "160811.621000", "160811.625000", "160811.628000", "160811.632000", "160811.635000", "160811.639000", "160811.642000", "160811.646000", "160811.649000", "160811.652000", "160851.564000", "160851.568000", "160851.571000", "160851.574000", "160851.578000", "160851.581000", "160851.585000", "160851.588000", "160851.592000", "160851.595000", "160851.598000", "160851.602000", "160851.606000", "160851.609000", "160851.612000", "160851.616000", "160851.619000", "160851.623000", "160851.626000", "160851.629000", "160851.633000", "160851.636000", "160851.640000", "160851.643000", "160851.647000", "160851.650000", "160851.653000", "160859.600000", "160859.603000", "160859.607000", "160859.610000", "160859.614000", "160859.617000"],
      "InstanceCreationTime": ["160551.614000", "160551.617000", "160551.621000", "160551.624000", "160551.628000", "160551.631000", "160551.634000", "160551.638000", "160551.641000", "160551.644000", "160551.648000", "160551.651000", "160551.655000", "160551.658000", "160551.661000", "160551.665000", "160551.669000", "160551.672000", "160551.676000", "160551.679000", "160551.682000", "160551.686000", "160551.689000", "160551.692000", "160551.696000", "160551.699000", "160551.703000", "160551.706000", "160551.709000", "160551.713000", "160551.716000", "160551.720000", "160551.723000", "160551.727000", "160551.730000", "160551.733000", "160551.737000", "160551.740000", "160611.563000", "160611.567000", "160611.570000", "160611.574000", "160611.577000", "160611.580000", "160611.584000", "160611.587000", "160611.591000", "160611.594000", "160611.598000", "160611.601000", "160611.604000", "160611.607000", "160611.611000", "160611.624000", "160611.627000", "160611.631000", "160611.634000", "160611.637000", "160611.641000", "160631.564000", "160631.568000", "160631.571000", "160631.575000", "160631.578000", "160631.582000", "160631.585000", "160631.588000", "160631.592000", "160631.595000", "160631.598000", "160631.602000", "160631.605000", "160631.609000", "160631.612000", "160631.615000", "160631.619000", "160631.622000", "160631.625000", "160631.629000", "160651.563000", "160651.567000", "160651.570000", "160651.574000", "160651.577000", "160651.581000", "160651.584000", "160651.587000", "160651.591000", "160651.594000", "160651.597000", "160651.601000", "160651.606000", "160651.609000", "160651.613000", "160651.616000", "160651.619000", "160651.623000", "160651.626000", "160651.629000", "160731.563000", "160731.567000", "160731.570000", "160731.574000", "160731.577000", "160731.580000", "160731.584000", "160731.587000", "160731.591000", "160731.594000", "160731.597000", "160731.601000", "160731.604000", "160731.608000", "160731.611000", "160731.614000", "160731.618000", "160731.621000", "160731.625000", "160731.629000", "160731.633000", "160731.636000", "160731.641000", "160731.644000", "160731.647000", "160731.651000", "160731.654000", "160731.658000", "160731.661000", "160731.665000", "160731.668000", "160811.563000", "160811.567000", "160811.570000", "160811.574000", "160811.577000", "160811.580000", "160811.584000", "160811.588000", "160811.591000", "160811.594000", "160811.598000", "160811.601000", "160811.604000", "160811.608000", "160811.611000", "160811.615000", "160811.618000", "160811.621000", "160811.625000", "160811.628000", "160811.632000", "160811.635000", "160811.639000", "160811.642000", "160811.646000", "160811.649000", "160811.652000", "160851.564000", "160851.568000", "160851.571000", "160851.574000", "160851.578000", "160851.581000", "160851.585000", "160851.588000", "160851.592000", "160851.595000", "160851.598000", "160851.602000", "160851.606000", "160851.609000", "160851.612000", "160851.616000", "160851.619000", "160851.623000", "160851.626000", "160851.629000", "160851.633000", "160851.636000", "160851.640000", "160851.643000", "160851.647000", "160851.650000", "160851.653000", "160859.600000", "160859.603000", "160859.607000", "160859.610000", "160859.614000", "160859.617000"],
      "InstanceNumber": [1, 2, 3, 4, 5, 6, 7, 8, 9, 10, 11, 12, 13, 14, 15, 16, 17, 18, 19, 20, 21, 22, 23, 24, 25, 26, 27, 28, 29, 30, 31, 32, 33, 34, 35, 36, 37, 38, 39, 40, 41, 42, 43, 44, 45, 46, 47, 48, 49, 50, 51, 52, 53, 54, 55, 56, 57, 58, 59, 60, 61, 62, 63, 64, 65, 66, 67, 68, 69, 70, 71, 72, 73, 74, 75, 76, 77, 78, 79, 80, 81, 82, 83, 84, 85, 86, 87, 88, 89, 90, 91, 92, 93, 94, 95, 96, 97, 98, 99, 100, 101, 102, 103, 104, 105, 106, 107, 108, 109, 110, 111, 112, 113, 114, 115, 116, 117, 118, 119, 120, 121, 122, 123, 124, 125, 126, 127, 128, 129, 130, 131, 132, 133, 134, 135, 136, 137, 138, 139, 140, 141, 142, 143, 144, 145, 146, 147, 148, 149, 150, 151, 152, 153, 154, 155, 156, 157, 158, 159, 160, 161, 162, 163, 164, 165, 166, 167, 168, 169, 170, 171, 172, 173, 174, 175, 176, 177, 178, 179, 180, 181, 182, 183, 184, 185, 186, 187, 188, 189, 190],
      "LargestImagePixelValue": [41726, 40700, 41575, 40646, 40375, 40480, 40690, 40844, 40637, 40415, 40603, 40701, 40719, 40731, 40730, 40448, 40367, 40476, 40869, 40644, 40558, 40684, 40750, 40384, 41224, 41084, 41192, 41142, 40593, 40797, 40575, 40776, 41618, 40935, 39290, 40008, 39711, 40983, 41072, 41681, 41567, 40190, 39946, 40389, 40441, 40829, 41296, 40892, 41428, 41000, 40688, 41123, 40993, 41521, 42100, 41244, 41360, 41386, 40295, 41699, 42210, 41681, 41135, 41768, 41488, 42049, 41314, 42205, 41895, 41523, 41570, 41651, 41666, 41742, 42122, 42290, 41563, 41225, 41568, 41291, 41270, 41675, 41921, 41891, 41767, 42144, 42068, 42178, 41712, 41617, 41349, 41956, 42029, 41604, 41643, 41909, 41624, 41737, 42240, 40299, 39921, 40615, 40491, 41481, 41425, 42147, 41905, 41773, 42184, 41653, 42143, 41745, 41642, 41897, 41902, 41997, 41652, 42152, 41991, 42121, 41750, 42147, 42140, 42052, 42009, 42169, 41990, 42033, 41709, 41739, 41185, 41871, 41952, 41532, 41992, 42034, 41281, 41205, 41520, 41082, 41789, 41416, 41553, 41960, 41682, 41689, 41390, 41915, 42048, 41284, 41876, 41081, 40860, 41201, 40929, 41123, 41344, 41169, 41071, 41447, 41579, 41969, 41718, 41322, 41159, 41413, 41860, 41627, 42360, 41596, 41761, 41754, 41824, 41843, 41694, 41400, 41593, 41707, 41939, 41512, 41332, 41614, 41612, 41991, 41882, 41640, 42236, 42368, 42028, 39051],
      "WindowCenter": [10250.0, 10192.0, 10158.0, 10124.0, 10105.0, 10103.0, 10132.0, 10200.0, 10215.0, 10173.0, 10144.0, 10140.0, 10146.0, 10153.0, 10163.0, 10158.0, 10170.0, 10183.0, 10212.0, 10206.0, 10205.0, 10212.0, 10213.0, 10214.0, 10213.0, 10203.0, 10196.0, 10202.0, 10198.0, 10214.0, 10224.0, 10233.0, 10253.0, 10240.0, 10211.0, 10207.0, 10201.0, 10215.0, 10218.0, 10245.0, 10232.0, 10201.0, 10173.0, 10161.0, 10165.0, 10161.0, 10169.0, 10184.0, 10178.0, 10163.0, 10145.0, 10168.0, 10194.0, 10214.0, 10202.0, 10179.0, 10191.0, 10211.0, 10210.0, 10213.0, 10236.0, 10227.0, 10195.0, 10181.0, 10185.0, 10210.0, 10207.0, 10196.0, 10180.0, 10190.0, 10206.0, 10222.0, 10209.0, 10197.0, 10203.0, 10211.0, 10217.0, 10224.0, 10223.0, 10209.0, 10214.0, 10245.0, 10254.0, 10240.0, 10229.0, 10227.0, 10252.0, 10289.0, 10272.0, 10238.0, 10220.0, 10228.0, 10210.0, 10189.0, 10171.0, 10161.0, 10157.0, 10181.0, 10227.0, 10262.0, 10275.0, 10231.0, 10194.0, 10157.0, 10161.0, 10159.0, 10146.0, 10140.0, 10178.0, 10193.0, 10200.0, 10165.0, 10144.0, 10159.0, 10174.0, 10172.0, 10173.0, 10189.0, 10214.0, 10230.0, 10225.0, 10217.0, 10228.0, 10254.0, 10252.0, 10263.0, 10242.0, 10232.0, 10212.0, 10193.0, 10183.0, 10196.0, 10205.0, 10207.0, 10207.0, 10193.0, 10192.0, 10192.0, 10207.0, 10196.0, 10197.0, 10177.0, 10182.0, 10189.0, 10184.0, 10190.0, 10202.0, 10232.0, 10256.0, 10253.0, 10236.0, 10222.0, 10226.0, 10226.0, 10219.0, 10212.0, 10212.0, 10204.0, 10213.0, 10219.0, 10231.0, 10263.0, 10253.0, 10228.0, 10211.0, 10194.0, 10214.0, 10238.0, 10238.0, 10213.0, 10202.0, 10187.0, 10189.0, 10203.0, 10229.0, 10228.0, 10210.0, 10193.0, 10191.0, 10207.0, 10210.0, 10201.0, 10194.0, 10208.0, 10209.0, 10212.0, 10252.0, 10272.0, 10269.0, 10233.0],
      "WindowWidth": [22136.0, 21969.0, 21854.0, 21766.0, 21719.0, 21707.0, 21769.0, 21917.0, 21953.0, 21860.0, 21791.0, 21782.0, 21797.0, 21813.0, 21836.0, 21825.0, 21851.0, 21888.0, 21950.0, 21939.0, 21933.0, 21950.0, 21954.0, 21956.0, 21952.0, 21929.0, 21913.0, 21929.0, 21924.0, 21957.0, 21982.0, 22001.0, 22046.0, 22022.0, 21967.0, 21950.0, 21939.0, 21962.0, 21969.0, 22027.0, 22002.0, 21933.0, 21878.0, 21850.0, 21854.0, 21843.0, 21856.0, 21890.0, 21879.0, 21844.0, 21808.0, 21856.0, 21919.0, 21966.0, 21935.0, 21884.0, 21909.0, 21956.0, 21956.0, 21956.0, 22010.0, 21992.0, 21923.0, 21885.0, 21893.0, 21948.0, 21943.0, 21915.0, 21881.0, 21905.0, 21945.0, 21982.0, 21952.0, 21922.0, 21933.0, 21952.0, 21969.0, 21984.0, 21980.0, 21952.0, 21962.0, 22034.0, 22053.0, 22022.0, 21995.0, 21991.0, 22048.0, 22130.0, 22095.0, 22020.0, 21979.0, 21993.0, 21952.0, 21907.0, 21864.0, 21838.0, 21832.0, 21884.0, 21990.0, 22095.0, 22142.0, 22020.0, 21927.0, 21835.0, 21835.0, 21831.0, 21805.0, 21788.0, 21870.0, 21914.0, 21931.0, 21857.0, 21807.0, 21838.0, 21873.0, 21867.0, 21867.0, 21902.0, 21959.0, 21996.0, 21989.0, 21969.0, 21992.0, 22054.0, 22046.0, 22074.0, 22025.0, 22000.0, 21958.0, 21917.0, 21893.0, 21919.0, 21939.0, 21945.0, 21945.0, 21919.0, 21915.0, 21915.0, 21949.0, 21928.0, 21923.0, 21880.0, 21888.0, 21902.0, 21895.0, 21908.0, 21931.0, 22004.0, 22065.0, 22061.0, 22020.0, 21986.0, 21990.0, 21990.0, 21976.0, 21962.0, 21959.0, 21945.0, 21971.0, 21982.0, 22004.0, 22073.0, 22054.0, 21994.0, 21957.0, 21920.0, 21962.0, 22020.0, 22020.0, 21967.0, 21939.0, 21904.0, 21906.0, 21934.0, 21995.0, 21996.0, 21955.0, 21916.0, 21910.0, 21946.0, 21953.0, 21933.0, 21917.0, 21945.0, 21953.0, 21961.0, 22051.0, 22098.0, 22090.0, 22012.0]
    },
    "slices": {}
  }
}