{
  "AcquisitionMatrixPE": 104,
  "AcquisitionNumber": 1,
  "AcquisitionTime": "15:51:31.860000",
  "BandwidthPerPixelPhaseEncode": 17.17,
  "BaseResolution": 104,
  "BodyPartExamined": "BRAIN",
  "CoilString": "HC1-7;NC1_2",
  "ConsistencyInfo": "N4_VE11C_LATEST_20160120",
  "ConversionSoftware": "dcm2niix",
  "ConversionSoftwareVersion": "v1.0.20190902",
  "DerivedVendorReportedEchoSpacing": 0.000560011,
  "DeviceSerialNumber": "167006",
  "DwellTime": 2.1e-06,
  "EchoTime": 0.037,
  "EchoTrainLength": 104,
  "EffectiveEchoSpacing": 0.000560011,
  "FlipAngle": 52,
  "ImageComments": "Unaliased_MB4_PE3_LB",
  "ImageOrientationPatientDICOM": [0.999362, -0.0354926, 0.00407688, 0.0348985, 0.945415, -0.323994],
  "ImageType": [
    "ORIGINAL",
    "PRIMARY",
    "P",
    "MB",
    "ND",
    "MOSAIC"
],
  "ImagingFrequency": 123.259,
  "InPlanePhaseEncodingDirectionDICOM": "COL",
  "InstitutionAddress": "Chemin_Queen-Mary_4565_Montreal_District_CA_H3W_1W5",
  "InstitutionName": "IUGM",
  "InstitutionalDepartmentName": "Department",
  "MRAcquisitionType": "2D",
  "MagneticFieldStrength": 3,
  "Manufacturer": "Siemens",
  "ManufacturersModelName": "Prisma_fit",
  "Modality": "MR",
  "MultibandAccelerationFactor": 4,
  "PartialFourier": 1,
  "PatientPosition": "HFS",
  "PercentPhaseFOV": 100,
  "PhaseEncodingDirection": "j",
  "PhaseEncodingSteps": 104,
  "PhaseResolution": 1,
  "PixelBandwidth": 2290,
  "ProcedureStepDescription": "memory_things",
  "ProtocolName": "func_task-things_run-4",
  "PulseSequenceDetails": "%CustomerSeq%_cmrr_mbep2d_bold",
  "ReceiveCoilActiveElements": "HC1-7;NC1,2",
  "ReceiveCoilName": "HeadNeck_64",
  "ReconMatrixPE": 104,
  "RepetitionTime": 1.49,
  "SAR": 0.0374755,
  "ScanOptions": "FS",
  "ScanningSequence": "EP",
  "SequenceName": "epfid2d1_104",
  "SequenceVariant": "SK_SS",
  "SeriesDescription": "func_task-things_run-4",
  "SeriesNumber": 20,
  "ShimSetting": [627, -7244, -8814, 605, 9, -149, 30, -14],
  "SliceThickness": 2,
  "SliceTiming": [0, 0.785, 0.0975, 0.8825, 0.1975, 0.98, 0.295, 1.0775, 0.3925, 1.1775, 0.49, 1.275, 0.5875, 1.3725, 0.6875, 0, 0.785, 0.0975, 0.8825, 0.1975, 0.98, 0.295, 1.0775, 0.3925, 1.1775, 0.49, 1.275, 0.5875, 1.3725, 0.6875, 0, 0.785, 0.0975, 0.8825, 0.1975, 0.98, 0.295, 1.0775, 0.3925, 1.1775, 0.49, 1.275, 0.5875, 1.3725, 0.6875, 0, 0.785, 0.0975, 0.8825, 0.1975, 0.98, 0.295, 1.0775, 0.3925, 1.1775, 0.49, 1.275, 0.5875, 1.3725, 0.6875],
  "SoftwareVersions": "syngo_MR_E11",
  "SpacingBetweenSlices": 2,
  "StationName": "MRC35049",
  "TaskName": "things",
  "TotalReadoutTime": 0.0576811,
  "TxRefAmp": 239.22,
  "WipMemBlock": "c2e130a8-565d-4edc-8590-cb41a47d3396||Sequence: R016 ve11c/master r/e634e98; Dec 19 2017 11:00:25 by eja",
  "dcmmeta_affine": [
    [-1.9987232685089111, 0.06979690492153168, -0.0152900954708457, 103.27568054199219],
    [0.07098528742790222, 1.8908307552337646, -0.6478580832481384, -69.75907135009766],
    [0.008153751492500305, 0.6479871869087219, 1.8921009302139282, -62.66720199584961],
    [0.0, 0.0, 0.0, 1.0]
],
  "dcmmeta_reorient_transform": [
    [0.0, -1.0, 0.0, 103.0],
    [1.0, 0.0, 0.0, 0.0],
    [0.0, 0.0, 1.0, 0.0],
    [0.0, 0.0, 0.0, 1.0]
],
  "dcmmeta_shape": [104, 104, 60, 190],
  "dcmmeta_slice_dim": 2,
  "dcmmeta_version": 0.6,
  "global": {
    "const": {
      "AcquisitionMatrix": [104, 0, 0, 104],
      "AngioFlag": "N",
      "BitsAllocated": 16,
      "BitsStored": 16,
      "BodyPartExamined": "BRAIN",
      "Columns": 832,
      "EchoNumbers": 1,
      "EchoTime": 37.0,
      "EchoTrainLength": 104,
      "FlipAngle": 52.0,
      "HighBit": 15,
      "ImageOrientationPatient": [0.99936162192752, -0.0354926429382, 0.00407687572231, 0.03489845067501, 0.94541538372808, -0.323993596157],
      "ImagePositionPatient": [-863.40609258449, -787.42025280786, 236.97485149264],
      "ImageType": [
        "ORIGINAL",
        "PRIMARY",
        "P",
        "MB",
        "ND",
        "MOSAIC"
],
      "ImagedNucleus": "1H",
      "ImagingFrequency": 123.258919,
      "InPlanePhaseEncodingDirection": "COL",
      "LargestImagePixelValue": 4095,
      "MRAcquisitionType": "2D",
      "MagneticFieldStrength": 3.0,
      "Manufacturer": "SIEMENS",
      "ManufacturerModelName": "Prisma_fit",
      "Modality": "MR",
      "NumberOfAverages": 1.0,
      "NumberOfPhaseEncodingSteps": 104,
      "PercentPhaseFieldOfView": 100.0,
      "PercentSampling": 100.0,
      "PerformedProcedureStepStartTime": "143227.336000",
      "PhotometricInterpretation": "MONOCHROME2",
      "PixelBandwidth": 2290.0,
      "PixelRepresentation": 0,
      "PixelSpacing": [2.0, 2.0],
      "ProtocolName": "func_task-things_run-4",
      "RepetitionTime": 1490.0,
      "RescaleIntercept": -4096.0,
      "RescaleSlope": 2.0,
      "RescaleType": "US",
      "Rows": 832,
      "SAR": 0.03747551216775,
      "SamplesPerPixel": 1,
      "ScanOptions": "FS",
      "ScanningSequence": "EP",
      "SequenceName": "epfid2d1_104",
      "SequenceVariant": [
        "SK",
        "SS"
],
      "SeriesDescription": "func_task-things_run-4",
      "SeriesNumber": 20,
      "SeriesTime": "155236.187000",
      "SliceLocation": -37.478895214034,
      "SliceThickness": 2.0,
      "SmallestImagePixelValue": 0,
      "SoftwareVersions": "syngo MR E11",
      "SpacingBetweenSlices": 1.9999999457527,
      "SpecificCharacterSet": "ISO_IR 100",
      "StudyID": "1",
      "StudyTime": "143227.277000",
      "TransmitCoilName": "Body",
      "VariableFlipAngleFlag": "N",
      "WindowCenterWidthExplanation": "Algo1",
      "dBdt": 0.0},
    "slices": {}
  },
  "time": {
    "samples": {
      "AcquisitionNumber": [1, 2, 3, 4, 5, 6, 7, 8, 9, 10, 11, 12, 13, 14, 15, 16, 17, 18, 19, 20, 21, 22, 23, 24, 25, 26, 27, 28, 29, 30, 31, 32, 33, 34, 35, 36, 37, 38, 39, 40, 41, 42, 43, 44, 45, 46, 47, 48, 49, 50, 51, 52, 53, 54, 55, 56, 57, 58, 59, 60, 61, 62, 63, 64, 65, 66, 67, 68, 69, 70, 71, 72, 73, 74, 75, 76, 77, 78, 79, 80, 81, 82, 83, 84, 85, 86, 87, 88, 89, 90, 91, 92, 93, 94, 95, 96, 97, 98, 99, 100, 101, 102, 103, 104, 105, 106, 107, 108, 109, 110, 111, 112, 113, 114, 115, 116, 117, 118, 119, 120, 121, 122, 123, 124, 125, 126, 127, 128, 129, 130, 131, 132, 133, 134, 135, 136, 137, 138, 139, 140, 141, 142, 143, 144, 145, 146, 147, 148, 149, 150, 151, 152, 153, 154, 155, 156, 157, 158, 159, 160, 161, 162, 163, 164, 165, 166, 167, 168, 169, 170, 171, 172, 173, 174, 175, 176, 177, 178, 179, 180, 181, 182, 183, 184, 185, 186, 187, 188, 189, 190],
      "AcquisitionTime": ["155131.860000", "155133.350000", "155134.840000", "155136.330000", "155137.820000", "155139.310000", "155140.800000", "155142.290000", "155143.780000", "155145.270000", "155146.760000", "155148.250000", "155149.740000", "155151.230000", "155152.720000", "155154.210000", "155155.700000", "155157.190000", "155158.680000", "155200.170000", "155201.660000", "155203.150000", "155204.640000", "155206.130000", "155207.620000", "155209.110000", "155210.600000", "155212.090000", "155213.580000", "155215.070000", "155216.560000", "155218.050000", "155219.540000", "155221.030000", "155222.520000", "155224.010000", "155225.500000", "155226.990000", "155228.480000", "155229.970000", "155231.460000", "155232.950000", "155234.440000", "155235.930000", "155237.420000", "155238.910000", "155240.400000", "155241.890000", "155243.380000", "155244.870000", "155246.360000", "155247.850000", "155249.340000", "155250.830000", "155252.320000", "155253.810000", "155255.300000", "155256.790000", "155258.280000", "155259.770000", "155301.260000", "155302.750000", "155304.240000", "155305.730000", "155307.220000", "155308.710000", "155310.200000", "155311.690000", "155313.180000", "155314.670000", "155316.160000", "155317.650000", "155319.140000", "155320.630000", "155322.120000", "155323.610000", "155325.100000", "155326.590000", "155328.080000", "155329.570000", "155331.060000", "155332.550000", "155334.040000", "155335.530000", "155337.020000", "155338.510000", "155340.000000", "155341.490000", "155342.980000", "155344.470000", "155345.960000", "155347.450000", "155348.940000", "155350.430000", "155351.920000", "155353.410000", "155354.900000", "155356.390000", "155357.880000", "155359.370000", "155400.860000", "155402.350000", "155403.840000", "155405.330000", "155406.820000", "155408.310000", "155409.800000", "155411.290000", "155412.780000", "155414.270000", "155415.760000", "155417.250000", "155418.740000", "155420.230000", "155421.720000", "155423.210000", "155424.700000", "155426.190000", "155427.680000", "155429.170000", "155430.660000", "155432.150000", "155433.640000", "155435.130000", "155436.620000", "155438.110000", "155439.600000", "155441.090000", "155442.580000", "155444.070000", "155445.560000", "155447.050000", "155448.540000", "155450.030000", "155451.520000", "155453.010000", "155454.500000", "155455.990000", "155457.480000", "155458.970000", "155500.460000", "155501.950000", "155503.440000", "155504.930000", "155506.420000", "155507.910000", "155509.400000", "155510.890000", "155512.380000", "155513.870000", "155515.360000", "155516.850000", "155518.340000", "155519.830000", "155521.320000", "155522.810000", "155524.300000", "155525.790000", "155527.280000", "155528.770000", "155530.260000", "155531.750000", "155533.240000", "155534.730000", "155536.220000", "155537.710000", "155539.200000", "155540.690000", "155542.180000", "155543.670000", "155545.160000", "155546.650000", "155548.140000", "155549.630000", "155551.120000", "155552.610000", "155554.100000", "155555.590000", "155557.080000", "155558.570000", "155600.060000", "155601.550000", "155603.040000", "155604.530000", "155606.020000", "155607.510000", "155609.000000", "155610.490000", "155611.980000", "155613.470000"],
      "ContentTime": ["155236.189000", "155236.192000", "155236.195000", "155236.197000", "155236.200000", "155236.202000", "155236.205000", "155236.208000", "155236.210000", "155236.213000", "155256.210000", "155256.213000", "155256.223000", "155256.234000", "155256.236000", "155256.239000", "155256.241000", "155256.244000", "155256.246000", "155256.249000", "155256.252000", "155256.254000", "155256.257000", "155256.259000", "155256.262000", "155256.264000", "155256.267000", "155256.269000", "155256.272000", "155256.274000", "155316.580000", "155316.583000", "155316.586000", "155316.588000", "155316.591000", "155316.593000", "155316.596000", "155316.598000", "155316.601000", "155316.603000", "155316.606000", "155316.609000", "155316.611000", "155316.614000", "155316.616000", "155316.619000", "155316.621000", "155316.624000", "155316.627000", "155316.629000", "155316.632000", "155336.208000", "155336.211000", "155336.213000", "155336.216000", "155336.218000", "155336.221000", "155336.224000", "155336.226000", "155336.229000", "155336.231000", "155336.234000", "155336.236000", "155336.239000", "155336.241000", "155336.244000", "155336.247000", "155336.249000", "155336.252000", "155336.254000", "155336.257000", "155356.207000", "155356.210000", "155356.212000", "155356.215000", "155356.217000", "155356.220000", "155356.222000", "155356.225000", "155356.227000", "155356.230000", "155356.233000", "155356.235000", "155356.238000", "155356.240000", "155356.243000", "155356.245000", "155356.248000", "155356.250000", "155356.253000", "155356.256000", "155436.256000", "155436.259000", "155436.262000", "155436.264000", "155436.267000", "155436.270000", "155436.272000", "155436.275000", "155436.277000", "155436.280000", "155436.282000", "155436.285000", "155436.287000", "155436.290000", "155436.292000", "155436.295000", "155436.297000", "155436.300000", "155436.303000", "155436.305000", "155436.308000", "155436.310000", "155436.313000", "155436.315000", "155436.318000", "155436.321000", "155436.323000", "155436.326000", "155436.328000", "155436.331000", "155436.333000", "155436.336000", "155516.251000", "155516.254000", "155516.256000", "155516.259000", "155516.261000", "155516.264000", "155516.267000", "155516.269000", "155516.272000", "155516.274000", "155516.277000", "155516.280000", "155516.282000", "155516.285000", "155516.288000", "155516.290000", "155516.293000", "155516.295000", "155516.298000", "155516.300000", "155516.303000", "155516.306000", "155516.308000", "155516.311000", "155516.313000", "155516.316000", "155516.318000", "155556.242000", "155556.245000", "155556.247000", "155556.250000", "155556.252000", "155556.255000", "155556.258000", "155556.260000", "155556.263000", "155556.265000", "155556.268000", "155556.270000", "155556.273000", "155556.276000", "155556.278000", "155556.281000", "155556.284000", "155556.287000", "155556.290000", "155556.294000", "155556.298000", "155556.301000", "155556.305000", "155556.308000", "155556.311000", "155556.314000", "155615.846000", "155615.849000", "155615.851000", "155615.854000", "155615.857000", "155615.872000", "155615.874000", "155615.877000", "155615.880000", "155615.882000", "155615.885000", "155615.888000", "155615.890000", "155615.893000"],
      "InstanceCreationTime": ["155236.189000", "155236.192000", "155236.195000", "155236.197000", "155236.200000", "155236.202000", "155236.205000", "155236.208000", "155236.210000", "155236.213000", "155256.210000", "155256.213000", "155256.223000", "155256.234000", "155256.236000", "155256.239000", "155256.241000", "155256.244000", "155256.246000", "155256.249000", "155256.252000", "155256.254000", "155256.257000", "155256.259000", "155256.262000", "155256.264000", "155256.267000", "155256.269000", "155256.272000", "155256.274000", "155316.580000", "155316.583000", "155316.586000", "155316.588000", "155316.591000", "155316.593000", "155316.596000", "155316.598000", "155316.601000", "155316.603000", "155316.606000", "155316.609000", "155316.611000", "155316.614000", "155316.616000", "155316.619000", "155316.621000", "155316.624000", "155316.627000", "155316.629000", "155316.632000", "155336.208000", "155336.211000", "155336.213000", "155336.216000", "155336.218000", "155336.221000", "155336.224000", "155336.226000", "155336.229000", "155336.231000", "155336.234000", "155336.236000", "155336.239000", "155336.241000", "155336.244000", "155336.247000", "155336.249000", "155336.252000", "155336.254000", "155336.257000", "155356.207000", "155356.210000", "155356.212000", "155356.215000", "155356.217000", "155356.220000", "155356.222000", "155356.225000", "155356.227000", "155356.230000", "155356.233000", "155356.235000", "155356.238000", "155356.240000", "155356.243000", "155356.245000", "155356.248000", "155356.250000", "155356.253000", "155356.256000", "155436.256000", "155436.259000", "155436.262000", "155436.264000", "155436.267000", "155436.270000", "155436.272000", "155436.275000", "155436.277000", "155436.280000", "155436.282000", "155436.285000", "155436.287000", "155436.290000", "155436.292000", "155436.295000", "155436.297000", "155436.300000", "155436.303000", "155436.305000", "155436.308000", "155436.310000", "155436.313000", "155436.315000", "155436.318000", "155436.321000", "155436.323000", "155436.326000", "155436.328000", "155436.331000", "155436.333000", "155436.336000", "155516.251000", "155516.254000", "155516.256000", "155516.259000", "155516.261000", "155516.264000", "155516.267000", "155516.269000", "155516.272000", "155516.274000", "155516.277000", "155516.280000", "155516.282000", "155516.285000", "155516.288000", "155516.290000", "155516.293000", "155516.295000", "155516.298000", "155516.300000", "155516.303000", "155516.306000", "155516.308000", "155516.311000", "155516.313000", "155516.316000", "155516.318000", "155556.242000", "155556.245000", "155556.247000", "155556.250000", "155556.252000", "155556.255000", "155556.258000", "155556.260000", "155556.263000", "155556.265000", "155556.268000", "155556.270000", "155556.273000", "155556.276000", "155556.278000", "155556.281000", "155556.284000", "155556.287000", "155556.290000", "155556.294000", "155556.298000", "155556.301000", "155556.305000", "155556.308000", "155556.311000", "155556.314000", "155615.846000", "155615.849000", "155615.851000", "155615.854000", "155615.857000", "155615.872000", "155615.874000", "155615.877000", "155615.880000", "155615.882000", "155615.885000", "155615.888000", "155615.890000", "155615.893000"],
      "InstanceNumber": [1, 2, 3, 4, 5, 6, 7, 8, 9, 10, 11, 12, 13, 14, 15, 16, 17, 18, 19, 20, 21, 22, 23, 24, 25, 26, 27, 28, 29, 30, 31, 32, 33, 34, 35, 36, 37, 38, 39, 40, 41, 42, 43, 44, 45, 46, 47, 48, 49, 50, 51, 52, 53, 54, 55, 56, 57, 58, 59, 60, 61, 62, 63, 64, 65, 66, 67, 68, 69, 70, 71, 72, 73, 74, 75, 76, 77, 78, 79, 80, 81, 82, 83, 84, 85, 86, 87, 88, 89, 90, 91, 92, 93, 94, 95, 96, 97, 98, 99, 100, 101, 102, 103, 104, 105, 106, 107, 108, 109, 110, 111, 112, 113, 114, 115, 116, 117, 118, 119, 120, 121, 122, 123, 124, 125, 126, 127, 128, 129, 130, 131, 132, 133, 134, 135, 136, 137, 138, 139, 140, 141, 142, 143, 144, 145, 146, 147, 148, 149, 150, 151, 152, 153, 154, 155, 156, 157, 158, 159, 160, 161, 162, 163, 164, 165, 166, 167, 168, 169, 170, 171, 172, 173, 174, 175, 176, 177, 178, 179, 180, 181, 182, 183, 184, 185, 186, 187, 188, 189, 190],
      "WindowCenter": [4786.0, 4786.0, 4784.0, 4788.0, 4782.0, 4808.0, 4804.0, 4786.0, 4808.0, 4808.0, 4786.0, 4786.0, 4806.0, 4780.0, 4784.0, 4780.0, 4808.0, 4812.0, 4808.0, 4808.0, 4806.0, 4786.0, 4782.0, 4784.0, 4786.0, 4810.0, 4786.0, 4786.0, 4806.0, 4806.0, 4808.0, 4786.0, 4786.0, 4786.0, 4782.0, 4806.0, 4784.0, 4808.0, 4810.0, 4806.0, 4810.0, 4810.0, 4810.0, 4786.0, 4788.0, 4786.0, 4782.0, 4786.0, 4792.0, 4786.0, 4806.0, 4802.0, 4802.0, 4808.0, 4808.0, 4786.0, 4786.0, 4786.0, 4778.0, 4782.0, 4786.0, 4782.0, 4806.0, 4810.0, 4786.0, 4784.0, 4782.0, 4780.0, 4782.0, 4786.0, 4786.0, 4810.0, 4806.0, 4808.0, 4806.0, 4786.0, 4786.0, 4806.0, 4784.0, 4784.0, 4784.0, 4786.0, 4806.0, 4784.0, 4808.0, 4808.0, 4806.0, 4784.0, 4790.0, 4794.0, 4786.0, 4808.0, 4804.0, 4802.0, 4804.0, 4804.0, 4804.0, 4782.0, 4786.0, 4784.0, 4784.0, 4780.0, 4784.0, 4786.0, 4784.0, 4808.0, 4804.0, 4808.0, 4806.0, 4786.0, 4788.0, 4784.0, 4780.0, 4806.0, 4806.0, 4806.0, 4806.0, 4808.0, 4810.0, 4784.0, 4780.0, 4784.0, 4782.0, 4784.0, 4782.0, 4786.0, 4782.0, 4804.0, 4804.0, 4806.0, 4806.0, 4784.0, 4782.0, 4786.0, 4784.0, 4784.0, 4784.0, 4784.0, 4808.0, 4806.0, 4808.0, 4808.0, 4782.0, 4786.0, 4784.0, 4780.0, 4806.0, 4806.0, 4784.0, 4784.0, 4808.0, 4784.0, 4782.0, 4784.0, 4786.0, 4782.0, 4806.0, 4782.0, 4780.0, 4806.0, 4804.0, 4808.0, 4806.0, 4786.0, 4780.0, 4764.0, 4784.0, 4778.0, 4786.0, 4782.0, 4786.0, 4780.0, 4808.0, 4804.0, 4804.0, 4784.0, 4782.0, 4784.0, 4784.0, 4784.0, 4780.0, 4782.0, 4784.0, 4780.0, 4806.0, 4810.0, 4802.0, 4806.0, 4784.0, 4782.0],
      "WindowWidth": [18588.0, 18582.0, 18588.0, 18580.0, 18586.0, 18620.0, 18622.0, 18580.0, 18616.0, 18618.0, 18582.0, 18574.0, 18614.0, 18570.0, 18550.0, 18566.0, 18620.0, 18624.0, 18620.0, 18624.0, 18620.0, 18564.0, 18574.0, 18578.0, 18582.0, 18612.0, 18574.0, 18584.0, 18622.0, 18616.0, 18620.0, 18584.0, 18580.0, 18564.0, 18566.0, 18612.0, 18582.0, 18616.0, 18620.0, 18618.0, 18612.0, 18620.0, 18614.0, 18574.0, 18582.0, 18582.0, 18578.0, 18568.0, 18540.0, 18564.0, 18626.0, 18616.0, 18620.0, 18624.0, 18616.0, 18560.0, 18556.0, 18566.0, 18560.0, 18570.0, 18582.0, 18582.0, 18620.0, 18618.0, 18586.0, 18584.0, 18576.0, 18562.0, 18568.0, 18582.0, 18560.0, 18612.0, 18616.0, 18616.0, 18618.0, 18578.0, 18590.0, 18616.0, 18584.0, 18580.0, 18558.0, 18566.0, 18618.0, 18588.0, 18622.0, 18616.0, 18620.0, 18586.0, 18562.0, 18540.0, 18540.0, 18616.0, 18626.0, 18614.0, 18618.0, 18620.0, 18614.0, 18570.0, 18564.0, 18560.0, 18564.0, 18562.0, 18576.0, 18564.0, 18564.0, 18618.0, 18622.0, 18628.0, 18626.0, 18582.0, 18546.0, 18558.0, 18574.0, 18612.0, 18618.0, 18618.0, 18620.0, 18620.0, 18622.0, 18578.0, 18576.0, 18572.0, 18568.0, 18574.0, 18574.0, 18556.0, 18572.0, 18618.0, 18618.0, 18624.0, 18614.0, 18576.0, 18560.0, 18552.0, 18556.0, 18560.0, 18574.0, 18586.0, 18620.0, 18618.0, 18624.0, 18620.0, 18558.0, 18558.0, 18574.0, 18578.0, 18616.0, 18628.0, 18588.0, 18580.0, 18618.0, 18582.0, 18578.0, 18574.0, 18570.0, 18564.0, 18612.0, 18552.0, 18574.0, 18624.0, 18618.0, 18628.0, 18620.0, 18582.0, 18566.0, 18522.0, 18568.0, 18568.0, 18584.0, 18586.0, 18564.0, 18584.0, 18624.0, 18618.0, 18616.0, 18580.0, 18568.0, 18572.0, 18570.0, 18572.0, 18578.0, 18556.0, 18578.0, 18574.0, 18622.0, 18622.0, 18620.0, 18622.0, 18584.0, 18578.0]
    },
    "slices": {}
  }
}