{
  "AcquisitionMatrixPE": 104,
  "AcquisitionNumber": 1,
  "AcquisitionTime": "15:51:31.860000",
  "BandwidthPerPixelPhaseEncode": 17.17,
  "BaseResolution": 104,
  "BodyPartExamined": "BRAIN",
  "CoilString": "HC1-7;NC1_2",
  "ConsistencyInfo": "N4_VE11C_LATEST_20160120",
  "ConversionSoftware": "dcm2niix",
  "ConversionSoftwareVersion": "v1.0.20190902",
  "DerivedVendorReportedEchoSpacing": 0.000560011,
  "DeviceSerialNumber": "167006",
  "DwellTime": 2.1e-06,
  "EchoTime": 0.037,
  "EchoTrainLength": 104,
  "EffectiveEchoSpacing": 0.000560011,
  "FlipAngle": 52,
  "ImageComments": "Unaliased_MB4_PE3_LB",
  "ImageOrientationPatientDICOM": [0.999362, -0.0354926, 0.00407688, 0.0348985, 0.945415, -0.323994],
  "ImageType": [
    "ORIGINAL",
    "PRIMARY",
    "M",
    "MB",
    "ND",
    "MOSAIC"
],
  "ImagingFrequency": 123.259,
  "InPlanePhaseEncodingDirectionDICOM": "COL",
  "InstitutionAddress": "Chemin_Queen-Mary_4565_Montreal_District_CA_H3W_1W5",
  "InstitutionName": "IUGM",
  "InstitutionalDepartmentName": "Department",
  "MRAcquisitionType": "2D",
  "MagneticFieldStrength": 3,
  "Manufacturer": "Siemens",
  "ManufacturersModelName": "Prisma_fit",
  "Modality": "MR",
  "MultibandAccelerationFactor": 4,
  "PartialFourier": 1,
  "PatientPosition": "HFS",
  "PercentPhaseFOV": 100,
  "PhaseEncodingDirection": "j",
  "PhaseEncodingSteps": 104,
  "PhaseResolution": 1,
  "PixelBandwidth": 2290,
  "ProcedureStepDescription": "memory_things",
  "ProtocolName": "func_task-things_run-4",
  "PulseSequenceDetails": "%CustomerSeq%_cmrr_mbep2d_bold",
  "ReceiveCoilActiveElements": "HC1-7;NC1,2",
  "ReceiveCoilName": "HeadNeck_64",
  "ReconMatrixPE": 104,
  "RepetitionTime": 1.49,
  "SAR": 0.0374755,
  "ScanOptions": "FS",
  "ScanningSequence": "EP",
  "SequenceName": "epfid2d1_104",
  "SequenceVariant": "SK_SS",
  "SeriesDescription": "func_task-things_run-4",
  "SeriesNumber": 19,
  "ShimSetting": [627, -7244, -8814, 605, 9, -149, 30, -14],
  "SliceThickness": 2,
  "SliceTiming": [0, 0.785, 0.0975, 0.8825, 0.1975, 0.98, 0.295, 1.0775, 0.3925, 1.1775, 0.49, 1.275, 0.5875, 1.3725, 0.6875, 0, 0.785, 0.0975, 0.8825, 0.1975, 0.98, 0.295, 1.0775, 0.3925, 1.1775, 0.49, 1.275, 0.5875, 1.3725, 0.6875, 0, 0.785, 0.0975, 0.8825, 0.1975, 0.98, 0.295, 1.0775, 0.3925, 1.1775, 0.49, 1.275, 0.5875, 1.3725, 0.6875, 0, 0.785, 0.0975, 0.8825, 0.1975, 0.98, 0.295, 1.0775, 0.3925, 1.1775, 0.49, 1.275, 0.5875, 1.3725, 0.6875],
  "SoftwareVersions": "syngo_MR_E11",
  "SpacingBetweenSlices": 2,
  "StationName": "MRC35049",
  "TaskName": "things",
  "TotalReadoutTime": 0.0576811,
  "TxRefAmp": 239.22,
  "WipMemBlock": "c2e130a8-565d-4edc-8590-cb41a47d3396||Sequence: R016 ve11c/master r/e634e98; Dec 19 2017 11:00:25 by eja",
  "dcmmeta_affine": [
    [-1.9987232685089111, 0.06979690492153168, -0.0152900954708457, 103.27568054199219],
    [0.07098528742790222, 1.8908307552337646, -0.6478580832481384, -69.75907135009766],
    [0.008153751492500305, 0.6479871869087219, 1.8921009302139282, -62.66720199584961],
    [0.0, 0.0, 0.0, 1.0]
],
  "dcmmeta_reorient_transform": [
    [0.0, -1.0, 0.0, 103.0],
    [1.0, 0.0, 0.0, 0.0],
    [0.0, 0.0, 1.0, 0.0],
    [0.0, 0.0, 0.0, 1.0]
],
  "dcmmeta_shape": [104, 104, 60, 190],
  "dcmmeta_slice_dim": 2,
  "dcmmeta_version": 0.6,
  "global": {
    "const": {
      "AcquisitionMatrix": [104, 0, 0, 104],
      "AngioFlag": "N",
      "BitsAllocated": 16,
      "BitsStored": 16,
      "BodyPartExamined": "BRAIN",
      "Columns": 832,
      "EchoNumbers": 1,
      "EchoTime": 37.0,
      "EchoTrainLength": 104,
      "FlipAngle": 52.0,
      "HighBit": 15,
      "ImageOrientationPatient": [0.99936162192752, -0.0354926429382, 0.00407687572231, 0.03489845067501, 0.94541538372808, -0.323993596157],
      "ImagePositionPatient": [-863.40609258449, -787.42025280786, 236.97485149264],
      "ImageType": [
        "ORIGINAL",
        "PRIMARY",
        "M",
        "MB",
        "ND",
        "MOSAIC"
],
      "ImagedNucleus": "1H",
      "ImagingFrequency": 123.258919,
      "InPlanePhaseEncodingDirection": "COL",
      "MRAcquisitionType": "2D",
      "MagneticFieldStrength": 3.0,
      "Manufacturer": "SIEMENS",
      "ManufacturerModelName": "Prisma_fit",
      "Modality": "MR",
      "NumberOfAverages": 1.0,
      "NumberOfPhaseEncodingSteps": 104,
      "PercentPhaseFieldOfView": 100.0,
      "PercentSampling": 100.0,
      "PerformedProcedureStepStartTime": "143227.336000",
      "PhotometricInterpretation": "MONOCHROME2",
      "PixelBandwidth": 2290.0,
      "PixelRepresentation": 0,
      "PixelSpacing": [2.0, 2.0],
      "ProtocolName": "func_task-things_run-4",
      "RepetitionTime": 1490.0,
      "Rows": 832,
      "SAR": 0.03747551216775,
      "SamplesPerPixel": 1,
      "ScanOptions": "FS",
      "ScanningSequence": "EP",
      "SequenceName": "epfid2d1_104",
      "SequenceVariant": [
        "SK",
        "SS"
],
      "SeriesDescription": "func_task-things_run-4",
      "SeriesNumber": 19,
      "SeriesTime": "155236.130000",
      "SliceLocation": -37.478895214034,
      "SliceThickness": 2.0,
      "SmallestImagePixelValue": 0,
      "SoftwareVersions": "syngo MR E11",
      "SpacingBetweenSlices": 1.9999999457527,
      "SpecificCharacterSet": "ISO_IR 100",
      "StudyID": "1",
      "StudyTime": "143227.277000",
      "TransmitCoilName": "Body",
      "VariableFlipAngleFlag": "N",
      "WindowCenterWidthExplanation": "Algo1",
      "dBdt": 0.0},
    "slices": {}
  },
  "time": {
    "samples": {
      "AcquisitionNumber": [1, 2, 3, 4, 5, 6, 7, 8, 9, 10, 11, 12, 13, 14, 15, 16, 17, 18, 19, 20, 21, 22, 23, 24, 25, 26, 27, 28, 29, 30, 31, 32, 33, 34, 35, 36, 37, 38, 39, 40, 41, 42, 43, 44, 45, 46, 47, 48, 49, 50, 51, 52, 53, 54, 55, 56, 57, 58, 59, 60, 61, 62, 63, 64, 65, 66, 67, 68, 69, 70, 71, 72, 73, 74, 75, 76, 77, 78, 79, 80, 81, 82, 83, 84, 85, 86, 87, 88, 89, 90, 91, 92, 93, 94, 95, 96, 97, 98, 99, 100, 101, 102, 103, 104, 105, 106, 107, 108, 109, 110, 111, 112, 113, 114, 115, 116, 117, 118, 119, 120, 121, 122, 123, 124, 125, 126, 127, 128, 129, 130, 131, 132, 133, 134, 135, 136, 137, 138, 139, 140, 141, 142, 143, 144, 145, 146, 147, 148, 149, 150, 151, 152, 153, 154, 155, 156, 157, 158, 159, 160, 161, 162, 163, 164, 165, 166, 167, 168, 169, 170, 171, 172, 173, 174, 175, 176, 177, 178, 179, 180, 181, 182, 183, 184, 185, 186, 187, 188, 189, 190],
      "AcquisitionTime": ["155131.860000", "155133.350000", "155134.840000", "155136.330000", "155137.820000", "155139.310000", "155140.800000", "155142.290000", "155143.780000", "155145.270000", "155146.760000", "155148.250000", "155149.740000", "155151.230000", "155152.720000", "155154.210000", "155155.700000", "155157.190000", "155158.680000", "155200.170000", "155201.660000", "155203.150000", "155204.640000", "155206.130000", "155207.620000", "155209.110000", "155210.600000", "155212.090000", "155213.580000", "155215.070000", "155216.560000", "155218.050000", "155219.540000", "155221.030000", "155222.520000", "155224.010000", "155225.500000", "155226.990000", "155228.480000", "155229.970000", "155231.460000", "155232.950000", "155234.440000", "155235.930000", "155237.420000", "155238.910000", "155240.400000", "155241.890000", "155243.380000", "155244.870000", "155246.360000", "155247.850000", "155249.340000", "155250.830000", "155252.320000", "155253.810000", "155255.300000", "155256.790000", "155258.280000", "155259.770000", "155301.260000", "155302.750000", "155304.240000", "155305.730000", "155307.220000", "155308.710000", "155310.200000", "155311.690000", "155313.180000", "155314.670000", "155316.160000", "155317.650000", "155319.140000", "155320.630000", "155322.120000", "155323.610000", "155325.100000", "155326.590000", "155328.080000", "155329.570000", "155331.060000", "155332.550000", "155334.040000", "155335.530000", "155337.020000", "155338.510000", "155340.000000", "155341.490000", "155342.980000", "155344.470000", "155345.960000", "155347.450000", "155348.940000", "155350.430000", "155351.920000", "155353.410000", "155354.900000", "155356.390000", "155357.880000", "155359.370000", "155400.860000", "155402.350000", "155403.840000", "155405.330000", "155406.820000", "155408.310000", "155409.800000", "155411.290000", "155412.780000", "155414.270000", "155415.760000", "155417.250000", "155418.740000", "155420.230000", "155421.720000", "155423.210000", "155424.700000", "155426.190000", "155427.680000", "155429.170000", "155430.660000", "155432.150000", "155433.640000", "155435.130000", "155436.620000", "155438.110000", "155439.600000", "155441.090000", "155442.580000", "155444.070000", "155445.560000", "155447.050000", "155448.540000", "155450.030000", "155451.520000", "155453.010000", "155454.500000", "155455.990000", "155457.480000", "155458.970000", "155500.460000", "155501.950000", "155503.440000", "155504.930000", "155506.420000", "155507.910000", "155509.400000", "155510.890000", "155512.380000", "155513.870000", "155515.360000", "155516.850000", "155518.340000", "155519.830000", "155521.320000", "155522.810000", "155524.300000", "155525.790000", "155527.280000", "155528.770000", "155530.260000", "155531.750000", "155533.240000", "155534.730000", "155536.220000", "155537.710000", "155539.200000", "155540.690000", "155542.180000", "155543.670000", "155545.160000", "155546.650000", "155548.140000", "155549.630000", "155551.120000", "155552.610000", "155554.100000", "155555.590000", "155557.080000", "155558.570000", "155600.060000", "155601.550000", "155603.040000", "155604.530000", "155606.020000", "155607.510000", "155609.000000", "155610.490000", "155611.980000", "155613.470000"],
      "ContentTime": ["155236.133000", "155236.137000", "155236.140000", "155236.143000", "155236.147000", "155236.150000", "155236.154000", "155236.157000", "155236.160000", "155236.164000", "155256.094000", "155256.098000", "155256.102000", "155256.106000", "155256.109000", "155256.113000", "155256.116000", "155256.119000", "155256.123000", "155256.126000", "155256.129000", "155256.133000", "155256.136000", "155256.140000", "155256.143000", "155256.152000", "155256.155000", "155256.159000", "155256.162000", "155256.166000", "155256.169000", "155316.106000", "155316.110000", "155316.113000", "155316.117000", "155316.120000", "155316.123000", "155316.135000", "155316.138000", "155316.141000", "155316.145000", "155316.148000", "155316.151000", "155316.155000", "155316.158000", "155316.161000", "155316.165000", "155316.168000", "155316.172000", "155316.175000", "155316.178000", "155336.095000", "155336.099000", "155336.102000", "155336.105000", "155336.109000", "155336.112000", "155336.116000", "155336.119000", "155336.122000", "155336.133000", "155336.136000", "155336.140000", "155336.143000", "155336.146000", "155336.150000", "155336.153000", "155336.157000", "155336.160000", "155336.163000", "155336.167000", "155356.094000", "155356.098000", "155356.101000", "155356.112000", "155356.116000", "155356.119000", "155356.123000", "155356.126000", "155356.129000", "155356.133000", "155356.136000", "155356.139000", "155356.143000", "155356.146000", "155356.149000", "155356.153000", "155356.156000", "155356.160000", "155356.163000", "155356.166000", "155436.094000", "155436.098000", "155436.101000", "155436.105000", "155436.108000", "155436.111000", "155436.115000", "155436.118000", "155436.122000", "155436.125000", "155436.128000", "155436.132000", "155436.135000", "155436.139000", "155436.142000", "155436.145000", "155436.149000", "155436.152000", "155436.155000", "155436.159000", "155436.162000", "155436.165000", "155436.169000", "155436.172000", "155436.175000", "155436.179000", "155436.182000", "155436.185000", "155436.189000", "155436.192000", "155436.196000", "155436.199000", "155516.095000", "155516.098000", "155516.102000", "155516.105000", "155516.109000", "155516.112000", "155516.130000", "155516.134000", "155516.137000", "155516.148000", "155516.151000", "155516.154000", "155516.158000", "155516.161000", "155516.165000", "155516.168000", "155516.171000", "155516.175000", "155516.178000", "155516.182000", "155516.185000", "155516.189000", "155516.192000", "155516.195000", "155516.199000", "155516.202000", "155516.206000", "155556.094000", "155556.098000", "155556.101000", "155556.105000", "155556.108000", "155556.112000", "155556.115000", "155556.119000", "155556.122000", "155556.125000", "155556.129000", "155556.132000", "155556.136000", "155556.139000", "155556.142000", "155556.146000", "155556.149000", "155556.153000", "155556.157000", "155556.160000", "155556.164000", "155556.167000", "155556.170000", "155556.174000", "155556.177000", "155556.181000", "155615.741000", "155615.746000", "155615.750000", "155615.758000", "155615.762000", "155615.765000", "155615.785000", "155615.789000", "155615.792000", "155615.796000", "155615.799000", "155615.802000", "155615.806000", "155615.809000"],
      "InstanceCreationTime": ["155236.133000", "155236.137000", "155236.140000", "155236.143000", "155236.147000", "155236.150000", "155236.154000", "155236.157000", "155236.160000", "155236.164000", "155256.094000", "155256.098000", "155256.102000", "155256.106000", "155256.109000", "155256.113000", "155256.116000", "155256.119000", "155256.123000", "155256.126000", "155256.129000", "155256.133000", "155256.136000", "155256.140000", "155256.143000", "155256.152000", "155256.155000", "155256.159000", "155256.162000", "155256.166000", "155256.169000", "155316.106000", "155316.110000", "155316.113000", "155316.117000", "155316.120000", "155316.123000", "155316.135000", "155316.138000", "155316.141000", "155316.145000", "155316.148000", "155316.151000", "155316.155000", "155316.158000", "155316.161000", "155316.165000", "155316.168000", "155316.172000", "155316.175000", "155316.178000", "155336.095000", "155336.099000", "155336.102000", "155336.105000", "155336.109000", "155336.112000", "155336.116000", "155336.119000", "155336.122000", "155336.133000", "155336.136000", "155336.140000", "155336.143000", "155336.146000", "155336.150000", "155336.153000", "155336.157000", "155336.160000", "155336.163000", "155336.167000", "155356.094000", "155356.098000", "155356.101000", "155356.112000", "155356.116000", "155356.119000", "155356.123000", "155356.126000", "155356.129000", "155356.133000", "155356.136000", "155356.139000", "155356.143000", "155356.146000", "155356.149000", "155356.153000", "155356.156000", "155356.160000", "155356.163000", "155356.166000", "155436.094000", "155436.098000", "155436.101000", "155436.105000", "155436.108000", "155436.111000", "155436.115000", "155436.118000", "155436.122000", "155436.125000", "155436.128000", "155436.132000", "155436.135000", "155436.139000", "155436.142000", "155436.145000", "155436.149000", "155436.152000", "155436.155000", "155436.159000", "155436.162000", "155436.165000", "155436.169000", "155436.172000", "155436.175000", "155436.179000", "155436.182000", "155436.185000", "155436.189000", "155436.192000", "155436.196000", "155436.199000", "155516.095000", "155516.098000", "155516.102000", "155516.105000", "155516.109000", "155516.112000", "155516.130000", "155516.134000", "155516.137000", "155516.148000", "155516.151000", "155516.154000", "155516.158000", "155516.161000", "155516.165000", "155516.168000", "155516.171000", "155516.175000", "155516.178000", "155516.182000", "155516.185000", "155516.189000", "155516.192000", "155516.195000", "155516.199000", "155516.202000", "155516.206000", "155556.094000", "155556.098000", "155556.101000", "155556.105000", "155556.108000", "155556.112000", "155556.115000", "155556.119000", "155556.122000", "155556.125000", "155556.129000", "155556.132000", "155556.136000", "155556.139000", "155556.142000", "155556.146000", "155556.149000", "155556.153000", "155556.157000", "155556.160000", "155556.164000", "155556.167000", "155556.170000", "155556.174000", "155556.177000", "155556.181000", "155615.741000", "155615.746000", "155615.750000", "155615.758000", "155615.762000", "155615.765000", "155615.785000", "155615.789000", "155615.792000", "155615.796000", "155615.799000", "155615.802000", "155615.806000", "155615.809000"],
      "InstanceNumber": [1, 2, 3, 4, 5, 6, 7, 8, 9, 10, 11, 12, 13, 14, 15, 16, 17, 18, 19, 20, 21, 22, 23, 24, 25, 26, 27, 28, 29, 30, 31, 32, 33, 34, 35, 36, 37, 38, 39, 40, 41, 42, 43, 44, 45, 46, 47, 48, 49, 50, 51, 52, 53, 54, 55, 56, 57, 58, 59, 60, 61, 62, 63, 64, 65, 66, 67, 68, 69, 70, 71, 72, 73, 74, 75, 76, 77, 78, 79, 80, 81, 82, 83, 84, 85, 86, 87, 88, 89, 90, 91, 92, 93, 94, 95, 96, 97, 98, 99, 100, 101, 102, 103, 104, 105, 106, 107, 108, 109, 110, 111, 112, 113, 114, 115, 116, 117, 118, 119, 120, 121, 122, 123, 124, 125, 126, 127, 128, 129, 130, 131, 132, 133, 134, 135, 136, 137, 138, 139, 140, 141, 142, 143, 144, 145, 146, 147, 148, 149, 150, 151, 152, 153, 154, 155, 156, 157, 158, 159, 160, 161, 162, 163, 164, 165, 166, 167, 168, 169, 170, 171, 172, 173, 174, 175, 176, 177, 178, 179, 180, 181, 182, 183, 184, 185, 186, 187, 188, 189, 190],
      "LargestImagePixelValue": [44739, 43506, 42579, 42615, 41451, 41691, 41733, 41843, 41510, 41848, 41403, 41124, 40609, 41080, 41304, 41659, 41486, 41324, 40970, 41195, 40821, 41599, 40906, 40617, 41878, 41327, 41002, 40027, 40702, 40358, 41417, 40641, 41405, 41402, 41018, 40491, 41462, 41097, 41250, 41436, 40864, 40935, 41291, 41477, 40327, 40726, 40932, 41263, 42048, 41898, 40388, 41604, 41056, 40850, 41231, 41891, 41646, 41281, 40480, 40652, 40934, 40899, 41336, 41372, 41392, 41643, 41461, 41109, 41206, 40907, 41145, 40828, 41026, 41460, 41017, 41129, 40545, 40754, 40882, 41409, 41300, 41339, 41488, 40868, 41347, 40948, 41172, 41600, 41144, 41800, 42354, 41619, 41056, 41746, 41378, 40998, 41051, 41385, 41937, 41691, 41670, 41265, 41738, 41588, 42034, 41269, 41726, 41173, 41135, 41135, 41145, 41875, 41181, 41423, 41169, 41109, 41260, 41004, 41373, 41412, 41177, 41014, 41312, 41862, 40848, 41936, 42413, 41887, 41418, 39383, 39727, 39811, 40175, 40331, 40141, 39725, 39564, 40109, 39867, 39811, 39815, 40367, 41150, 41129, 39718, 40491, 40481, 39413, 40418, 41060, 40602, 40752, 40461, 40630, 40488, 41065, 40223, 41458, 41476, 40799, 41255, 41047, 40927, 40691, 39963, 40249, 40598, 40625, 41276, 41082, 41821, 41169, 41780, 41175, 41090, 41663, 41745, 41770, 41319, 41414, 41038, 41264, 41594, 41561, 41682, 41424, 41340, 41355, 41371, 41409],
      "WindowCenter": [10329.0, 10283.0, 10260.0, 10256.0, 10252.0, 10257.0, 10255.0, 10261.0, 10257.0, 10232.0, 10207.0, 10198.0, 10214.0, 10223.0, 10244.0, 10270.0, 10248.0, 10210.0, 10185.0, 10177.0, 10170.0, 10190.0, 10208.0, 10233.0, 10248.0, 10211.0, 10187.0, 10172.0, 10176.0, 10178.0, 10189.0, 10192.0, 10199.0, 10214.0, 10224.0, 10228.0, 10237.0, 10224.0, 10231.0, 10225.0, 10218.0, 10217.0, 10217.0, 10214.0, 10210.0, 10211.0, 10223.0, 10231.0, 10275.0, 10282.0, 10236.0, 10210.0, 10193.0, 10186.0, 10176.0, 10178.0, 10187.0, 10185.0, 10163.0, 10171.0, 10193.0, 10209.0, 10224.0, 10219.0, 10224.0, 10246.0, 10249.0, 10230.0, 10220.0, 10195.0, 10174.0, 10182.0, 10194.0, 10192.0, 10163.0, 10158.0, 10154.0, 10163.0, 10162.0, 10165.0, 10194.0, 10221.0, 10184.0, 10151.0, 10145.0, 10158.0, 10199.0, 10238.0, 10238.0, 10253.0, 10256.0, 10223.0, 10191.0, 10186.0, 10179.0, 10186.0, 10181.0, 10173.0, 10176.0, 10178.0, 10195.0, 10213.0, 10222.0, 10243.0, 10280.0, 10257.0, 10220.0, 10196.0, 10188.0, 10195.0, 10233.0, 10243.0, 10207.0, 10180.0, 10172.0, 10178.0, 10179.0, 10164.0, 10168.0, 10178.0, 10193.0, 10189.0, 10188.0, 10200.0, 10210.0, 10239.0, 10261.0, 10237.0, 10211.0, 10176.0, 10180.0, 10187.0, 10209.0, 10205.0, 10184.0, 10169.0, 10165.0, 10173.0, 10176.0, 10178.0, 10178.0, 10181.0, 10215.0, 10243.0, 10229.0, 10221.0, 10213.0, 10204.0, 10206.0, 10195.0, 10195.0, 10202.0, 10197.0, 10188.0, 10187.0, 10206.0, 10230.0, 10255.0, 10253.0, 10232.0, 10221.0, 10192.0, 10155.0, 10123.0, 10115.0, 10127.0, 10144.0, 10182.0, 10206.0, 10209.0, 10233.0, 10214.0, 10201.0, 10171.0, 10172.0, 10178.0, 10179.0, 10177.0, 10171.0, 10173.0, 10162.0, 10211.0, 10288.0, 10294.0, 10251.0, 10208.0, 10190.0, 10190.0, 10181.0, 10165.0],
      "WindowWidth": [22311.0, 22169.0, 22093.0, 22071.0, 22056.0, 22063.0, 22055.0, 22063.0, 22056.0, 21999.0, 21940.0, 21921.0, 21961.0, 21981.0, 22028.0, 22087.0, 22038.0, 21953.0, 21894.0, 21869.0, 21855.0, 21899.0, 21945.0, 22001.0, 22032.0, 21952.0, 21898.0, 21867.0, 21874.0, 21877.0, 21900.0, 21908.0, 21925.0, 21957.0, 21983.0, 21996.0, 22012.0, 21983.0, 21995.0, 21985.0, 21967.0, 21964.0, 21963.0, 21955.0, 21950.0, 21954.0, 21978.0, 22000.0, 22097.0, 22118.0, 22020.0, 21952.0, 21910.0, 21894.0, 21869.0, 21871.0, 21889.0, 21890.0, 21848.0, 21865.0, 21914.0, 21950.0, 21981.0, 21972.0, 21979.0, 22025.0, 22034.0, 21994.0, 21970.0, 21913.0, 21868.0, 21881.0, 21914.0, 21906.0, 21842.0, 21828.0, 21820.0, 21842.0, 21840.0, 21847.0, 21913.0, 21976.0, 21897.0, 21819.0, 21803.0, 21832.0, 21924.0, 22011.0, 22008.0, 22045.0, 22056.0, 21982.0, 21912.0, 21894.0, 21878.0, 21891.0, 21884.0, 21863.0, 21864.0, 21873.0, 21915.0, 21959.0, 21982.0, 22027.0, 22109.0, 22064.0, 21972.0, 21918.0, 21898.0, 21911.0, 21999.0, 22024.0, 21943.0, 21880.0, 21862.0, 21877.0, 21880.0, 21851.0, 21854.0, 21874.0, 21906.0, 21903.0, 21900.0, 21927.0, 21952.0, 22017.0, 22063.0, 22013.0, 21950.0, 21890.0, 21890.0, 21904.0, 21948.0, 21941.0, 21898.0, 21866.0, 21856.0, 21873.0, 21881.0, 21888.0, 21886.0, 21891.0, 21961.0, 22026.0, 22004.0, 21979.0, 21958.0, 21947.0, 21944.0, 21916.0, 21915.0, 21931.0, 21921.0, 21900.0, 21906.0, 21939.0, 21998.0, 22051.0, 22049.0, 22003.0, 21973.0, 21912.0, 21818.0, 21747.0, 21727.0, 21752.0, 21794.0, 21881.0, 21935.0, 21944.0, 21994.0, 21951.0, 21916.0, 21850.0, 21852.0, 21864.0, 21869.0, 21863.0, 21852.0, 21859.0, 21840.0, 21946.0, 22122.0, 22136.0, 22039.0, 21942.0, 21899.0, 21902.0, 21879.0, 21846.0]
    },
    "slices": {}
  }
}