{
  "AcquisitionMatrixPE": 104,
  "AcquisitionNumber": 1,
  "AcquisitionTime": "15:44:25.492500",
  "BandwidthPerPixelPhaseEncode": 17.17,
  "BaseResolution": 104,
  "BodyPartExamined": "BRAIN",
  "CoilString": "HC1-7;NC1_2",
  "ConsistencyInfo": "N4_VE11C_LATEST_20160120",
  "ConversionSoftware": "dcm2niix",
  "ConversionSoftwareVersion": "v1.0.20190902",
  "DerivedVendorReportedEchoSpacing": 0.000560011,
  "DeviceSerialNumber": "167006",
  "DwellTime": 2.1e-06,
  "EchoTime": 0.037,
  "EchoTrainLength": 104,
  "EffectiveEchoSpacing": 0.000560011,
  "FlipAngle": 52,
  "ImageComments": "Unaliased_MB4_PE3_LB",
  "ImageOrientationPatientDICOM": [0.999362, -0.0354926, 0.00407688, 0.0348985, 0.945415, -0.323994],
  "ImageType": [
    "ORIGINAL",
    "PRIMARY",
    "P",
    "MB",
    "ND",
    "MOSAIC"
],
  "ImagingFrequency": 123.259,
  "InPlanePhaseEncodingDirectionDICOM": "COL",
  "InstitutionAddress": "Chemin_Queen-Mary_4565_Montreal_District_CA_H3W_1W5",
  "InstitutionName": "IUGM",
  "InstitutionalDepartmentName": "Department",
  "MRAcquisitionType": "2D",
  "MagneticFieldStrength": 3,
  "Manufacturer": "Siemens",
  "ManufacturersModelName": "Prisma_fit",
  "Modality": "MR",
  "MultibandAccelerationFactor": 4,
  "PartialFourier": 1,
  "PatientPosition": "HFS",
  "PercentPhaseFOV": 100,
  "PhaseEncodingDirection": "j",
  "PhaseEncodingSteps": 104,
  "PhaseResolution": 1,
  "PixelBandwidth": 2290,
  "ProcedureStepDescription": "memory_things",
  "ProtocolName": "func_task-things_run-3",
  "PulseSequenceDetails": "%CustomerSeq%_cmrr_mbep2d_bold",
  "ReceiveCoilActiveElements": "HC1-7;NC1,2",
  "ReceiveCoilName": "HeadNeck_64",
  "ReconMatrixPE": 104,
  "RepetitionTime": 1.49,
  "SAR": 0.0374755,
  "ScanOptions": "FS",
  "ScanningSequence": "EP",
  "SequenceName": "epfid2d1_104",
  "SequenceVariant": "SK_SS",
  "SeriesDescription": "func_task-things_run-3",
  "SeriesNumber": 17,
  "ShimSetting": [627, -7244, -8814, 605, 9, -149, 30, -14],
  "SliceThickness": 2,
  "SliceTiming": [0, 0.7825, 0.0975, 0.8825, 0.195, 0.98, 0.2925, 1.0775, 0.3925, 1.175, 0.49, 1.2725, 0.5875, 1.3725, 0.685, 0, 0.7825, 0.0975, 0.8825, 0.195, 0.98, 0.2925, 1.0775, 0.3925, 1.175, 0.49, 1.2725, 0.5875, 1.3725, 0.685, 0, 0.7825, 0.0975, 0.8825, 0.195, 0.98, 0.2925, 1.0775, 0.3925, 1.175, 0.49, 1.2725, 0.5875, 1.3725, 0.685, 0, 0.7825, 0.0975, 0.8825, 0.195, 0.98, 0.2925, 1.0775, 0.3925, 1.175, 0.49, 1.2725, 0.5875, 1.3725, 0.685],
  "SoftwareVersions": "syngo_MR_E11",
  "SpacingBetweenSlices": 2,
  "StationName": "MRC35049",
  "TaskName": "things",
  "TotalReadoutTime": 0.0576811,
  "TxRefAmp": 239.22,
  "WipMemBlock": "b10f989b-6781-4520-b2a2-d46e6d12668b||Sequence: R016 ve11c/master r/e634e98; Dec 19 2017 11:00:25 by eja",
  "dcmmeta_affine": [
    [-1.9987232685089111, 0.06979690492153168, -0.0152900954708457, 103.27568054199219],
    [0.07098528742790222, 1.8908307552337646, -0.6478580832481384, -69.75907135009766],
    [0.008153751492500305, 0.6479871869087219, 1.8921009302139282, -62.66720199584961],
    [0.0, 0.0, 0.0, 1.0]
],
  "dcmmeta_reorient_transform": [
    [0.0, -1.0, 0.0, 103.0],
    [1.0, 0.0, 0.0, 0.0],
    [0.0, 0.0, 1.0, 0.0],
    [0.0, 0.0, 0.0, 1.0]
],
  "dcmmeta_shape": [104, 104, 60, 190],
  "dcmmeta_slice_dim": 2,
  "dcmmeta_version": 0.6,
  "global": {
    "const": {
      "AcquisitionMatrix": [104, 0, 0, 104],
      "AngioFlag": "N",
      "BitsAllocated": 16,
      "BitsStored": 16,
      "BodyPartExamined": "BRAIN",
      "Columns": 832,
      "EchoNumbers": 1,
      "EchoTime": 37.0,
      "EchoTrainLength": 104,
      "FlipAngle": 52.0,
      "HighBit": 15,
      "ImageOrientationPatient": [0.99936162192752, -0.0354926429382, 0.00407687572231, 0.03489845067501, 0.94541538372808, -0.323993596157],
      "ImagePositionPatient": [-863.40609258449, -787.42025280786, 236.97485149264],
      "ImageType": [
        "ORIGINAL",
        "PRIMARY",
        "P",
        "MB",
        "ND",
        "MOSAIC"
],
      "ImagedNucleus": "1H",
      "ImagingFrequency": 123.258915,
      "InPlanePhaseEncodingDirection": "COL",
      "LargestImagePixelValue": 4095,
      "MRAcquisitionType": "2D",
      "MagneticFieldStrength": 3.0,
      "Manufacturer": "SIEMENS",
      "ManufacturerModelName": "Prisma_fit",
      "Modality": "MR",
      "NumberOfAverages": 1.0,
      "NumberOfPhaseEncodingSteps": 104,
      "PercentPhaseFieldOfView": 100.0,
      "PercentSampling": 100.0,
      "PerformedProcedureStepStartTime": "143227.336000",
      "PhotometricInterpretation": "MONOCHROME2",
      "PixelBandwidth": 2290.0,
      "PixelRepresentation": 0,
      "PixelSpacing": [2.0, 2.0],
      "ProtocolName": "func_task-things_run-3",
      "RepetitionTime": 1490.0,
      "RescaleIntercept": -4096.0,
      "RescaleSlope": 2.0,
      "RescaleType": "US",
      "Rows": 832,
      "SAR": 0.03747551216775,
      "SamplesPerPixel": 1,
      "ScanOptions": "FS",
      "ScanningSequence": "EP",
      "SequenceName": "epfid2d1_104",
      "SequenceVariant": [
        "SK",
        "SS"
],
      "SeriesDescription": "func_task-things_run-3",
      "SeriesNumber": 17,
      "SeriesTime": "154551.747000",
      "SliceLocation": -37.478895214034,
      "SliceThickness": 2.0,
      "SmallestImagePixelValue": 0,
      "SoftwareVersions": "syngo MR E11",
      "SpacingBetweenSlices": 1.9999999457527,
      "SpecificCharacterSet": "ISO_IR 100",
      "StudyID": "1",
      "StudyTime": "143227.277000",
      "TransmitCoilName": "Body",
      "VariableFlipAngleFlag": "N",
      "WindowCenterWidthExplanation": "Algo1",
      "dBdt": 0.0},
    "slices": {}
  },
  "time": {
    "samples": {
      "AcquisitionNumber": [1, 2, 3, 4, 5, 6, 7, 8, 9, 10, 11, 12, 13, 14, 15, 16, 17, 18, 19, 20, 21, 22, 23, 24, 25, 26, 27, 28, 29, 30, 31, 32, 33, 34, 35, 36, 37, 38, 39, 40, 41, 42, 43, 44, 45, 46, 47, 48, 49, 50, 51, 52, 53, 54, 55, 56, 57, 58, 59, 60, 61, 62, 63, 64, 65, 66, 67, 68, 69, 70, 71, 72, 73, 74, 75, 76, 77, 78, 79, 80, 81, 82, 83, 84, 85, 86, 87, 88, 89, 90, 91, 92, 93, 94, 95, 96, 97, 98, 99, 100, 101, 102, 103, 104, 105, 106, 107, 108, 109, 110, 111, 112, 113, 114, 115, 116, 117, 118, 119, 120, 121, 122, 123, 124, 125, 126, 127, 128, 129, 130, 131, 132, 133, 134, 135, 136, 137, 138, 139, 140, 141, 142, 143, 144, 145, 146, 147, 148, 149, 150, 151, 152, 153, 154, 155, 156, 157, 158, 159, 160, 161, 162, 163, 164, 165, 166, 167, 168, 169, 170, 171, 172, 173, 174, 175, 176, 177, 178, 179, 180, 181, 182, 183, 184, 185, 186, 187, 188, 189, 190],
      "AcquisitionTime": ["154425.492500", "154426.982500", "154428.472500", "154429.962500", "154431.452500", "154432.942500", "154434.432500", "154435.922500", "154437.412500", "154438.902500", "154440.392500", "154441.882500", "154443.372500", "154444.862500", "154446.352500", "154447.842500", "154449.332500", "154450.822500", "154452.312500", "154453.802500", "154455.292500", "154456.782500", "154458.272500", "154459.762500", "154501.252500", "154502.742500", "154504.232500", "154505.722500", "154507.212500", "154508.702500", "154510.192500", "154511.682500", "154513.172500", "154514.662500", "154516.152500", "154517.642500", "154519.132500", "154520.622500", "154522.112500", "154523.602500", "154525.092500", "154526.582500", "154528.072500", "154529.562500", "154531.052500", "154532.542500", "154534.032500", "154535.522500", "154537.012500", "154538.502500", "154539.992500", "154541.482500", "154542.972500", "154544.462500", "154545.952500", "154547.442500", "154548.932500", "154550.422500", "154551.912500", "154553.402500", "154554.892500", "154556.382500", "154557.872500", "154559.362500", "154600.852500", "154602.342500", "154603.832500", "154605.322500", "154606.812500", "154608.302500", "154609.792500", "154611.282500", "154612.772500", "154614.262500", "154615.752500", "154617.242500", "154618.732500", "154620.222500", "154621.712500", "154623.202500", "154624.692500", "154626.182500", "154627.672500", "154629.162500", "154630.652500", "154632.142500", "154633.632500", "154635.122500", "154636.612500", "154638.102500", "154639.592500", "154641.082500", "154642.572500", "154644.062500", "154645.552500", "154647.042500", "154648.532500", "154650.022500", "154651.512500", "154653.002500", "154654.492500", "154655.982500", "154657.472500", "154658.962500", "154700.452500", "154701.942500", "154703.432500", "154704.922500", "154706.412500", "154707.902500", "154709.392500", "154710.882500", "154712.372500", "154713.862500", "154715.352500", "154716.842500", "154718.332500", "154719.822500", "154721.312500", "154722.802500", "154724.292500", "154725.782500", "154727.272500", "154728.762500", "154730.252500", "154731.742500", "154733.232500", "154734.722500", "154736.212500", "154737.702500", "154739.192500", "154740.682500", "154742.172500", "154743.662500", "154745.152500", "154746.642500", "154748.132500", "154749.622500", "154751.112500", "154752.602500", "154754.092500", "154755.582500", "154757.072500", "154758.562500", "154800.052500", "154801.542500", "154803.032500", "154804.522500", "154806.012500", "154807.502500", "154808.992500", "154810.482500", "154811.972500", "154813.462500", "154814.952500", "154816.442500", "154817.932500", "154819.422500", "154820.912500", "154822.402500", "154823.892500", "154825.382500", "154826.872500", "154828.362500", "154829.852500", "154831.342500", "154832.832500", "154834.322500", "154835.812500", "154837.302500", "154838.792500", "154840.282500", "154841.772500", "154843.262500", "154844.752500", "154846.242500", "154847.732500", "154849.222500", "154850.712500", "154852.202500", "154853.692500", "154855.182500", "154856.672500", "154858.162500", "154859.652500", "154901.142500", "154902.632500", "154904.122500", "154905.612500", "154907.102500"],
      "ContentTime": ["154551.749000", "154551.752000", "154551.754000", "154551.757000", "154551.759000", "154551.762000", "154551.764000", "154551.767000", "154551.798000", "154551.800000", "154551.803000", "154551.806000", "154551.808000", "154551.811000", "154551.813000", "154551.816000", "154551.818000", "154551.821000", "154551.823000", "154551.826000", "154551.834000", "154551.837000", "154551.839000", "154551.842000", "154551.844000", "154551.847000", "154551.850000", "154551.852000", "154551.855000", "154551.857000", "154551.860000", "154551.862000", "154611.700000", "154611.703000", "154611.705000", "154611.708000", "154611.710000", "154611.719000", "154611.721000", "154611.724000", "154611.726000", "154611.729000", "154611.732000", "154611.735000", "154611.737000", "154611.740000", "154611.742000", "154611.745000", "154611.747000", "154611.750000", "154611.752000", "154611.755000", "154631.665000", "154631.668000", "154631.670000", "154631.673000", "154631.675000", "154631.678000", "154631.680000", "154631.683000", "154631.685000", "154631.688000", "154631.691000", "154631.693000", "154631.696000", "154631.698000", "154631.701000", "154631.703000", "154631.706000", "154631.709000", "154631.711000", "154631.714000", "154631.717000", "154651.675000", "154651.678000", "154651.681000", "154651.683000", "154651.686000", "154651.688000", "154651.691000", "154651.694000", "154651.696000", "154651.699000", "154651.701000", "154651.704000", "154651.706000", "154651.709000", "154651.712000", "154651.714000", "154651.717000", "154651.719000", "154651.722000", "154651.724000", "154731.724000", "154731.727000", "154731.729000", "154731.732000", "154731.734000", "154731.737000", "154731.740000", "154731.743000", "154731.746000", "154731.748000", "154731.751000", "154731.753000", "154731.756000", "154731.758000", "154731.761000", "154731.763000", "154731.766000", "154731.807000", "154731.809000", "154731.812000", "154731.815000", "154731.817000", "154731.820000", "154731.822000", "154731.825000", "154731.827000", "154731.830000", "154731.832000", "154731.835000", "154731.838000", "154731.840000", "154811.709000", "154811.712000", "154811.715000", "154811.717000", "154811.720000", "154811.722000", "154811.729000", "154811.732000", "154811.734000", "154811.737000", "154811.739000", "154811.742000", "154811.744000", "154811.747000", "154811.750000", "154811.752000", "154811.755000", "154811.757000", "154811.760000", "154811.762000", "154811.765000", "154811.767000", "154811.802000", "154811.805000", "154811.807000", "154811.810000", "154811.813000", "154851.705000", "154851.708000", "154851.711000", "154851.713000", "154851.716000", "154851.719000", "154851.721000", "154851.724000", "154851.726000", "154851.729000", "154851.731000", "154851.734000", "154851.737000", "154851.739000", "154851.742000", "154851.744000", "154851.747000", "154851.749000", "154851.752000", "154851.755000", "154851.757000", "154851.760000", "154851.762000", "154851.765000", "154851.768000", "154851.807000", "154851.809000", "154908.863000", "154908.866000", "154908.869000", "154908.871000", "154908.874000", "154908.883000", "154908.885000", "154908.888000", "154908.890000", "154908.893000", "154908.896000", "154908.898000"],
      "InstanceCreationTime": ["154551.749000", "154551.752000", "154551.754000", "154551.757000", "154551.759000", "154551.762000", "154551.764000", "154551.767000", "154551.798000", "154551.800000", "154551.803000", "154551.806000", "154551.808000", "154551.811000", "154551.813000", "154551.816000", "154551.818000", "154551.821000", "154551.823000", "154551.826000", "154551.834000", "154551.837000", "154551.839000", "154551.842000", "154551.844000", "154551.847000", "154551.850000", "154551.852000", "154551.855000", "154551.857000", "154551.860000", "154551.862000", "154611.700000", "154611.703000", "154611.705000", "154611.708000", "154611.710000", "154611.719000", "154611.721000", "154611.724000", "154611.726000", "154611.729000", "154611.732000", "154611.735000", "154611.737000", "154611.740000", "154611.742000", "154611.745000", "154611.747000", "154611.750000", "154611.752000", "154611.755000", "154631.665000", "154631.668000", "154631.670000", "154631.673000", "154631.675000", "154631.678000", "154631.680000", "154631.683000", "154631.685000", "154631.688000", "154631.691000", "154631.693000", "154631.696000", "154631.698000", "154631.701000", "154631.703000", "154631.706000", "154631.709000", "154631.711000", "154631.714000", "154631.717000", "154651.675000", "154651.678000", "154651.681000", "154651.683000", "154651.686000", "154651.688000", "154651.691000", "154651.694000", "154651.696000", "154651.699000", "154651.701000", "154651.704000", "154651.706000", "154651.709000", "154651.712000", "154651.714000", "154651.717000", "154651.719000", "154651.722000", "154651.724000", "154731.724000", "154731.727000", "154731.729000", "154731.732000", "154731.734000", "154731.737000", "154731.740000", "154731.743000", "154731.746000", "154731.748000", "154731.751000", "154731.753000", "154731.756000", "154731.758000", "154731.761000", "154731.763000", "154731.766000", "154731.807000", "154731.809000", "154731.812000", "154731.815000", "154731.817000", "154731.820000", "154731.822000", "154731.825000", "154731.827000", "154731.830000", "154731.832000", "154731.835000", "154731.838000", "154731.840000", "154811.709000", "154811.712000", "154811.715000", "154811.717000", "154811.720000", "154811.722000", "154811.729000", "154811.732000", "154811.734000", "154811.737000", "154811.739000", "154811.742000", "154811.744000", "154811.747000", "154811.750000", "154811.752000", "154811.755000", "154811.757000", "154811.760000", "154811.762000", "154811.765000", "154811.767000", "154811.802000", "154811.805000", "154811.807000", "154811.810000", "154811.813000", "154851.705000", "154851.708000", "154851.711000", "154851.713000", "154851.716000", "154851.719000", "154851.721000", "154851.724000", "154851.726000", "154851.729000", "154851.731000", "154851.734000", "154851.737000", "154851.739000", "154851.742000", "154851.744000", "154851.747000", "154851.749000", "154851.752000", "154851.755000", "154851.757000", "154851.760000", "154851.762000", "154851.765000", "154851.768000", "154851.807000", "154851.809000", "154908.863000", "154908.866000", "154908.869000", "154908.871000", "154908.874000", "154908.883000", "154908.885000", "154908.888000", "154908.890000", "154908.893000", "154908.896000", "154908.898000"],
      "InstanceNumber": [1, 2, 3, 4, 5, 6, 7, 8, 9, 10, 11, 12, 13, 14, 15, 16, 17, 18, 19, 20, 21, 22, 23, 24, 25, 26, 27, 28, 29, 30, 31, 32, 33, 34, 35, 36, 37, 38, 39, 40, 41, 42, 43, 44, 45, 46, 47, 48, 49, 50, 51, 52, 53, 54, 55, 56, 57, 58, 59, 60, 61, 62, 63, 64, 65, 66, 67, 68, 69, 70, 71, 72, 73, 74, 75, 76, 77, 78, 79, 80, 81, 82, 83, 84, 85, 86, 87, 88, 89, 90, 91, 92, 93, 94, 95, 96, 97, 98, 99, 100, 101, 102, 103, 104, 105, 106, 107, 108, 109, 110, 111, 112, 113, 114, 115, 116, 117, 118, 119, 120, 121, 122, 123, 124, 125, 126, 127, 128, 129, 130, 131, 132, 133, 134, 135, 136, 137, 138, 139, 140, 141, 142, 143, 144, 145, 146, 147, 148, 149, 150, 151, 152, 153, 154, 155, 156, 157, 158, 159, 160, 161, 162, 163, 164, 165, 166, 167, 168, 169, 170, 171, 172, 173, 174, 175, 176, 177, 178, 179, 180, 181, 182, 183, 184, 185, 186, 187, 188, 189, 190],
      "WindowCenter": [4778.0, 4782.0, 4784.0, 4790.0, 4786.0, 4782.0, 4786.0, 4788.0, 4812.0, 4790.0, 4786.0, 4790.0, 4786.0, 4788.0, 4782.0, 4786.0, 4760.0, 4786.0, 4790.0, 4808.0, 4784.0, 4784.0, 4786.0, 4766.0, 4784.0, 4784.0, 4760.0, 4792.0, 4784.0, 4784.0, 4784.0, 4788.0, 4812.0, 4788.0, 4786.0, 4782.0, 4786.0, 4790.0, 4790.0, 4790.0, 4790.0, 4788.0, 4810.0, 4788.0, 4780.0, 4788.0, 4786.0, 4786.0, 4786.0, 4790.0, 4788.0, 4788.0, 4786.0, 4780.0, 4790.0, 4784.0, 4784.0, 4784.0, 4780.0, 4782.0, 4782.0, 4788.0, 4812.0, 4794.0, 4796.0, 4794.0, 4772.0, 4784.0, 4800.0, 4806.0, 4806.0, 4806.0, 4784.0, 4790.0, 4792.0, 4800.0, 4790.0, 4784.0, 4784.0, 4812.0, 4806.0, 4806.0, 4782.0, 4784.0, 4790.0, 4784.0, 4792.0, 4780.0, 4784.0, 4780.0, 4762.0, 4786.0, 4786.0, 4806.0, 4784.0, 4808.0, 4786.0, 4792.0, 4790.0, 4788.0, 4802.0, 4830.0, 4790.0, 4780.0, 4804.0, 4804.0, 4806.0, 4804.0, 4788.0, 4796.0, 4798.0, 4796.0, 4792.0, 4782.0, 4792.0, 4760.0, 4780.0, 4780.0, 4800.0, 4786.0, 4784.0, 4782.0, 4794.0, 4802.0, 4790.0, 4784.0, 4808.0, 4784.0, 4806.0, 4786.0, 4790.0, 4784.0, 4784.0, 4786.0, 4780.0, 4782.0, 4784.0, 4782.0, 4784.0, 4790.0, 4786.0, 4782.0, 4784.0, 4784.0, 4782.0, 4786.0, 4792.0, 4760.0, 4782.0, 4780.0, 4782.0, 4810.0, 4782.0, 4782.0, 4786.0, 4784.0, 4784.0, 4784.0, 4782.0, 4784.0, 4790.0, 4786.0, 4782.0, 4784.0, 4784.0, 4806.0, 4784.0, 4780.0, 4782.0, 4782.0, 4786.0, 4786.0, 4784.0, 4780.0, 4784.0, 4790.0, 4812.0, 4784.0, 4784.0, 4786.0, 4786.0, 4782.0, 4786.0, 4784.0, 4780.0, 4786.0, 4792.0, 4770.0, 4776.0, 4802.0],
      "WindowWidth": [18568.0, 18574.0, 18564.0, 18558.0, 18568.0, 18566.0, 18564.0, 18574.0, 18612.0, 18574.0, 18572.0, 18576.0, 18556.0, 18568.0, 18566.0, 18556.0, 18528.0, 18578.0, 18582.0, 18614.0, 18582.0, 18584.0, 18568.0, 18524.0, 18558.0, 18560.0, 18518.0, 18558.0, 18564.0, 18584.0, 18582.0, 18580.0, 18614.0, 18568.0, 18564.0, 18558.0, 18564.0, 18568.0, 18566.0, 18558.0, 18572.0, 18580.0, 18608.0, 18556.0, 18560.0, 18574.0, 18578.0, 18578.0, 18572.0, 18576.0, 18562.0, 18556.0, 18558.0, 18564.0, 18562.0, 18564.0, 18574.0, 18570.0, 18570.0, 18568.0, 18568.0, 18576.0, 18608.0, 18550.0, 18544.0, 18544.0, 18504.0, 18578.0, 18620.0, 18622.0, 18620.0, 18618.0, 18560.0, 18554.0, 18550.0, 18546.0, 18548.0, 18564.0, 18578.0, 18626.0, 18612.0, 18616.0, 18574.0, 18558.0, 18554.0, 18556.0, 18560.0, 18558.0, 18568.0, 18574.0, 18516.0, 18556.0, 18574.0, 18614.0, 18580.0, 18614.0, 18564.0, 18566.0, 18564.0, 18558.0, 18544.0, 18576.0, 18544.0, 18582.0, 18626.0, 18620.0, 18624.0, 18614.0, 18550.0, 18550.0, 18550.0, 18548.0, 18562.0, 18562.0, 18554.0, 18514.0, 18580.0, 18590.0, 18618.0, 18588.0, 18580.0, 18558.0, 18542.0, 18550.0, 18550.0, 18564.0, 18616.0, 18586.0, 18622.0, 18570.0, 18560.0, 18562.0, 18566.0, 18566.0, 18564.0, 18566.0, 18570.0, 18566.0, 18564.0, 18546.0, 18556.0, 18576.0, 18588.0, 18586.0, 18580.0, 18548.0, 18546.0, 18526.0, 18566.0, 18576.0, 18582.0, 18616.0, 18578.0, 18572.0, 18562.0, 18560.0, 18560.0, 18564.0, 18560.0, 18560.0, 18548.0, 18552.0, 18578.0, 18582.0, 18582.0, 18616.0, 18572.0, 18570.0, 18558.0, 18554.0, 18552.0, 18558.0, 18568.0, 18562.0, 18580.0, 18586.0, 18612.0, 18560.0, 18564.0, 18564.0, 18562.0, 18564.0, 18564.0, 18572.0, 18572.0, 18556.0, 18538.0, 18506.0, 18568.0, 18622.0]
    },
    "slices": {}
  }
}