{
  "AcquisitionMatrixPE": 104,
  "AcquisitionNumber": 1,
  "AcquisitionTime": "15:44:25.492500",
  "BandwidthPerPixelPhaseEncode": 17.17,
  "BaseResolution": 104,
  "BodyPartExamined": "BRAIN",
  "CoilString": "HC1-7;NC1_2",
  "ConsistencyInfo": "N4_VE11C_LATEST_20160120",
  "ConversionSoftware": "dcm2niix",
  "ConversionSoftwareVersion": "v1.0.20190902",
  "DerivedVendorReportedEchoSpacing": 0.000560011,
  "DeviceSerialNumber": "167006",
  "DwellTime": 2.1e-06,
  "EchoTime": 0.037,
  "EchoTrainLength": 104,
  "EffectiveEchoSpacing": 0.000560011,
  "FlipAngle": 52,
  "ImageComments": "Unaliased_MB4_PE3_LB",
  "ImageOrientationPatientDICOM": [0.999362, -0.0354926, 0.00407688, 0.0348985, 0.945415, -0.323994],
  "ImageType": [
    "ORIGINAL",
    "PRIMARY",
    "M",
    "MB",
    "ND",
    "MOSAIC"
],
  "ImagingFrequency": 123.259,
  "InPlanePhaseEncodingDirectionDICOM": "COL",
  "InstitutionAddress": "Chemin_Queen-Mary_4565_Montreal_District_CA_H3W_1W5",
  "InstitutionName": "IUGM",
  "InstitutionalDepartmentName": "Department",
  "MRAcquisitionType": "2D",
  "MagneticFieldStrength": 3,
  "Manufacturer": "Siemens",
  "ManufacturersModelName": "Prisma_fit",
  "Modality": "MR",
  "MultibandAccelerationFactor": 4,
  "PartialFourier": 1,
  "PatientPosition": "HFS",
  "PercentPhaseFOV": 100,
  "PhaseEncodingDirection": "j",
  "PhaseEncodingSteps": 104,
  "PhaseResolution": 1,
  "PixelBandwidth": 2290,
  "ProcedureStepDescription": "memory_things",
  "ProtocolName": "func_task-things_run-3",
  "PulseSequenceDetails": "%CustomerSeq%_cmrr_mbep2d_bold",
  "ReceiveCoilActiveElements": "HC1-7;NC1,2",
  "ReceiveCoilName": "HeadNeck_64",
  "ReconMatrixPE": 104,
  "RepetitionTime": 1.49,
  "SAR": 0.0374755,
  "ScanOptions": "FS",
  "ScanningSequence": "EP",
  "SequenceName": "epfid2d1_104",
  "SequenceVariant": "SK_SS",
  "SeriesDescription": "func_task-things_run-3",
  "SeriesNumber": 16,
  "ShimSetting": [627, -7244, -8814, 605, 9, -149, 30, -14],
  "SliceThickness": 2,
  "SliceTiming": [0, 0.7825, 0.0975, 0.8825, 0.195, 0.98, 0.2925, 1.0775, 0.3925, 1.175, 0.49, 1.2725, 0.5875, 1.3725, 0.685, 0, 0.7825, 0.0975, 0.8825, 0.195, 0.98, 0.2925, 1.0775, 0.3925, 1.175, 0.49, 1.2725, 0.5875, 1.3725, 0.685, 0, 0.7825, 0.0975, 0.8825, 0.195, 0.98, 0.2925, 1.0775, 0.3925, 1.175, 0.49, 1.2725, 0.5875, 1.3725, 0.685, 0, 0.7825, 0.0975, 0.8825, 0.195, 0.98, 0.2925, 1.0775, 0.3925, 1.175, 0.49, 1.2725, 0.5875, 1.3725, 0.685],
  "SoftwareVersions": "syngo_MR_E11",
  "SpacingBetweenSlices": 2,
  "StationName": "MRC35049",
  "TaskName": "things",
  "TotalReadoutTime": 0.0576811,
  "TxRefAmp": 239.22,
  "WipMemBlock": "b10f989b-6781-4520-b2a2-d46e6d12668b||Sequence: R016 ve11c/master r/e634e98; Dec 19 2017 11:00:25 by eja",
  "dcmmeta_affine": [
    [-1.9987232685089111, 0.06979690492153168, -0.0152900954708457, 103.27568054199219],
    [0.07098528742790222, 1.8908307552337646, -0.6478580832481384, -69.75907135009766],
    [0.008153751492500305, 0.6479871869087219, 1.8921009302139282, -62.66720199584961],
    [0.0, 0.0, 0.0, 1.0]
],
  "dcmmeta_reorient_transform": [
    [0.0, -1.0, 0.0, 103.0],
    [1.0, 0.0, 0.0, 0.0],
    [0.0, 0.0, 1.0, 0.0],
    [0.0, 0.0, 0.0, 1.0]
],
  "dcmmeta_shape": [104, 104, 60, 190],
  "dcmmeta_slice_dim": 2,
  "dcmmeta_version": 0.6,
  "global": {
    "const": {
      "AcquisitionMatrix": [104, 0, 0, 104],
      "AngioFlag": "N",
      "BitsAllocated": 16,
      "BitsStored": 16,
      "BodyPartExamined": "BRAIN",
      "Columns": 832,
      "EchoNumbers": 1,
      "EchoTime": 37.0,
      "EchoTrainLength": 104,
      "FlipAngle": 52.0,
      "HighBit": 15,
      "ImageOrientationPatient": [0.99936162192752, -0.0354926429382, 0.00407687572231, 0.03489845067501, 0.94541538372808, -0.323993596157],
      "ImagePositionPatient": [-863.40609258449, -787.42025280786, 236.97485149264],
      "ImageType": [
        "ORIGINAL",
        "PRIMARY",
        "M",
        "MB",
        "ND",
        "MOSAIC"
],
      "ImagedNucleus": "1H",
      "ImagingFrequency": 123.258915,
      "InPlanePhaseEncodingDirection": "COL",
      "MRAcquisitionType": "2D",
      "MagneticFieldStrength": 3.0,
      "Manufacturer": "SIEMENS",
      "ManufacturerModelName": "Prisma_fit",
      "Modality": "MR",
      "NumberOfAverages": 1.0,
      "NumberOfPhaseEncodingSteps": 104,
      "PercentPhaseFieldOfView": 100.0,
      "PercentSampling": 100.0,
      "PerformedProcedureStepStartTime": "143227.336000",
      "PhotometricInterpretation": "MONOCHROME2",
      "PixelBandwidth": 2290.0,
      "PixelRepresentation": 0,
      "PixelSpacing": [2.0, 2.0],
      "ProtocolName": "func_task-things_run-3",
      "RepetitionTime": 1490.0,
      "Rows": 832,
      "SAR": 0.03747551216775,
      "SamplesPerPixel": 1,
      "ScanOptions": "FS",
      "ScanningSequence": "EP",
      "SequenceName": "epfid2d1_104",
      "SequenceVariant": [
        "SK",
        "SS"
],
      "SeriesDescription": "func_task-things_run-3",
      "SeriesNumber": 16,
      "SeriesTime": "154551.594000",
      "SliceLocation": -37.478895214034,
      "SliceThickness": 2.0,
      "SmallestImagePixelValue": 0,
      "SoftwareVersions": "syngo MR E11",
      "SpacingBetweenSlices": 1.9999999457527,
      "SpecificCharacterSet": "ISO_IR 100",
      "StudyID": "1",
      "StudyTime": "143227.277000",
      "TransmitCoilName": "Body",
      "VariableFlipAngleFlag": "N",
      "WindowCenterWidthExplanation": "Algo1",
      "dBdt": 0.0},
    "slices": {}
  },
  "time": {
    "samples": {
      "AcquisitionNumber": [1, 2, 3, 4, 5, 6, 7, 8, 9, 10, 11, 12, 13, 14, 15, 16, 17, 18, 19, 20, 21, 22, 23, 24, 25, 26, 27, 28, 29, 30, 31, 32, 33, 34, 35, 36, 37, 38, 39, 40, 41, 42, 43, 44, 45, 46, 47, 48, 49, 50, 51, 52, 53, 54, 55, 56, 57, 58, 59, 60, 61, 62, 63, 64, 65, 66, 67, 68, 69, 70, 71, 72, 73, 74, 75, 76, 77, 78, 79, 80, 81, 82, 83, 84, 85, 86, 87, 88, 89, 90, 91, 92, 93, 94, 95, 96, 97, 98, 99, 100, 101, 102, 103, 104, 105, 106, 107, 108, 109, 110, 111, 112, 113, 114, 115, 116, 117, 118, 119, 120, 121, 122, 123, 124, 125, 126, 127, 128, 129, 130, 131, 132, 133, 134, 135, 136, 137, 138, 139, 140, 141, 142, 143, 144, 145, 146, 147, 148, 149, 150, 151, 152, 153, 154, 155, 156, 157, 158, 159, 160, 161, 162, 163, 164, 165, 166, 167, 168, 169, 170, 171, 172, 173, 174, 175, 176, 177, 178, 179, 180, 181, 182, 183, 184, 185, 186, 187, 188, 189, 190],
      "AcquisitionTime": ["154425.492500", "154426.982500", "154428.472500", "154429.962500", "154431.452500", "154432.942500", "154434.432500", "154435.922500", "154437.412500", "154438.902500", "154440.392500", "154441.882500", "154443.372500", "154444.862500", "154446.352500", "154447.842500", "154449.332500", "154450.822500", "154452.312500", "154453.802500", "154455.292500", "154456.782500", "154458.272500", "154459.762500", "154501.252500", "154502.742500", "154504.232500", "154505.722500", "154507.212500", "154508.702500", "154510.192500", "154511.682500", "154513.172500", "154514.662500", "154516.152500", "154517.642500", "154519.132500", "154520.622500", "154522.112500", "154523.602500", "154525.092500", "154526.582500", "154528.072500", "154529.562500", "154531.052500", "154532.542500", "154534.032500", "154535.522500", "154537.012500", "154538.502500", "154539.992500", "154541.482500", "154542.972500", "154544.462500", "154545.952500", "154547.442500", "154548.932500", "154550.422500", "154551.912500", "154553.402500", "154554.892500", "154556.382500", "154557.872500", "154559.362500", "154600.852500", "154602.342500", "154603.832500", "154605.322500", "154606.812500", "154608.302500", "154609.792500", "154611.282500", "154612.772500", "154614.262500", "154615.752500", "154617.242500", "154618.732500", "154620.222500", "154621.712500", "154623.202500", "154624.692500", "154626.182500", "154627.672500", "154629.162500", "154630.652500", "154632.142500", "154633.632500", "154635.122500", "154636.612500", "154638.102500", "154639.592500", "154641.082500", "154642.572500", "154644.062500", "154645.552500", "154647.042500", "154648.532500", "154650.022500", "154651.512500", "154653.002500", "154654.492500", "154655.982500", "154657.472500", "154658.962500", "154700.452500", "154701.942500", "154703.432500", "154704.922500", "154706.412500", "154707.902500", "154709.392500", "154710.882500", "154712.372500", "154713.862500", "154715.352500", "154716.842500", "154718.332500", "154719.822500", "154721.312500", "154722.802500", "154724.292500", "154725.782500", "154727.272500", "154728.762500", "154730.252500", "154731.742500", "154733.232500", "154734.722500", "154736.212500", "154737.702500", "154739.192500", "154740.682500", "154742.172500", "154743.662500", "154745.152500", "154746.642500", "154748.132500", "154749.622500", "154751.112500", "154752.602500", "154754.092500", "154755.582500", "154757.072500", "154758.562500", "154800.052500", "154801.542500", "154803.032500", "154804.522500", "154806.012500", "154807.502500", "154808.992500", "154810.482500", "154811.972500", "154813.462500", "154814.952500", "154816.442500", "154817.932500", "154819.422500", "154820.912500", "154822.402500", "154823.892500", "154825.382500", "154826.872500", "154828.362500", "154829.852500", "154831.342500", "154832.832500", "154834.322500", "154835.812500", "154837.302500", "154838.792500", "154840.282500", "154841.772500", "154843.262500", "154844.752500", "154846.242500", "154847.732500", "154849.222500", "154850.712500", "154852.202500", "154853.692500", "154855.182500", "154856.672500", "154858.162500", "154859.652500", "154901.142500", "154902.632500", "154904.122500", "154905.612500", "154907.102500"],
      "ContentTime": ["154551.598000", "154551.602000", "154551.605000", "154551.609000", "154551.612000", "154551.615000", "154551.618000", "154551.622000", "154551.625000", "154551.629000", "154551.632000", "154551.635000", "154551.639000", "154551.642000", "154551.645000", "154551.649000", "154551.652000", "154551.655000", "154551.659000", "154551.662000", "154551.665000", "154551.669000", "154551.672000", "154551.676000", "154551.679000", "154551.682000", "154551.685000", "154551.689000", "154551.692000", "154551.696000", "154551.699000", "154551.703000", "154611.563000", "154611.567000", "154611.570000", "154611.574000", "154611.577000", "154611.580000", "154611.603000", "154611.607000", "154611.611000", "154611.615000", "154611.618000", "154611.623000", "154611.627000", "154611.631000", "154611.634000", "154611.638000", "154611.642000", "154611.645000", "154611.649000", "154611.652000", "154631.563000", "154631.567000", "154631.570000", "154631.574000", "154631.577000", "154631.580000", "154631.584000", "154631.587000", "154631.590000", "154631.594000", "154631.597000", "154631.600000", "154631.604000", "154631.607000", "154631.610000", "154631.614000", "154631.617000", "154631.620000", "154631.624000", "154631.627000", "154631.630000", "154651.563000", "154651.567000", "154651.571000", "154651.574000", "154651.578000", "154651.581000", "154651.584000", "154651.588000", "154651.591000", "154651.594000", "154651.598000", "154651.601000", "154651.604000", "154651.608000", "154651.611000", "154651.615000", "154651.618000", "154651.621000", "154651.624000", "154651.628000", "154731.563000", "154731.567000", "154731.570000", "154731.574000", "154731.577000", "154731.581000", "154731.584000", "154731.588000", "154731.591000", "154731.594000", "154731.598000", "154731.601000", "154731.604000", "154731.608000", "154731.611000", "154731.615000", "154731.618000", "154731.621000", "154731.625000", "154731.628000", "154731.631000", "154731.635000", "154731.638000", "154731.642000", "154731.645000", "154731.648000", "154731.652000", "154731.655000", "154731.658000", "154731.662000", "154731.665000", "154811.563000", "154811.567000", "154811.570000", "154811.574000", "154811.577000", "154811.581000", "154811.584000", "154811.587000", "154811.591000", "154811.594000", "154811.597000", "154811.601000", "154811.604000", "154811.622000", "154811.626000", "154811.629000", "154811.632000", "154811.636000", "154811.639000", "154811.642000", "154811.646000", "154811.649000", "154811.652000", "154811.656000", "154811.659000", "154811.662000", "154811.666000", "154851.563000", "154851.567000", "154851.570000", "154851.574000", "154851.577000", "154851.581000", "154851.584000", "154851.588000", "154851.591000", "154851.594000", "154851.598000", "154851.601000", "154851.605000", "154851.608000", "154851.611000", "154851.622000", "154851.625000", "154851.629000", "154851.632000", "154851.635000", "154851.639000", "154851.642000", "154851.645000", "154851.649000", "154851.652000", "154851.655000", "154851.659000", "154908.781000", "154908.785000", "154908.788000", "154908.792000", "154908.795000", "154908.799000", "154908.802000", "154908.806000", "154908.809000", "154908.813000", "154908.816000", "154908.820000"],
      "InstanceCreationTime": ["154551.598000", "154551.602000", "154551.605000", "154551.609000", "154551.612000", "154551.615000", "154551.618000", "154551.622000", "154551.625000", "154551.629000", "154551.632000", "154551.635000", "154551.639000", "154551.642000", "154551.645000", "154551.649000", "154551.652000", "154551.655000", "154551.659000", "154551.662000", "154551.665000", "154551.669000", "154551.672000", "154551.676000", "154551.679000", "154551.682000", "154551.685000", "154551.689000", "154551.692000", "154551.696000", "154551.699000", "154551.703000", "154611.563000", "154611.567000", "154611.570000", "154611.574000", "154611.577000", "154611.580000", "154611.603000", "154611.607000", "154611.611000", "154611.615000", "154611.618000", "154611.623000", "154611.627000", "154611.631000", "154611.634000", "154611.638000", "154611.642000", "154611.645000", "154611.649000", "154611.652000", "154631.563000", "154631.567000", "154631.570000", "154631.574000", "154631.577000", "154631.580000", "154631.584000", "154631.587000", "154631.590000", "154631.594000", "154631.597000", "154631.600000", "154631.604000", "154631.607000", "154631.610000", "154631.614000", "154631.617000", "154631.620000", "154631.624000", "154631.627000", "154631.630000", "154651.563000", "154651.567000", "154651.571000", "154651.574000", "154651.578000", "154651.581000", "154651.584000", "154651.588000", "154651.591000", "154651.594000", "154651.598000", "154651.601000", "154651.604000", "154651.608000", "154651.611000", "154651.615000", "154651.618000", "154651.621000", "154651.624000", "154651.628000", "154731.563000", "154731.567000", "154731.570000", "154731.574000", "154731.577000", "154731.581000", "154731.584000", "154731.588000", "154731.591000", "154731.594000", "154731.598000", "154731.601000", "154731.604000", "154731.608000", "154731.611000", "154731.615000", "154731.618000", "154731.621000", "154731.625000", "154731.628000", "154731.631000", "154731.635000", "154731.638000", "154731.642000", "154731.645000", "154731.648000", "154731.652000", "154731.655000", "154731.658000", "154731.662000", "154731.665000", "154811.563000", "154811.567000", "154811.570000", "154811.574000", "154811.577000", "154811.581000", "154811.584000", "154811.587000", "154811.591000", "154811.594000", "154811.597000", "154811.601000", "154811.604000", "154811.622000", "154811.626000", "154811.629000", "154811.632000", "154811.636000", "154811.639000", "154811.642000", "154811.646000", "154811.649000", "154811.652000", "154811.656000", "154811.659000", "154811.662000", "154811.666000", "154851.563000", "154851.567000", "154851.570000", "154851.574000", "154851.577000", "154851.581000", "154851.584000", "154851.588000", "154851.591000", "154851.594000", "154851.598000", "154851.601000", "154851.605000", "154851.608000", "154851.611000", "154851.622000", "154851.625000", "154851.629000", "154851.632000", "154851.635000", "154851.639000", "154851.642000", "154851.645000", "154851.649000", "154851.652000", "154851.655000", "154851.659000", "154908.781000", "154908.785000", "154908.788000", "154908.792000", "154908.795000", "154908.799000", "154908.802000", "154908.806000", "154908.809000", "154908.813000", "154908.816000", "154908.820000"],
      "InstanceNumber": [1, 2, 3, 4, 5, 6, 7, 8, 9, 10, 11, 12, 13, 14, 15, 16, 17, 18, 19, 20, 21, 22, 23, 24, 25, 26, 27, 28, 29, 30, 31, 32, 33, 34, 35, 36, 37, 38, 39, 40, 41, 42, 43, 44, 45, 46, 47, 48, 49, 50, 51, 52, 53, 54, 55, 56, 57, 58, 59, 60, 61, 62, 63, 64, 65, 66, 67, 68, 69, 70, 71, 72, 73, 74, 75, 76, 77, 78, 79, 80, 81, 82, 83, 84, 85, 86, 87, 88, 89, 90, 91, 92, 93, 94, 95, 96, 97, 98, 99, 100, 101, 102, 103, 104, 105, 106, 107, 108, 109, 110, 111, 112, 113, 114, 115, 116, 117, 118, 119, 120, 121, 122, 123, 124, 125, 126, 127, 128, 129, 130, 131, 132, 133, 134, 135, 136, 137, 138, 139, 140, 141, 142, 143, 144, 145, 146, 147, 148, 149, 150, 151, 152, 153, 154, 155, 156, 157, 158, 159, 160, 161, 162, 163, 164, 165, 166, 167, 168, 169, 170, 171, 172, 173, 174, 175, 176, 177, 178, 179, 180, 181, 182, 183, 184, 185, 186, 187, 188, 189, 190],
      "LargestImagePixelValue": [45045, 43451, 43055, 42304, 42335, 42069, 41778, 41846, 41845, 41650, 41847, 41534, 41695, 42196, 42085, 41584, 42359, 41935, 41737, 41664, 42031, 41559, 41004, 40494, 43008, 42729, 42349, 42749, 41993, 41383, 41715, 42227, 41985, 42239, 41825, 41691, 41669, 42146, 42220, 42449, 41974, 42284, 42545, 42263, 42507, 42113, 42598, 42559, 42179, 42372, 41957, 42466, 42644, 42487, 42672, 41940, 42916, 42271, 42130, 42617, 42481, 42750, 42320, 42156, 42168, 41583, 41481, 41435, 40573, 42174, 42354, 42250, 42427, 42117, 42324, 42636, 42344, 42104, 42299, 41827, 42201, 41748, 41567, 41541, 42366, 42359, 42296, 42666, 42502, 42514, 42421, 42573, 42513, 42246, 42144, 41793, 41707, 41742, 42135, 42092, 41946, 42940, 42001, 41473, 41837, 41793, 42071, 42025, 41730, 42203, 42173, 42402, 41508, 40908, 42454, 41225, 41063, 43042, 42631, 42156, 41632, 41353, 41465, 41354, 41401, 40933, 40585, 40901, 41298, 41089, 40752, 41013, 40840, 40843, 41083, 41170, 40898, 40462, 41066, 40600, 40788, 41030, 41221, 41208, 41351, 40558, 40866, 40942, 41281, 41267, 41205, 41223, 41004, 41327, 41220, 41311, 41079, 41407, 41338, 41617, 41736, 41419, 41191, 41449, 40988, 41256, 41295, 41572, 41338, 41453, 41759, 41630, 41055, 41465, 41373, 42226, 41351, 41721, 41525, 41729, 41696, 41177, 41717, 41226, 41480, 41133, 40831, 42005, 41271, 40967],
      "WindowCenter": [10313.0, 10284.0, 10283.0, 10289.0, 10273.0, 10241.0, 10224.0, 10241.0, 10259.0, 10262.0, 10259.0, 10259.0, 10260.0, 10268.0, 10264.0, 10274.0, 10296.0, 10282.0, 10265.0, 10241.0, 10239.0, 10246.0, 10282.0, 10307.0, 10316.0, 10297.0, 10273.0, 10280.0, 10248.0, 10219.0, 10222.0, 10255.0, 10276.0, 10269.0, 10247.0, 10231.0, 10229.0, 10241.0, 10235.0, 10234.0, 10234.0, 10242.0, 10236.0, 10241.0, 10275.0, 10297.0, 10287.0, 10262.0, 10237.0, 10234.0, 10236.0, 10262.0, 10275.0, 10258.0, 10250.0, 10253.0, 10259.0, 10232.0, 10225.0, 10238.0, 10254.0, 10257.0, 10234.0, 10241.0, 10286.0, 10297.0, 10308.0, 10287.0, 10226.0, 10196.0, 10191.0, 10184.0, 10181.0, 10178.0, 10204.0, 10244.0, 10256.0, 10228.0, 10200.0, 10197.0, 10216.0, 10222.0, 10233.0, 10236.0, 10255.0, 10272.0, 10265.0, 10258.0, 10251.0, 10240.0, 10247.0, 10264.0, 10283.0, 10260.0, 10252.0, 10243.0, 10244.0, 10244.0, 10244.0, 10221.0, 10228.0, 10287.0, 10279.0, 10240.0, 10212.0, 10186.0, 10183.0, 10201.0, 10219.0, 10227.0, 10201.0, 10182.0, 10176.0, 10195.0, 10263.0, 10291.0, 10272.0, 10257.0, 10237.0, 10219.0, 10192.0, 10167.0, 10187.0, 10219.0, 10218.0, 10190.0, 10171.0, 10183.0, 10212.0, 10215.0, 10217.0, 10225.0, 10212.0, 10209.0, 10203.0, 10208.0, 10224.0, 10237.0, 10233.0, 10220.0, 10219.0, 10233.0, 10225.0, 10222.0, 10236.0, 10258.0, 10283.0, 10257.0, 10227.0, 10226.0, 10224.0, 10215.0, 10199.0, 10188.0, 10190.0, 10222.0, 10242.0, 10253.0, 10250.0, 10247.0, 10255.0, 10277.0, 10270.0, 10262.0, 10241.0, 10247.0, 10246.0, 10245.0, 10239.0, 10239.0, 10244.0, 10254.0, 10259.0, 10242.0, 10212.0, 10207.0, 10200.0, 10234.0, 10260.0, 10262.0, 10234.0, 10210.0, 10212.0, 10207.0, 10218.0, 10222.0, 10271.0, 10304.0, 10249.0, 10208.0],
      "WindowWidth": [22299.0, 22198.0, 22170.0, 22173.0, 22132.0, 22054.0, 22014.0, 22048.0, 22089.0, 22097.0, 22091.0, 22088.0, 22092.0, 22112.0, 22104.0, 22127.0, 22178.0, 22148.0, 22111.0, 22056.0, 22050.0, 22063.0, 22149.0, 22221.0, 22230.0, 22176.0, 22120.0, 22135.0, 22068.0, 22005.0, 22004.0, 22076.0, 22124.0, 22110.0, 22063.0, 22025.0, 22020.0, 22045.0, 22034.0, 22031.0, 22032.0, 22051.0, 22036.0, 22049.0, 22122.0, 22176.0, 22155.0, 22095.0, 22039.0, 22030.0, 22037.0, 22093.0, 22123.0, 22090.0, 22066.0, 22076.0, 22088.0, 22034.0, 22013.0, 22041.0, 22076.0, 22083.0, 22032.0, 22047.0, 22155.0, 22194.0, 22220.0, 22164.0, 22025.0, 21943.0, 21930.0, 21911.0, 21903.0, 21899.0, 21960.0, 22054.0, 22087.0, 22022.0, 21960.0, 21952.0, 21990.0, 22005.0, 22028.0, 22035.0, 22078.0, 22116.0, 22103.0, 22085.0, 22068.0, 22042.0, 22062.0, 22099.0, 22141.0, 22091.0, 22068.0, 22047.0, 22050.0, 22052.0, 22052.0, 22001.0, 22015.0, 22151.0, 22143.0, 22053.0, 21983.0, 21922.0, 21910.0, 21947.0, 21988.0, 22009.0, 21949.0, 21910.0, 21899.0, 21945.0, 22103.0, 22181.0, 22135.0, 22080.0, 22031.0, 21989.0, 21930.0, 21871.0, 21915.0, 21991.0, 21992.0, 21935.0, 21890.0, 21911.0, 21972.0, 21983.0, 21990.0, 22006.0, 21975.0, 21967.0, 21956.0, 21967.0, 22005.0, 22034.0, 22022.0, 21995.0, 21996.0, 22025.0, 22007.0, 21997.0, 22026.0, 22079.0, 22140.0, 22084.0, 22014.0, 22011.0, 22007.0, 21986.0, 21948.0, 21922.0, 21926.0, 21994.0, 22041.0, 22068.0, 22060.0, 22056.0, 22075.0, 22124.0, 22113.0, 22088.0, 22043.0, 22053.0, 22051.0, 22046.0, 22036.0, 22035.0, 22045.0, 22070.0, 22084.0, 22045.0, 21982.0, 21962.0, 21947.0, 22019.0, 22080.0, 22087.0, 22025.0, 21970.0, 21970.0, 21963.0, 21986.0, 21996.0, 22110.0, 22185.0, 22064.0, 21968.0]
    },
    "slices": {}
  }
}