{
  "AcquisitionMatrixPE": 104,
  "AcquisitionNumber": 1,
  "AcquisitionTime": "15:57:58.217500",
  "BandwidthPerPixelPhaseEncode": 17.17,
  "BaseResolution": 104,
  "BodyPartExamined": "BRAIN",
  "CoilString": "HC1-7;NC1_2",
  "ConsistencyInfo": "N4_VE11C_LATEST_20160120",
  "ConversionSoftware": "dcm2niix",
  "ConversionSoftwareVersion": "v1.0.20190902",
  "DerivedVendorReportedEchoSpacing": 0.000560011,
  "DeviceSerialNumber": "167006",
  "DwellTime": 2.1e-06,
  "EchoTime": 0.037,
  "EchoTrainLength": 104,
  "EffectiveEchoSpacing": 0.000560011,
  "FlipAngle": 52,
  "ImageComments": "Unaliased_MB4_PE3_LB",
  "ImageOrientationPatientDICOM": [0.999362, -0.0354926, 0.00407688, 0.0348985, 0.945415, -0.323994],
  "ImageType": [
    "ORIGINAL",
    "PRIMARY",
    "M",
    "MB",
    "ND",
    "MOSAIC"
],
  "ImagingFrequency": 123.259,
  "InPlanePhaseEncodingDirectionDICOM": "COL",
  "InstitutionAddress": "Chemin_Queen-Mary_4565_Montreal_District_CA_H3W_1W5",
  "InstitutionName": "IUGM",
  "InstitutionalDepartmentName": "Department",
  "MRAcquisitionType": "2D",
  "MagneticFieldStrength": 3,
  "Manufacturer": "Siemens",
  "ManufacturersModelName": "Prisma_fit",
  "Modality": "MR",
  "MultibandAccelerationFactor": 4,
  "PartialFourier": 1,
  "PatientPosition": "HFS",
  "PercentPhaseFOV": 100,
  "PhaseEncodingDirection": "j",
  "PhaseEncodingSteps": 104,
  "PhaseResolution": 1,
  "PixelBandwidth": 2290,
  "ProcedureStepDescription": "memory_things",
  "ProtocolName": "func_task-things_run-5",
  "PulseSequenceDetails": "%CustomerSeq%_cmrr_mbep2d_bold",
  "ReceiveCoilActiveElements": "HC1-7;NC1,2",
  "ReceiveCoilName": "HeadNeck_64",
  "ReconMatrixPE": 104,
  "RepetitionTime": 1.49,
  "SAR": 0.0374755,
  "ScanOptions": "FS",
  "ScanningSequence": "EP",
  "SequenceName": "epfid2d1_104",
  "SequenceVariant": "SK_SS",
  "SeriesDescription": "func_task-things_run-5",
  "SeriesNumber": 22,
  "ShimSetting": [627, -7244, -8814, 605, 9, -149, 30, -14],
  "SliceThickness": 2,
  "SliceTiming": [0, 0.7825, 0.0975, 0.8825, 0.195, 0.98, 0.2925, 1.0775, 0.3925, 1.175, 0.49, 1.2725, 0.5875, 1.3725, 0.685, 0, 0.7825, 0.0975, 0.8825, 0.195, 0.98, 0.2925, 1.0775, 0.3925, 1.175, 0.49, 1.2725, 0.5875, 1.3725, 0.685, 0, 0.7825, 0.0975, 0.8825, 0.195, 0.98, 0.2925, 1.0775, 0.3925, 1.175, 0.49, 1.2725, 0.5875, 1.3725, 0.685, 0, 0.7825, 0.0975, 0.8825, 0.195, 0.98, 0.2925, 1.0775, 0.3925, 1.175, 0.49, 1.2725, 0.5875, 1.3725, 0.685],
  "SoftwareVersions": "syngo_MR_E11",
  "SpacingBetweenSlices": 2,
  "StationName": "MRC35049",
  "TaskName": "things",
  "TotalReadoutTime": 0.0576811,
  "TxRefAmp": 239.22,
  "WipMemBlock": "82324db5-242c-4d87-905b-ee8868c17110||Sequence: R016 ve11c/master r/e634e98; Dec 19 2017 11:00:25 by eja",
  "dcmmeta_affine": [
    [-1.9987232685089111, 0.06979690492153168, -0.0152900954708457, 103.27568054199219],
    [0.07098528742790222, 1.8908307552337646, -0.6478580832481384, -69.75907135009766],
    [0.008153751492500305, 0.6479871869087219, 1.8921009302139282, -62.66720199584961],
    [0.0, 0.0, 0.0, 1.0]
],
  "dcmmeta_reorient_transform": [
    [0.0, -1.0, 0.0, 103.0],
    [1.0, 0.0, 0.0, 0.0],
    [0.0, 0.0, 1.0, 0.0],
    [0.0, 0.0, 0.0, 1.0]
],
  "dcmmeta_shape": [104, 104, 60, 190],
  "dcmmeta_slice_dim": 2,
  "dcmmeta_version": 0.6,
  "global": {
    "const": {
      "AcquisitionMatrix": [104, 0, 0, 104],
      "AngioFlag": "N",
      "BitsAllocated": 16,
      "BitsStored": 16,
      "BodyPartExamined": "BRAIN",
      "Columns": 832,
      "EchoNumbers": 1,
      "EchoTime": 37.0,
      "EchoTrainLength": 104,
      "FlipAngle": 52.0,
      "HighBit": 15,
      "ImageOrientationPatient": [0.99936162192752, -0.0354926429382, 0.00407687572231, 0.03489845067501, 0.94541538372808, -0.323993596157],
      "ImagePositionPatient": [-863.40609258449, -787.42025280786, 236.97485149264],
      "ImageType": [
        "ORIGINAL",
        "PRIMARY",
        "M",
        "MB",
        "ND",
        "MOSAIC"
],
      "ImagedNucleus": "1H",
      "ImagingFrequency": 123.258923,
      "InPlanePhaseEncodingDirection": "COL",
      "MRAcquisitionType": "2D",
      "MagneticFieldStrength": 3.0,
      "Manufacturer": "SIEMENS",
      "ManufacturerModelName": "Prisma_fit",
      "Modality": "MR",
      "NumberOfAverages": 1.0,
      "NumberOfPhaseEncodingSteps": 104,
      "PercentPhaseFieldOfView": 100.0,
      "PercentSampling": 100.0,
      "PerformedProcedureStepStartTime": "143227.336000",
      "PhotometricInterpretation": "MONOCHROME2",
      "PixelBandwidth": 2290.0,
      "PixelRepresentation": 0,
      "PixelSpacing": [2.0, 2.0],
      "ProtocolName": "func_task-things_run-5",
      "RepetitionTime": 1490.0,
      "Rows": 832,
      "SAR": 0.03747551216775,
      "SamplesPerPixel": 1,
      "ScanOptions": "FS",
      "ScanningSequence": "EP",
      "SequenceName": "epfid2d1_104",
      "SequenceVariant": [
        "SK",
        "SS"
],
      "SeriesDescription": "func_task-things_run-5",
      "SeriesNumber": 22,
      "SeriesTime": "155923.140000",
      "SliceLocation": -37.478895214034,
      "SliceThickness": 2.0,
      "SmallestImagePixelValue": 0,
      "SoftwareVersions": "syngo MR E11",
      "SpacingBetweenSlices": 1.9999999457527,
      "SpecificCharacterSet": "ISO_IR 100",
      "StudyID": "1",
      "StudyTime": "143227.277000",
      "TransmitCoilName": "Body",
      "VariableFlipAngleFlag": "N",
      "WindowCenterWidthExplanation": "Algo1",
      "dBdt": 0.0},
    "slices": {}
  },
  "time": {
    "samples": {
      "AcquisitionNumber": [1, 2, 3, 4, 5, 6, 7, 8, 9, 10, 11, 12, 13, 14, 15, 16, 17, 18, 19, 20, 21, 22, 23, 24, 25, 26, 27, 28, 29, 30, 31, 32, 33, 34, 35, 36, 37, 38, 39, 40, 41, 42, 43, 44, 45, 46, 47, 48, 49, 50, 51, 52, 53, 54, 55, 56, 57, 58, 59, 60, 61, 62, 63, 64, 65, 66, 67, 68, 69, 70, 71, 72, 73, 74, 75, 76, 77, 78, 79, 80, 81, 82, 83, 84, 85, 86, 87, 88, 89, 90, 91, 92, 93, 94, 95, 96, 97, 98, 99, 100, 101, 102, 103, 104, 105, 106, 107, 108, 109, 110, 111, 112, 113, 114, 115, 116, 117, 118, 119, 120, 121, 122, 123, 124, 125, 126, 127, 128, 129, 130, 131, 132, 133, 134, 135, 136, 137, 138, 139, 140, 141, 142, 143, 144, 145, 146, 147, 148, 149, 150, 151, 152, 153, 154, 155, 156, 157, 158, 159, 160, 161, 162, 163, 164, 165, 166, 167, 168, 169, 170, 171, 172, 173, 174, 175, 176, 177, 178, 179, 180, 181, 182, 183, 184, 185, 186, 187, 188, 189, 190],
      "AcquisitionTime": ["155758.217500", "155759.707500", "155801.197500", "155802.687500", "155804.177500", "155805.667500", "155807.157500", "155808.647500", "155810.137500", "155811.627500", "155813.117500", "155814.607500", "155816.097500", "155817.587500", "155819.077500", "155820.567500", "155822.057500", "155823.547500", "155825.037500", "155826.527500", "155828.017500", "155829.507500", "155830.997500", "155832.487500", "155833.977500", "155835.467500", "155836.957500", "155838.447500", "155839.937500", "155841.427500", "155842.917500", "155844.407500", "155845.897500", "155847.387500", "155848.877500", "155850.367500", "155851.857500", "155853.347500", "155854.837500", "155856.327500", "155857.817500", "155859.307500", "155900.797500", "155902.287500", "155903.777500", "155905.267500", "155906.757500", "155908.247500", "155909.737500", "155911.227500", "155912.717500", "155914.207500", "155915.697500", "155917.187500", "155918.677500", "155920.167500", "155921.657500", "155923.147500", "155924.637500", "155926.127500", "155927.617500", "155929.107500", "155930.597500", "155932.087500", "155933.577500", "155935.067500", "155936.557500", "155938.047500", "155939.537500", "155941.027500", "155942.517500", "155944.007500", "155945.497500", "155946.987500", "155948.477500", "155949.967500", "155951.457500", "155952.947500", "155954.437500", "155955.927500", "155957.417500", "155958.907500", "160000.397500", "160001.887500", "160003.377500", "160004.867500", "160006.357500", "160007.847500", "160009.337500", "160010.827500", "160012.317500", "160013.807500", "160015.297500", "160016.787500", "160018.277500", "160019.767500", "160021.257500", "160022.747500", "160024.237500", "160025.727500", "160027.217500", "160028.707500", "160030.197500", "160031.687500", "160033.177500", "160034.667500", "160036.157500", "160037.647500", "160039.137500", "160040.627500", "160042.117500", "160043.607500", "160045.097500", "160046.587500", "160048.077500", "160049.567500", "160051.057500", "160052.547500", "160054.037500", "160055.527500", "160057.017500", "160058.507500", "160059.997500", "160101.487500", "160102.977500", "160104.467500", "160105.957500", "160107.447500", "160108.937500", "160110.427500", "160111.917500", "160113.407500", "160114.897500", "160116.387500", "160117.877500", "160119.367500", "160120.857500", "160122.347500", "160123.837500", "160125.327500", "160126.817500", "160128.307500", "160129.797500", "160131.287500", "160132.777500", "160134.267500", "160135.757500", "160137.247500", "160138.737500", "160140.227500", "160141.717500", "160143.207500", "160144.697500", "160146.187500", "160147.677500", "160149.167500", "160150.657500", "160152.147500", "160153.637500", "160155.127500", "160156.617500", "160158.107500", "160159.597500", "160201.087500", "160202.577500", "160204.067500", "160205.557500", "160207.047500", "160208.537500", "160210.027500", "160211.517500", "160213.007500", "160214.497500", "160215.987500", "160217.477500", "160218.967500", "160220.457500", "160221.947500", "160223.437500", "160224.927500", "160226.417500", "160227.907500", "160229.397500", "160230.887500", "160232.377500", "160233.867500", "160235.357500", "160236.847500", "160238.337500", "160239.827500"],
      "ContentTime": ["155923.144000", "155923.148000", "155923.152000", "155923.161000", "155923.165000", "155923.169000", "155923.172000", "155923.176000", "155923.179000", "155923.183000", "155923.186000", "155923.190000", "155923.193000", "155923.197000", "155923.201000", "155923.204000", "155923.208000", "155923.211000", "155923.214000", "155923.218000", "155923.221000", "155923.225000", "155923.228000", "155923.232000", "155923.235000", "155923.239000", "155923.242000", "155923.255000", "155923.259000", "155923.273000", "155923.277000", "155923.280000", "155943.091000", "155943.095000", "155943.098000", "155943.102000", "155943.105000", "155943.108000", "155943.112000", "155943.115000", "155943.119000", "155943.122000", "155943.125000", "155943.129000", "155943.132000", "155943.135000", "155943.139000", "155943.142000", "155943.146000", "155943.149000", "155943.152000", "155943.156000", "160003.091000", "160003.095000", "160003.098000", "160003.102000", "160003.116000", "160003.120000", "160003.123000", "160003.127000", "160003.130000", "160003.134000", "160003.137000", "160003.140000", "160003.143000", "160003.147000", "160003.150000", "160003.154000", "160003.157000", "160003.160000", "160003.164000", "160003.167000", "160003.170000", "160023.090000", "160023.094000", "160023.097000", "160023.101000", "160023.104000", "160023.107000", "160023.111000", "160023.114000", "160023.118000", "160023.121000", "160023.124000", "160023.128000", "160023.131000", "160023.134000", "160023.138000", "160023.141000", "160023.144000", "160023.148000", "160023.151000", "160023.154000", "160103.091000", "160103.095000", "160103.099000", "160103.113000", "160103.116000", "160103.120000", "160103.123000", "160103.126000", "160103.130000", "160103.133000", "160103.137000", "160103.140000", "160103.143000", "160103.146000", "160103.150000", "160103.153000", "160103.157000", "160103.160000", "160103.163000", "160103.167000", "160103.170000", "160103.173000", "160103.177000", "160103.180000", "160103.183000", "160103.186000", "160103.190000", "160103.193000", "160103.197000", "160103.200000", "160143.091000", "160143.095000", "160143.099000", "160143.102000", "160143.105000", "160143.109000", "160143.112000", "160143.115000", "160143.119000", "160143.122000", "160143.125000", "160143.129000", "160143.132000", "160143.135000", "160143.139000", "160143.142000", "160143.146000", "160143.149000", "160143.152000", "160143.156000", "160143.159000", "160143.162000", "160143.166000", "160143.169000", "160143.173000", "160143.176000", "160143.179000", "160223.090000", "160223.094000", "160223.097000", "160223.101000", "160223.104000", "160223.108000", "160223.111000", "160223.114000", "160223.118000", "160223.121000", "160223.124000", "160223.128000", "160223.131000", "160223.135000", "160223.138000", "160223.141000", "160223.145000", "160223.148000", "160223.151000", "160223.155000", "160223.158000", "160223.162000", "160223.165000", "160223.168000", "160223.172000", "160223.175000", "160223.178000", "160242.043000", "160242.047000", "160242.058000", "160242.061000", "160242.065000", "160242.068000", "160242.072000", "160242.075000", "160242.078000", "160242.082000", "160242.086000", "160242.089000", "160242.093000"],
      "InstanceCreationTime": ["155923.144000", "155923.148000", "155923.152000", "155923.161000", "155923.165000", "155923.169000", "155923.172000", "155923.176000", "155923.179000", "155923.183000", "155923.186000", "155923.190000", "155923.193000", "155923.197000", "155923.201000", "155923.204000", "155923.208000", "155923.211000", "155923.214000", "155923.218000", "155923.221000", "155923.225000", "155923.228000", "155923.232000", "155923.235000", "155923.239000", "155923.242000", "155923.255000", "155923.259000", "155923.273000", "155923.277000", "155923.280000", "155943.091000", "155943.095000", "155943.098000", "155943.102000", "155943.105000", "155943.108000", "155943.112000", "155943.115000", "155943.119000", "155943.122000", "155943.125000", "155943.129000", "155943.132000", "155943.135000", "155943.139000", "155943.142000", "155943.146000", "155943.149000", "155943.152000", "155943.156000", "160003.091000", "160003.095000", "160003.098000", "160003.102000", "160003.116000", "160003.120000", "160003.123000", "160003.127000", "160003.130000", "160003.134000", "160003.137000", "160003.140000", "160003.143000", "160003.147000", "160003.150000", "160003.154000", "160003.157000", "160003.160000", "160003.164000", "160003.167000", "160003.170000", "160023.090000", "160023.094000", "160023.097000", "160023.101000", "160023.104000", "160023.107000", "160023.111000", "160023.114000", "160023.118000", "160023.121000", "160023.124000", "160023.128000", "160023.131000", "160023.134000", "160023.138000", "160023.141000", "160023.144000", "160023.148000", "160023.151000", "160023.154000", "160103.091000", "160103.095000", "160103.099000", "160103.113000", "160103.116000", "160103.120000", "160103.123000", "160103.126000", "160103.130000", "160103.133000", "160103.137000", "160103.140000", "160103.143000", "160103.146000", "160103.150000", "160103.153000", "160103.157000", "160103.160000", "160103.163000", "160103.167000", "160103.170000", "160103.173000", "160103.177000", "160103.180000", "160103.183000", "160103.186000", "160103.190000", "160103.193000", "160103.197000", "160103.200000", "160143.091000", "160143.095000", "160143.099000", "160143.102000", "160143.105000", "160143.109000", "160143.112000", "160143.115000", "160143.119000", "160143.122000", "160143.125000", "160143.129000", "160143.132000", "160143.135000", "160143.139000", "160143.142000", "160143.146000", "160143.149000", "160143.152000", "160143.156000", "160143.159000", "160143.162000", "160143.166000", "160143.169000", "160143.173000", "160143.176000", "160143.179000", "160223.090000", "160223.094000", "160223.097000", "160223.101000", "160223.104000", "160223.108000", "160223.111000", "160223.114000", "160223.118000", "160223.121000", "160223.124000", "160223.128000", "160223.131000", "160223.135000", "160223.138000", "160223.141000", "160223.145000", "160223.148000", "160223.151000", "160223.155000", "160223.158000", "160223.162000", "160223.165000", "160223.168000", "160223.172000", "160223.175000", "160223.178000", "160242.043000", "160242.047000", "160242.058000", "160242.061000", "160242.065000", "160242.068000", "160242.072000", "160242.075000", "160242.078000", "160242.082000", "160242.086000", "160242.089000", "160242.093000"],
      "InstanceNumber": [1, 2, 3, 4, 5, 6, 7, 8, 9, 10, 11, 12, 13, 14, 15, 16, 17, 18, 19, 20, 21, 22, 23, 24, 25, 26, 27, 28, 29, 30, 31, 32, 33, 34, 35, 36, 37, 38, 39, 40, 41, 42, 43, 44, 45, 46, 47, 48, 49, 50, 51, 52, 53, 54, 55, 56, 57, 58, 59, 60, 61, 62, 63, 64, 65, 66, 67, 68, 69, 70, 71, 72, 73, 74, 75, 76, 77, 78, 79, 80, 81, 82, 83, 84, 85, 86, 87, 88, 89, 90, 91, 92, 93, 94, 95, 96, 97, 98, 99, 100, 101, 102, 103, 104, 105, 106, 107, 108, 109, 110, 111, 112, 113, 114, 115, 116, 117, 118, 119, 120, 121, 122, 123, 124, 125, 126, 127, 128, 129, 130, 131, 132, 133, 134, 135, 136, 137, 138, 139, 140, 141, 142, 143, 144, 145, 146, 147, 148, 149, 150, 151, 152, 153, 154, 155, 156, 157, 158, 159, 160, 161, 162, 163, 164, 165, 166, 167, 168, 169, 170, 171, 172, 173, 174, 175, 176, 177, 178, 179, 180, 181, 182, 183, 184, 185, 186, 187, 188, 189, 190],
      "LargestImagePixelValue": [42790, 41909, 42073, 40798, 39710, 39629, 40423, 40868, 41367, 40783, 41011, 40529, 40798, 40882, 41176, 40781, 40804, 41068, 40709, 40668, 41024, 40872, 40600, 41322, 40741, 40632, 41097, 41466, 40936, 40590, 41385, 40834, 40544, 40401, 39957, 39242, 39258, 38304, 39381, 40259, 40851, 39935, 39980, 40433, 39279, 39806, 40316, 40821, 40498, 40175, 40268, 40619, 40722, 40899, 40783, 40717, 39798, 40411, 41015, 40659, 40460, 40731, 40548, 41189, 40205, 40405, 40478, 40675, 40808, 40257, 39924, 40628, 40497, 40659, 40327, 41037, 40440, 40447, 40868, 40085, 41052, 40624, 40724, 40682, 40715, 40616, 40761, 40901, 40579, 40579, 39349, 40537, 40675, 39534, 40705, 40156, 40602, 40424, 39956, 40026, 39807, 40227, 39945, 40442, 40024, 39378, 39406, 38506, 39286, 39091, 39614, 39741, 39543, 39801, 39976, 39567, 39981, 39169, 40029, 39293, 40777, 39770, 41057, 39831, 40294, 39896, 40152, 39739, 40174, 39372, 39498, 39641, 39976, 39828, 38419, 38450, 39331, 39462, 40263, 39875, 39706, 39072, 39937, 40526, 40733, 38894, 39743, 40034, 40434, 40820, 40453, 40388, 40595, 40594, 40610, 40918, 40886, 40391, 41289, 41648, 40985, 41610, 40886, 40691, 41526, 40246, 40866, 40448, 40878, 39970, 38292, 38982, 38156, 39218, 40288, 40876, 40935, 40398, 37849, 38280, 39100, 39508, 39542, 39480, 39469, 40912, 40846, 40062, 40652, 41192],
      "WindowCenter": [10293.0, 10241.0, 10232.0, 10191.0, 10151.0, 10143.0, 10175.0, 10218.0, 10220.0, 10176.0, 10140.0, 10137.0, 10145.0, 10166.0, 10196.0, 10216.0, 10217.0, 10203.0, 10188.0, 10189.0, 10207.0, 10225.0, 10234.0, 10248.0, 10252.0, 10254.0, 10265.0, 10247.0, 10227.0, 10203.0, 10190.0, 10190.0, 10217.0, 10244.0, 10218.0, 10177.0, 10130.0, 10093.0, 10110.0, 10149.0, 10201.0, 10192.0, 10162.0, 10141.0, 10135.0, 10165.0, 10202.0, 10193.0, 10157.0, 10137.0, 10142.0, 10180.0, 10206.0, 10216.0, 10200.0, 10205.0, 10222.0, 10254.0, 10243.0, 10212.0, 10195.0, 10200.0, 10189.0, 10168.0, 10150.0, 10164.0, 10187.0, 10197.0, 10212.0, 10194.0, 10186.0, 10195.0, 10188.0, 10179.0, 10190.0, 10213.0, 10206.0, 10199.0, 10177.0, 10152.0, 10184.0, 10209.0, 10232.0, 10228.0, 10191.0, 10168.0, 10160.0, 10165.0, 10165.0, 10173.0, 10186.0, 10220.0, 10236.0, 10232.0, 10232.0, 10206.0, 10201.0, 10193.0, 10186.0, 10187.0, 10189.0, 10198.0, 10180.0, 10184.0, 10193.0, 10187.0, 10181.0, 10178.0, 10205.0, 10193.0, 10189.0, 10182.0, 10181.0, 10194.0, 10219.0, 10215.0, 10196.0, 10168.0, 10178.0, 10202.0, 10254.0, 10229.0, 10218.0, 10190.0, 10186.0, 10171.0, 10150.0, 10131.0, 10130.0, 10140.0, 10149.0, 10151.0, 10142.0, 10144.0, 10172.0, 10207.0, 10190.0, 10171.0, 10165.0, 10164.0, 10167.0, 10163.0, 10178.0, 10211.0, 10235.0, 10179.0, 10167.0, 10165.0, 10169.0, 10171.0, 10153.0, 10138.0, 10141.0, 10165.0, 10178.0, 10185.0, 10201.0, 10223.0, 10267.0, 10266.0, 10243.0, 10239.0, 10233.0, 10214.0, 10185.0, 10141.0, 10141.0, 10151.0, 10157.0, 10163.0, 10153.0, 10135.0, 10116.0, 10140.0, 10175.0, 10167.0, 10137.0, 10106.0, 10088.0, 10119.0, 10173.0, 10193.0, 10180.0, 10167.0, 10168.0, 10223.0, 10275.0, 10243.0, 10227.0, 10221.0],
      "WindowWidth": [22229.0, 22073.0, 22026.0, 21932.0, 21833.0, 21802.0, 21868.0, 21959.0, 21964.0, 21866.0, 21783.0, 21778.0, 21800.0, 21846.0, 21911.0, 21957.0, 21960.0, 21931.0, 21899.0, 21900.0, 21940.0, 21980.0, 22010.0, 22035.0, 22051.0, 22054.0, 22072.0, 22032.0, 21989.0, 21936.0, 21900.0, 21899.0, 21973.0, 22049.0, 21979.0, 21889.0, 21784.0, 21702.0, 21727.0, 21807.0, 21922.0, 21911.0, 21846.0, 21795.0, 21786.0, 21854.0, 21935.0, 21913.0, 21835.0, 21783.0, 21794.0, 21879.0, 21940.0, 21964.0, 21935.0, 21945.0, 21987.0, 22054.0, 22029.0, 21956.0, 21917.0, 21924.0, 21903.0, 21855.0, 21815.0, 21848.0, 21900.0, 21925.0, 21959.0, 21923.0, 21901.0, 21915.0, 21902.0, 21881.0, 21907.0, 21954.0, 21948.0, 21931.0, 21881.0, 21824.0, 21891.0, 21951.0, 22004.0, 21995.0, 21911.0, 21854.0, 21837.0, 21850.0, 21851.0, 21869.0, 21908.0, 21982.0, 22016.0, 22016.0, 22006.0, 21954.0, 21935.0, 21916.0, 21904.0, 21907.0, 21911.0, 21927.0, 21893.0, 21900.0, 21921.0, 21914.0, 21901.0, 21897.0, 21953.0, 21927.0, 21915.0, 21900.0, 21898.0, 21926.0, 21979.0, 21972.0, 21928.0, 21873.0, 21889.0, 21945.0, 22057.0, 22007.0, 21972.0, 21915.0, 21901.0, 21872.0, 21825.0, 21781.0, 21779.0, 21805.0, 21826.0, 21829.0, 21809.0, 21810.0, 21877.0, 21958.0, 21913.0, 21866.0, 21847.0, 21847.0, 21856.0, 21849.0, 21880.0, 21954.0, 22019.0, 21898.0, 21862.0, 21856.0, 21858.0, 21858.0, 21823.0, 21788.0, 21790.0, 21847.0, 21881.0, 21899.0, 21935.0, 21986.0, 22079.0, 22076.0, 22027.0, 22013.0, 22000.0, 21958.0, 21890.0, 21796.0, 21790.0, 21814.0, 21832.0, 21854.0, 21839.0, 21797.0, 21752.0, 21799.0, 21869.0, 21847.0, 21779.0, 21715.0, 21689.0, 21760.0, 21878.0, 21924.0, 21895.0, 21863.0, 21864.0, 21982.0, 22105.0, 22036.0, 21990.0, 21969.0]
    },
    "slices": {}
  }
}