{
  "AcquisitionMatrixPE": 104,
  "AcquisitionNumber": 1,
  "AcquisitionTime": "10:13:30.250000",
  "BandwidthPerPixelPhaseEncode": 17.17,
  "BaseResolution": 104,
  "BodyPartExamined": "BRAIN",
  "CoilString": "HC1-7;NC1_2",
  "ConsistencyInfo": "N4_VE11C_LATEST_20160120",
  "ConversionSoftware": "dcm2niix",
  "ConversionSoftwareVersion": "v1.0.20190902",
  "DerivedVendorReportedEchoSpacing": 0.000560011,
  "DeviceSerialNumber": "167006",
  "DwellTime": 2.1e-06,
  "EchoTime": 0.037,
  "EchoTrainLength": 104,
  "EffectiveEchoSpacing": 0.000560011,
  "FlipAngle": 52,
  "ImageComments": "Unaliased_MB4_PE3_LB",
  "ImageOrientationPatientDICOM": [0.995979, 0.0803583, 0.0395992, -0.0577766, 0.913994, -0.401593],
  "ImageType": [
    "ORIGINAL",
    "PRIMARY",
    "P",
    "MB",
    "ND",
    "MOSAIC"
],
  "ImagingFrequency": 123.259,
  "InPlanePhaseEncodingDirectionDICOM": "COL",
  "InstitutionAddress": "Chemin_Queen-Mary_4565_Montreal_District_CA_H3W_1W5",
  "InstitutionName": "IUGM",
  "InstitutionalDepartmentName": "Department",
  "MRAcquisitionType": "2D",
  "MagneticFieldStrength": 3,
  "Manufacturer": "Siemens",
  "ManufacturersModelName": "Prisma_fit",
  "Modality": "MR",
  "MultibandAccelerationFactor": 4,
  "PartialFourier": 1,
  "PatientPosition": "HFS",
  "PercentPhaseFOV": 100,
  "PhaseEncodingDirection": "j",
  "PhaseEncodingSteps": 104,
  "PhaseResolution": 1,
  "PixelBandwidth": 2290,
  "ProcedureStepDescription": "memory_things",
  "ProtocolName": "func_task-things_run-6",
  "PulseSequenceDetails": "%CustomerSeq%_cmrr_mbep2d_bold",
  "ReceiveCoilActiveElements": "HC1-7;NC1,2",
  "ReceiveCoilName": "HeadNeck_64",
  "ReconMatrixPE": 104,
  "RepetitionTime": 1.49,
  "SAR": 0.0521349,
  "ScanOptions": "FS",
  "ScanningSequence": "EP",
  "SequenceName": "epfid2d1_104",
  "SequenceVariant": "SK_SS",
  "SeriesDescription": "func_task-things_run-6",
  "SeriesNumber": 26,
  "ShimSetting": [635, -7154, -8862, 613, 96, 90, -36, -23],
  "SliceThickness": 2,
  "SliceTiming": [0, 0.7825, 0.0975, 0.88, 0.195, 0.9775, 0.2925, 1.0775, 0.39, 1.175, 0.4875, 1.2725, 0.5875, 1.37, 0.685, 0, 0.7825, 0.0975, 0.88, 0.195, 0.9775, 0.2925, 1.0775, 0.39, 1.175, 0.4875, 1.2725, 0.5875, 1.37, 0.685, 0, 0.7825, 0.0975, 0.88, 0.195, 0.9775, 0.2925, 1.0775, 0.39, 1.175, 0.4875, 1.2725, 0.5875, 1.37, 0.685, 0, 0.7825, 0.0975, 0.88, 0.195, 0.9775, 0.2925, 1.0775, 0.39, 1.175, 0.4875, 1.2725, 0.5875, 1.37, 0.685],
  "SoftwareVersions": "syngo_MR_E11",
  "SpacingBetweenSlices": 2,
  "StationName": "MRC35049",
  "TaskName": "things",
  "TotalReadoutTime": 0.0576811,
  "TxRefAmp": 274.586,
  "WipMemBlock": "15054d49-9c32-44f1-8e5c-7dde51aa99a1||Sequence: R016 ve11c/master r/e634e98; Dec 19 2017 11:00:25 by eja",
  "dcmmeta_affine": [
    [-1.9919582605361938, -0.11555314809083939, 0.13692961633205414, 108.56319427490234],
    [-0.1607166826725006, 1.8279879093170166, -0.7953805327415466, -48.061866760253906],
    [0.07919847965240479, 0.8031858205795288, 1.8299235105514526, -78.5770492553711],
    [0.0, 0.0, 0.0, 1.0]
],
  "dcmmeta_reorient_transform": [
    [0.0, -1.0, 0.0, 103.0],
    [1.0, 0.0, 0.0, 0.0],
    [0.0, 0.0, 1.0, 0.0],
    [0.0, 0.0, 0.0, 1.0]
],
  "dcmmeta_shape": [104, 104, 60, 190],
  "dcmmeta_slice_dim": 2,
  "dcmmeta_version": 0.6,
  "global": {
    "const": {
      "AcquisitionMatrix": [104, 0, 0, 104],
      "AngioFlag": "N",
      "BitsAllocated": 16,
      "BitsStored": 16,
      "BodyPartExamined": "BRAIN",
      "Columns": 832,
      "EchoNumbers": 1,
      "EchoTime": 37.0,
      "EchoTrainLength": 104,
      "FlipAngle": 52.0,
      "HighBit": 15,
      "ImageOrientationPatient": [0.99597913517116, 0.08035833806846, 0.03959923997493, -0.0577765748025, 0.91399398062493, -0.4015929167521],
      "ImagePositionPatient": [-779.67268639046, -864.10937958015, 267.68248892605],
      "ImageType": [
        "ORIGINAL",
        "PRIMARY",
        "P",
        "MB",
        "ND",
        "MOSAIC"
],
      "ImagedNucleus": "1H",
      "ImagingFrequency": 123.258989,
      "InPlanePhaseEncodingDirection": "COL",
      "LargestImagePixelValue": 4095,
      "MRAcquisitionType": "2D",
      "MagneticFieldStrength": 3.0,
      "Manufacturer": "SIEMENS",
      "ManufacturerModelName": "Prisma_fit",
      "Modality": "MR",
      "NumberOfAverages": 1.0,
      "NumberOfPhaseEncodingSteps": 104,
      "PercentPhaseFieldOfView": 100.0,
      "PercentSampling": 100.0,
      "PerformedProcedureStepStartTime": "090934.945000",
      "PhotometricInterpretation": "MONOCHROME2",
      "PixelBandwidth": 2290.0,
      "PixelRepresentation": 0,
      "PixelSpacing": [2.0, 2.0],
      "ProtocolName": "func_task-things_run-6",
      "RepetitionTime": 1490.0,
      "RescaleIntercept": -4096.0,
      "RescaleSlope": 2.0,
      "RescaleType": "US",
      "Rows": 832,
      "SAR": 0.05213490828351,
      "SamplesPerPixel": 1,
      "ScanOptions": "FS",
      "ScanningSequence": "EP",
      "SequenceName": "epfid2d1_104",
      "SequenceVariant": [
        "SK",
        "SS"
],
      "SeriesDescription": "func_task-things_run-6",
      "SeriesNumber": 26,
      "SeriesTime": "101456.457000",
      "SliceLocation": -45.348499924806,
      "SliceThickness": 2.0,
      "SmallestImagePixelValue": 0,
      "SoftwareVersions": "syngo MR E11",
      "SpacingBetweenSlices": 2.0000000041132,
      "SpecificCharacterSet": "ISO_IR 100",
      "StudyID": "1",
      "StudyTime": "090934.736000",
      "TransmitCoilName": "Body",
      "VariableFlipAngleFlag": "N",
      "WindowCenterWidthExplanation": "Algo1",
      "dBdt": 0.0},
    "slices": {}
  },
  "time": {
    "samples": {
      "AcquisitionNumber": [1, 2, 3, 4, 5, 6, 7, 8, 9, 10, 11, 12, 13, 14, 15, 16, 17, 18, 19, 20, 21, 22, 23, 24, 25, 26, 27, 28, 29, 30, 31, 32, 33, 34, 35, 36, 37, 38, 39, 40, 41, 42, 43, 44, 45, 46, 47, 48, 49, 50, 51, 52, 53, 54, 55, 56, 57, 58, 59, 60, 61, 62, 63, 64, 65, 66, 67, 68, 69, 70, 71, 72, 73, 74, 75, 76, 77, 78, 79, 80, 81, 82, 83, 84, 85, 86, 87, 88, 89, 90, 91, 92, 93, 94, 95, 96, 97, 98, 99, 100, 101, 102, 103, 104, 105, 106, 107, 108, 109, 110, 111, 112, 113, 114, 115, 116, 117, 118, 119, 120, 121, 122, 123, 124, 125, 126, 127, 128, 129, 130, 131, 132, 133, 134, 135, 136, 137, 138, 139, 140, 141, 142, 143, 144, 145, 146, 147, 148, 149, 150, 151, 152, 153, 154, 155, 156, 157, 158, 159, 160, 161, 162, 163, 164, 165, 166, 167, 168, 169, 170, 171, 172, 173, 174, 175, 176, 177, 178, 179, 180, 181, 182, 183, 184, 185, 186, 187, 188, 189, 190],
      "AcquisitionTime": ["101330.250000", "101331.740000", "101333.230000", "101334.720000", "101336.210000", "101337.700000", "101339.190000", "101340.680000", "101342.170000", "101343.660000", "101345.150000", "101346.640000", "101348.130000", "101349.620000", "101351.110000", "101352.600000", "101354.090000", "101355.580000", "101357.070000", "101358.560000", "101400.050000", "101401.540000", "101403.030000", "101404.520000", "101406.010000", "101407.500000", "101408.990000", "101410.480000", "101411.970000", "101413.460000", "101414.950000", "101416.440000", "101417.930000", "101419.420000", "101420.910000", "101422.400000", "101423.890000", "101425.380000", "101426.870000", "101428.360000", "101429.850000", "101431.340000", "101432.830000", "101434.320000", "101435.810000", "101437.300000", "101438.790000", "101440.280000", "101441.770000", "101443.260000", "101444.750000", "101446.240000", "101447.730000", "101449.220000", "101450.710000", "101452.200000", "101453.690000", "101455.180000", "101456.670000", "101458.160000", "101459.650000", "101501.140000", "101502.630000", "101504.120000", "101505.610000", "101507.100000", "101508.590000", "101510.080000", "101511.570000", "101513.060000", "101514.550000", "101516.040000", "101517.530000", "101519.020000", "101520.510000", "101522.000000", "101523.490000", "101524.980000", "101526.470000", "101527.960000", "101529.450000", "101530.940000", "101532.430000", "101533.920000", "101535.410000", "101536.900000", "101538.390000", "101539.880000", "101541.370000", "101542.860000", "101544.350000", "101545.840000", "101547.330000", "101548.820000", "101550.310000", "101551.800000", "101553.290000", "101554.780000", "101556.270000", "101557.760000", "101559.250000", "101600.740000", "101602.230000", "101603.720000", "101605.210000", "101606.700000", "101608.190000", "101609.680000", "101611.170000", "101612.660000", "101614.150000", "101615.640000", "101617.130000", "101618.620000", "101620.110000", "101621.600000", "101623.090000", "101624.580000", "101626.070000", "101627.560000", "101629.050000", "101630.540000", "101632.030000", "101633.520000", "101635.010000", "101636.500000", "101637.990000", "101639.480000", "101640.970000", "101642.460000", "101643.950000", "101645.440000", "101646.930000", "101648.420000", "101649.910000", "101651.400000", "101652.890000", "101654.380000", "101655.870000", "101657.360000", "101658.850000", "101700.340000", "101701.830000", "101703.320000", "101704.810000", "101706.300000", "101707.790000", "101709.280000", "101710.770000", "101712.260000", "101713.750000", "101715.240000", "101716.730000", "101718.220000", "101719.710000", "101721.200000", "101722.690000", "101724.180000", "101725.670000", "101727.160000", "101728.650000", "101730.140000", "101731.630000", "101733.120000", "101734.610000", "101736.100000", "101737.590000", "101739.080000", "101740.570000", "101742.060000", "101743.550000", "101745.040000", "101746.530000", "101748.020000", "101749.510000", "101751.000000", "101752.490000", "101753.980000", "101755.470000", "101756.960000", "101758.450000", "101759.940000", "101801.430000", "101802.920000", "101804.410000", "101805.900000", "101807.390000", "101808.880000", "101810.370000", "101811.860000"],
      "ContentTime": ["101456.459000", "101456.462000", "101456.465000", "101456.467000", "101456.470000", "101456.472000", "101456.475000", "101456.477000", "101456.480000", "101456.482000", "101456.485000", "101456.487000", "101456.490000", "101456.493000", "101456.495000", "101456.498000", "101456.501000", "101456.503000", "101456.506000", "101456.508000", "101456.511000", "101456.513000", "101456.516000", "101456.518000", "101456.521000", "101456.524000", "101456.526000", "101456.529000", "101456.531000", "101456.534000", "101456.536000", "101456.539000", "101456.541000", "101516.336000", "101516.339000", "101516.342000", "101516.344000", "101516.347000", "101516.349000", "101516.352000", "101516.354000", "101516.357000", "101516.359000", "101516.362000", "101516.365000", "101516.367000", "101516.370000", "101516.372000", "101516.375000", "101516.377000", "101516.380000", "101516.382000", "101516.385000", "101516.387000", "101536.336000", "101536.345000", "101536.348000", "101536.350000", "101536.353000", "101536.355000", "101536.358000", "101536.360000", "101536.363000", "101536.366000", "101536.368000", "101536.371000", "101536.373000", "101536.376000", "101536.378000", "101536.381000", "101536.384000", "101536.386000", "101536.389000", "101536.391000", "101556.353000", "101556.355000", "101556.358000", "101556.361000", "101556.363000", "101556.366000", "101556.369000", "101556.371000", "101556.374000", "101556.376000", "101556.379000", "101556.381000", "101556.384000", "101556.387000", "101556.389000", "101556.392000", "101556.396000", "101556.399000", "101556.401000", "101556.404000", "101636.390000", "101636.392000", "101636.395000", "101636.397000", "101636.400000", "101636.402000", "101636.405000", "101636.416000", "101636.419000", "101636.421000", "101636.424000", "101636.426000", "101636.429000", "101636.432000", "101636.434000", "101636.437000", "101636.439000", "101636.442000", "101636.444000", "101636.447000", "101636.450000", "101636.452000", "101636.455000", "101636.457000", "101636.460000", "101636.463000", "101636.465000", "101636.468000", "101636.470000", "101636.473000", "101716.363000", "101716.366000", "101716.369000", "101716.371000", "101716.374000", "101716.376000", "101716.379000", "101716.381000", "101716.384000", "101716.386000", "101716.389000", "101716.392000", "101716.394000", "101716.397000", "101716.399000", "101716.402000", "101716.404000", "101716.407000", "101716.409000", "101716.412000", "101716.423000", "101716.425000", "101716.428000", "101716.431000", "101716.433000", "101716.436000", "101716.438000", "101756.383000", "101756.386000", "101756.389000", "101756.391000", "101756.394000", "101756.396000", "101756.399000", "101756.401000", "101756.404000", "101756.407000", "101756.409000", "101756.412000", "101756.414000", "101756.417000", "101756.419000", "101756.422000", "101756.424000", "101756.427000", "101756.429000", "101756.432000", "101756.435000", "101756.437000", "101756.448000", "101756.450000", "101756.453000", "101756.455000", "101756.458000", "101813.752000", "101813.755000", "101813.758000", "101813.760000", "101813.763000", "101813.765000", "101813.768000", "101813.770000", "101813.773000", "101813.775000", "101813.778000", "101813.781000"],
      "InstanceCreationTime": ["101456.459000", "101456.462000", "101456.465000", "101456.467000", "101456.470000", "101456.472000", "101456.475000", "101456.477000", "101456.480000", "101456.482000", "101456.485000", "101456.487000", "101456.490000", "101456.493000", "101456.495000", "101456.498000", "101456.501000", "101456.503000", "101456.506000", "101456.508000", "101456.511000", "101456.513000", "101456.516000", "101456.518000", "101456.521000", "101456.524000", "101456.526000", "101456.529000", "101456.531000", "101456.534000", "101456.536000", "101456.539000", "101456.541000", "101516.336000", "101516.339000", "101516.342000", "101516.344000", "101516.347000", "101516.349000", "101516.352000", "101516.354000", "101516.357000", "101516.359000", "101516.362000", "101516.365000", "101516.367000", "101516.370000", "101516.372000", "101516.375000", "101516.377000", "101516.380000", "101516.382000", "101516.385000", "101516.387000", "101536.336000", "101536.345000", "101536.348000", "101536.350000", "101536.353000", "101536.355000", "101536.358000", "101536.360000", "101536.363000", "101536.366000", "101536.368000", "101536.371000", "101536.373000", "101536.376000", "101536.378000", "101536.381000", "101536.384000", "101536.386000", "101536.389000", "101536.391000", "101556.353000", "101556.355000", "101556.358000", "101556.361000", "101556.363000", "101556.366000", "101556.369000", "101556.371000", "101556.374000", "101556.376000", "101556.379000", "101556.381000", "101556.384000", "101556.387000", "101556.389000", "101556.392000", "101556.396000", "101556.399000", "101556.401000", "101556.404000", "101636.390000", "101636.392000", "101636.395000", "101636.397000", "101636.400000", "101636.402000", "101636.405000", "101636.416000", "101636.419000", "101636.421000", "101636.424000", "101636.426000", "101636.429000", "101636.432000", "101636.434000", "101636.437000", "101636.439000", "101636.442000", "101636.444000", "101636.447000", "101636.450000", "101636.452000", "101636.455000", "101636.457000", "101636.460000", "101636.463000", "101636.465000", "101636.468000", "101636.470000", "101636.473000", "101716.363000", "101716.366000", "101716.369000", "101716.371000", "101716.374000", "101716.376000", "101716.379000", "101716.381000", "101716.384000", "101716.386000", "101716.389000", "101716.392000", "101716.394000", "101716.397000", "101716.399000", "101716.402000", "101716.404000", "101716.407000", "101716.409000", "101716.412000", "101716.423000", "101716.425000", "101716.428000", "101716.431000", "101716.433000", "101716.436000", "101716.438000", "101756.383000", "101756.386000", "101756.389000", "101756.391000", "101756.394000", "101756.396000", "101756.399000", "101756.401000", "101756.404000", "101756.407000", "101756.409000", "101756.412000", "101756.414000", "101756.417000", "101756.419000", "101756.422000", "101756.424000", "101756.427000", "101756.429000", "101756.432000", "101756.435000", "101756.437000", "101756.448000", "101756.450000", "101756.453000", "101756.455000", "101756.458000", "101813.752000", "101813.755000", "101813.758000", "101813.760000", "101813.763000", "101813.765000", "101813.768000", "101813.770000", "101813.773000", "101813.775000", "101813.778000", "101813.781000"],
      "InstanceNumber": [1, 2, 3, 4, 5, 6, 7, 8, 9, 10, 11, 12, 13, 14, 15, 16, 17, 18, 19, 20, 21, 22, 23, 24, 25, 26, 27, 28, 29, 30, 31, 32, 33, 34, 35, 36, 37, 38, 39, 40, 41, 42, 43, 44, 45, 46, 47, 48, 49, 50, 51, 52, 53, 54, 55, 56, 57, 58, 59, 60, 61, 62, 63, 64, 65, 66, 67, 68, 69, 70, 71, 72, 73, 74, 75, 76, 77, 78, 79, 80, 81, 82, 83, 84, 85, 86, 87, 88, 89, 90, 91, 92, 93, 94, 95, 96, 97, 98, 99, 100, 101, 102, 103, 104, 105, 106, 107, 108, 109, 110, 111, 112, 113, 114, 115, 116, 117, 118, 119, 120, 121, 122, 123, 124, 125, 126, 127, 128, 129, 130, 131, 132, 133, 134, 135, 136, 137, 138, 139, 140, 141, 142, 143, 144, 145, 146, 147, 148, 149, 150, 151, 152, 153, 154, 155, 156, 157, 158, 159, 160, 161, 162, 163, 164, 165, 166, 167, 168, 169, 170, 171, 172, 173, 174, 175, 176, 177, 178, 179, 180, 181, 182, 183, 184, 185, 186, 187, 188, 189, 190],
      "WindowCenter": [4868.0, 4866.0, 4864.0, 4868.0, 4868.0, 4866.0, 4844.0, 4870.0, 4864.0, 4864.0, 4866.0, 4870.0, 4870.0, 4868.0, 4870.0, 4870.0, 4866.0, 4868.0, 4866.0, 4868.0, 4864.0, 4866.0, 4868.0, 4872.0, 4868.0, 4866.0, 4868.0, 4872.0, 4870.0, 4868.0, 4864.0, 4870.0, 4872.0, 4868.0, 4868.0, 4866.0, 4866.0, 4866.0, 4868.0, 4866.0, 4870.0, 4870.0, 4870.0, 4870.0, 4870.0, 4864.0, 4872.0, 4872.0, 4868.0, 4870.0, 4868.0, 4872.0, 4868.0, 4868.0, 4870.0, 4846.0, 4870.0, 4870.0, 4868.0, 4866.0, 4866.0, 4868.0, 4870.0, 4870.0, 4868.0, 4866.0, 4868.0, 4872.0, 4870.0, 4866.0, 4846.0, 4870.0, 4872.0, 4872.0, 4870.0, 4872.0, 4868.0, 4864.0, 4840.0, 4864.0, 4870.0, 4850.0, 4844.0, 4870.0, 4868.0, 4870.0, 4872.0, 4870.0, 4844.0, 4866.0, 4870.0, 4870.0, 4868.0, 4870.0, 4870.0, 4870.0, 4872.0, 4874.0, 4870.0, 4868.0, 4870.0, 4870.0, 4868.0, 4876.0, 4868.0, 4864.0, 4866.0, 4868.0, 4870.0, 4870.0, 4870.0, 4868.0, 4868.0, 4870.0, 4866.0, 4870.0, 4872.0, 4868.0, 4842.0, 4872.0, 4868.0, 4872.0, 4872.0, 4872.0, 4872.0, 4870.0, 4838.0, 4868.0, 4848.0, 4850.0, 4848.0, 4872.0, 4864.0, 4868.0, 4870.0, 4868.0, 4866.0, 4868.0, 4848.0, 4870.0, 4872.0, 4850.0, 4868.0, 4874.0, 4848.0, 4870.0, 4866.0, 4868.0, 4866.0, 4868.0, 4870.0, 4870.0, 4850.0, 4874.0, 4872.0, 4870.0, 4872.0, 4848.0, 4870.0, 4868.0, 4870.0, 4850.0, 4872.0, 4868.0, 4870.0, 4872.0, 4870.0, 4868.0, 4872.0, 4866.0, 4866.0, 4872.0, 4848.0, 4850.0, 4850.0, 4870.0, 4848.0, 4870.0, 4872.0, 4868.0, 4868.0, 4848.0, 4872.0, 4848.0, 4850.0, 4850.0, 4846.0, 4870.0, 4872.0, 4868.0],
      "WindowWidth": [18682.0, 18684.0, 18686.0, 18682.0, 18680.0, 18686.0, 18646.0, 18674.0, 18684.0, 18686.0, 18684.0, 18684.0, 18678.0, 18684.0, 18678.0, 18680.0, 18682.0, 18688.0, 18680.0, 18682.0, 18682.0, 18680.0, 18680.0, 18684.0, 18682.0, 18680.0, 18682.0, 18678.0, 18680.0, 18684.0, 18684.0, 18680.0, 18682.0, 18678.0, 18684.0, 18690.0, 18682.0, 18678.0, 18684.0, 18688.0, 18682.0, 18680.0, 18684.0, 18682.0, 18688.0, 18684.0, 18684.0, 18678.0, 18678.0, 18688.0, 18680.0, 18682.0, 18680.0, 18688.0, 18682.0, 18652.0, 18686.0, 18684.0, 18682.0, 18680.0, 18684.0, 18682.0, 18686.0, 18680.0, 18684.0, 18686.0, 18682.0, 18682.0, 18688.0, 18682.0, 18652.0, 18682.0, 18686.0, 18682.0, 18684.0, 18682.0, 18686.0, 18686.0, 18660.0, 18682.0, 18680.0, 18644.0, 18644.0, 18686.0, 18682.0, 18680.0, 18682.0, 18678.0, 18660.0, 18680.0, 18680.0, 18682.0, 18680.0, 18680.0, 18682.0, 18686.0, 18680.0, 18680.0, 18686.0, 18684.0, 18686.0, 18676.0, 18684.0, 18680.0, 18680.0, 18688.0, 18686.0, 18678.0, 18676.0, 18676.0, 18682.0, 18686.0, 18682.0, 18686.0, 18684.0, 18684.0, 18678.0, 18680.0, 18648.0, 18682.0, 18684.0, 18688.0, 18684.0, 18680.0, 18680.0, 18692.0, 18656.0, 18680.0, 18648.0, 18644.0, 18640.0, 18676.0, 18688.0, 18684.0, 18686.0, 18686.0, 18684.0, 18686.0, 18652.0, 18680.0, 18680.0, 18642.0, 18678.0, 18682.0, 18648.0, 18680.0, 18678.0, 18680.0, 18684.0, 18682.0, 18678.0, 18678.0, 18646.0, 18684.0, 18682.0, 18682.0, 18686.0, 18650.0, 18678.0, 18686.0, 18682.0, 18650.0, 18680.0, 18684.0, 18680.0, 18682.0, 18682.0, 18682.0, 18684.0, 18684.0, 18686.0, 18680.0, 18648.0, 18644.0, 18644.0, 18682.0, 18646.0, 18682.0, 18680.0, 18678.0, 18684.0, 18648.0, 18678.0, 18646.0, 18650.0, 18648.0, 18650.0, 18688.0, 18688.0, 18682.0]
    },
    "slices": {}
  }
}