{
  "AcquisitionMatrixPE": 104,
  "AcquisitionNumber": 1,
  "AcquisitionTime": "09:40:55.385000",
  "BandwidthPerPixelPhaseEncode": 17.17,
  "BaseResolution": 104,
  "BodyPartExamined": "BRAIN",
  "CoilString": "HC1-7;NC1_2",
  "ConsistencyInfo": "N4_VE11C_LATEST_20160120",
  "ConversionSoftware": "dcm2niix",
  "ConversionSoftwareVersion": "v1.0.20190902",
  "DerivedVendorReportedEchoSpacing": 0.000560011,
  "DeviceSerialNumber": "167006",
  "DwellTime": 2.1e-06,
  "EchoTime": 0.037,
  "EchoTrainLength": 104,
  "EffectiveEchoSpacing": 0.000560011,
  "FlipAngle": 52,
  "ImageComments": "Unaliased_MB4_PE3_LB",
  "ImageOrientationPatientDICOM": [0.995979, 0.0803583, 0.0395992, -0.0577766, 0.913994, -0.401593],
  "ImageType": [
    "ORIGINAL",
    "PRIMARY",
    "M",
    "MB",
    "ND",
    "MOSAIC"
],
  "ImagingFrequency": 123.259,
  "InPlanePhaseEncodingDirectionDICOM": "COL",
  "InstitutionAddress": "Chemin_Queen-Mary_4565_Montreal_District_CA_H3W_1W5",
  "InstitutionName": "IUGM",
  "InstitutionalDepartmentName": "Department",
  "MRAcquisitionType": "2D",
  "MagneticFieldStrength": 3,
  "Manufacturer": "Siemens",
  "ManufacturersModelName": "Prisma_fit",
  "Modality": "MR",
  "MultibandAccelerationFactor": 4,
  "PartialFourier": 1,
  "PatientPosition": "HFS",
  "PercentPhaseFOV": 100,
  "PhaseEncodingDirection": "j",
  "PhaseEncodingSteps": 104,
  "PhaseResolution": 1,
  "PixelBandwidth": 2290,
  "ProcedureStepDescription": "memory_things",
  "ProtocolName": "func_task-things_run-1",
  "PulseSequenceDetails": "%CustomerSeq%_cmrr_mbep2d_bold",
  "ReceiveCoilActiveElements": "HC1-7;NC1,2",
  "ReceiveCoilName": "HeadNeck_64",
  "ReconMatrixPE": 104,
  "RepetitionTime": 1.49,
  "SAR": 0.0521349,
  "ScanOptions": "FS",
  "ScanningSequence": "EP",
  "SequenceName": "epfid2d1_104",
  "SequenceVariant": "SK_SS",
  "SeriesDescription": "func_task-things_run-1",
  "SeriesNumber": 10,
  "ShimSetting": [635, -7154, -8862, 613, 96, 90, -36, -23],
  "SliceThickness": 2,
  "SliceTiming": [0, 0.7825, 0.0975, 0.88, 0.195, 0.98, 0.2925, 1.0775, 0.39, 1.175, 0.49, 1.2725, 0.5875, 1.37, 0.685, 0, 0.7825, 0.0975, 0.88, 0.195, 0.98, 0.2925, 1.0775, 0.39, 1.175, 0.49, 1.2725, 0.5875, 1.37, 0.685, 0, 0.7825, 0.0975, 0.88, 0.195, 0.98, 0.2925, 1.0775, 0.39, 1.175, 0.49, 1.2725, 0.5875, 1.37, 0.685, 0, 0.7825, 0.0975, 0.88, 0.195, 0.98, 0.2925, 1.0775, 0.39, 1.175, 0.49, 1.2725, 0.5875, 1.37, 0.685],
  "SoftwareVersions": "syngo_MR_E11",
  "SpacingBetweenSlices": 2,
  "StationName": "MRC35049",
  "TaskName": "things",
  "TotalReadoutTime": 0.0576811,
  "TxRefAmp": 274.586,
  "WipMemBlock": "f7f94b72-948c-4ccd-b18d-5eb67608f270||Sequence: R016 ve11c/master r/e634e98; Dec 19 2017 11:00:25 by eja",
  "dcmmeta_affine": [
    [-1.9919582605361938, -0.11555314809083939, 0.13692961633205414, 108.56319427490234],
    [-0.1607166826725006, 1.8279879093170166, -0.7953805327415466, -48.061866760253906],
    [0.07919847965240479, 0.8031858205795288, 1.8299235105514526, -78.5770492553711],
    [0.0, 0.0, 0.0, 1.0]
],
  "dcmmeta_reorient_transform": [
    [0.0, -1.0, 0.0, 103.0],
    [1.0, 0.0, 0.0, 0.0],
    [0.0, 0.0, 1.0, 0.0],
    [0.0, 0.0, 0.0, 1.0]
],
  "dcmmeta_shape": [104, 104, 60, 190],
  "dcmmeta_slice_dim": 2,
  "dcmmeta_version": 0.6,
  "global": {
    "const": {
      "AcquisitionMatrix": [104, 0, 0, 104],
      "AngioFlag": "N",
      "BitsAllocated": 16,
      "BitsStored": 16,
      "BodyPartExamined": "BRAIN",
      "Columns": 832,
      "EchoNumbers": 1,
      "EchoTime": 37.0,
      "EchoTrainLength": 104,
      "FlipAngle": 52.0,
      "HighBit": 15,
      "ImageOrientationPatient": [0.99597913517116, 0.08035833806846, 0.03959923997493, -0.0577765748025, 0.91399398062493, -0.4015929167521],
      "ImagePositionPatient": [-779.67268639046, -864.10937958015, 267.68248892605],
      "ImageType": [
        "ORIGINAL",
        "PRIMARY",
        "M",
        "MB",
        "ND",
        "MOSAIC"
],
      "ImagedNucleus": "1H",
      "ImagingFrequency": 123.258972,
      "InPlanePhaseEncodingDirection": "COL",
      "MRAcquisitionType": "2D",
      "MagneticFieldStrength": 3.0,
      "Manufacturer": "SIEMENS",
      "ManufacturerModelName": "Prisma_fit",
      "Modality": "MR",
      "NumberOfAverages": 1.0,
      "NumberOfPhaseEncodingSteps": 104,
      "PercentPhaseFieldOfView": 100.0,
      "PercentSampling": 100.0,
      "PerformedProcedureStepStartTime": "090934.945000",
      "PhotometricInterpretation": "MONOCHROME2",
      "PixelBandwidth": 2290.0,
      "PixelRepresentation": 0,
      "PixelSpacing": [2.0, 2.0],
      "ProtocolName": "func_task-things_run-1",
      "RepetitionTime": 1490.0,
      "Rows": 832,
      "SAR": 0.05213490828351,
      "SamplesPerPixel": 1,
      "ScanOptions": "FS",
      "ScanningSequence": "EP",
      "SequenceName": "epfid2d1_104",
      "SequenceVariant": [
        "SK",
        "SS"
],
      "SeriesDescription": "func_task-things_run-1",
      "SeriesNumber": 10,
      "SeriesTime": "094221.011000",
      "SliceLocation": -45.348499924806,
      "SliceThickness": 2.0,
      "SmallestImagePixelValue": 0,
      "SoftwareVersions": "syngo MR E11",
      "SpacingBetweenSlices": 2.0000000041132,
      "SpecificCharacterSet": "ISO_IR 100",
      "StudyID": "1",
      "StudyTime": "090934.736000",
      "TransmitCoilName": "Body",
      "VariableFlipAngleFlag": "N",
      "WindowCenterWidthExplanation": "Algo1",
      "dBdt": 0.0},
    "slices": {}
  },
  "time": {
    "samples": {
      "AcquisitionNumber": [1, 2, 3, 4, 5, 6, 7, 8, 9, 10, 11, 12, 13, 14, 15, 16, 17, 18, 19, 20, 21, 22, 23, 24, 25, 26, 27, 28, 29, 30, 31, 32, 33, 34, 35, 36, 37, 38, 39, 40, 41, 42, 43, 44, 45, 46, 47, 48, 49, 50, 51, 52, 53, 54, 55, 56, 57, 58, 59, 60, 61, 62, 63, 64, 65, 66, 67, 68, 69, 70, 71, 72, 73, 74, 75, 76, 77, 78, 79, 80, 81, 82, 83, 84, 85, 86, 87, 88, 89, 90, 91, 92, 93, 94, 95, 96, 97, 98, 99, 100, 101, 102, 103, 104, 105, 106, 107, 108, 109, 110, 111, 112, 113, 114, 115, 116, 117, 118, 119, 120, 121, 122, 123, 124, 125, 126, 127, 128, 129, 130, 131, 132, 133, 134, 135, 136, 137, 138, 139, 140, 141, 142, 143, 144, 145, 146, 147, 148, 149, 150, 151, 152, 153, 154, 155, 156, 157, 158, 159, 160, 161, 162, 163, 164, 165, 166, 167, 168, 169, 170, 171, 172, 173, 174, 175, 176, 177, 178, 179, 180, 181, 182, 183, 184, 185, 186, 187, 188, 189, 190],
      "AcquisitionTime": ["094055.385000", "094056.875000", "094058.365000", "094059.855000", "094101.345000", "094102.835000", "094104.325000", "094105.815000", "094107.305000", "094108.795000", "094110.285000", "094111.775000", "094113.265000", "094114.755000", "094116.245000", "094117.735000", "094119.225000", "094120.715000", "094122.205000", "094123.695000", "094125.185000", "094126.675000", "094128.165000", "094129.655000", "094131.145000", "094132.635000", "094134.125000", "094135.615000", "094137.105000", "094138.595000", "094140.085000", "094141.575000", "094143.065000", "094144.555000", "094146.045000", "094147.535000", "094149.025000", "094150.515000", "094152.005000", "094153.495000", "094154.985000", "094156.475000", "094157.965000", "094159.455000", "094200.945000", "094202.435000", "094203.925000", "094205.415000", "094206.905000", "094208.395000", "094209.885000", "094211.375000", "094212.865000", "094214.355000", "094215.845000", "094217.335000", "094218.825000", "094220.315000", "094221.805000", "094223.295000", "094224.785000", "094226.275000", "094227.765000", "094229.255000", "094230.745000", "094232.235000", "094233.725000", "094235.215000", "094236.705000", "094238.195000", "094239.685000", "094241.175000", "094242.665000", "094244.155000", "094245.645000", "094247.135000", "094248.625000", "094250.115000", "094251.605000", "094253.095000", "094254.585000", "094256.075000", "094257.565000", "094259.055000", "094300.545000", "094302.035000", "094303.525000", "094305.015000", "094306.505000", "094307.995000", "094309.485000", "094310.975000", "094312.465000", "094313.955000", "094315.445000", "094316.935000", "094318.425000", "094319.915000", "094321.405000", "094322.895000", "094324.385000", "094325.875000", "094327.365000", "094328.855000", "094330.345000", "094331.835000", "094333.325000", "094334.815000", "094336.305000", "094337.795000", "094339.285000", "094340.775000", "094342.265000", "094343.755000", "094345.245000", "094346.735000", "094348.225000", "094349.715000", "094351.205000", "094352.695000", "094354.185000", "094355.675000", "094357.165000", "094358.655000", "094400.145000", "094401.635000", "094403.125000", "094404.615000", "094406.105000", "094407.595000", "094409.085000", "094410.575000", "094412.065000", "094413.555000", "094415.045000", "094416.535000", "094418.025000", "094419.515000", "094421.005000", "094422.495000", "094423.985000", "094425.475000", "094426.965000", "094428.455000", "094429.945000", "094431.435000", "094432.925000", "094434.415000", "094435.905000", "094437.395000", "094438.885000", "094440.375000", "094441.865000", "094443.355000", "094444.845000", "094446.335000", "094447.825000", "094449.315000", "094450.805000", "094452.295000", "094453.785000", "094455.275000", "094456.765000", "094458.255000", "094459.745000", "094501.235000", "094502.725000", "094504.215000", "094505.705000", "094507.195000", "094508.685000", "094510.175000", "094511.665000", "094513.155000", "094514.645000", "094516.135000", "094517.625000", "094519.115000", "094520.605000", "094522.095000", "094523.585000", "094525.075000", "094526.565000", "094528.055000", "094529.545000", "094531.035000", "094532.525000", "094534.015000", "094535.505000", "094536.995000"],
      "ContentTime": ["094221.014000", "094221.018000", "094221.021000", "094221.025000", "094221.028000", "094221.031000", "094221.035000", "094221.038000", "094221.042000", "094221.046000", "094221.049000", "094221.053000", "094221.056000", "094221.060000", "094221.063000", "094221.066000", "094221.070000", "094221.073000", "094221.076000", "094221.080000", "094221.083000", "094221.087000", "094221.090000", "094221.093000", "094221.097000", "094221.100000", "094221.104000", "094221.107000", "094221.110000", "094221.114000", "094240.972000", "094240.976000", "094240.984000", "094240.988000", "094240.991000", "094240.994000", "094240.998000", "094241.001000", "094241.004000", "094241.008000", "094241.011000", "094241.015000", "094241.018000", "094241.021000", "094241.025000", "094241.028000", "094241.032000", "094241.035000", "094241.039000", "094241.042000", "094300.972000", "094300.976000", "094300.979000", "094300.983000", "094300.986000", "094300.990000", "094301.004000", "094301.007000", "094301.011000", "094301.014000", "094301.018000", "094301.021000", "094301.025000", "094301.028000", "094301.032000", "094301.047000", "094301.051000", "094301.054000", "094301.058000", "094301.061000", "094320.971000", "094320.975000", "094320.978000", "094320.982000", "094320.985000", "094320.989000", "094320.992000", "094320.996000", "094320.999000", "094321.002000", "094321.006000", "094321.009000", "094321.013000", "094321.016000", "094321.020000", "094321.023000", "094321.027000", "094321.030000", "094321.033000", "094321.037000", "094340.971000", "094340.975000", "094340.978000", "094340.982000", "094340.985000", "094340.988000", "094340.992000", "094340.995000", "094341.000000", "094341.003000", "094341.006000", "094341.010000", "094341.013000", "094341.016000", "094341.020000", "094341.023000", "094341.027000", "094341.030000", "094341.034000", "094341.037000", "094420.971000", "094420.975000", "094420.978000", "094420.982000", "094420.985000", "094420.988000", "094420.997000", "094421.001000", "094421.008000", "094421.012000", "094421.015000", "094421.019000", "094421.022000", "094421.026000", "094421.029000", "094421.033000", "094421.036000", "094421.039000", "094421.043000", "094421.046000", "094421.050000", "094421.053000", "094421.057000", "094421.060000", "094421.063000", "094421.067000", "094421.070000", "094500.972000", "094500.976000", "094500.980000", "094500.983000", "094500.986000", "094500.990000", "094500.993000", "094501.000000", "094501.004000", "094501.007000", "094501.011000", "094501.014000", "094501.018000", "094501.021000", "094501.025000", "094501.028000", "094501.031000", "094501.035000", "094501.038000", "094501.041000", "094501.045000", "094501.048000", "094501.051000", "094501.055000", "094501.058000", "094501.062000", "094501.065000", "094539.435000", "094539.439000", "094539.442000", "094539.446000", "094539.472000", "094539.476000", "094539.479000", "094539.482000", "094539.486000", "094539.490000", "094539.494000", "094539.497000", "094539.501000", "094539.504000", "094539.508000", "094539.512000", "094539.516000", "094539.519000", "094539.523000", "094539.526000", "094539.530000", "094539.534000", "094539.537000", "094539.540000", "094539.544000", "094539.548000"],
      "InstanceCreationTime": ["094221.014000", "094221.018000", "094221.021000", "094221.025000", "094221.028000", "094221.031000", "094221.035000", "094221.038000", "094221.042000", "094221.046000", "094221.049000", "094221.053000", "094221.056000", "094221.060000", "094221.063000", "094221.066000", "094221.070000", "094221.073000", "094221.076000", "094221.080000", "094221.083000", "094221.087000", "094221.090000", "094221.093000", "094221.097000", "094221.100000", "094221.104000", "094221.107000", "094221.110000", "094221.114000", "094240.972000", "094240.976000", "094240.984000", "094240.988000", "094240.991000", "094240.994000", "094240.998000", "094241.001000", "094241.004000", "094241.008000", "094241.011000", "094241.015000", "094241.018000", "094241.021000", "094241.025000", "094241.028000", "094241.032000", "094241.035000", "094241.039000", "094241.042000", "094300.972000", "094300.976000", "094300.979000", "094300.983000", "094300.986000", "094300.990000", "094301.004000", "094301.007000", "094301.011000", "094301.014000", "094301.018000", "094301.021000", "094301.025000", "094301.028000", "094301.032000", "094301.047000", "094301.051000", "094301.054000", "094301.058000", "094301.061000", "094320.971000", "094320.975000", "094320.978000", "094320.982000", "094320.985000", "094320.989000", "094320.992000", "094320.996000", "094320.999000", "094321.002000", "094321.006000", "094321.009000", "094321.013000", "094321.016000", "094321.020000", "094321.023000", "094321.027000", "094321.030000", "094321.033000", "094321.037000", "094340.971000", "094340.975000", "094340.978000", "094340.982000", "094340.985000", "094340.988000", "094340.992000", "094340.995000", "094341.000000", "094341.003000", "094341.006000", "094341.010000", "094341.013000", "094341.016000", "094341.020000", "094341.023000", "094341.027000", "094341.030000", "094341.034000", "094341.037000", "094420.971000", "094420.975000", "094420.978000", "094420.982000", "094420.985000", "094420.988000", "094420.997000", "094421.001000", "094421.008000", "094421.012000", "094421.015000", "094421.019000", "094421.022000", "094421.026000", "094421.029000", "094421.033000", "094421.036000", "094421.039000", "094421.043000", "094421.046000", "094421.050000", "094421.053000", "094421.057000", "094421.060000", "094421.063000", "094421.067000", "094421.070000", "094500.972000", "094500.976000", "094500.980000", "094500.983000", "094500.986000", "094500.990000", "094500.993000", "094501.000000", "094501.004000", "094501.007000", "094501.011000", "094501.014000", "094501.018000", "094501.021000", "094501.025000", "094501.028000", "094501.031000", "094501.035000", "094501.038000", "094501.041000", "094501.045000", "094501.048000", "094501.051000", "094501.055000", "094501.058000", "094501.062000", "094501.065000", "094539.435000", "094539.439000", "094539.442000", "094539.446000", "094539.472000", "094539.476000", "094539.479000", "094539.482000", "094539.486000", "094539.490000", "094539.494000", "094539.497000", "094539.501000", "094539.504000", "094539.508000", "094539.512000", "094539.516000", "094539.519000", "094539.523000", "094539.526000", "094539.530000", "094539.534000", "094539.537000", "094539.540000", "094539.544000", "094539.548000"],
      "InstanceNumber": [1, 2, 3, 4, 5, 6, 7, 8, 9, 10, 11, 12, 13, 14, 15, 16, 17, 18, 19, 20, 21, 22, 23, 24, 25, 26, 27, 28, 29, 30, 31, 32, 33, 34, 35, 36, 37, 38, 39, 40, 41, 42, 43, 44, 45, 46, 47, 48, 49, 50, 51, 52, 53, 54, 55, 56, 57, 58, 59, 60, 61, 62, 63, 64, 65, 66, 67, 68, 69, 70, 71, 72, 73, 74, 75, 76, 77, 78, 79, 80, 81, 82, 83, 84, 85, 86, 87, 88, 89, 90, 91, 92, 93, 94, 95, 96, 97, 98, 99, 100, 101, 102, 103, 104, 105, 106, 107, 108, 109, 110, 111, 112, 113, 114, 115, 116, 117, 118, 119, 120, 121, 122, 123, 124, 125, 126, 127, 128, 129, 130, 131, 132, 133, 134, 135, 136, 137, 138, 139, 140, 141, 142, 143, 144, 145, 146, 147, 148, 149, 150, 151, 152, 153, 154, 155, 156, 157, 158, 159, 160, 161, 162, 163, 164, 165, 166, 167, 168, 169, 170, 171, 172, 173, 174, 175, 176, 177, 178, 179, 180, 181, 182, 183, 184, 185, 186, 187, 188, 189, 190],
      "LargestImagePixelValue": [41954, 42059, 40598, 39889, 40087, 40333, 39955, 40577, 40409, 40831, 40499, 40505, 40528, 40615, 40485, 41009, 41680, 40731, 40821, 40972, 40454, 40993, 40970, 40969, 40954, 40911, 40735, 41112, 41871, 42320, 42596, 42643, 42269, 42990, 43360, 42891, 42328, 42222, 43010, 42809, 43303, 42614, 43363, 43137, 43035, 43277, 42355, 43550, 44160, 43910, 43848, 45128, 43398, 43942, 44190, 43424, 43928, 44545, 43814, 43828, 44249, 43864, 43867, 44404, 44381, 43876, 44326, 44247, 43313, 43832, 44176, 44070, 43928, 43913, 44046, 43911, 43274, 44070, 44130, 43436, 43221, 44199, 44248, 43165, 44001, 44093, 43050, 43441, 43514, 43267, 43963, 44039, 43565, 43627, 43449, 43801, 43188, 43627, 43633, 43056, 42913, 43321, 42414, 42208, 43737, 43754, 43138, 42612, 43269, 43361, 42299, 42826, 42980, 41903, 43104, 43124, 42551, 42890, 42812, 43517, 42172, 42516, 42656, 42064, 42855, 43004, 42108, 42409, 43199, 42354, 42175, 42928, 42570, 42202, 42381, 42925, 41741, 42556, 42815, 42291, 41944, 42239, 43009, 42516, 42183, 42653, 42299, 42369, 42961, 42474, 42207, 42450, 42155, 41378, 42237, 42658, 41996, 42293, 42686, 42102, 42182, 42083, 42708, 41719, 42159, 43039, 42201, 41174, 41206, 41508, 41694, 41511, 41271, 40932, 41219, 41459, 41442, 41190, 41192, 41751, 41900, 40804, 41212, 41552, 41969, 41742, 41299, 41235, 41792, 42470],
      "WindowCenter": [10640.0, 10580.0, 10546.0, 10548.0, 10529.0, 10516.0, 10525.0, 10536.0, 10525.0, 10536.0, 10533.0, 10532.0, 10532.0, 10521.0, 10515.0, 10510.0, 10512.0, 10505.0, 10509.0, 10528.0, 10516.0, 10513.0, 10504.0, 10508.0, 10508.0, 10516.0, 10523.0, 10540.0, 10569.0, 10559.0, 10529.0, 10517.0, 10534.0, 10540.0, 10529.0, 10528.0, 10520.0, 10517.0, 10505.0, 10510.0, 10529.0, 10526.0, 10529.0, 10529.0, 10523.0, 10518.0, 10507.0, 10528.0, 10549.0, 10560.0, 10548.0, 10546.0, 10522.0, 10517.0, 10518.0, 10520.0, 10555.0, 10556.0, 10539.0, 10547.0, 10529.0, 10527.0, 10564.0, 10579.0, 10569.0, 10552.0, 10537.0, 10515.0, 10512.0, 10528.0, 10523.0, 10534.0, 10539.0, 10549.0, 10520.0, 10518.0, 10529.0, 10529.0, 10527.0, 10523.0, 10514.0, 10507.0, 10522.0, 10533.0, 10546.0, 10536.0, 10517.0, 10522.0, 10520.0, 10524.0, 10539.0, 10537.0, 10541.0, 10543.0, 10531.0, 10528.0, 10546.0, 10557.0, 10548.0, 10544.0, 10535.0, 10516.0, 10511.0, 10539.0, 10551.0, 10543.0, 10529.0, 10513.0, 10488.0, 10472.0, 10498.0, 10542.0, 10539.0, 10525.0, 10508.0, 10487.0, 10483.0, 10500.0, 10506.0, 10507.0, 10513.0, 10515.0, 10511.0, 10506.0, 10510.0, 10502.0, 10512.0, 10528.0, 10531.0, 10520.0, 10515.0, 10507.0, 10492.0, 10502.0, 10510.0, 10516.0, 10511.0, 10519.0, 10500.0, 10507.0, 10523.0, 10514.0, 10500.0, 10499.0, 10512.0, 10511.0, 10501.0, 10502.0, 10497.0, 10491.0, 10493.0, 10491.0, 10494.0, 10500.0, 10506.0, 10501.0, 10503.0, 10512.0, 10510.0, 10505.0, 10506.0, 10488.0, 10481.0, 10493.0, 10502.0, 10506.0, 10491.0, 10490.0, 10491.0, 10473.0, 10470.0, 10479.0, 10510.0, 10497.0, 10474.0, 10464.0, 10470.0, 10457.0, 10445.0, 10449.0, 10465.0, 10490.0, 10504.0, 10501.0, 10483.0, 10474.0, 10469.0, 10468.0, 10480.0, 10495.0],
      "WindowWidth": [22651.0, 22487.0, 22400.0, 22403.0, 22356.0, 22319.0, 22348.0, 22366.0, 22343.0, 22364.0, 22360.0, 22355.0, 22356.0, 22328.0, 22313.0, 22301.0, 22301.0, 22294.0, 22304.0, 22348.0, 22322.0, 22310.0, 22292.0, 22299.0, 22302.0, 22322.0, 22343.0, 22383.0, 22450.0, 22418.0, 22343.0, 22313.0, 22355.0, 22363.0, 22336.0, 22332.0, 22323.0, 22314.0, 22284.0, 22295.0, 22342.0, 22336.0, 22338.0, 22339.0, 22327.0, 22311.0, 22291.0, 22335.0, 22383.0, 22412.0, 22383.0, 22370.0, 22322.0, 22308.0, 22313.0, 22322.0, 22403.0, 22405.0, 22364.0, 22382.0, 22337.0, 22333.0, 22425.0, 22459.0, 22423.0, 22390.0, 22355.0, 22300.0, 22300.0, 22336.0, 22320.0, 22345.0, 22362.0, 22384.0, 22313.0, 22315.0, 22340.0, 22334.0, 22327.0, 22321.0, 22302.0, 22279.0, 22312.0, 22350.0, 22377.0, 22348.0, 22311.0, 22325.0, 22315.0, 22332.0, 22365.0, 22353.0, 22367.0, 22375.0, 22340.0, 22331.0, 22379.0, 22404.0, 22380.0, 22376.0, 22352.0, 22306.0, 22300.0, 22368.0, 22389.0, 22371.0, 22341.0, 22303.0, 22234.0, 22194.0, 22268.0, 22369.0, 22363.0, 22331.0, 22286.0, 22235.0, 22231.0, 22272.0, 22285.0, 22287.0, 22307.0, 22309.0, 22293.0, 22288.0, 22294.0, 22274.0, 22305.0, 22340.0, 22339.0, 22317.0, 22307.0, 22282.0, 22251.0, 22278.0, 22294.0, 22307.0, 22304.0, 22316.0, 22267.0, 22285.0, 22330.0, 22305.0, 22268.0, 22267.0, 22306.0, 22297.0, 22270.0, 22275.0, 22260.0, 22248.0, 22256.0, 22250.0, 22258.0, 22279.0, 22294.0, 22275.0, 22283.0, 22302.0, 22292.0, 22285.0, 22289.0, 22244.0, 22225.0, 22258.0, 22276.0, 22279.0, 22245.0, 22251.0, 22254.0, 22213.0, 22204.0, 22228.0, 22304.0, 22271.0, 22209.0, 22186.0, 22201.0, 22177.0, 22145.0, 22152.0, 22188.0, 22254.0, 22287.0, 22276.0, 22235.0, 22215.0, 22212.0, 22208.0, 22231.0, 22264.0]
    },
    "slices": {}
  }
}