{
  "AcquisitionMatrixPE": 104,
  "AcquisitionNumber": 1,
  "AcquisitionTime": "09:53:45.340000",
  "BandwidthPerPixelPhaseEncode": 17.17,
  "BaseResolution": 104,
  "BodyPartExamined": "BRAIN",
  "CoilString": "HC1-7;NC1_2",
  "ConsistencyInfo": "N4_VE11C_LATEST_20160120",
  "ConversionSoftware": "dcm2niix",
  "ConversionSoftwareVersion": "v1.0.20190902",
  "DerivedVendorReportedEchoSpacing": 0.000560011,
  "DeviceSerialNumber": "167006",
  "DwellTime": 2.1e-06,
  "EchoTime": 0.037,
  "EchoTrainLength": 104,
  "EffectiveEchoSpacing": 0.000560011,
  "FlipAngle": 52,
  "ImageComments": "Unaliased_MB4_PE3_LB",
  "ImageOrientationPatientDICOM": [0.995979, 0.0803583, 0.0395992, -0.0577766, 0.913994, -0.401593],
  "ImageType": [
    "ORIGINAL",
    "PRIMARY",
    "M",
    "MB",
    "ND",
    "MOSAIC"
],
  "ImagingFrequency": 123.259,
  "InPlanePhaseEncodingDirectionDICOM": "COL",
  "InstitutionAddress": "Chemin_Queen-Mary_4565_Montreal_District_CA_H3W_1W5",
  "InstitutionName": "IUGM",
  "InstitutionalDepartmentName": "Department",
  "MRAcquisitionType": "2D",
  "MagneticFieldStrength": 3,
  "Manufacturer": "Siemens",
  "ManufacturersModelName": "Prisma_fit",
  "Modality": "MR",
  "MultibandAccelerationFactor": 4,
  "PartialFourier": 1,
  "PatientPosition": "HFS",
  "PercentPhaseFOV": 100,
  "PhaseEncodingDirection": "j",
  "PhaseEncodingSteps": 104,
  "PhaseResolution": 1,
  "PixelBandwidth": 2290,
  "ProcedureStepDescription": "memory_things",
  "ProtocolName": "func_task-things_run-3",
  "PulseSequenceDetails": "%CustomerSeq%_cmrr_mbep2d_bold",
  "ReceiveCoilActiveElements": "HC1-7;NC1,2",
  "ReceiveCoilName": "HeadNeck_64",
  "ReconMatrixPE": 104,
  "RepetitionTime": 1.49,
  "SAR": 0.0521349,
  "ScanOptions": "FS",
  "ScanningSequence": "EP",
  "SequenceName": "epfid2d1_104",
  "SequenceVariant": "SK_SS",
  "SeriesDescription": "func_task-things_run-3",
  "SeriesNumber": 16,
  "ShimSetting": [635, -7154, -8862, 613, 96, 90, -36, -23],
  "SliceThickness": 2,
  "SliceTiming": [0, 0.785, 0.1, 0.8825, 0.1975, 0.98, 0.295, 1.08, 0.3925, 1.1775, 0.49, 1.275, 0.59, 1.3725, 0.6875, 0, 0.785, 0.1, 0.8825, 0.1975, 0.98, 0.295, 1.08, 0.3925, 1.1775, 0.49, 1.275, 0.59, 1.3725, 0.6875, 0, 0.785, 0.1, 0.8825, 0.1975, 0.98, 0.295, 1.08, 0.3925, 1.1775, 0.49, 1.275, 0.59, 1.3725, 0.6875, 0, 0.785, 0.1, 0.8825, 0.1975, 0.98, 0.295, 1.08, 0.3925, 1.1775, 0.49, 1.275, 0.59, 1.3725, 0.6875],
  "SoftwareVersions": "syngo_MR_E11",
  "SpacingBetweenSlices": 2,
  "StationName": "MRC35049",
  "TaskName": "things",
  "TotalReadoutTime": 0.0576811,
  "TxRefAmp": 274.586,
  "WipMemBlock": "286a0112-9817-4e30-87a4-f65a27152f79||Sequence: R016 ve11c/master r/e634e98; Dec 19 2017 11:00:25 by eja",
  "dcmmeta_affine": [
    [-1.9919582605361938, -0.11555314809083939, 0.13692961633205414, 108.56319427490234],
    [-0.1607166826725006, 1.8279879093170166, -0.7953805327415466, -48.061866760253906],
    [0.07919847965240479, 0.8031858205795288, 1.8299235105514526, -78.5770492553711],
    [0.0, 0.0, 0.0, 1.0]
],
  "dcmmeta_reorient_transform": [
    [0.0, -1.0, 0.0, 103.0],
    [1.0, 0.0, 0.0, 0.0],
    [0.0, 0.0, 1.0, 0.0],
    [0.0, 0.0, 0.0, 1.0]
],
  "dcmmeta_shape": [104, 104, 60, 190],
  "dcmmeta_slice_dim": 2,
  "dcmmeta_version": 0.6,
  "global": {
    "const": {
      "AcquisitionMatrix": [104, 0, 0, 104],
      "AngioFlag": "N",
      "BitsAllocated": 16,
      "BitsStored": 16,
      "BodyPartExamined": "BRAIN",
      "Columns": 832,
      "EchoNumbers": 1,
      "EchoTime": 37.0,
      "EchoTrainLength": 104,
      "FlipAngle": 52.0,
      "HighBit": 15,
      "ImageOrientationPatient": [0.99597913517116, 0.08035833806846, 0.03959923997493, -0.0577765748025, 0.91399398062493, -0.4015929167521],
      "ImagePositionPatient": [-779.67268639046, -864.10937958015, 267.68248892605],
      "ImageType": [
        "ORIGINAL",
        "PRIMARY",
        "M",
        "MB",
        "ND",
        "MOSAIC"
],
      "ImagedNucleus": "1H",
      "ImagingFrequency": 123.25898,
      "InPlanePhaseEncodingDirection": "COL",
      "MRAcquisitionType": "2D",
      "MagneticFieldStrength": 3.0,
      "Manufacturer": "SIEMENS",
      "ManufacturerModelName": "Prisma_fit",
      "Modality": "MR",
      "NumberOfAverages": 1.0,
      "NumberOfPhaseEncodingSteps": 104,
      "PercentPhaseFieldOfView": 100.0,
      "PercentSampling": 100.0,
      "PerformedProcedureStepStartTime": "090934.945000",
      "PhotometricInterpretation": "MONOCHROME2",
      "PixelBandwidth": 2290.0,
      "PixelRepresentation": 0,
      "PixelSpacing": [2.0, 2.0],
      "ProtocolName": "func_task-things_run-3",
      "RepetitionTime": 1490.0,
      "Rows": 832,
      "SAR": 0.05213490828351,
      "SamplesPerPixel": 1,
      "ScanOptions": "FS",
      "ScanningSequence": "EP",
      "SequenceName": "epfid2d1_104",
      "SequenceVariant": [
        "SK",
        "SS"
],
      "SeriesDescription": "func_task-things_run-3",
      "SeriesNumber": 16,
      "SeriesTime": "095516.268000",
      "SliceLocation": -45.348499924806,
      "SliceThickness": 2.0,
      "SmallestImagePixelValue": 0,
      "SoftwareVersions": "syngo MR E11",
      "SpacingBetweenSlices": 2.0000000041132,
      "SpecificCharacterSet": "ISO_IR 100",
      "StudyID": "1",
      "StudyTime": "090934.736000",
      "TransmitCoilName": "Body",
      "VariableFlipAngleFlag": "N",
      "WindowCenterWidthExplanation": "Algo1",
      "dBdt": 0.0},
    "slices": {}
  },
  "time": {
    "samples": {
      "AcquisitionNumber": [1, 2, 3, 4, 5, 6, 7, 8, 9, 10, 11, 12, 13, 14, 15, 16, 17, 18, 19, 20, 21, 22, 23, 24, 25, 26, 27, 28, 29, 30, 31, 32, 33, 34, 35, 36, 37, 38, 39, 40, 41, 42, 43, 44, 45, 46, 47, 48, 49, 50, 51, 52, 53, 54, 55, 56, 57, 58, 59, 60, 61, 62, 63, 64, 65, 66, 67, 68, 69, 70, 71, 72, 73, 74, 75, 76, 77, 78, 79, 80, 81, 82, 83, 84, 85, 86, 87, 88, 89, 90, 91, 92, 93, 94, 95, 96, 97, 98, 99, 100, 101, 102, 103, 104, 105, 106, 107, 108, 109, 110, 111, 112, 113, 114, 115, 116, 117, 118, 119, 120, 121, 122, 123, 124, 125, 126, 127, 128, 129, 130, 131, 132, 133, 134, 135, 136, 137, 138, 139, 140, 141, 142, 143, 144, 145, 146, 147, 148, 149, 150, 151, 152, 153, 154, 155, 156, 157, 158, 159, 160, 161, 162, 163, 164, 165, 166, 167, 168, 169, 170, 171, 172, 173, 174, 175, 176, 177, 178, 179, 180, 181, 182, 183, 184, 185, 186, 187, 188, 189, 190],
      "AcquisitionTime": ["095345.340000", "095346.830000", "095348.320000", "095349.810000", "095351.300000", "095352.790000", "095354.280000", "095355.770000", "095357.260000", "095358.750000", "095400.240000", "095401.730000", "095403.220000", "095404.710000", "095406.200000", "095407.690000", "095409.180000", "095410.670000", "095412.160000", "095413.650000", "095415.140000", "095416.630000", "095418.120000", "095419.610000", "095421.100000", "095422.590000", "095424.080000", "095425.570000", "095427.060000", "095428.550000", "095430.040000", "095431.530000", "095433.020000", "095434.510000", "095436.000000", "095437.490000", "095438.980000", "095440.470000", "095441.960000", "095443.450000", "095444.940000", "095446.430000", "095447.920000", "095449.410000", "095450.900000", "095452.390000", "095453.880000", "095455.370000", "095456.860000", "095458.350000", "095459.840000", "095501.330000", "095502.820000", "095504.310000", "095505.800000", "095507.290000", "095508.780000", "095510.270000", "095511.760000", "095513.250000", "095514.740000", "095516.230000", "095517.720000", "095519.210000", "095520.700000", "095522.190000", "095523.680000", "095525.170000", "095526.660000", "095528.150000", "095529.640000", "095531.130000", "095532.620000", "095534.110000", "095535.600000", "095537.090000", "095538.580000", "095540.070000", "095541.560000", "095543.050000", "095544.540000", "095546.030000", "095547.520000", "095549.010000", "095550.500000", "095551.990000", "095553.480000", "095554.970000", "095556.460000", "095557.950000", "095559.440000", "095600.930000", "095602.420000", "095603.910000", "095605.400000", "095606.890000", "095608.380000", "095609.870000", "095611.360000", "095612.850000", "095614.340000", "095615.830000", "095617.320000", "095618.810000", "095620.300000", "095621.790000", "095623.280000", "095624.770000", "095626.260000", "095627.750000", "095629.240000", "095630.730000", "095632.220000", "095633.710000", "095635.200000", "095636.690000", "095638.180000", "095639.670000", "095641.160000", "095642.650000", "095644.140000", "095645.630000", "095647.120000", "095648.610000", "095650.100000", "095651.590000", "095653.080000", "095654.570000", "095656.060000", "095657.550000", "095659.040000", "095700.530000", "095702.020000", "095703.510000", "095705.000000", "095706.490000", "095707.980000", "095709.470000", "095710.960000", "095712.450000", "095713.940000", "095715.430000", "095716.920000", "095718.410000", "095719.900000", "095721.390000", "095722.880000", "095724.370000", "095725.860000", "095727.350000", "095728.840000", "095730.330000", "095731.820000", "095733.310000", "095734.800000", "095736.290000", "095737.780000", "095739.270000", "095740.760000", "095742.250000", "095743.740000", "095745.230000", "095746.720000", "095748.210000", "095749.700000", "095751.190000", "095752.680000", "095754.170000", "095755.660000", "095757.150000", "095758.640000", "095800.130000", "095801.620000", "095803.110000", "095804.600000", "095806.090000", "095807.580000", "095809.070000", "095810.560000", "095812.050000", "095813.540000", "095815.030000", "095816.520000", "095818.010000", "095819.500000", "095820.990000", "095822.480000", "095823.970000", "095825.460000", "095826.950000"],
      "ContentTime": ["095516.271000", "095516.275000", "095516.278000", "095516.281000", "095516.285000", "095516.288000", "095516.292000", "095516.296000", "095516.300000", "095516.303000", "095516.306000", "095516.310000", "095516.313000", "095516.316000", "095516.321000", "095516.325000", "095516.328000", "095516.331000", "095516.335000", "095516.338000", "095516.341000", "095516.345000", "095516.348000", "095516.352000", "095516.355000", "095516.359000", "095516.362000", "095516.365000", "095516.369000", "095516.372000", "095516.376000", "095516.380000", "095516.383000", "095516.387000", "095516.390000", "095516.393000", "095516.397000", "095536.220000", "095536.224000", "095536.227000", "095536.231000", "095536.234000", "095536.238000", "095536.241000", "095536.244000", "095536.248000", "095536.251000", "095536.255000", "095536.258000", "095536.261000", "095536.269000", "095536.272000", "095536.275000", "095536.279000", "095536.282000", "095536.286000", "095536.289000", "095556.220000", "095556.224000", "095556.227000", "095556.231000", "095556.234000", "095556.238000", "095556.241000", "095556.244000", "095556.248000", "095556.251000", "095556.254000", "095556.258000", "095556.261000", "095556.265000", "095556.268000", "095556.281000", "095556.284000", "095556.288000", "095556.291000", "095556.295000", "095616.220000", "095616.266000", "095616.269000", "095616.272000", "095616.276000", "095616.279000", "095616.282000", "095616.286000", "095616.289000", "095616.293000", "095616.296000", "095616.299000", "095616.303000", "095616.307000", "095616.311000", "095616.314000", "095616.318000", "095616.321000", "095616.325000", "095616.328000", "095656.219000", "095656.223000", "095656.227000", "095656.230000", "095656.233000", "095656.237000", "095656.240000", "095656.244000", "095656.247000", "095656.251000", "095656.254000", "095656.257000", "095656.261000", "095656.264000", "095656.268000", "095656.271000", "095656.275000", "095656.279000", "095656.283000", "095656.287000", "095656.290000", "095656.294000", "095656.297000", "095656.301000", "095656.304000", "095656.308000", "095656.311000", "095656.314000", "095656.318000", "095656.321000", "095736.220000", "095736.224000", "095736.227000", "095736.231000", "095736.234000", "095736.238000", "095736.241000", "095736.245000", "095736.248000", "095736.252000", "095736.255000", "095736.259000", "095736.262000", "095736.266000", "095736.269000", "095736.273000", "095736.276000", "095736.279000", "095736.283000", "095736.286000", "095736.290000", "095736.293000", "095736.297000", "095736.300000", "095736.303000", "095736.307000", "095736.310000", "095756.220000", "095756.224000", "095756.228000", "095756.231000", "095756.234000", "095756.238000", "095756.241000", "095756.245000", "095756.248000", "095756.252000", "095756.255000", "095756.259000", "095756.262000", "095756.266000", "095828.731000", "095828.735000", "095828.738000", "095828.742000", "095828.745000", "095828.749000", "095828.752000", "095828.762000", "095828.766000", "095828.769000", "095828.772000", "095828.776000", "095828.779000", "095828.783000", "095828.786000", "095828.790000", "095828.793000", "095828.797000", "095828.800000", "095828.803000", "095828.807000", "095828.810000"],
      "InstanceCreationTime": ["095516.271000", "095516.275000", "095516.278000", "095516.281000", "095516.285000", "095516.288000", "095516.292000", "095516.296000", "095516.300000", "095516.303000", "095516.306000", "095516.310000", "095516.313000", "095516.316000", "095516.321000", "095516.325000", "095516.328000", "095516.331000", "095516.335000", "095516.338000", "095516.341000", "095516.345000", "095516.348000", "095516.352000", "095516.355000", "095516.359000", "095516.362000", "095516.365000", "095516.369000", "095516.372000", "095516.376000", "095516.380000", "095516.383000", "095516.387000", "095516.390000", "095516.393000", "095516.397000", "095536.220000", "095536.224000", "095536.227000", "095536.231000", "095536.234000", "095536.238000", "095536.241000", "095536.244000", "095536.248000", "095536.251000", "095536.255000", "095536.258000", "095536.261000", "095536.269000", "095536.272000", "095536.275000", "095536.279000", "095536.282000", "095536.286000", "095536.289000", "095556.220000", "095556.224000", "095556.227000", "095556.231000", "095556.234000", "095556.238000", "095556.241000", "095556.244000", "095556.248000", "095556.251000", "095556.254000", "095556.258000", "095556.261000", "095556.265000", "095556.268000", "095556.281000", "095556.284000", "095556.288000", "095556.291000", "095556.295000", "095616.220000", "095616.266000", "095616.269000", "095616.272000", "095616.276000", "095616.279000", "095616.282000", "095616.286000", "095616.289000", "095616.293000", "095616.296000", "095616.299000", "095616.303000", "095616.307000", "095616.311000", "095616.314000", "095616.318000", "095616.321000", "095616.325000", "095616.328000", "095656.219000", "095656.223000", "095656.227000", "095656.230000", "095656.233000", "095656.237000", "095656.240000", "095656.244000", "095656.247000", "095656.251000", "095656.254000", "095656.257000", "095656.261000", "095656.264000", "095656.268000", "095656.271000", "095656.275000", "095656.279000", "095656.283000", "095656.287000", "095656.290000", "095656.294000", "095656.297000", "095656.301000", "095656.304000", "095656.308000", "095656.311000", "095656.314000", "095656.318000", "095656.321000", "095736.220000", "095736.224000", "095736.227000", "095736.231000", "095736.234000", "095736.238000", "095736.241000", "095736.245000", "095736.248000", "095736.252000", "095736.255000", "095736.259000", "095736.262000", "095736.266000", "095736.269000", "095736.273000", "095736.276000", "095736.279000", "095736.283000", "095736.286000", "095736.290000", "095736.293000", "095736.297000", "095736.300000", "095736.303000", "095736.307000", "095736.310000", "095756.220000", "095756.224000", "095756.228000", "095756.231000", "095756.234000", "095756.238000", "095756.241000", "095756.245000", "095756.248000", "095756.252000", "095756.255000", "095756.259000", "095756.262000", "095756.266000", "095828.731000", "095828.735000", "095828.738000", "095828.742000", "095828.745000", "095828.749000", "095828.752000", "095828.762000", "095828.766000", "095828.769000", "095828.772000", "095828.776000", "095828.779000", "095828.783000", "095828.786000", "095828.790000", "095828.793000", "095828.797000", "095828.800000", "095828.803000", "095828.807000", "095828.810000"],
      "InstanceNumber": [1, 2, 3, 4, 5, 6, 7, 8, 9, 10, 11, 12, 13, 14, 15, 16, 17, 18, 19, 20, 21, 22, 23, 24, 25, 26, 27, 28, 29, 30, 31, 32, 33, 34, 35, 36, 37, 38, 39, 40, 41, 42, 43, 44, 45, 46, 47, 48, 49, 50, 51, 52, 53, 54, 55, 56, 57, 58, 59, 60, 61, 62, 63, 64, 65, 66, 67, 68, 69, 70, 71, 72, 73, 74, 75, 76, 77, 78, 79, 80, 81, 82, 83, 84, 85, 86, 87, 88, 89, 90, 91, 92, 93, 94, 95, 96, 97, 98, 99, 100, 101, 102, 103, 104, 105, 106, 107, 108, 109, 110, 111, 112, 113, 114, 115, 116, 117, 118, 119, 120, 121, 122, 123, 124, 125, 126, 127, 128, 129, 130, 131, 132, 133, 134, 135, 136, 137, 138, 139, 140, 141, 142, 143, 144, 145, 146, 147, 148, 149, 150, 151, 152, 153, 154, 155, 156, 157, 158, 159, 160, 161, 162, 163, 164, 165, 166, 167, 168, 169, 170, 171, 172, 173, 174, 175, 176, 177, 178, 179, 180, 181, 182, 183, 184, 185, 186, 187, 188, 189, 190],
      "LargestImagePixelValue": [49993, 49818, 48599, 47722, 47866, 47114, 46364, 46730, 48391, 48273, 47668, 46629, 47492, 47061, 46164, 46488, 46173, 46129, 46709, 46329, 46109, 45749, 46261, 46062, 46415, 47075, 45995, 46279, 45947, 46967, 46794, 46767, 45142, 46256, 46780, 46448, 45194, 45840, 45332, 45240, 45969, 44586, 45135, 44764, 45394, 45142, 45648, 45605, 45452, 45724, 45059, 43939, 45141, 45457, 45268, 45037, 45758, 44962, 45464, 45233, 45689, 45475, 45368, 45328, 45060, 44410, 44744, 43877, 44680, 45102, 44877, 45908, 45040, 45218, 45530, 44317, 45143, 45001, 44113, 44697, 44311, 44793, 44795, 44239, 44771, 44432, 44814, 44380, 44087, 44257, 44988, 44797, 43608, 43287, 44874, 43951, 42223, 43351, 43663, 44504, 43891, 42316, 44197, 44314, 43366, 44194, 43507, 43542, 44749, 44595, 43605, 42817, 43504, 42257, 42748, 42214, 43466, 43390, 44255, 41462, 43107, 43910, 42872, 42800, 42937, 42501, 42549, 43347, 43491, 43136, 43116, 43001, 42012, 41110, 40982, 40419, 41019, 40786, 40671, 40827, 42045, 42095, 40149, 41552, 40632, 39498, 39091, 38867, 39336, 39459, 39666, 39201, 39298, 38735, 38370, 39453, 37951, 38037, 42391, 38566, 37862, 39343, 38727, 38689, 39610, 39037, 37956, 37874, 40333, 38407, 38412, 38557, 39555, 38444, 38702, 38807, 39092, 38349, 37890, 38011, 47115, 37867, 38412, 38348, 38142, 39429, 38530, 38517, 39253, 39038],
      "WindowCenter": [10612.0, 10579.0, 10541.0, 10531.0, 10536.0, 10525.0, 10532.0, 10543.0, 10560.0, 10554.0, 10538.0, 10525.0, 10523.0, 10515.0, 10526.0, 10554.0, 10550.0, 10543.0, 10534.0, 10511.0, 10501.0, 10518.0, 10542.0, 10540.0, 10547.0, 10548.0, 10538.0, 10545.0, 10532.0, 10532.0, 10532.0, 10529.0, 10530.0, 10563.0, 10560.0, 10528.0, 10516.0, 10518.0, 10510.0, 10514.0, 10519.0, 10503.0, 10499.0, 10488.0, 10499.0, 10510.0, 10521.0, 10518.0, 10512.0, 10519.0, 10515.0, 10517.0, 10533.0, 10516.0, 10506.0, 10504.0, 10516.0, 10536.0, 10555.0, 10541.0, 10542.0, 10515.0, 10496.0, 10504.0, 10514.0, 10527.0, 10527.0, 10516.0, 10515.0, 10500.0, 10507.0, 10527.0, 10533.0, 10544.0, 10528.0, 10507.0, 10504.0, 10499.0, 10505.0, 10516.0, 10512.0, 10533.0, 10525.0, 10512.0, 10503.0, 10481.0, 10483.0, 10486.0, 10503.0, 10505.0, 10507.0, 10509.0, 10490.0, 10484.0, 10510.0, 10506.0, 10500.0, 10496.0, 10498.0, 10534.0, 10541.0, 10535.0, 10532.0, 10506.0, 10482.0, 10485.0, 10478.0, 10490.0, 10516.0, 10504.0, 10491.0, 10476.0, 10471.0, 10460.0, 10474.0, 10464.0, 10480.0, 10482.0, 10509.0, 10502.0, 10534.0, 10528.0, 10481.0, 10464.0, 10459.0, 10476.0, 10498.0, 10512.0, 10510.0, 10497.0, 10496.0, 10487.0, 10478.0, 10486.0, 10482.0, 10476.0, 10465.0, 10472.0, 10482.0, 10516.0, 10530.0, 10504.0, 10469.0, 10470.0, 10447.0, 10435.0, 10440.0, 10450.0, 10466.0, 10471.0, 10476.0, 10469.0, 10471.0, 10443.0, 10444.0, 10462.0, 10447.0, 10459.0, 10494.0, 10467.0, 10458.0, 10482.0, 10489.0, 10481.0, 10491.0, 10480.0, 10460.0, 10453.0, 10472.0, 10464.0, 10477.0, 10491.0, 10519.0, 10494.0, 10464.0, 10437.0, 10424.0, 10416.0, 10420.0, 10440.0, 10549.0, 10459.0, 10454.0, 10451.0, 10442.0, 10464.0, 10457.0, 10449.0, 10458.0, 10460.0],
      "WindowWidth": [22557.0, 22458.0, 22363.0, 22339.0, 22346.0, 22321.0, 22340.0, 22361.0, 22391.0, 22381.0, 22344.0, 22315.0, 22309.0, 22294.0, 22325.0, 22394.0, 22382.0, 22364.0, 22339.0, 22288.0, 22264.0, 22306.0, 22363.0, 22362.0, 22375.0, 22374.0, 22350.0, 22369.0, 22342.0, 22337.0, 22339.0, 22330.0, 22338.0, 22417.0, 22404.0, 22326.0, 22311.0, 22309.0, 22290.0, 22312.0, 22313.0, 22283.0, 22268.0, 22241.0, 22262.0, 22290.0, 22316.0, 22310.0, 22294.0, 22310.0, 22300.0, 22321.0, 22346.0, 22305.0, 22283.0, 22280.0, 22305.0, 22355.0, 22401.0, 22365.0, 22375.0, 22308.0, 22255.0, 22270.0, 22297.0, 22333.0, 22331.0, 22312.0, 22316.0, 22267.0, 22286.0, 22328.0, 22348.0, 22377.0, 22335.0, 22290.0, 22276.0, 22264.0, 22286.0, 22305.0, 22300.0, 22348.0, 22325.0, 22299.0, 22274.0, 22225.0, 22228.0, 22239.0, 22282.0, 22285.0, 22280.0, 22287.0, 22254.0, 22234.0, 22292.0, 22285.0, 22283.0, 22265.0, 22271.0, 22350.0, 22368.0, 22363.0, 22349.0, 22284.0, 22234.0, 22239.0, 22224.0, 22257.0, 22311.0, 22281.0, 22252.0, 22219.0, 22200.0, 22183.0, 22213.0, 22195.0, 22226.0, 22232.0, 22290.0, 22286.0, 22366.0, 22337.0, 22230.0, 22192.0, 22180.0, 22224.0, 22283.0, 22311.0, 22295.0, 22272.0, 22267.0, 22241.0, 22230.0, 22262.0, 22242.0, 22232.0, 22204.0, 22222.0, 22245.0, 22327.0, 22352.0, 22289.0, 22217.0, 22215.0, 22164.0, 22143.0, 22154.0, 22180.0, 22215.0, 22227.0, 22233.0, 22216.0, 22226.0, 22165.0, 22166.0, 22204.0, 22175.0, 22207.0, 22271.0, 22220.0, 22201.0, 22253.0, 22275.0, 22253.0, 22271.0, 22252.0, 22208.0, 22193.0, 22225.0, 22216.0, 22243.0, 22281.0, 22338.0, 22284.0, 22212.0, 22153.0, 22115.0, 22100.0, 22117.0, 22163.0, 22386.0, 22203.0, 22185.0, 22179.0, 22166.0, 22208.0, 22202.0, 22183.0, 22196.0, 22205.0]
    },
    "slices": {}
  }
}