{
  "AcquisitionMatrixPE": 104,
  "AcquisitionNumber": 1,
  "AcquisitionTime": "09:40:55.385000",
  "BandwidthPerPixelPhaseEncode": 17.17,
  "BaseResolution": 104,
  "BodyPartExamined": "BRAIN",
  "CoilString": "HC1-7;NC1_2",
  "ConsistencyInfo": "N4_VE11C_LATEST_20160120",
  "ConversionSoftware": "dcm2niix",
  "ConversionSoftwareVersion": "v1.0.20190902",
  "DerivedVendorReportedEchoSpacing": 0.000560011,
  "DeviceSerialNumber": "167006",
  "DwellTime": 2.1e-06,
  "EchoTime": 0.037,
  "EchoTrainLength": 104,
  "EffectiveEchoSpacing": 0.000560011,
  "FlipAngle": 52,
  "ImageComments": "Unaliased_MB4_PE3_LB",
  "ImageOrientationPatientDICOM": [0.995979, 0.0803583, 0.0395992, -0.0577766, 0.913994, -0.401593],
  "ImageType": [
    "ORIGINAL",
    "PRIMARY",
    "P",
    "MB",
    "ND",
    "MOSAIC"
],
  "ImagingFrequency": 123.259,
  "InPlanePhaseEncodingDirectionDICOM": "COL",
  "InstitutionAddress": "Chemin_Queen-Mary_4565_Montreal_District_CA_H3W_1W5",
  "InstitutionName": "IUGM",
  "InstitutionalDepartmentName": "Department",
  "MRAcquisitionType": "2D",
  "MagneticFieldStrength": 3,
  "Manufacturer": "Siemens",
  "ManufacturersModelName": "Prisma_fit",
  "Modality": "MR",
  "MultibandAccelerationFactor": 4,
  "PartialFourier": 1,
  "PatientPosition": "HFS",
  "PercentPhaseFOV": 100,
  "PhaseEncodingDirection": "j",
  "PhaseEncodingSteps": 104,
  "PhaseResolution": 1,
  "PixelBandwidth": 2290,
  "ProcedureStepDescription": "memory_things",
  "ProtocolName": "func_task-things_run-1",
  "PulseSequenceDetails": "%CustomerSeq%_cmrr_mbep2d_bold",
  "ReceiveCoilActiveElements": "HC1-7;NC1,2",
  "ReceiveCoilName": "HeadNeck_64",
  "ReconMatrixPE": 104,
  "RepetitionTime": 1.49,
  "SAR": 0.0521349,
  "ScanOptions": "FS",
  "ScanningSequence": "EP",
  "SequenceName": "epfid2d1_104",
  "SequenceVariant": "SK_SS",
  "SeriesDescription": "func_task-things_run-1",
  "SeriesNumber": 11,
  "ShimSetting": [635, -7154, -8862, 613, 96, 90, -36, -23],
  "SliceThickness": 2,
  "SliceTiming": [0, 0.7825, 0.0975, 0.88, 0.195, 0.98, 0.2925, 1.0775, 0.39, 1.175, 0.49, 1.2725, 0.5875, 1.37, 0.685, 0, 0.7825, 0.0975, 0.88, 0.195, 0.98, 0.2925, 1.0775, 0.39, 1.175, 0.49, 1.2725, 0.5875, 1.37, 0.685, 0, 0.7825, 0.0975, 0.88, 0.195, 0.98, 0.2925, 1.0775, 0.39, 1.175, 0.49, 1.2725, 0.5875, 1.37, 0.685, 0, 0.7825, 0.0975, 0.88, 0.195, 0.98, 0.2925, 1.0775, 0.39, 1.175, 0.49, 1.2725, 0.5875, 1.37, 0.685],
  "SoftwareVersions": "syngo_MR_E11",
  "SpacingBetweenSlices": 2,
  "StationName": "MRC35049",
  "TaskName": "things",
  "TotalReadoutTime": 0.0576811,
  "TxRefAmp": 274.586,
  "WipMemBlock": "f7f94b72-948c-4ccd-b18d-5eb67608f270||Sequence: R016 ve11c/master r/e634e98; Dec 19 2017 11:00:25 by eja",
  "dcmmeta_affine": [
    [-1.9919582605361938, -0.11555314809083939, 0.13692961633205414, 108.56319427490234],
    [-0.1607166826725006, 1.8279879093170166, -0.7953805327415466, -48.061866760253906],
    [0.07919847965240479, 0.8031858205795288, 1.8299235105514526, -78.5770492553711],
    [0.0, 0.0, 0.0, 1.0]
],
  "dcmmeta_reorient_transform": [
    [0.0, -1.0, 0.0, 103.0],
    [1.0, 0.0, 0.0, 0.0],
    [0.0, 0.0, 1.0, 0.0],
    [0.0, 0.0, 0.0, 1.0]
],
  "dcmmeta_shape": [104, 104, 60, 190],
  "dcmmeta_slice_dim": 2,
  "dcmmeta_version": 0.6,
  "global": {
    "const": {
      "AcquisitionMatrix": [104, 0, 0, 104],
      "AngioFlag": "N",
      "BitsAllocated": 16,
      "BitsStored": 16,
      "BodyPartExamined": "BRAIN",
      "Columns": 832,
      "EchoNumbers": 1,
      "EchoTime": 37.0,
      "EchoTrainLength": 104,
      "FlipAngle": 52.0,
      "HighBit": 15,
      "ImageOrientationPatient": [0.99597913517116, 0.08035833806846, 0.03959923997493, -0.0577765748025, 0.91399398062493, -0.4015929167521],
      "ImagePositionPatient": [-779.67268639046, -864.10937958015, 267.68248892605],
      "ImageType": [
        "ORIGINAL",
        "PRIMARY",
        "P",
        "MB",
        "ND",
        "MOSAIC"
],
      "ImagedNucleus": "1H",
      "ImagingFrequency": 123.258972,
      "InPlanePhaseEncodingDirection": "COL",
      "LargestImagePixelValue": 4095,
      "MRAcquisitionType": "2D",
      "MagneticFieldStrength": 3.0,
      "Manufacturer": "SIEMENS",
      "ManufacturerModelName": "Prisma_fit",
      "Modality": "MR",
      "NumberOfAverages": 1.0,
      "NumberOfPhaseEncodingSteps": 104,
      "PercentPhaseFieldOfView": 100.0,
      "PercentSampling": 100.0,
      "PerformedProcedureStepStartTime": "090934.945000",
      "PhotometricInterpretation": "MONOCHROME2",
      "PixelBandwidth": 2290.0,
      "PixelRepresentation": 0,
      "PixelSpacing": [2.0, 2.0],
      "ProtocolName": "func_task-things_run-1",
      "RepetitionTime": 1490.0,
      "RescaleIntercept": -4096.0,
      "RescaleSlope": 2.0,
      "RescaleType": "US",
      "Rows": 832,
      "SAR": 0.05213490828351,
      "SamplesPerPixel": 1,
      "ScanOptions": "FS",
      "ScanningSequence": "EP",
      "SequenceName": "epfid2d1_104",
      "SequenceVariant": [
        "SK",
        "SS"
],
      "SeriesDescription": "func_task-things_run-1",
      "SeriesNumber": 11,
      "SeriesTime": "094221.158000",
      "SliceLocation": -45.348499924806,
      "SliceThickness": 2.0,
      "SmallestImagePixelValue": 0,
      "SoftwareVersions": "syngo MR E11",
      "SpacingBetweenSlices": 2.0000000041132,
      "SpecificCharacterSet": "ISO_IR 100",
      "StudyID": "1",
      "StudyTime": "090934.736000",
      "TransmitCoilName": "Body",
      "VariableFlipAngleFlag": "N",
      "WindowCenterWidthExplanation": "Algo1",
      "dBdt": 0.0},
    "slices": {}
  },
  "time": {
    "samples": {
      "AcquisitionNumber": [1, 2, 3, 4, 5, 6, 7, 8, 9, 10, 11, 12, 13, 14, 15, 16, 17, 18, 19, 20, 21, 22, 23, 24, 25, 26, 27, 28, 29, 30, 31, 32, 33, 34, 35, 36, 37, 38, 39, 40, 41, 42, 43, 44, 45, 46, 47, 48, 49, 50, 51, 52, 53, 54, 55, 56, 57, 58, 59, 60, 61, 62, 63, 64, 65, 66, 67, 68, 69, 70, 71, 72, 73, 74, 75, 76, 77, 78, 79, 80, 81, 82, 83, 84, 85, 86, 87, 88, 89, 90, 91, 92, 93, 94, 95, 96, 97, 98, 99, 100, 101, 102, 103, 104, 105, 106, 107, 108, 109, 110, 111, 112, 113, 114, 115, 116, 117, 118, 119, 120, 121, 122, 123, 124, 125, 126, 127, 128, 129, 130, 131, 132, 133, 134, 135, 136, 137, 138, 139, 140, 141, 142, 143, 144, 145, 146, 147, 148, 149, 150, 151, 152, 153, 154, 155, 156, 157, 158, 159, 160, 161, 162, 163, 164, 165, 166, 167, 168, 169, 170, 171, 172, 173, 174, 175, 176, 177, 178, 179, 180, 181, 182, 183, 184, 185, 186, 187, 188, 189, 190],
      "AcquisitionTime": ["094055.385000", "094056.875000", "094058.365000", "094059.855000", "094101.345000", "094102.835000", "094104.325000", "094105.815000", "094107.305000", "094108.795000", "094110.285000", "094111.775000", "094113.265000", "094114.755000", "094116.245000", "094117.735000", "094119.225000", "094120.715000", "094122.205000", "094123.695000", "094125.185000", "094126.675000", "094128.165000", "094129.655000", "094131.145000", "094132.635000", "094134.125000", "094135.615000", "094137.105000", "094138.595000", "094140.085000", "094141.575000", "094143.065000", "094144.555000", "094146.045000", "094147.535000", "094149.025000", "094150.515000", "094152.005000", "094153.495000", "094154.985000", "094156.475000", "094157.965000", "094159.455000", "094200.945000", "094202.435000", "094203.925000", "094205.415000", "094206.905000", "094208.395000", "094209.885000", "094211.375000", "094212.865000", "094214.355000", "094215.845000", "094217.335000", "094218.825000", "094220.315000", "094221.805000", "094223.295000", "094224.785000", "094226.275000", "094227.765000", "094229.255000", "094230.745000", "094232.235000", "094233.725000", "094235.215000", "094236.705000", "094238.195000", "094239.685000", "094241.175000", "094242.665000", "094244.155000", "094245.645000", "094247.135000", "094248.625000", "094250.115000", "094251.605000", "094253.095000", "094254.585000", "094256.075000", "094257.565000", "094259.055000", "094300.545000", "094302.035000", "094303.525000", "094305.015000", "094306.505000", "094307.995000", "094309.485000", "094310.975000", "094312.465000", "094313.955000", "094315.445000", "094316.935000", "094318.425000", "094319.915000", "094321.405000", "094322.895000", "094324.385000", "094325.875000", "094327.365000", "094328.855000", "094330.345000", "094331.835000", "094333.325000", "094334.815000", "094336.305000", "094337.795000", "094339.285000", "094340.775000", "094342.265000", "094343.755000", "094345.245000", "094346.735000", "094348.225000", "094349.715000", "094351.205000", "094352.695000", "094354.185000", "094355.675000", "094357.165000", "094358.655000", "094400.145000", "094401.635000", "094403.125000", "094404.615000", "094406.105000", "094407.595000", "094409.085000", "094410.575000", "094412.065000", "094413.555000", "094415.045000", "094416.535000", "094418.025000", "094419.515000", "094421.005000", "094422.495000", "094423.985000", "094425.475000", "094426.965000", "094428.455000", "094429.945000", "094431.435000", "094432.925000", "094434.415000", "094435.905000", "094437.395000", "094438.885000", "094440.375000", "094441.865000", "094443.355000", "094444.845000", "094446.335000", "094447.825000", "094449.315000", "094450.805000", "094452.295000", "094453.785000", "094455.275000", "094456.765000", "094458.255000", "094459.745000", "094501.235000", "094502.725000", "094504.215000", "094505.705000", "094507.195000", "094508.685000", "094510.175000", "094511.665000", "094513.155000", "094514.645000", "094516.135000", "094517.625000", "094519.115000", "094520.605000", "094522.095000", "094523.585000", "094525.075000", "094526.565000", "094528.055000", "094529.545000", "094531.035000", "094532.525000", "094534.015000", "094535.505000", "094536.995000"],
      "ContentTime": ["094221.160000", "094221.163000", "094221.165000", "094221.168000", "094221.170000", "094221.173000", "094221.175000", "094221.178000", "094221.181000", "094221.183000", "094221.186000", "094221.188000", "094221.191000", "094221.193000", "094221.203000", "094221.205000", "094221.208000", "094221.210000", "094221.213000", "094221.215000", "094221.218000", "094221.221000", "094221.223000", "094221.226000", "094221.228000", "094221.231000", "094221.234000", "094221.239000", "094221.242000", "094221.245000", "094241.089000", "094241.092000", "094241.095000", "094241.097000", "094241.100000", "094241.102000", "094241.105000", "094241.108000", "094241.110000", "094241.113000", "094241.115000", "094241.118000", "094241.120000", "094241.123000", "094241.125000", "094241.128000", "094241.131000", "094241.133000", "094241.136000", "094241.138000", "094301.106000", "094301.108000", "094301.111000", "094301.114000", "094301.116000", "094301.119000", "094301.121000", "094301.124000", "094301.126000", "094301.129000", "094301.132000", "094301.134000", "094301.137000", "094301.139000", "094301.142000", "094301.144000", "094301.147000", "094301.149000", "094301.152000", "094301.155000", "094321.093000", "094321.096000", "094321.098000", "094321.101000", "094321.103000", "094321.106000", "094321.108000", "094321.111000", "094321.114000", "094321.116000", "094321.119000", "094321.121000", "094321.124000", "094321.126000", "094321.129000", "094321.131000", "094321.134000", "094321.137000", "094321.139000", "094321.142000", "094341.103000", "094341.106000", "094341.109000", "094341.111000", "094341.114000", "094341.116000", "094341.119000", "094341.121000", "094341.124000", "094341.127000", "094341.129000", "094341.132000", "094341.144000", "094341.147000", "094341.149000", "094341.152000", "094341.154000", "094341.157000", "094341.159000", "094341.162000", "094421.139000", "094421.142000", "094421.145000", "094421.148000", "094421.150000", "094421.153000", "094421.156000", "094421.158000", "094421.161000", "094421.163000", "094421.166000", "094421.168000", "094421.171000", "094421.174000", "094421.176000", "094421.179000", "094421.182000", "094421.184000", "094421.187000", "094421.190000", "094421.192000", "094421.195000", "094421.197000", "094421.200000", "094421.203000", "094421.205000", "094421.208000", "094501.137000", "094501.140000", "094501.142000", "094501.145000", "094501.147000", "094501.150000", "094501.152000", "094501.155000", "094501.158000", "094501.160000", "094501.163000", "094501.165000", "094501.168000", "094501.170000", "094501.173000", "094501.176000", "094501.178000", "094501.181000", "094501.183000", "094501.186000", "094501.189000", "094501.191000", "094501.194000", "094501.196000", "094501.199000", "094501.201000", "094501.204000", "094539.610000", "094539.614000", "094539.617000", "094539.620000", "094539.623000", "094539.630000", "094539.633000", "094539.635000", "094539.638000", "094539.641000", "094539.644000", "094539.646000", "094539.649000", "094539.652000", "094539.654000", "094539.657000", "094539.659000", "094539.662000", "094539.665000", "094539.667000", "094539.670000", "094539.673000", "094539.675000", "094539.678000", "094539.681000", "094539.683000"],
      "InstanceCreationTime": ["094221.160000", "094221.163000", "094221.165000", "094221.168000", "094221.170000", "094221.173000", "094221.175000", "094221.178000", "094221.181000", "094221.183000", "094221.186000", "094221.188000", "094221.191000", "094221.193000", "094221.203000", "094221.205000", "094221.208000", "094221.210000", "094221.213000", "094221.215000", "094221.218000", "094221.221000", "094221.223000", "094221.226000", "094221.228000", "094221.231000", "094221.234000", "094221.239000", "094221.242000", "094221.245000", "094241.089000", "094241.092000", "094241.095000", "094241.097000", "094241.100000", "094241.102000", "094241.105000", "094241.108000", "094241.110000", "094241.113000", "094241.115000", "094241.118000", "094241.120000", "094241.123000", "094241.125000", "094241.128000", "094241.131000", "094241.133000", "094241.136000", "094241.138000", "094301.106000", "094301.108000", "094301.111000", "094301.114000", "094301.116000", "094301.119000", "094301.121000", "094301.124000", "094301.126000", "094301.129000", "094301.132000", "094301.134000", "094301.137000", "094301.139000", "094301.142000", "094301.144000", "094301.147000", "094301.149000", "094301.152000", "094301.155000", "094321.093000", "094321.096000", "094321.098000", "094321.101000", "094321.103000", "094321.106000", "094321.108000", "094321.111000", "094321.114000", "094321.116000", "094321.119000", "094321.121000", "094321.124000", "094321.126000", "094321.129000", "094321.131000", "094321.134000", "094321.137000", "094321.139000", "094321.142000", "094341.103000", "094341.106000", "094341.109000", "094341.111000", "094341.114000", "094341.116000", "094341.119000", "094341.121000", "094341.124000", "094341.127000", "094341.129000", "094341.132000", "094341.144000", "094341.147000", "094341.149000", "094341.152000", "094341.154000", "094341.157000", "094341.159000", "094341.162000", "094421.139000", "094421.142000", "094421.145000", "094421.148000", "094421.150000", "094421.153000", "094421.156000", "094421.158000", "094421.161000", "094421.163000", "094421.166000", "094421.168000", "094421.171000", "094421.174000", "094421.176000", "094421.179000", "094421.182000", "094421.184000", "094421.187000", "094421.190000", "094421.192000", "094421.195000", "094421.197000", "094421.200000", "094421.203000", "094421.205000", "094421.208000", "094501.137000", "094501.140000", "094501.142000", "094501.145000", "094501.147000", "094501.150000", "094501.152000", "094501.155000", "094501.158000", "094501.160000", "094501.163000", "094501.165000", "094501.168000", "094501.170000", "094501.173000", "094501.176000", "094501.178000", "094501.181000", "094501.183000", "094501.186000", "094501.189000", "094501.191000", "094501.194000", "094501.196000", "094501.199000", "094501.201000", "094501.204000", "094539.610000", "094539.614000", "094539.617000", "094539.620000", "094539.623000", "094539.630000", "094539.633000", "094539.635000", "094539.638000", "094539.641000", "094539.644000", "094539.646000", "094539.649000", "094539.652000", "094539.654000", "094539.657000", "094539.659000", "094539.662000", "094539.665000", "094539.667000", "094539.670000", "094539.673000", "094539.675000", "094539.678000", "094539.681000", "094539.683000"],
      "InstanceNumber": [1, 2, 3, 4, 5, 6, 7, 8, 9, 10, 11, 12, 13, 14, 15, 16, 17, 18, 19, 20, 21, 22, 23, 24, 25, 26, 27, 28, 29, 30, 31, 32, 33, 34, 35, 36, 37, 38, 39, 40, 41, 42, 43, 44, 45, 46, 47, 48, 49, 50, 51, 52, 53, 54, 55, 56, 57, 58, 59, 60, 61, 62, 63, 64, 65, 66, 67, 68, 69, 70, 71, 72, 73, 74, 75, 76, 77, 78, 79, 80, 81, 82, 83, 84, 85, 86, 87, 88, 89, 90, 91, 92, 93, 94, 95, 96, 97, 98, 99, 100, 101, 102, 103, 104, 105, 106, 107, 108, 109, 110, 111, 112, 113, 114, 115, 116, 117, 118, 119, 120, 121, 122, 123, 124, 125, 126, 127, 128, 129, 130, 131, 132, 133, 134, 135, 136, 137, 138, 139, 140, 141, 142, 143, 144, 145, 146, 147, 148, 149, 150, 151, 152, 153, 154, 155, 156, 157, 158, 159, 160, 161, 162, 163, 164, 165, 166, 167, 168, 169, 170, 171, 172, 173, 174, 175, 176, 177, 178, 179, 180, 181, 182, 183, 184, 185, 186, 187, 188, 189, 190],
      "WindowCenter": [4804.0, 4776.0, 4802.0, 4806.0, 4804.0, 4808.0, 4808.0, 4806.0, 4806.0, 4832.0, 4812.0, 4802.0, 4804.0, 4806.0, 4800.0, 4806.0, 4830.0, 4806.0, 4810.0, 4834.0, 4802.0, 4810.0, 4804.0, 4806.0, 4808.0, 4808.0, 4800.0, 4800.0, 4808.0, 4842.0, 4806.0, 4808.0, 4838.0, 4838.0, 4806.0, 4802.0, 4808.0, 4808.0, 4804.0, 4804.0, 4810.0, 4806.0, 4810.0, 4836.0, 4832.0, 4808.0, 4810.0, 4804.0, 4800.0, 4808.0, 4808.0, 4804.0, 4806.0, 4808.0, 4808.0, 4810.0, 4810.0, 4808.0, 4808.0, 4812.0, 4808.0, 4806.0, 4810.0, 4810.0, 4804.0, 4808.0, 4808.0, 4806.0, 4808.0, 4832.0, 4806.0, 4804.0, 4808.0, 4834.0, 4806.0, 4808.0, 4810.0, 4808.0, 4808.0, 4808.0, 4838.0, 4806.0, 4802.0, 4806.0, 4808.0, 4808.0, 4832.0, 4812.0, 4808.0, 4812.0, 4808.0, 4802.0, 4806.0, 4806.0, 4810.0, 4806.0, 4834.0, 4808.0, 4804.0, 4812.0, 4836.0, 4802.0, 4802.0, 4812.0, 4840.0, 4810.0, 4808.0, 4812.0, 4810.0, 4806.0, 4834.0, 4806.0, 4804.0, 4838.0, 4814.0, 4804.0, 4806.0, 4810.0, 4810.0, 4806.0, 4808.0, 4806.0, 4802.0, 4812.0, 4808.0, 4808.0, 4812.0, 4838.0, 4810.0, 4832.0, 4836.0, 4808.0, 4808.0, 4810.0, 4806.0, 4806.0, 4812.0, 4810.0, 4806.0, 4808.0, 4832.0, 4836.0, 4804.0, 4810.0, 4810.0, 4804.0, 4808.0, 4808.0, 4806.0, 4804.0, 4806.0, 4806.0, 4804.0, 4808.0, 4810.0, 4804.0, 4834.0, 4832.0, 4804.0, 4806.0, 4810.0, 4810.0, 4804.0, 4832.0, 4834.0, 4804.0, 4804.0, 4804.0, 4808.0, 4836.0, 4808.0, 4806.0, 4810.0, 4836.0, 4810.0, 4802.0, 4806.0, 4808.0, 4810.0, 4802.0, 4802.0, 4804.0, 4812.0, 4830.0, 4806.0, 4806.0, 4834.0, 4810.0, 4806.0, 4802.0],
      "WindowWidth": [18602.0, 18566.0, 18598.0, 18602.0, 18600.0, 18604.0, 18606.0, 18608.0, 18604.0, 18644.0, 18608.0, 18600.0, 18596.0, 18598.0, 18594.0, 18600.0, 18640.0, 18598.0, 18604.0, 18640.0, 18598.0, 18608.0, 18598.0, 18600.0, 18600.0, 18604.0, 18592.0, 18590.0, 18600.0, 18644.0, 18606.0, 18602.0, 18642.0, 18644.0, 18596.0, 18596.0, 18600.0, 18604.0, 18598.0, 18598.0, 18600.0, 18604.0, 18604.0, 18638.0, 18634.0, 18602.0, 18608.0, 18600.0, 18590.0, 18604.0, 18604.0, 18594.0, 18604.0, 18604.0, 18602.0, 18608.0, 18606.0, 18600.0, 18600.0, 18602.0, 18596.0, 18596.0, 18596.0, 18602.0, 18596.0, 18598.0, 18598.0, 18596.0, 18602.0, 18634.0, 18594.0, 18594.0, 18598.0, 18632.0, 18602.0, 18596.0, 18602.0, 18602.0, 18598.0, 18602.0, 18640.0, 18598.0, 18590.0, 18594.0, 18598.0, 18600.0, 18632.0, 18600.0, 18596.0, 18608.0, 18598.0, 18592.0, 18596.0, 18600.0, 18602.0, 18594.0, 18630.0, 18596.0, 18594.0, 18598.0, 18636.0, 18592.0, 18586.0, 18602.0, 18644.0, 18600.0, 18594.0, 18600.0, 18600.0, 18594.0, 18630.0, 18596.0, 18590.0, 18634.0, 18606.0, 18594.0, 18594.0, 18604.0, 18598.0, 18594.0, 18602.0, 18596.0, 18590.0, 18604.0, 18598.0, 18594.0, 18600.0, 18638.0, 18596.0, 18628.0, 18630.0, 18598.0, 18594.0, 18600.0, 18590.0, 18592.0, 18600.0, 18600.0, 18594.0, 18594.0, 18634.0, 18638.0, 18594.0, 18600.0, 18598.0, 18592.0, 18600.0, 18598.0, 18596.0, 18594.0, 18600.0, 18598.0, 18596.0, 18600.0, 18604.0, 18596.0, 18632.0, 18632.0, 18600.0, 18592.0, 18600.0, 18604.0, 18594.0, 18632.0, 18638.0, 18596.0, 18600.0, 18594.0, 18598.0, 18636.0, 18604.0, 18596.0, 18602.0, 18638.0, 18604.0, 18592.0, 18596.0, 18602.0, 18602.0, 18590.0, 18590.0, 18594.0, 18602.0, 18632.0, 18598.0, 18600.0, 18632.0, 18602.0, 18600.0, 18590.0]
    },
    "slices": {}
  }
}