{
  "AcquisitionMatrixPE": 104,
  "AcquisitionNumber": 1,
  "AcquisitionTime": "09:53:45.340000",
  "BandwidthPerPixelPhaseEncode": 17.17,
  "BaseResolution": 104,
  "BodyPartExamined": "BRAIN",
  "CoilString": "HC1-7;NC1_2",
  "ConsistencyInfo": "N4_VE11C_LATEST_20160120",
  "ConversionSoftware": "dcm2niix",
  "ConversionSoftwareVersion": "v1.0.20190902",
  "DerivedVendorReportedEchoSpacing": 0.000560011,
  "DeviceSerialNumber": "167006",
  "DwellTime": 2.1e-06,
  "EchoTime": 0.037,
  "EchoTrainLength": 104,
  "EffectiveEchoSpacing": 0.000560011,
  "FlipAngle": 52,
  "ImageComments": "Unaliased_MB4_PE3_LB",
  "ImageOrientationPatientDICOM": [0.995979, 0.0803583, 0.0395992, -0.0577766, 0.913994, -0.401593],
  "ImageType": [
    "ORIGINAL",
    "PRIMARY",
    "P",
    "MB",
    "ND",
    "MOSAIC"
],
  "ImagingFrequency": 123.259,
  "InPlanePhaseEncodingDirectionDICOM": "COL",
  "InstitutionAddress": "Chemin_Queen-Mary_4565_Montreal_District_CA_H3W_1W5",
  "InstitutionName": "IUGM",
  "InstitutionalDepartmentName": "Department",
  "MRAcquisitionType": "2D",
  "MagneticFieldStrength": 3,
  "Manufacturer": "Siemens",
  "ManufacturersModelName": "Prisma_fit",
  "Modality": "MR",
  "MultibandAccelerationFactor": 4,
  "PartialFourier": 1,
  "PatientPosition": "HFS",
  "PercentPhaseFOV": 100,
  "PhaseEncodingDirection": "j",
  "PhaseEncodingSteps": 104,
  "PhaseResolution": 1,
  "PixelBandwidth": 2290,
  "ProcedureStepDescription": "memory_things",
  "ProtocolName": "func_task-things_run-3",
  "PulseSequenceDetails": "%CustomerSeq%_cmrr_mbep2d_bold",
  "ReceiveCoilActiveElements": "HC1-7;NC1,2",
  "ReceiveCoilName": "HeadNeck_64",
  "ReconMatrixPE": 104,
  "RepetitionTime": 1.49,
  "SAR": 0.0521349,
  "ScanOptions": "FS",
  "ScanningSequence": "EP",
  "SequenceName": "epfid2d1_104",
  "SequenceVariant": "SK_SS",
  "SeriesDescription": "func_task-things_run-3",
  "SeriesNumber": 17,
  "ShimSetting": [635, -7154, -8862, 613, 96, 90, -36, -23],
  "SliceThickness": 2,
  "SliceTiming": [0, 0.785, 0.1, 0.8825, 0.1975, 0.98, 0.295, 1.08, 0.3925, 1.1775, 0.49, 1.275, 0.59, 1.3725, 0.6875, 0, 0.785, 0.1, 0.8825, 0.1975, 0.98, 0.295, 1.08, 0.3925, 1.1775, 0.49, 1.275, 0.59, 1.3725, 0.6875, 0, 0.785, 0.1, 0.8825, 0.1975, 0.98, 0.295, 1.08, 0.3925, 1.1775, 0.49, 1.275, 0.59, 1.3725, 0.6875, 0, 0.785, 0.1, 0.8825, 0.1975, 0.98, 0.295, 1.08, 0.3925, 1.1775, 0.49, 1.275, 0.59, 1.3725, 0.6875],
  "SoftwareVersions": "syngo_MR_E11",
  "SpacingBetweenSlices": 2,
  "StationName": "MRC35049",
  "TaskName": "things",
  "TotalReadoutTime": 0.0576811,
  "TxRefAmp": 274.586,
  "WipMemBlock": "286a0112-9817-4e30-87a4-f65a27152f79||Sequence: R016 ve11c/master r/e634e98; Dec 19 2017 11:00:25 by eja",
  "dcmmeta_affine": [
    [-1.9919582605361938, -0.11555314809083939, 0.13692961633205414, 108.56319427490234],
    [-0.1607166826725006, 1.8279879093170166, -0.7953805327415466, -48.061866760253906],
    [0.07919847965240479, 0.8031858205795288, 1.8299235105514526, -78.5770492553711],
    [0.0, 0.0, 0.0, 1.0]
],
  "dcmmeta_reorient_transform": [
    [0.0, -1.0, 0.0, 103.0],
    [1.0, 0.0, 0.0, 0.0],
    [0.0, 0.0, 1.0, 0.0],
    [0.0, 0.0, 0.0, 1.0]
],
  "dcmmeta_shape": [104, 104, 60, 190],
  "dcmmeta_slice_dim": 2,
  "dcmmeta_version": 0.6,
  "global": {
    "const": {
      "AcquisitionMatrix": [104, 0, 0, 104],
      "AngioFlag": "N",
      "BitsAllocated": 16,
      "BitsStored": 16,
      "BodyPartExamined": "BRAIN",
      "Columns": 832,
      "EchoNumbers": 1,
      "EchoTime": 37.0,
      "EchoTrainLength": 104,
      "FlipAngle": 52.0,
      "HighBit": 15,
      "ImageOrientationPatient": [0.99597913517116, 0.08035833806846, 0.03959923997493, -0.0577765748025, 0.91399398062493, -0.4015929167521],
      "ImagePositionPatient": [-779.67268639046, -864.10937958015, 267.68248892605],
      "ImageType": [
        "ORIGINAL",
        "PRIMARY",
        "P",
        "MB",
        "ND",
        "MOSAIC"
],
      "ImagedNucleus": "1H",
      "ImagingFrequency": 123.25898,
      "InPlanePhaseEncodingDirection": "COL",
      "LargestImagePixelValue": 4095,
      "MRAcquisitionType": "2D",
      "MagneticFieldStrength": 3.0,
      "Manufacturer": "SIEMENS",
      "ManufacturerModelName": "Prisma_fit",
      "Modality": "MR",
      "NumberOfAverages": 1.0,
      "NumberOfPhaseEncodingSteps": 104,
      "PercentPhaseFieldOfView": 100.0,
      "PercentSampling": 100.0,
      "PerformedProcedureStepStartTime": "090934.945000",
      "PhotometricInterpretation": "MONOCHROME2",
      "PixelBandwidth": 2290.0,
      "PixelRepresentation": 0,
      "PixelSpacing": [2.0, 2.0],
      "ProtocolName": "func_task-things_run-3",
      "RepetitionTime": 1490.0,
      "RescaleIntercept": -4096.0,
      "RescaleSlope": 2.0,
      "RescaleType": "US",
      "Rows": 832,
      "SAR": 0.05213490828351,
      "SamplesPerPixel": 1,
      "ScanOptions": "FS",
      "ScanningSequence": "EP",
      "SequenceName": "epfid2d1_104",
      "SequenceVariant": [
        "SK",
        "SS"
],
      "SeriesDescription": "func_task-things_run-3",
      "SeriesNumber": 17,
      "SeriesTime": "095516.950000",
      "SliceLocation": -45.348499924806,
      "SliceThickness": 2.0,
      "SmallestImagePixelValue": 0,
      "SoftwareVersions": "syngo MR E11",
      "SpacingBetweenSlices": 2.0000000041132,
      "SpecificCharacterSet": "ISO_IR 100",
      "StudyID": "1",
      "StudyTime": "090934.736000",
      "TransmitCoilName": "Body",
      "VariableFlipAngleFlag": "N",
      "WindowCenterWidthExplanation": "Algo1",
      "dBdt": 0.0},
    "slices": {}
  },
  "time": {
    "samples": {
      "AcquisitionNumber": [1, 2, 3, 4, 5, 6, 7, 8, 9, 10, 11, 12, 13, 14, 15, 16, 17, 18, 19, 20, 21, 22, 23, 24, 25, 26, 27, 28, 29, 30, 31, 32, 33, 34, 35, 36, 37, 38, 39, 40, 41, 42, 43, 44, 45, 46, 47, 48, 49, 50, 51, 52, 53, 54, 55, 56, 57, 58, 59, 60, 61, 62, 63, 64, 65, 66, 67, 68, 69, 70, 71, 72, 73, 74, 75, 76, 77, 78, 79, 80, 81, 82, 83, 84, 85, 86, 87, 88, 89, 90, 91, 92, 93, 94, 95, 96, 97, 98, 99, 100, 101, 102, 103, 104, 105, 106, 107, 108, 109, 110, 111, 112, 113, 114, 115, 116, 117, 118, 119, 120, 121, 122, 123, 124, 125, 126, 127, 128, 129, 130, 131, 132, 133, 134, 135, 136, 137, 138, 139, 140, 141, 142, 143, 144, 145, 146, 147, 148, 149, 150, 151, 152, 153, 154, 155, 156, 157, 158, 159, 160, 161, 162, 163, 164, 165, 166, 167, 168, 169, 170, 171, 172, 173, 174, 175, 176, 177, 178, 179, 180, 181, 182, 183, 184, 185, 186, 187, 188, 189, 190],
      "AcquisitionTime": ["095345.340000", "095346.830000", "095348.320000", "095349.810000", "095351.300000", "095352.790000", "095354.280000", "095355.770000", "095357.260000", "095358.750000", "095400.240000", "095401.730000", "095403.220000", "095404.710000", "095406.200000", "095407.690000", "095409.180000", "095410.670000", "095412.160000", "095413.650000", "095415.140000", "095416.630000", "095418.120000", "095419.610000", "095421.100000", "095422.590000", "095424.080000", "095425.570000", "095427.060000", "095428.550000", "095430.040000", "095431.530000", "095433.020000", "095434.510000", "095436.000000", "095437.490000", "095438.980000", "095440.470000", "095441.960000", "095443.450000", "095444.940000", "095446.430000", "095447.920000", "095449.410000", "095450.900000", "095452.390000", "095453.880000", "095455.370000", "095456.860000", "095458.350000", "095459.840000", "095501.330000", "095502.820000", "095504.310000", "095505.800000", "095507.290000", "095508.780000", "095510.270000", "095511.760000", "095513.250000", "095514.740000", "095516.230000", "095517.720000", "095519.210000", "095520.700000", "095522.190000", "095523.680000", "095525.170000", "095526.660000", "095528.150000", "095529.640000", "095531.130000", "095532.620000", "095534.110000", "095535.600000", "095537.090000", "095538.580000", "095540.070000", "095541.560000", "095543.050000", "095544.540000", "095546.030000", "095547.520000", "095549.010000", "095550.500000", "095551.990000", "095553.480000", "095554.970000", "095556.460000", "095557.950000", "095559.440000", "095600.930000", "095602.420000", "095603.910000", "095605.400000", "095606.890000", "095608.380000", "095609.870000", "095611.360000", "095612.850000", "095614.340000", "095615.830000", "095617.320000", "095618.810000", "095620.300000", "095621.790000", "095623.280000", "095624.770000", "095626.260000", "095627.750000", "095629.240000", "095630.730000", "095632.220000", "095633.710000", "095635.200000", "095636.690000", "095638.180000", "095639.670000", "095641.160000", "095642.650000", "095644.140000", "095645.630000", "095647.120000", "095648.610000", "095650.100000", "095651.590000", "095653.080000", "095654.570000", "095656.060000", "095657.550000", "095659.040000", "095700.530000", "095702.020000", "095703.510000", "095705.000000", "095706.490000", "095707.980000", "095709.470000", "095710.960000", "095712.450000", "095713.940000", "095715.430000", "095716.920000", "095718.410000", "095719.900000", "095721.390000", "095722.880000", "095724.370000", "095725.860000", "095727.350000", "095728.840000", "095730.330000", "095731.820000", "095733.310000", "095734.800000", "095736.290000", "095737.780000", "095739.270000", "095740.760000", "095742.250000", "095743.740000", "095745.230000", "095746.720000", "095748.210000", "095749.700000", "095751.190000", "095752.680000", "095754.170000", "095755.660000", "095757.150000", "095758.640000", "095800.130000", "095801.620000", "095803.110000", "095804.600000", "095806.090000", "095807.580000", "095809.070000", "095810.560000", "095812.050000", "095813.540000", "095815.030000", "095816.520000", "095818.010000", "095819.500000", "095820.990000", "095822.480000", "095823.970000", "095825.460000", "095826.950000"],
      "ContentTime": ["095516.952000", "095516.955000", "095516.957000", "095516.960000", "095516.962000", "095516.965000", "095516.968000", "095516.970000", "095516.973000", "095516.975000", "095516.978000", "095516.982000", "095516.985000", "095516.988000", "095516.991000", "095516.994000", "095516.997000", "095517.001000", "095517.003000", "095517.007000", "095517.010000", "095517.013000", "095517.016000", "095517.018000", "095517.021000", "095517.024000", "095517.027000", "095517.029000", "095517.032000", "095517.034000", "095517.037000", "095517.040000", "095517.042000", "095517.045000", "095517.047000", "095517.050000", "095517.052000", "095536.334000", "095536.336000", "095536.339000", "095536.342000", "095536.344000", "095536.347000", "095536.349000", "095536.352000", "095536.355000", "095536.357000", "095536.360000", "095536.362000", "095536.365000", "095536.367000", "095536.370000", "095536.372000", "095536.375000", "095536.377000", "095536.380000", "095536.382000", "095556.344000", "095556.347000", "095556.349000", "095556.352000", "095556.354000", "095556.357000", "095556.360000", "095556.362000", "095556.365000", "095556.367000", "095556.370000", "095556.372000", "095556.375000", "095556.377000", "095556.380000", "095556.382000", "095556.385000", "095556.388000", "095556.390000", "095556.393000", "095616.377000", "095616.380000", "095616.383000", "095616.385000", "095616.388000", "095616.390000", "095616.393000", "095616.395000", "095616.398000", "095616.401000", "095616.403000", "095616.406000", "095616.408000", "095616.411000", "095616.413000", "095616.416000", "095616.418000", "095616.421000", "095616.423000", "095616.426000", "095656.386000", "095656.388000", "095656.391000", "095656.393000", "095656.396000", "095656.398000", "095656.401000", "095656.404000", "095656.406000", "095656.409000", "095656.411000", "095656.414000", "095656.416000", "095656.419000", "095656.422000", "095656.424000", "095656.427000", "095656.429000", "095656.432000", "095656.435000", "095656.437000", "095656.440000", "095656.442000", "095656.445000", "095656.447000", "095656.450000", "095656.453000", "095656.455000", "095656.458000", "095656.460000", "095736.360000", "095736.362000", "095736.365000", "095736.368000", "095736.370000", "095736.373000", "095736.376000", "095736.379000", "095736.382000", "095736.384000", "095736.387000", "095736.390000", "095736.392000", "095736.395000", "095736.397000", "095736.400000", "095736.403000", "095736.405000", "095736.408000", "095736.410000", "095736.413000", "095736.415000", "095736.418000", "095736.421000", "095736.423000", "095736.426000", "095736.428000", "095756.306000", "095756.309000", "095756.312000", "095756.314000", "095756.317000", "095756.320000", "095756.322000", "095756.325000", "095756.327000", "095756.330000", "095756.332000", "095756.335000", "095756.338000", "095756.340000", "095828.872000", "095828.876000", "095828.878000", "095828.881000", "095828.884000", "095828.888000", "095828.890000", "095828.893000", "095828.896000", "095828.899000", "095828.901000", "095828.905000", "095828.908000", "095828.911000", "095828.913000", "095828.916000", "095828.919000", "095828.922000", "095828.925000", "095828.927000", "095828.930000", "095828.934000"],
      "InstanceCreationTime": ["095516.952000", "095516.955000", "095516.957000", "095516.960000", "095516.962000", "095516.965000", "095516.968000", "095516.970000", "095516.973000", "095516.975000", "095516.978000", "095516.982000", "095516.985000", "095516.988000", "095516.991000", "095516.994000", "095516.997000", "095517.001000", "095517.003000", "095517.007000", "095517.010000", "095517.013000", "095517.016000", "095517.018000", "095517.021000", "095517.024000", "095517.027000", "095517.029000", "095517.032000", "095517.034000", "095517.037000", "095517.040000", "095517.042000", "095517.045000", "095517.047000", "095517.050000", "095517.052000", "095536.334000", "095536.336000", "095536.339000", "095536.342000", "095536.344000", "095536.347000", "095536.349000", "095536.352000", "095536.355000", "095536.357000", "095536.360000", "095536.362000", "095536.365000", "095536.367000", "095536.370000", "095536.372000", "095536.375000", "095536.377000", "095536.380000", "095536.382000", "095556.344000", "095556.347000", "095556.349000", "095556.352000", "095556.354000", "095556.357000", "095556.360000", "095556.362000", "095556.365000", "095556.367000", "095556.370000", "095556.372000", "095556.375000", "095556.377000", "095556.380000", "095556.382000", "095556.385000", "095556.388000", "095556.390000", "095556.393000", "095616.377000", "095616.380000", "095616.383000", "095616.385000", "095616.388000", "095616.390000", "095616.393000", "095616.395000", "095616.398000", "095616.401000", "095616.403000", "095616.406000", "095616.408000", "095616.411000", "095616.413000", "095616.416000", "095616.418000", "095616.421000", "095616.423000", "095616.426000", "095656.386000", "095656.388000", "095656.391000", "095656.393000", "095656.396000", "095656.398000", "095656.401000", "095656.404000", "095656.406000", "095656.409000", "095656.411000", "095656.414000", "095656.416000", "095656.419000", "095656.422000", "095656.424000", "095656.427000", "095656.429000", "095656.432000", "095656.435000", "095656.437000", "095656.440000", "095656.442000", "095656.445000", "095656.447000", "095656.450000", "095656.453000", "095656.455000", "095656.458000", "095656.460000", "095736.360000", "095736.362000", "095736.365000", "095736.368000", "095736.370000", "095736.373000", "095736.376000", "095736.379000", "095736.382000", "095736.384000", "095736.387000", "095736.390000", "095736.392000", "095736.395000", "095736.397000", "095736.400000", "095736.403000", "095736.405000", "095736.408000", "095736.410000", "095736.413000", "095736.415000", "095736.418000", "095736.421000", "095736.423000", "095736.426000", "095736.428000", "095756.306000", "095756.309000", "095756.312000", "095756.314000", "095756.317000", "095756.320000", "095756.322000", "095756.325000", "095756.327000", "095756.330000", "095756.332000", "095756.335000", "095756.338000", "095756.340000", "095828.872000", "095828.876000", "095828.878000", "095828.881000", "095828.884000", "095828.888000", "095828.890000", "095828.893000", "095828.896000", "095828.899000", "095828.901000", "095828.905000", "095828.908000", "095828.911000", "095828.913000", "095828.916000", "095828.919000", "095828.922000", "095828.925000", "095828.927000", "095828.930000", "095828.934000"],
      "InstanceNumber": [1, 2, 3, 4, 5, 6, 7, 8, 9, 10, 11, 12, 13, 14, 15, 16, 17, 18, 19, 20, 21, 22, 23, 24, 25, 26, 27, 28, 29, 30, 31, 32, 33, 34, 35, 36, 37, 38, 39, 40, 41, 42, 43, 44, 45, 46, 47, 48, 49, 50, 51, 52, 53, 54, 55, 56, 57, 58, 59, 60, 61, 62, 63, 64, 65, 66, 67, 68, 69, 70, 71, 72, 73, 74, 75, 76, 77, 78, 79, 80, 81, 82, 83, 84, 85, 86, 87, 88, 89, 90, 91, 92, 93, 94, 95, 96, 97, 98, 99, 100, 101, 102, 103, 104, 105, 106, 107, 108, 109, 110, 111, 112, 113, 114, 115, 116, 117, 118, 119, 120, 121, 122, 123, 124, 125, 126, 127, 128, 129, 130, 131, 132, 133, 134, 135, 136, 137, 138, 139, 140, 141, 142, 143, 144, 145, 146, 147, 148, 149, 150, 151, 152, 153, 154, 155, 156, 157, 158, 159, 160, 161, 162, 163, 164, 165, 166, 167, 168, 169, 170, 171, 172, 173, 174, 175, 176, 177, 178, 179, 180, 181, 182, 183, 184, 185, 186, 187, 188, 189, 190],
      "WindowCenter": [4800.0, 4774.0, 4798.0, 4798.0, 4776.0, 4776.0, 4800.0, 4832.0, 4800.0, 4772.0, 4772.0, 4798.0, 4776.0, 4778.0, 4798.0, 4798.0, 4796.0, 4804.0, 4804.0, 4798.0, 4800.0, 4796.0, 4774.0, 4774.0, 4796.0, 4778.0, 4776.0, 4798.0, 4798.0, 4804.0, 4798.0, 4774.0, 4800.0, 4776.0, 4772.0, 4776.0, 4798.0, 4798.0, 4776.0, 4794.0, 4776.0, 4800.0, 4800.0, 4798.0, 4776.0, 4798.0, 4798.0, 4778.0, 4774.0, 4776.0, 4772.0, 4774.0, 4798.0, 4798.0, 4800.0, 4772.0, 4774.0, 4776.0, 4772.0, 4774.0, 4772.0, 4774.0, 4798.0, 4772.0, 4798.0, 4778.0, 4800.0, 4802.0, 4800.0, 4802.0, 4798.0, 4776.0, 4774.0, 4776.0, 4772.0, 4800.0, 4778.0, 4800.0, 4798.0, 4774.0, 4798.0, 4796.0, 4776.0, 4800.0, 4778.0, 4778.0, 4800.0, 4800.0, 4776.0, 4778.0, 4776.0, 4774.0, 4776.0, 4800.0, 4776.0, 4798.0, 4802.0, 4778.0, 4774.0, 4774.0, 4776.0, 4804.0, 4800.0, 4776.0, 4800.0, 4800.0, 4778.0, 4776.0, 4796.0, 4802.0, 4798.0, 4800.0, 4778.0, 4800.0, 4800.0, 4800.0, 4800.0, 4800.0, 4774.0, 4800.0, 4776.0, 4776.0, 4802.0, 4800.0, 4776.0, 4798.0, 4778.0, 4800.0, 4774.0, 4800.0, 4776.0, 4778.0, 4776.0, 4776.0, 4798.0, 4800.0, 4800.0, 4778.0, 4776.0, 4778.0, 4798.0, 4778.0, 4802.0, 4798.0, 4796.0, 4800.0, 4778.0, 4778.0, 4776.0, 4778.0, 4778.0, 4800.0, 4800.0, 4776.0, 4776.0, 4778.0, 4778.0, 4776.0, 4776.0, 4800.0, 4776.0, 4776.0, 4778.0, 4776.0, 4776.0, 4800.0, 4778.0, 4802.0, 4802.0, 4800.0, 4776.0, 4776.0, 4778.0, 4800.0, 4802.0, 4774.0, 4776.0, 4802.0, 4776.0, 4776.0, 4778.0, 4776.0, 4778.0, 4778.0, 4774.0, 4800.0, 4776.0, 4800.0, 4798.0, 4776.0],
      "WindowWidth": [18602.0, 18572.0, 18602.0, 18602.0, 18576.0, 18574.0, 18602.0, 18646.0, 18608.0, 18570.0, 18574.0, 18600.0, 18572.0, 18570.0, 18600.0, 18598.0, 18600.0, 18608.0, 18608.0, 18598.0, 18604.0, 18600.0, 18570.0, 18564.0, 18600.0, 18570.0, 18570.0, 18600.0, 18600.0, 18612.0, 18598.0, 18572.0, 18602.0, 18568.0, 18572.0, 18570.0, 18600.0, 18602.0, 18572.0, 18600.0, 18570.0, 18602.0, 18608.0, 18602.0, 18572.0, 18602.0, 18600.0, 18570.0, 18570.0, 18572.0, 18564.0, 18570.0, 18596.0, 18602.0, 18602.0, 18566.0, 18570.0, 18568.0, 18566.0, 18566.0, 18572.0, 18572.0, 18600.0, 18564.0, 18596.0, 18570.0, 18606.0, 18602.0, 18600.0, 18606.0, 18600.0, 18574.0, 18570.0, 18574.0, 18566.0, 18604.0, 18572.0, 18602.0, 18602.0, 18568.0, 18600.0, 18600.0, 18572.0, 18600.0, 18574.0, 18572.0, 18600.0, 18600.0, 18570.0, 18570.0, 18568.0, 18568.0, 18570.0, 18600.0, 18572.0, 18602.0, 18604.0, 18572.0, 18564.0, 18570.0, 18570.0, 18602.0, 18604.0, 18568.0, 18604.0, 18602.0, 18578.0, 18572.0, 18596.0, 18604.0, 18598.0, 18596.0, 18568.0, 18602.0, 18600.0, 18600.0, 18600.0, 18596.0, 18570.0, 18600.0, 18566.0, 18570.0, 18596.0, 18602.0, 18570.0, 18598.0, 18568.0, 18600.0, 18570.0, 18600.0, 18566.0, 18568.0, 18568.0, 18572.0, 18600.0, 18596.0, 18604.0, 18572.0, 18568.0, 18576.0, 18602.0, 18568.0, 18606.0, 18600.0, 18598.0, 18598.0, 18570.0, 18570.0, 18566.0, 18566.0, 18568.0, 18602.0, 18598.0, 18568.0, 18568.0, 18570.0, 18570.0, 18566.0, 18572.0, 18602.0, 18568.0, 18570.0, 18574.0, 18568.0, 18564.0, 18600.0, 18574.0, 18608.0, 18602.0, 18600.0, 18570.0, 18566.0, 18568.0, 18602.0, 18594.0, 18564.0, 18568.0, 18604.0, 18570.0, 18566.0, 18570.0, 18570.0, 18568.0, 18566.0, 18568.0, 18600.0, 18570.0, 18600.0, 18602.0, 18570.0]
    },
    "slices": {}
  }
}