{
  "AcquisitionMatrixPE": 104,
  "AcquisitionNumber": 1,
  "AcquisitionTime": "09:59:57.600000",
  "BandwidthPerPixelPhaseEncode": 17.17,
  "BaseResolution": 104,
  "BodyPartExamined": "BRAIN",
  "CoilString": "HC1-7;NC1_2",
  "ConsistencyInfo": "N4_VE11C_LATEST_20160120",
  "ConversionSoftware": "dcm2niix",
  "ConversionSoftwareVersion": "v1.0.20190902",
  "DerivedVendorReportedEchoSpacing": 0.000560011,
  "DeviceSerialNumber": "167006",
  "DwellTime": 2.1e-06,
  "EchoTime": 0.037,
  "EchoTrainLength": 104,
  "EffectiveEchoSpacing": 0.000560011,
  "FlipAngle": 52,
  "ImageComments": "Unaliased_MB4_PE3_LB",
  "ImageOrientationPatientDICOM": [0.995979, 0.0803583, 0.0395992, -0.0577766, 0.913994, -0.401593],
  "ImageType": [
    "ORIGINAL",
    "PRIMARY",
    "P",
    "MB",
    "ND",
    "MOSAIC"
],
  "ImagingFrequency": 123.259,
  "InPlanePhaseEncodingDirectionDICOM": "COL",
  "InstitutionAddress": "Chemin_Queen-Mary_4565_Montreal_District_CA_H3W_1W5",
  "InstitutionName": "IUGM",
  "InstitutionalDepartmentName": "Department",
  "MRAcquisitionType": "2D",
  "MagneticFieldStrength": 3,
  "Manufacturer": "Siemens",
  "ManufacturersModelName": "Prisma_fit",
  "Modality": "MR",
  "MultibandAccelerationFactor": 4,
  "PartialFourier": 1,
  "PatientPosition": "HFS",
  "PercentPhaseFOV": 100,
  "PhaseEncodingDirection": "j",
  "PhaseEncodingSteps": 104,
  "PhaseResolution": 1,
  "PixelBandwidth": 2290,
  "ProcedureStepDescription": "memory_things",
  "ProtocolName": "func_task-things_run-4",
  "PulseSequenceDetails": "%CustomerSeq%_cmrr_mbep2d_bold",
  "ReceiveCoilActiveElements": "HC1-7;NC1,2",
  "ReceiveCoilName": "HeadNeck_64",
  "ReconMatrixPE": 104,
  "RepetitionTime": 1.49,
  "SAR": 0.0521349,
  "ScanOptions": "FS",
  "ScanningSequence": "EP",
  "SequenceName": "epfid2d1_104",
  "SequenceVariant": "SK_SS",
  "SeriesDescription": "func_task-things_run-4",
  "SeriesNumber": 20,
  "ShimSetting": [635, -7154, -8862, 613, 96, 90, -36, -23],
  "SliceThickness": 2,
  "SliceTiming": [0, 0.785, 0.0975, 0.8825, 0.1975, 0.98, 0.295, 1.0775, 0.3925, 1.1775, 0.49, 1.275, 0.5875, 1.3725, 0.6875, 0, 0.785, 0.0975, 0.8825, 0.1975, 0.98, 0.295, 1.0775, 0.3925, 1.1775, 0.49, 1.275, 0.5875, 1.3725, 0.6875, 0, 0.785, 0.0975, 0.8825, 0.1975, 0.98, 0.295, 1.0775, 0.3925, 1.1775, 0.49, 1.275, 0.5875, 1.3725, 0.6875, 0, 0.785, 0.0975, 0.8825, 0.1975, 0.98, 0.295, 1.0775, 0.3925, 1.1775, 0.49, 1.275, 0.5875, 1.3725, 0.6875],
  "SoftwareVersions": "syngo_MR_E11",
  "SpacingBetweenSlices": 2,
  "StationName": "MRC35049",
  "TaskName": "things",
  "TotalReadoutTime": 0.0576811,
  "TxRefAmp": 274.586,
  "WipMemBlock": "061ef3b8-1212-4c64-a1b7-6c9e10b38500||Sequence: R016 ve11c/master r/e634e98; Dec 19 2017 11:00:25 by eja",
  "dcmmeta_affine": [
    [-1.9919582605361938, -0.11555314809083939, 0.13692961633205414, 108.56319427490234],
    [-0.1607166826725006, 1.8279879093170166, -0.7953805327415466, -48.061866760253906],
    [0.07919847965240479, 0.8031858205795288, 1.8299235105514526, -78.5770492553711],
    [0.0, 0.0, 0.0, 1.0]
],
  "dcmmeta_reorient_transform": [
    [0.0, -1.0, 0.0, 103.0],
    [1.0, 0.0, 0.0, 0.0],
    [0.0, 0.0, 1.0, 0.0],
    [0.0, 0.0, 0.0, 1.0]
],
  "dcmmeta_shape": [104, 104, 60, 190],
  "dcmmeta_slice_dim": 2,
  "dcmmeta_version": 0.6,
  "global": {
    "const": {
      "AcquisitionMatrix": [104, 0, 0, 104],
      "AngioFlag": "N",
      "BitsAllocated": 16,
      "BitsStored": 16,
      "BodyPartExamined": "BRAIN",
      "Columns": 832,
      "EchoNumbers": 1,
      "EchoTime": 37.0,
      "EchoTrainLength": 104,
      "FlipAngle": 52.0,
      "HighBit": 15,
      "ImageOrientationPatient": [0.99597913517116, 0.08035833806846, 0.03959923997493, -0.0577765748025, 0.91399398062493, -0.4015929167521],
      "ImagePositionPatient": [-779.67268639046, -864.10937958015, 267.68248892605],
      "ImageType": [
        "ORIGINAL",
        "PRIMARY",
        "P",
        "MB",
        "ND",
        "MOSAIC"
],
      "ImagedNucleus": "1H",
      "ImagingFrequency": 123.258983,
      "InPlanePhaseEncodingDirection": "COL",
      "LargestImagePixelValue": 4095,
      "MRAcquisitionType": "2D",
      "MagneticFieldStrength": 3.0,
      "Manufacturer": "SIEMENS",
      "ManufacturerModelName": "Prisma_fit",
      "Modality": "MR",
      "NumberOfAverages": 1.0,
      "NumberOfPhaseEncodingSteps": 104,
      "PercentPhaseFieldOfView": 100.0,
      "PercentSampling": 100.0,
      "PerformedProcedureStepStartTime": "090934.945000",
      "PhotometricInterpretation": "MONOCHROME2",
      "PixelBandwidth": 2290.0,
      "PixelRepresentation": 0,
      "PixelSpacing": [2.0, 2.0],
      "ProtocolName": "func_task-things_run-4",
      "RepetitionTime": 1490.0,
      "RescaleIntercept": -4096.0,
      "RescaleSlope": 2.0,
      "RescaleType": "US",
      "Rows": 832,
      "SAR": 0.05213490828351,
      "SamplesPerPixel": 1,
      "ScanOptions": "FS",
      "ScanningSequence": "EP",
      "SequenceName": "epfid2d1_104",
      "SequenceVariant": [
        "SK",
        "SS"
],
      "SeriesDescription": "func_task-things_run-4",
      "SeriesNumber": 20,
      "SeriesTime": "100121.151000",
      "SliceLocation": -45.348499924806,
      "SliceThickness": 2.0,
      "SmallestImagePixelValue": 0,
      "SoftwareVersions": "syngo MR E11",
      "SpacingBetweenSlices": 2.0000000041132,
      "SpecificCharacterSet": "ISO_IR 100",
      "StudyID": "1",
      "StudyTime": "090934.736000",
      "TransmitCoilName": "Body",
      "VariableFlipAngleFlag": "N",
      "WindowCenterWidthExplanation": "Algo1",
      "dBdt": 0.0},
    "slices": {}
  },
  "time": {
    "samples": {
      "AcquisitionNumber": [1, 2, 3, 4, 5, 6, 7, 8, 9, 10, 11, 12, 13, 14, 15, 16, 17, 18, 19, 20, 21, 22, 23, 24, 25, 26, 27, 28, 29, 30, 31, 32, 33, 34, 35, 36, 37, 38, 39, 40, 41, 42, 43, 44, 45, 46, 47, 48, 49, 50, 51, 52, 53, 54, 55, 56, 57, 58, 59, 60, 61, 62, 63, 64, 65, 66, 67, 68, 69, 70, 71, 72, 73, 74, 75, 76, 77, 78, 79, 80, 81, 82, 83, 84, 85, 86, 87, 88, 89, 90, 91, 92, 93, 94, 95, 96, 97, 98, 99, 100, 101, 102, 103, 104, 105, 106, 107, 108, 109, 110, 111, 112, 113, 114, 115, 116, 117, 118, 119, 120, 121, 122, 123, 124, 125, 126, 127, 128, 129, 130, 131, 132, 133, 134, 135, 136, 137, 138, 139, 140, 141, 142, 143, 144, 145, 146, 147, 148, 149, 150, 151, 152, 153, 154, 155, 156, 157, 158, 159, 160, 161, 162, 163, 164, 165, 166, 167, 168, 169, 170, 171, 172, 173, 174, 175, 176, 177, 178, 179, 180, 181, 182, 183, 184, 185, 186, 187, 188, 189, 190],
      "AcquisitionTime": ["095957.600000", "095959.090000", "100000.580000", "100002.070000", "100003.560000", "100005.050000", "100006.540000", "100008.030000", "100009.520000", "100011.010000", "100012.500000", "100013.990000", "100015.480000", "100016.970000", "100018.460000", "100019.950000", "100021.440000", "100022.930000", "100024.420000", "100025.910000", "100027.400000", "100028.890000", "100030.380000", "100031.870000", "100033.360000", "100034.850000", "100036.340000", "100037.830000", "100039.320000", "100040.810000", "100042.300000", "100043.790000", "100045.280000", "100046.770000", "100048.260000", "100049.750000", "100051.240000", "100052.730000", "100054.220000", "100055.710000", "100057.200000", "100058.690000", "100100.180000", "100101.670000", "100103.160000", "100104.650000", "100106.140000", "100107.630000", "100109.120000", "100110.610000", "100112.100000", "100113.590000", "100115.080000", "100116.570000", "100118.060000", "100119.550000", "100121.040000", "100122.530000", "100124.020000", "100125.510000", "100127.000000", "100128.490000", "100129.980000", "100131.470000", "100132.960000", "100134.450000", "100135.940000", "100137.430000", "100138.920000", "100140.410000", "100141.900000", "100143.390000", "100144.880000", "100146.370000", "100147.860000", "100149.350000", "100150.840000", "100152.330000", "100153.820000", "100155.310000", "100156.800000", "100158.290000", "100159.780000", "100201.270000", "100202.760000", "100204.250000", "100205.740000", "100207.230000", "100208.720000", "100210.210000", "100211.700000", "100213.190000", "100214.680000", "100216.170000", "100217.660000", "100219.150000", "100220.640000", "100222.130000", "100223.620000", "100225.110000", "100226.600000", "100228.090000", "100229.580000", "100231.070000", "100232.560000", "100234.050000", "100235.540000", "100237.030000", "100238.520000", "100240.010000", "100241.500000", "100242.990000", "100244.480000", "100245.970000", "100247.460000", "100248.950000", "100250.440000", "100251.930000", "100253.420000", "100254.910000", "100256.400000", "100257.890000", "100259.380000", "100300.870000", "100302.360000", "100303.850000", "100305.340000", "100306.830000", "100308.320000", "100309.810000", "100311.300000", "100312.790000", "100314.280000", "100315.770000", "100317.260000", "100318.750000", "100320.240000", "100321.730000", "100323.220000", "100324.710000", "100326.200000", "100327.690000", "100329.180000", "100330.670000", "100332.160000", "100333.650000", "100335.140000", "100336.630000", "100338.120000", "100339.610000", "100341.100000", "100342.590000", "100344.080000", "100345.570000", "100347.060000", "100348.550000", "100350.040000", "100351.530000", "100353.020000", "100354.510000", "100356.000000", "100357.490000", "100358.980000", "100400.470000", "100401.960000", "100403.450000", "100404.940000", "100406.430000", "100407.920000", "100409.410000", "100410.900000", "100412.390000", "100413.880000", "100415.370000", "100416.860000", "100418.350000", "100419.840000", "100421.330000", "100422.820000", "100424.310000", "100425.800000", "100427.290000", "100428.780000", "100430.270000", "100431.760000", "100433.250000", "100434.740000", "100436.230000", "100437.720000", "100439.210000"],
      "ContentTime": ["100121.153000", "100121.156000", "100121.159000", "100121.161000", "100121.164000", "100121.166000", "100121.169000", "100121.172000", "100121.174000", "100121.177000", "100121.179000", "100121.182000", "100121.184000", "100121.187000", "100121.189000", "100121.192000", "100121.194000", "100121.197000", "100121.199000", "100121.202000", "100121.204000", "100121.207000", "100121.210000", "100121.212000", "100121.215000", "100121.217000", "100121.220000", "100121.222000", "100141.099000", "100141.102000", "100141.104000", "100141.107000", "100141.109000", "100141.112000", "100141.115000", "100141.117000", "100141.120000", "100141.122000", "100141.125000", "100141.127000", "100141.130000", "100141.132000", "100141.135000", "100141.137000", "100141.140000", "100141.142000", "100141.145000", "100141.147000", "100201.092000", "100201.095000", "100201.097000", "100201.100000", "100201.102000", "100201.105000", "100201.107000", "100201.110000", "100201.113000", "100201.115000", "100201.118000", "100201.120000", "100201.123000", "100201.125000", "100201.128000", "100201.130000", "100201.133000", "100201.136000", "100201.138000", "100201.141000", "100221.091000", "100221.094000", "100221.096000", "100221.099000", "100221.102000", "100221.104000", "100221.107000", "100221.109000", "100221.112000", "100221.114000", "100221.117000", "100221.119000", "100221.122000", "100221.124000", "100221.127000", "100221.130000", "100221.132000", "100221.135000", "100221.145000", "100221.148000", "100241.084000", "100241.087000", "100241.090000", "100241.092000", "100241.095000", "100241.098000", "100241.100000", "100241.103000", "100241.105000", "100241.108000", "100241.111000", "100241.113000", "100241.116000", "100241.118000", "100241.121000", "100241.123000", "100241.126000", "100241.128000", "100241.131000", "100241.134000", "100241.136000", "100321.138000", "100321.141000", "100321.143000", "100321.146000", "100321.148000", "100321.151000", "100321.153000", "100321.156000", "100321.158000", "100321.161000", "100321.163000", "100321.166000", "100321.168000", "100321.171000", "100321.174000", "100321.176000", "100321.179000", "100321.181000", "100321.184000", "100321.186000", "100321.189000", "100321.191000", "100321.194000", "100321.197000", "100321.199000", "100321.202000", "100321.204000", "100401.118000", "100401.121000", "100401.123000", "100401.126000", "100401.129000", "100401.132000", "100401.135000", "100401.137000", "100401.140000", "100401.143000", "100401.146000", "100401.149000", "100401.152000", "100401.155000", "100401.158000", "100401.161000", "100401.163000", "100401.166000", "100401.168000", "100401.171000", "100401.174000", "100401.176000", "100401.179000", "100401.181000", "100401.184000", "100401.186000", "100441.131000", "100441.134000", "100441.136000", "100441.139000", "100441.141000", "100441.144000", "100441.146000", "100441.149000", "100441.152000", "100441.154000", "100441.157000", "100441.159000", "100441.162000", "100441.164000", "100441.167000", "100441.169000", "100441.172000", "100441.175000", "100441.177000", "100441.180000", "100441.182000", "100441.185000", "100441.188000", "100441.190000", "100441.193000", "100441.195000", "100441.198000", "100441.460000"],
      "InstanceCreationTime": ["100121.153000", "100121.156000", "100121.159000", "100121.161000", "100121.164000", "100121.166000", "100121.169000", "100121.172000", "100121.174000", "100121.177000", "100121.179000", "100121.182000", "100121.184000", "100121.187000", "100121.189000", "100121.192000", "100121.194000", "100121.197000", "100121.199000", "100121.202000", "100121.204000", "100121.207000", "100121.210000", "100121.212000", "100121.215000", "100121.217000", "100121.220000", "100121.222000", "100141.099000", "100141.102000", "100141.104000", "100141.107000", "100141.109000", "100141.112000", "100141.115000", "100141.117000", "100141.120000", "100141.122000", "100141.125000", "100141.127000", "100141.130000", "100141.132000", "100141.135000", "100141.137000", "100141.140000", "100141.142000", "100141.145000", "100141.147000", "100201.092000", "100201.095000", "100201.097000", "100201.100000", "100201.102000", "100201.105000", "100201.107000", "100201.110000", "100201.113000", "100201.115000", "100201.118000", "100201.120000", "100201.123000", "100201.125000", "100201.128000", "100201.130000", "100201.133000", "100201.136000", "100201.138000", "100201.141000", "100221.091000", "100221.094000", "100221.096000", "100221.099000", "100221.102000", "100221.104000", "100221.107000", "100221.109000", "100221.112000", "100221.114000", "100221.117000", "100221.119000", "100221.122000", "100221.124000", "100221.127000", "100221.130000", "100221.132000", "100221.135000", "100221.145000", "100221.148000", "100241.084000", "100241.087000", "100241.090000", "100241.092000", "100241.095000", "100241.098000", "100241.100000", "100241.103000", "100241.105000", "100241.108000", "100241.111000", "100241.113000", "100241.116000", "100241.118000", "100241.121000", "100241.123000", "100241.126000", "100241.128000", "100241.131000", "100241.134000", "100241.136000", "100321.138000", "100321.141000", "100321.143000", "100321.146000", "100321.148000", "100321.151000", "100321.153000", "100321.156000", "100321.158000", "100321.161000", "100321.163000", "100321.166000", "100321.168000", "100321.171000", "100321.174000", "100321.176000", "100321.179000", "100321.181000", "100321.184000", "100321.186000", "100321.189000", "100321.191000", "100321.194000", "100321.197000", "100321.199000", "100321.202000", "100321.204000", "100401.118000", "100401.121000", "100401.123000", "100401.126000", "100401.129000", "100401.132000", "100401.135000", "100401.137000", "100401.140000", "100401.143000", "100401.146000", "100401.149000", "100401.152000", "100401.155000", "100401.158000", "100401.161000", "100401.163000", "100401.166000", "100401.168000", "100401.171000", "100401.174000", "100401.176000", "100401.179000", "100401.181000", "100401.184000", "100401.186000", "100441.131000", "100441.134000", "100441.136000", "100441.139000", "100441.141000", "100441.144000", "100441.146000", "100441.149000", "100441.152000", "100441.154000", "100441.157000", "100441.159000", "100441.162000", "100441.164000", "100441.167000", "100441.169000", "100441.172000", "100441.175000", "100441.177000", "100441.180000", "100441.182000", "100441.185000", "100441.188000", "100441.190000", "100441.193000", "100441.195000", "100441.198000", "100441.460000"],
      "InstanceNumber": [1, 2, 3, 4, 5, 6, 7, 8, 9, 10, 11, 12, 13, 14, 15, 16, 17, 18, 19, 20, 21, 22, 23, 24, 25, 26, 27, 28, 29, 30, 31, 32, 33, 34, 35, 36, 37, 38, 39, 40, 41, 42, 43, 44, 45, 46, 47, 48, 49, 50, 51, 52, 53, 54, 55, 56, 57, 58, 59, 60, 61, 62, 63, 64, 65, 66, 67, 68, 69, 70, 71, 72, 73, 74, 75, 76, 77, 78, 79, 80, 81, 82, 83, 84, 85, 86, 87, 88, 89, 90, 91, 92, 93, 94, 95, 96, 97, 98, 99, 100, 101, 102, 103, 104, 105, 106, 107, 108, 109, 110, 111, 112, 113, 114, 115, 116, 117, 118, 119, 120, 121, 122, 123, 124, 125, 126, 127, 128, 129, 130, 131, 132, 133, 134, 135, 136, 137, 138, 139, 140, 141, 142, 143, 144, 145, 146, 147, 148, 149, 150, 151, 152, 153, 154, 155, 156, 157, 158, 159, 160, 161, 162, 163, 164, 165, 166, 167, 168, 169, 170, 171, 172, 173, 174, 175, 176, 177, 178, 179, 180, 181, 182, 183, 184, 185, 186, 187, 188, 189, 190],
      "WindowCenter": [4802.0, 4802.0, 4800.0, 4808.0, 4802.0, 4806.0, 4808.0, 4806.0, 4806.0, 4804.0, 4802.0, 4776.0, 4802.0, 4802.0, 4800.0, 4802.0, 4776.0, 4802.0, 4804.0, 4802.0, 4800.0, 4804.0, 4800.0, 4802.0, 4804.0, 4800.0, 4802.0, 4778.0, 4776.0, 4776.0, 4804.0, 4834.0, 4834.0, 4836.0, 4832.0, 4804.0, 4804.0, 4800.0, 4780.0, 4804.0, 4806.0, 4804.0, 4804.0, 4808.0, 4802.0, 4800.0, 4806.0, 4804.0, 4800.0, 4804.0, 4802.0, 4802.0, 4800.0, 4800.0, 4802.0, 4804.0, 4806.0, 4804.0, 4808.0, 4802.0, 4802.0, 4802.0, 4806.0, 4804.0, 4804.0, 4802.0, 4774.0, 4802.0, 4830.0, 4810.0, 4810.0, 4836.0, 4800.0, 4800.0, 4804.0, 4802.0, 4800.0, 4808.0, 4806.0, 4810.0, 4834.0, 4834.0, 4802.0, 4806.0, 4808.0, 4804.0, 4810.0, 4802.0, 4800.0, 4806.0, 4804.0, 4802.0, 4804.0, 4800.0, 4806.0, 4804.0, 4806.0, 4808.0, 4836.0, 4802.0, 4778.0, 4800.0, 4804.0, 4802.0, 4804.0, 4834.0, 4808.0, 4804.0, 4810.0, 4808.0, 4802.0, 4806.0, 4804.0, 4806.0, 4802.0, 4800.0, 4808.0, 4804.0, 4806.0, 4806.0, 4808.0, 4800.0, 4806.0, 4802.0, 4778.0, 4778.0, 4804.0, 4806.0, 4806.0, 4832.0, 4810.0, 4808.0, 4804.0, 4802.0, 4802.0, 4802.0, 4800.0, 4778.0, 4802.0, 4804.0, 4804.0, 4810.0, 4834.0, 4806.0, 4804.0, 4804.0, 4778.0, 4802.0, 4802.0, 4804.0, 4806.0, 4810.0, 4804.0, 4808.0, 4808.0, 4806.0, 4806.0, 4802.0, 4802.0, 4802.0, 4776.0, 4804.0, 4800.0, 4800.0, 4806.0, 4808.0, 4804.0, 4808.0, 4804.0, 4802.0, 4802.0, 4802.0, 4804.0, 4804.0, 4802.0, 4806.0, 4802.0, 4806.0, 4808.0, 4802.0, 4802.0, 4808.0, 4800.0, 4804.0, 4802.0, 4778.0, 4802.0, 4802.0, 4804.0, 4806.0],
      "WindowWidth": [18600.0, 18598.0, 18598.0, 18604.0, 18604.0, 18608.0, 18614.0, 18610.0, 18606.0, 18606.0, 18604.0, 18572.0, 18606.0, 18598.0, 18602.0, 18608.0, 18566.0, 18604.0, 18612.0, 18602.0, 18602.0, 18606.0, 18602.0, 18602.0, 18606.0, 18602.0, 18600.0, 18568.0, 18568.0, 18566.0, 18604.0, 18654.0, 18646.0, 18652.0, 18646.0, 18604.0, 18608.0, 18600.0, 18568.0, 18604.0, 18610.0, 18604.0, 18608.0, 18614.0, 18604.0, 18604.0, 18610.0, 18600.0, 18598.0, 18604.0, 18602.0, 18602.0, 18602.0, 18594.0, 18604.0, 18604.0, 18606.0, 18606.0, 18612.0, 18604.0, 18608.0, 18604.0, 18602.0, 18604.0, 18606.0, 18602.0, 18568.0, 18602.0, 18644.0, 18616.0, 18616.0, 18652.0, 18600.0, 18602.0, 18600.0, 18602.0, 18600.0, 18608.0, 18604.0, 18616.0, 18642.0, 18644.0, 18600.0, 18606.0, 18610.0, 18606.0, 18610.0, 18606.0, 18602.0, 18600.0, 18606.0, 18602.0, 18604.0, 18602.0, 18610.0, 18606.0, 18608.0, 18612.0, 18650.0, 18604.0, 18570.0, 18598.0, 18606.0, 18602.0, 18606.0, 18646.0, 18614.0, 18606.0, 18612.0, 18612.0, 18604.0, 18608.0, 18604.0, 18604.0, 18598.0, 18600.0, 18612.0, 18604.0, 18604.0, 18610.0, 18608.0, 18602.0, 18608.0, 18594.0, 18570.0, 18568.0, 18602.0, 18612.0, 18614.0, 18646.0, 18616.0, 18608.0, 18604.0, 18598.0, 18596.0, 18600.0, 18600.0, 18570.0, 18598.0, 18606.0, 18602.0, 18612.0, 18644.0, 18612.0, 18602.0, 18606.0, 18568.0, 18598.0, 18602.0, 18602.0, 18602.0, 18612.0, 18604.0, 18606.0, 18612.0, 18602.0, 18600.0, 18604.0, 18598.0, 18600.0, 18572.0, 18608.0, 18604.0, 18600.0, 18610.0, 18606.0, 18604.0, 18608.0, 18606.0, 18602.0, 18602.0, 18604.0, 18602.0, 18602.0, 18598.0, 18600.0, 18604.0, 18600.0, 18604.0, 18606.0, 18596.0, 18604.0, 18598.0, 18606.0, 18602.0, 18572.0, 18602.0, 18602.0, 18606.0, 18610.0]
    },
    "slices": {}
  }
}