{
  "AcquisitionMatrixPE": 104,
  "AcquisitionNumber": 1,
  "AcquisitionTime": "17:36:40.802500",
  "BandwidthPerPixelPhaseEncode": 17.17,
  "BaseResolution": 104,
  "BodyPartExamined": "BRAIN",
  "CoilString": "HC1-7;NC1_2",
  "ConsistencyInfo": "N4_VE11C_LATEST_20160120",
  "ConversionSoftware": "dcm2niix",
  "ConversionSoftwareVersion": "v1.0.20190902",
  "DerivedVendorReportedEchoSpacing": 0.000560011,
  "DeviceSerialNumber": "167006",
  "DwellTime": 2.1e-06,
  "EchoTime": 0.037,
  "EchoTrainLength": 104,
  "EffectiveEchoSpacing": 0.000560011,
  "FlipAngle": 52,
  "ImageComments": "Unaliased_MB4_PE3_LB",
  "ImageOrientationPatientDICOM": [0.995008, 0.0746339, 0.0662427, -0.0387461, 0.900671, -0.43277],
  "ImageType": [
    "ORIGINAL",
    "PRIMARY",
    "M",
    "MB",
    "ND",
    "MOSAIC"
],
  "ImagingFrequency": 123.259,
  "InPlanePhaseEncodingDirectionDICOM": "COL",
  "InstitutionAddress": "Chemin_Queen-Mary_4565_Montreal_District_CA_H3W_1W5",
  "InstitutionName": "Institut_Universitaire_de_Geriatrie_de_Montreal",
  "InstitutionalDepartmentName": "Department",
  "MRAcquisitionType": "2D",
  "MagneticFieldStrength": 3,
  "Manufacturer": "Siemens",
  "ManufacturersModelName": "Prisma_fit",
  "Modality": "MR",
  "MultibandAccelerationFactor": 4,
  "PartialFourier": 1,
  "PatientPosition": "HFS",
  "PercentPhaseFOV": 100,
  "PhaseEncodingDirection": "j",
  "PhaseEncodingSteps": 104,
  "PhaseResolution": 1,
  "PixelBandwidth": 2290,
  "ProcedureStepDescription": "memory_things",
  "ProtocolName": "func_task-things_run-1",
  "PulseSequenceDetails": "%CustomerSeq%_cmrr_mbep2d_bold",
  "ReceiveCoilActiveElements": "HC1-7;NC1,2",
  "ReceiveCoilName": "HeadNeck_64",
  "ReconMatrixPE": 104,
  "RepetitionTime": 1.49,
  "SAR": 0.0403804,
  "ScanOptions": "FS",
  "ScanningSequence": "EP",
  "SequenceName": "epfid2d1_104",
  "SequenceVariant": "SK_SS",
  "SeriesDescription": "func_task-things_run-1",
  "SeriesNumber": 10,
  "ShimSetting": [649, -7195, -8817, 624, 74, -44, -57, 3],
  "SliceThickness": 2,
  "SliceTiming": [0, 0.785, 0.0975, 0.8825, 0.195, 0.98, 0.295, 1.0775, 0.3925, 1.175, 0.49, 1.275, 0.5875, 1.3725, 0.685, 0, 0.785, 0.0975, 0.8825, 0.195, 0.98, 0.295, 1.0775, 0.3925, 1.175, 0.49, 1.275, 0.5875, 1.3725, 0.685, 0, 0.785, 0.0975, 0.8825, 0.195, 0.98, 0.295, 1.0775, 0.3925, 1.175, 0.49, 1.275, 0.5875, 1.3725, 0.685, 0, 0.785, 0.0975, 0.8825, 0.195, 0.98, 0.295, 1.0775, 0.3925, 1.175, 0.49, 1.275, 0.5875, 1.3725, 0.685],
  "SoftwareVersions": "syngo_MR_E11",
  "SpacingBetweenSlices": 2,
  "StationName": "MRC35049",
  "TaskName": "things",
  "TotalReadoutTime": 0.0576811,
  "TxRefAmp": 250.849,
  "WipMemBlock": "838872c0-68f1-4c36-8760-9a0e5511425a||Sequence: R016 ve11c/master r/e634e98; Dec 19 2017 11:00:25 by eja",
  "dcmmeta_affine": [
    [-1.9900168180465698, -0.07749225199222565, 0.1839243769645691, 105.2362289428711],
    [-0.14926770329475403, 1.8013427257537842, -0.856086254119873, -51.95201110839844],
    [0.13248538970947266, 0.8655399680137634, 1.798134684562683, -76.97675323486328],
    [0.0, 0.0, 0.0, 1.0]
],
  "dcmmeta_reorient_transform": [
    [0.0, -1.0, 0.0, 103.0],
    [1.0, 0.0, 0.0, 0.0],
    [0.0, 0.0, 1.0, 0.0],
    [0.0, 0.0, 0.0, 1.0]
],
  "dcmmeta_shape": [104, 104, 60, 190],
  "dcmmeta_slice_dim": 2,
  "dcmmeta_version": 0.6,
  "global": {
    "const": {
      "AcquisitionMatrix": [104, 0, 0, 104],
      "AngioFlag": "N",
      "BitsAllocated": 16,
      "BitsStored": 16,
      "BodyPartExamined": "BRAIN",
      "Columns": 832,
      "EchoNumbers": 1,
      "EchoTime": 37.0,
      "EchoTrainLength": 104,
      "FlipAngle": 52.0,
      "HighBit": 15,
      "ImageOrientationPatient": [0.9950083886554, 0.07463385276957, 0.06624269413422, -0.0387461276426, 0.90067134349233, -0.4327699950371],
      "ImagePositionPatient": [-793.41345052181, -843.60846812022, 279.00574326663],
      "ImageType": [
        "ORIGINAL",
        "PRIMARY",
        "M",
        "MB",
        "ND",
        "MOSAIC"
],
      "ImagedNucleus": "1H",
      "ImagingFrequency": 123.258959,
      "InPlanePhaseEncodingDirection": "COL",
      "MRAcquisitionType": "2D",
      "MagneticFieldStrength": 3.0,
      "Manufacturer": "SIEMENS",
      "ManufacturerModelName": "Prisma_fit",
      "Modality": "MR",
      "NumberOfAverages": 1.0,
      "NumberOfPhaseEncodingSteps": 104,
      "PercentPhaseFieldOfView": 100.0,
      "PercentSampling": 100.0,
      "PerformedProcedureStepStartTime": "165704.704000",
      "PhotometricInterpretation": "MONOCHROME2",
      "PixelBandwidth": 2290.0,
      "PixelRepresentation": 0,
      "PixelSpacing": [2.0, 2.0],
      "ProtocolName": "func_task-things_run-1",
      "RepetitionTime": 1490.0,
      "Rows": 832,
      "SAR": 0.04038039416615,
      "SamplesPerPixel": 1,
      "ScanOptions": "FS",
      "ScanningSequence": "EP",
      "SequenceName": "epfid2d1_104",
      "SequenceVariant": [
        "SK",
        "SS"
],
      "SeriesDescription": "func_task-things_run-1",
      "SeriesNumber": 10,
      "SeriesTime": "173735.379000",
      "SliceLocation": -37.291825420387,
      "SliceThickness": 2.0,
      "SmallestImagePixelValue": 0,
      "SoftwareVersions": "syngo MR E11",
      "SpacingBetweenSlices": 2.0000000222661,
      "SpecificCharacterSet": "ISO_IR 100",
      "StudyID": "1",
      "StudyTime": "165704.640000",
      "TransmitCoilName": "Body",
      "VariableFlipAngleFlag": "N",
      "WindowCenterWidthExplanation": "Algo1",
      "dBdt": 0.0},
    "slices": {}
  },
  "time": {
    "samples": {
      "AcquisitionNumber": [1, 2, 3, 4, 5, 6, 7, 8, 9, 10, 11, 12, 13, 14, 15, 16, 17, 18, 19, 20, 21, 22, 23, 24, 25, 26, 27, 28, 29, 30, 31, 32, 33, 34, 35, 36, 37, 38, 39, 40, 41, 42, 43, 44, 45, 46, 47, 48, 49, 50, 51, 52, 53, 54, 55, 56, 57, 58, 59, 60, 61, 62, 63, 64, 65, 66, 67, 68, 69, 70, 71, 72, 73, 74, 75, 76, 77, 78, 79, 80, 81, 82, 83, 84, 85, 86, 87, 88, 89, 90, 91, 92, 93, 94, 95, 96, 97, 98, 99, 100, 101, 102, 103, 104, 105, 106, 107, 108, 109, 110, 111, 112, 113, 114, 115, 116, 117, 118, 119, 120, 121, 122, 123, 124, 125, 126, 127, 128, 129, 130, 131, 132, 133, 134, 135, 136, 137, 138, 139, 140, 141, 142, 143, 144, 145, 146, 147, 148, 149, 150, 151, 152, 153, 154, 155, 156, 157, 158, 159, 160, 161, 162, 163, 164, 165, 166, 167, 168, 169, 170, 171, 172, 173, 174, 175, 176, 177, 178, 179, 180, 181, 182, 183, 184, 185, 186, 187, 188, 189, 190],
      "AcquisitionTime": ["173640.802500", "173642.292500", "173643.782500", "173645.272500", "173646.762500", "173648.252500", "173649.742500", "173651.232500", "173652.722500", "173654.212500", "173655.702500", "173657.192500", "173658.682500", "173700.172500", "173701.662500", "173703.152500", "173704.642500", "173706.132500", "173707.622500", "173709.112500", "173710.602500", "173712.092500", "173713.582500", "173715.072500", "173716.562500", "173718.052500", "173719.542500", "173721.032500", "173722.522500", "173724.012500", "173725.502500", "173726.992500", "173728.482500", "173729.972500", "173731.462500", "173732.952500", "173734.442500", "173735.932500", "173737.422500", "173738.912500", "173740.402500", "173741.892500", "173743.382500", "173744.872500", "173746.362500", "173747.852500", "173749.342500", "173750.832500", "173752.322500", "173753.812500", "173755.302500", "173756.792500", "173758.282500", "173759.772500", "173801.262500", "173802.752500", "173804.242500", "173805.732500", "173807.222500", "173808.712500", "173810.202500", "173811.692500", "173813.182500", "173814.672500", "173816.162500", "173817.652500", "173819.142500", "173820.632500", "173822.122500", "173823.612500", "173825.102500", "173826.592500", "173828.082500", "173829.572500", "173831.062500", "173832.552500", "173834.042500", "173835.532500", "173837.022500", "173838.512500", "173840.002500", "173841.492500", "173842.982500", "173844.472500", "173845.962500", "173847.452500", "173848.942500", "173850.432500", "173851.922500", "173853.412500", "173854.902500", "173856.392500", "173857.882500", "173859.372500", "173900.862500", "173902.352500", "173903.842500", "173905.332500", "173906.822500", "173908.312500", "173909.802500", "173911.292500", "173912.782500", "173914.272500", "173915.762500", "173917.252500", "173918.742500", "173920.232500", "173921.722500", "173923.212500", "173924.702500", "173926.192500", "173927.682500", "173929.172500", "173930.662500", "173932.152500", "173933.642500", "173935.132500", "173936.622500", "173938.112500", "173939.602500", "173941.092500", "173942.582500", "173944.072500", "173945.562500", "173947.052500", "173948.542500", "173950.032500", "173951.522500", "173953.012500", "173954.502500", "173955.992500", "173957.482500", "173958.972500", "174000.462500", "174001.952500", "174003.442500", "174004.932500", "174006.422500", "174007.912500", "174009.402500", "174010.892500", "174012.382500", "174013.872500", "174015.362500", "174016.852500", "174018.342500", "174019.832500", "174021.322500", "174022.812500", "174024.302500", "174025.792500", "174027.282500", "174028.772500", "174030.262500", "174031.752500", "174033.242500", "174034.732500", "174036.222500", "174037.712500", "174039.202500", "174040.692500", "174042.182500", "174043.672500", "174045.162500", "174046.652500", "174048.142500", "174049.632500", "174051.122500", "174052.612500", "174054.102500", "174055.592500", "174057.082500", "174058.572500", "174100.062500", "174101.552500", "174103.042500", "174104.532500", "174106.022500", "174107.512500", "174109.002500", "174110.492500", "174111.982500", "174113.472500", "174114.962500", "174116.452500", "174117.942500", "174119.432500", "174120.922500", "174122.412500"],
      "ContentTime": ["173735.383000", "173755.345000", "173755.358000", "173755.361000", "173755.364000", "173755.368000", "173755.371000", "173755.375000", "173755.378000", "173755.381000", "173755.385000", "173755.388000", "173755.392000", "173755.407000", "173755.410000", "173755.419000", "173755.422000", "173755.425000", "173755.433000", "173755.437000", "173755.440000", "173815.345000", "173815.349000", "173815.353000", "173815.356000", "173815.359000", "173815.363000", "173815.367000", "173815.370000", "173815.373000", "173815.377000", "173815.381000", "173815.384000", "173815.388000", "173815.391000", "173815.395000", "173815.398000", "173815.402000", "173815.405000", "173815.408000", "173815.412000", "173835.344000", "173835.348000", "173835.352000", "173835.355000", "173835.358000", "173835.362000", "173835.366000", "173835.369000", "173835.373000", "173835.376000", "173835.379000", "173835.383000", "173835.386000", "173835.390000", "173835.393000", "173835.397000", "173835.400000", "173835.403000", "173835.407000", "173835.411000", "173835.414000", "173855.344000", "173855.348000", "173855.351000", "173855.355000", "173855.358000", "173855.362000", "173855.365000", "173855.368000", "173855.372000", "173855.376000", "173855.379000", "173855.382000", "173855.386000", "173855.389000", "173855.393000", "173855.396000", "173855.400000", "173855.403000", "173855.406000", "173855.410000", "173915.344000", "173915.348000", "173915.351000", "173915.355000", "173915.358000", "173915.361000", "173915.365000", "173915.368000", "173915.372000", "173915.375000", "173915.379000", "173915.382000", "173915.385000", "173915.389000", "173915.392000", "173915.395000", "173915.399000", "173915.402000", "173915.406000", "173915.409000", "173915.413000", "173955.345000", "173955.349000", "173955.353000", "173955.356000", "173955.360000", "173955.363000", "173955.367000", "173955.380000", "173955.384000", "173955.387000", "173955.391000", "173955.394000", "173955.398000", "173955.401000", "173955.405000", "173955.408000", "173955.411000", "173955.415000", "173955.418000", "173955.422000", "173955.425000", "173955.429000", "173955.432000", "173955.436000", "173955.439000", "173955.442000", "173955.446000", "174035.345000", "174035.349000", "174035.352000", "174035.356000", "174035.371000", "174035.374000", "174035.378000", "174035.381000", "174035.385000", "174035.388000", "174035.391000", "174035.395000", "174035.398000", "174035.402000", "174035.405000", "174035.409000", "174035.412000", "174035.416000", "174035.419000", "174035.422000", "174035.426000", "174035.429000", "174035.433000", "174035.436000", "174035.439000", "174035.443000", "174035.446000", "174115.344000", "174115.348000", "174115.352000", "174115.355000", "174115.359000", "174115.363000", "174115.367000", "174115.370000", "174115.374000", "174115.377000", "174115.381000", "174115.384000", "174115.387000", "174115.391000", "174115.394000", "174115.398000", "174115.401000", "174115.404000", "174115.408000", "174115.411000", "174115.415000", "174115.418000", "174115.422000", "174115.425000", "174115.429000", "174115.432000", "174124.494000", "174124.498000", "174124.502000", "174124.505000", "174124.509000", "174124.512000", "174124.516000"],
      "InstanceCreationTime": ["173735.383000", "173755.345000", "173755.358000", "173755.361000", "173755.364000", "173755.368000", "173755.371000", "173755.375000", "173755.378000", "173755.381000", "173755.385000", "173755.388000", "173755.392000", "173755.407000", "173755.410000", "173755.419000", "173755.422000", "173755.425000", "173755.433000", "173755.437000", "173755.440000", "173815.345000", "173815.349000", "173815.353000", "173815.356000", "173815.359000", "173815.363000", "173815.367000", "173815.370000", "173815.373000", "173815.377000", "173815.381000", "173815.384000", "173815.388000", "173815.391000", "173815.395000", "173815.398000", "173815.402000", "173815.405000", "173815.408000", "173815.412000", "173835.344000", "173835.348000", "173835.352000", "173835.355000", "173835.358000", "173835.362000", "173835.366000", "173835.369000", "173835.373000", "173835.376000", "173835.379000", "173835.383000", "173835.386000", "173835.390000", "173835.393000", "173835.397000", "173835.400000", "173835.403000", "173835.407000", "173835.411000", "173835.414000", "173855.344000", "173855.348000", "173855.351000", "173855.355000", "173855.358000", "173855.362000", "173855.365000", "173855.368000", "173855.372000", "173855.376000", "173855.379000", "173855.382000", "173855.386000", "173855.389000", "173855.393000", "173855.396000", "173855.400000", "173855.403000", "173855.406000", "173855.410000", "173915.344000", "173915.348000", "173915.351000", "173915.355000", "173915.358000", "173915.361000", "173915.365000", "173915.368000", "173915.372000", "173915.375000", "173915.379000", "173915.382000", "173915.385000", "173915.389000", "173915.392000", "173915.395000", "173915.399000", "173915.402000", "173915.406000", "173915.409000", "173915.413000", "173955.345000", "173955.349000", "173955.353000", "173955.356000", "173955.360000", "173955.363000", "173955.367000", "173955.380000", "173955.384000", "173955.387000", "173955.391000", "173955.394000", "173955.398000", "173955.401000", "173955.405000", "173955.408000", "173955.411000", "173955.415000", "173955.418000", "173955.422000", "173955.425000", "173955.429000", "173955.432000", "173955.436000", "173955.439000", "173955.442000", "173955.446000", "174035.345000", "174035.349000", "174035.352000", "174035.356000", "174035.371000", "174035.374000", "174035.378000", "174035.381000", "174035.385000", "174035.388000", "174035.391000", "174035.395000", "174035.398000", "174035.402000", "174035.405000", "174035.409000", "174035.412000", "174035.416000", "174035.419000", "174035.422000", "174035.426000", "174035.429000", "174035.433000", "174035.436000", "174035.439000", "174035.443000", "174035.446000", "174115.344000", "174115.348000", "174115.352000", "174115.355000", "174115.359000", "174115.363000", "174115.367000", "174115.370000", "174115.374000", "174115.377000", "174115.381000", "174115.384000", "174115.387000", "174115.391000", "174115.394000", "174115.398000", "174115.401000", "174115.404000", "174115.408000", "174115.411000", "174115.415000", "174115.418000", "174115.422000", "174115.425000", "174115.429000", "174115.432000", "174124.494000", "174124.498000", "174124.502000", "174124.505000", "174124.509000", "174124.512000", "174124.516000"],
      "InstanceNumber": [1, 2, 3, 4, 5, 6, 7, 8, 9, 10, 11, 12, 13, 14, 15, 16, 17, 18, 19, 20, 21, 22, 23, 24, 25, 26, 27, 28, 29, 30, 31, 32, 33, 34, 35, 36, 37, 38, 39, 40, 41, 42, 43, 44, 45, 46, 47, 48, 49, 50, 51, 52, 53, 54, 55, 56, 57, 58, 59, 60, 61, 62, 63, 64, 65, 66, 67, 68, 69, 70, 71, 72, 73, 74, 75, 76, 77, 78, 79, 80, 81, 82, 83, 84, 85, 86, 87, 88, 89, 90, 91, 92, 93, 94, 95, 96, 97, 98, 99, 100, 101, 102, 103, 104, 105, 106, 107, 108, 109, 110, 111, 112, 113, 114, 115, 116, 117, 118, 119, 120, 121, 122, 123, 124, 125, 126, 127, 128, 129, 130, 131, 132, 133, 134, 135, 136, 137, 138, 139, 140, 141, 142, 143, 144, 145, 146, 147, 148, 149, 150, 151, 152, 153, 154, 155, 156, 157, 158, 159, 160, 161, 162, 163, 164, 165, 166, 167, 168, 169, 170, 171, 172, 173, 174, 175, 176, 177, 178, 179, 180, 181, 182, 183, 184, 185, 186, 187, 188, 189, 190],
      "LargestImagePixelValue": [48898, 47357, 46935, 46416, 46396, 46085, 45615, 46042, 46482, 46062, 46247, 46561, 46870, 46437, 46445, 45881, 45682, 46529, 45968, 44684, 45478, 46238, 45292, 45380, 45895, 44797, 45132, 45710, 45023, 45532, 45151, 45417, 45771, 45384, 46046, 45354, 44935, 45363, 44975, 44732, 45516, 44090, 44361, 44417, 43088, 43914, 43696, 42457, 43366, 44795, 42984, 43421, 43310, 42424, 43219, 42211, 42630, 43107, 42758, 41478, 42987, 42985, 41447, 43189, 43157, 42396, 43182, 43675, 42374, 43002, 42761, 42429, 42123, 42060, 42148, 41945, 42600, 41702, 43066, 42685, 41768, 42544, 41817, 41851, 41468, 41514, 41947, 41370, 42709, 43200, 43788, 42911, 41925, 41276, 42362, 43136, 43076, 42356, 43101, 43142, 42064, 42580, 43162, 41821, 42865, 40925, 41355, 41524, 42759, 41648, 41650, 41068, 41620, 42005, 42037, 41121, 41359, 41271, 40721, 41955, 40764, 40924, 41192, 40797, 40991, 41207, 42072, 40500, 40618, 41045, 40905, 40972, 40744, 41040, 40847, 41037, 41251, 41474, 41467, 41516, 41345, 41749, 41643, 42576, 44119, 44527, 45714, 44202, 43939, 44717, 43489, 43397, 43760, 43524, 43501, 43441, 43685, 43473, 43265, 42557, 42696, 42789, 42016, 42373, 42116, 42206, 41897, 41924, 42416, 42379, 41590, 41821, 42009, 41843, 41823, 41604, 41936, 42378, 42306, 42098, 42177, 41460, 42381, 41798, 42024, 42391, 41952, 42179, 41899, 41834],
      "WindowCenter": [10727.0, 10675.0, 10672.0, 10658.0, 10643.0, 10645.0, 10655.0, 10663.0, 10678.0, 10685.0, 10673.0, 10669.0, 10678.0, 10666.0, 10662.0, 10658.0, 10650.0, 10652.0, 10658.0, 10644.0, 10633.0, 10644.0, 10651.0, 10646.0, 10639.0, 10637.0, 10634.0, 10647.0, 10651.0, 10642.0, 10648.0, 10643.0, 10662.0, 10682.0, 10685.0, 10686.0, 10660.0, 10654.0, 10660.0, 10648.0, 10659.0, 10660.0, 10652.0, 10658.0, 10653.0, 10648.0, 10644.0, 10630.0, 10631.0, 10646.0, 10633.0, 10629.0, 10621.0, 10624.0, 10620.0, 10618.0, 10615.0, 10614.0, 10622.0, 10622.0, 10640.0, 10658.0, 10644.0, 10642.0, 10634.0, 10628.0, 10629.0, 10630.0, 10628.0, 10634.0, 10642.0, 10632.0, 10613.0, 10604.0, 10619.0, 10615.0, 10633.0, 10628.0, 10642.0, 10633.0, 10626.0, 10613.0, 10599.0, 10588.0, 10588.0, 10588.0, 10602.0, 10616.0, 10633.0, 10651.0, 10665.0, 10635.0, 10607.0, 10594.0, 10593.0, 10613.0, 10617.0, 10605.0, 10598.0, 10595.0, 10595.0, 10591.0, 10595.0, 10586.0, 10590.0, 10592.0, 10607.0, 10616.0, 10614.0, 10607.0, 10613.0, 10604.0, 10613.0, 10636.0, 10632.0, 10603.0, 10590.0, 10574.0, 10571.0, 10576.0, 10568.0, 10567.0, 10587.0, 10604.0, 10604.0, 10603.0, 10622.0, 10609.0, 10606.0, 10604.0, 10593.0, 10595.0, 10595.0, 10602.0, 10603.0, 10603.0, 10615.0, 10640.0, 10651.0, 10654.0, 10644.0, 10629.0, 10637.0, 10657.0, 10672.0, 10678.0, 10673.0, 10641.0, 10642.0, 10634.0, 10604.0, 10605.0, 10613.0, 10607.0, 10600.0, 10596.0, 10618.0, 10608.0, 10599.0, 10600.0, 10601.0, 10606.0, 10604.0, 10612.0, 10603.0, 10619.0, 10620.0, 10624.0, 10645.0, 10639.0, 10630.0, 10629.0, 10633.0, 10636.0, 10643.0, 10636.0, 10643.0, 10625.0, 10605.0, 10613.0, 10603.0, 10603.0, 10634.0, 10642.0, 10622.0, 10607.0, 10594.0, 10586.0, 10593.0, 10595.0],
      "WindowWidth": [22870.0, 22732.0, 22715.0, 22679.0, 22642.0, 22643.0, 22665.0, 22686.0, 22720.0, 22740.0, 22707.0, 22696.0, 22722.0, 22694.0, 22680.0, 22676.0, 22654.0, 22659.0, 22678.0, 22645.0, 22613.0, 22641.0, 22664.0, 22644.0, 22629.0, 22629.0, 22619.0, 22651.0, 22661.0, 22639.0, 22651.0, 22643.0, 22687.0, 22738.0, 22745.0, 22749.0, 22691.0, 22671.0, 22690.0, 22662.0, 22687.0, 22693.0, 22673.0, 22687.0, 22683.0, 22665.0, 22653.0, 22629.0, 22624.0, 22654.0, 22632.0, 22616.0, 22598.0, 22604.0, 22591.0, 22593.0, 22583.0, 22580.0, 22602.0, 22610.0, 22646.0, 22693.0, 22662.0, 22650.0, 22632.0, 22622.0, 22619.0, 22624.0, 22621.0, 22631.0, 22653.0, 22629.0, 22584.0, 22567.0, 22597.0, 22590.0, 22630.0, 22621.0, 22646.0, 22631.0, 22616.0, 22581.0, 22552.0, 22521.0, 22528.0, 22522.0, 22560.0, 22594.0, 22629.0, 22673.0, 22704.0, 22630.0, 22569.0, 22543.0, 22538.0, 22585.0, 22594.0, 22571.0, 22544.0, 22536.0, 22544.0, 22530.0, 22536.0, 22520.0, 22525.0, 22539.0, 22573.0, 22590.0, 22582.0, 22572.0, 22583.0, 22566.0, 22585.0, 22635.0, 22627.0, 22562.0, 22526.0, 22491.0, 22492.0, 22493.0, 22486.0, 22476.0, 22521.0, 22569.0, 22563.0, 22561.0, 22603.0, 22581.0, 22570.0, 22563.0, 22537.0, 22546.0, 22544.0, 22566.0, 22560.0, 22561.0, 22590.0, 22647.0, 22677.0, 22687.0, 22662.0, 22619.0, 22641.0, 22688.0, 22710.0, 22720.0, 22702.0, 22635.0, 22639.0, 22612.0, 22543.0, 22550.0, 22569.0, 22559.0, 22540.0, 22531.0, 22582.0, 22562.0, 22538.0, 22544.0, 22547.0, 22554.0, 22556.0, 22575.0, 22552.0, 22593.0, 22597.0, 22608.0, 22654.0, 22639.0, 22623.0, 22621.0, 22628.0, 22636.0, 22651.0, 22634.0, 22650.0, 22606.0, 22555.0, 22581.0, 22552.0, 22554.0, 22625.0, 22649.0, 22607.0, 22566.0, 22541.0, 22518.0, 22532.0, 22533.0]
    },
    "slices": {}
  }
}