{
  "AcquisitionMatrixPE": 104,
  "AcquisitionNumber": 1,
  "AcquisitionTime": "17:49:31.732500",
  "BandwidthPerPixelPhaseEncode": 17.17,
  "BaseResolution": 104,
  "BodyPartExamined": "BRAIN",
  "CoilString": "HC1-7;NC1_2",
  "ConsistencyInfo": "N4_VE11C_LATEST_20160120",
  "ConversionSoftware": "dcm2niix",
  "ConversionSoftwareVersion": "v1.0.20190902",
  "DerivedVendorReportedEchoSpacing": 0.000560011,
  "DeviceSerialNumber": "167006",
  "DwellTime": 2.1e-06,
  "EchoTime": 0.037,
  "EchoTrainLength": 104,
  "EffectiveEchoSpacing": 0.000560011,
  "FlipAngle": 52,
  "ImageComments": "Unaliased_MB4_PE3_LB",
  "ImageOrientationPatientDICOM": [0.995008, 0.0746339, 0.0662427, -0.0387461, 0.900671, -0.43277],
  "ImageType": [
    "ORIGINAL",
    "PRIMARY",
    "M",
    "MB",
    "ND",
    "MOSAIC"
],
  "ImagingFrequency": 123.259,
  "InPlanePhaseEncodingDirectionDICOM": "COL",
  "InstitutionAddress": "Chemin_Queen-Mary_4565_Montreal_District_CA_H3W_1W5",
  "InstitutionName": "Institut_Universitaire_de_Geriatrie_de_Montreal",
  "InstitutionalDepartmentName": "Department",
  "MRAcquisitionType": "2D",
  "MagneticFieldStrength": 3,
  "Manufacturer": "Siemens",
  "ManufacturersModelName": "Prisma_fit",
  "Modality": "MR",
  "MultibandAccelerationFactor": 4,
  "PartialFourier": 1,
  "PatientPosition": "HFS",
  "PercentPhaseFOV": 100,
  "PhaseEncodingDirection": "j",
  "PhaseEncodingSteps": 104,
  "PhaseResolution": 1,
  "PixelBandwidth": 2290,
  "ProcedureStepDescription": "memory_things",
  "ProtocolName": "func_task-things_run-3",
  "PulseSequenceDetails": "%CustomerSeq%_cmrr_mbep2d_bold",
  "ReceiveCoilActiveElements": "HC1-7;NC1,2",
  "ReceiveCoilName": "HeadNeck_64",
  "ReconMatrixPE": 104,
  "RepetitionTime": 1.49,
  "SAR": 0.0403804,
  "ScanOptions": "FS",
  "ScanningSequence": "EP",
  "SequenceName": "epfid2d1_104",
  "SequenceVariant": "SK_SS",
  "SeriesDescription": "func_task-things_run-3",
  "SeriesNumber": 16,
  "ShimSetting": [649, -7195, -8817, 624, 74, -44, -57, 3],
  "SliceThickness": 2,
  "SliceTiming": [0, 0.7825, 0.0975, 0.8825, 0.195, 0.98, 0.2925, 1.0775, 0.3925, 1.175, 0.49, 1.2725, 0.5875, 1.3725, 0.685, 0, 0.7825, 0.0975, 0.8825, 0.195, 0.98, 0.2925, 1.0775, 0.3925, 1.175, 0.49, 1.2725, 0.5875, 1.3725, 0.685, 0, 0.7825, 0.0975, 0.8825, 0.195, 0.98, 0.2925, 1.0775, 0.3925, 1.175, 0.49, 1.2725, 0.5875, 1.3725, 0.685, 0, 0.7825, 0.0975, 0.8825, 0.195, 0.98, 0.2925, 1.0775, 0.3925, 1.175, 0.49, 1.2725, 0.5875, 1.3725, 0.685],
  "SoftwareVersions": "syngo_MR_E11",
  "SpacingBetweenSlices": 2,
  "StationName": "MRC35049",
  "TaskName": "things",
  "TotalReadoutTime": 0.0576811,
  "TxRefAmp": 250.849,
  "WipMemBlock": "499c9f2f-2593-4db8-b2b5-d272c0e0513e||Sequence: R016 ve11c/master r/e634e98; Dec 19 2017 11:00:25 by eja",
  "dcmmeta_affine": [
    [-1.9900168180465698, -0.07749225199222565, 0.1839243769645691, 105.2362289428711],
    [-0.14926770329475403, 1.8013427257537842, -0.856086254119873, -51.95201110839844],
    [0.13248538970947266, 0.8655399680137634, 1.798134684562683, -76.97675323486328],
    [0.0, 0.0, 0.0, 1.0]
],
  "dcmmeta_reorient_transform": [
    [0.0, -1.0, 0.0, 103.0],
    [1.0, 0.0, 0.0, 0.0],
    [0.0, 0.0, 1.0, 0.0],
    [0.0, 0.0, 0.0, 1.0]
],
  "dcmmeta_shape": [104, 104, 60, 190],
  "dcmmeta_slice_dim": 2,
  "dcmmeta_version": 0.6,
  "global": {
    "const": {
      "AcquisitionMatrix": [104, 0, 0, 104],
      "AngioFlag": "N",
      "BitsAllocated": 16,
      "BitsStored": 16,
      "BodyPartExamined": "BRAIN",
      "Columns": 832,
      "EchoNumbers": 1,
      "EchoTime": 37.0,
      "EchoTrainLength": 104,
      "FlipAngle": 52.0,
      "HighBit": 15,
      "ImageOrientationPatient": [0.9950083886554, 0.07463385276957, 0.06624269413422, -0.0387461276426, 0.90067134349233, -0.4327699950371],
      "ImagePositionPatient": [-793.41345052181, -843.60846812022, 279.00574326663],
      "ImageType": [
        "ORIGINAL",
        "PRIMARY",
        "M",
        "MB",
        "ND",
        "MOSAIC"
],
      "ImagedNucleus": "1H",
      "ImagingFrequency": 123.258969,
      "InPlanePhaseEncodingDirection": "COL",
      "MRAcquisitionType": "2D",
      "MagneticFieldStrength": 3.0,
      "Manufacturer": "SIEMENS",
      "ManufacturerModelName": "Prisma_fit",
      "Modality": "MR",
      "NumberOfAverages": 1.0,
      "NumberOfPhaseEncodingSteps": 104,
      "PercentPhaseFieldOfView": 100.0,
      "PercentSampling": 100.0,
      "PerformedProcedureStepStartTime": "165704.704000",
      "PhotometricInterpretation": "MONOCHROME2",
      "PixelBandwidth": 2290.0,
      "PixelRepresentation": 0,
      "PixelSpacing": [2.0, 2.0],
      "ProtocolName": "func_task-things_run-3",
      "RepetitionTime": 1490.0,
      "Rows": 832,
      "SAR": 0.04038039416615,
      "SamplesPerPixel": 1,
      "ScanOptions": "FS",
      "ScanningSequence": "EP",
      "SequenceName": "epfid2d1_104",
      "SequenceVariant": [
        "SK",
        "SS"
],
      "SeriesDescription": "func_task-things_run-3",
      "SeriesNumber": 16,
      "SeriesTime": "175057.474000",
      "SliceLocation": -37.291825420387,
      "SliceThickness": 2.0,
      "SmallestImagePixelValue": 0,
      "SoftwareVersions": "syngo MR E11",
      "SpacingBetweenSlices": 2.0000000222661,
      "SpecificCharacterSet": "ISO_IR 100",
      "StudyID": "1",
      "StudyTime": "165704.640000",
      "TransmitCoilName": "Body",
      "VariableFlipAngleFlag": "N",
      "WindowCenterWidthExplanation": "Algo1",
      "dBdt": 0.0},
    "slices": {}
  },
  "time": {
    "samples": {
      "AcquisitionNumber": [1, 2, 3, 4, 5, 6, 7, 8, 9, 10, 11, 12, 13, 14, 15, 16, 17, 18, 19, 20, 21, 22, 23, 24, 25, 26, 27, 28, 29, 30, 31, 32, 33, 34, 35, 36, 37, 38, 39, 40, 41, 42, 43, 44, 45, 46, 47, 48, 49, 50, 51, 52, 53, 54, 55, 56, 57, 58, 59, 60, 61, 62, 63, 64, 65, 66, 67, 68, 69, 70, 71, 72, 73, 74, 75, 76, 77, 78, 79, 80, 81, 82, 83, 84, 85, 86, 87, 88, 89, 90, 91, 92, 93, 94, 95, 96, 97, 98, 99, 100, 101, 102, 103, 104, 105, 106, 107, 108, 109, 110, 111, 112, 113, 114, 115, 116, 117, 118, 119, 120, 121, 122, 123, 124, 125, 126, 127, 128, 129, 130, 131, 132, 133, 134, 135, 136, 137, 138, 139, 140, 141, 142, 143, 144, 145, 146, 147, 148, 149, 150, 151, 152, 153, 154, 155, 156, 157, 158, 159, 160, 161, 162, 163, 164, 165, 166, 167, 168, 169, 170, 171, 172, 173, 174, 175, 176, 177, 178, 179, 180, 181, 182, 183, 184, 185, 186, 187, 188, 189, 190],
      "AcquisitionTime": ["174931.732500", "174933.222500", "174934.712500", "174936.202500", "174937.692500", "174939.182500", "174940.672500", "174942.162500", "174943.652500", "174945.142500", "174946.632500", "174948.122500", "174949.612500", "174951.102500", "174952.592500", "174954.082500", "174955.572500", "174957.062500", "174958.552500", "175000.042500", "175001.532500", "175003.022500", "175004.512500", "175006.002500", "175007.492500", "175008.982500", "175010.472500", "175011.962500", "175013.452500", "175014.942500", "175016.432500", "175017.922500", "175019.412500", "175020.902500", "175022.392500", "175023.882500", "175025.372500", "175026.862500", "175028.352500", "175029.842500", "175031.332500", "175032.822500", "175034.312500", "175035.802500", "175037.292500", "175038.782500", "175040.272500", "175041.762500", "175043.252500", "175044.742500", "175046.232500", "175047.722500", "175049.212500", "175050.702500", "175052.192500", "175053.682500", "175055.172500", "175056.662500", "175058.152500", "175059.642500", "175101.132500", "175102.622500", "175104.112500", "175105.602500", "175107.092500", "175108.582500", "175110.072500", "175111.562500", "175113.052500", "175114.542500", "175116.032500", "175117.522500", "175119.012500", "175120.502500", "175121.992500", "175123.482500", "175124.972500", "175126.462500", "175127.952500", "175129.442500", "175130.932500", "175132.422500", "175133.912500", "175135.402500", "175136.892500", "175138.382500", "175139.872500", "175141.362500", "175142.852500", "175144.342500", "175145.832500", "175147.322500", "175148.812500", "175150.302500", "175151.792500", "175153.282500", "175154.772500", "175156.262500", "175157.752500", "175159.242500", "175200.732500", "175202.222500", "175203.712500", "175205.202500", "175206.692500", "175208.182500", "175209.672500", "175211.162500", "175212.652500", "175214.142500", "175215.632500", "175217.122500", "175218.612500", "175220.102500", "175221.592500", "175223.082500", "175224.572500", "175226.062500", "175227.552500", "175229.042500", "175230.532500", "175232.022500", "175233.512500", "175235.002500", "175236.492500", "175237.982500", "175239.472500", "175240.962500", "175242.452500", "175243.942500", "175245.432500", "175246.922500", "175248.412500", "175249.902500", "175251.392500", "175252.882500", "175254.372500", "175255.862500", "175257.352500", "175258.842500", "175300.332500", "175301.822500", "175303.312500", "175304.802500", "175306.292500", "175307.782500", "175309.272500", "175310.762500", "175312.252500", "175313.742500", "175315.232500", "175316.722500", "175318.212500", "175319.702500", "175321.192500", "175322.682500", "175324.172500", "175325.662500", "175327.152500", "175328.642500", "175330.132500", "175331.622500", "175333.112500", "175334.602500", "175336.092500", "175337.582500", "175339.072500", "175340.562500", "175342.052500", "175343.542500", "175345.032500", "175346.522500", "175348.012500", "175349.502500", "175350.992500", "175352.482500", "175353.972500", "175355.462500", "175356.952500", "175358.442500", "175359.932500", "175401.422500", "175402.912500", "175404.402500", "175405.892500", "175407.382500", "175408.872500", "175410.362500", "175411.852500", "175413.342500"],
      "ContentTime": ["175057.478000", "175057.482000", "175057.485000", "175057.489000", "175057.492000", "175057.495000", "175057.499000", "175057.502000", "175057.506000", "175057.509000", "175057.513000", "175057.516000", "175057.519000", "175057.523000", "175057.526000", "175057.530000", "175057.533000", "175057.536000", "175057.540000", "175057.543000", "175057.547000", "175057.550000", "175057.553000", "175057.557000", "175057.560000", "175057.564000", "175057.567000", "175057.570000", "175057.585000", "175057.589000", "175057.592000", "175057.596000", "175057.599000", "175057.602000", "175117.435000", "175117.439000", "175117.442000", "175117.446000", "175117.449000", "175117.453000", "175117.456000", "175117.459000", "175117.463000", "175117.466000", "175117.470000", "175117.473000", "175117.476000", "175117.480000", "175117.483000", "175117.486000", "175117.490000", "175117.493000", "175117.497000", "175117.500000", "175137.435000", "175137.445000", "175137.448000", "175137.452000", "175137.455000", "175137.459000", "175137.462000", "175137.465000", "175137.469000", "175137.472000", "175137.476000", "175137.479000", "175137.483000", "175137.486000", "175137.489000", "175137.493000", "175137.496000", "175137.500000", "175137.503000", "175137.506000", "175137.510000", "175157.435000", "175157.439000", "175157.442000", "175157.446000", "175157.449000", "175157.453000", "175157.456000", "175157.459000", "175157.463000", "175157.466000", "175157.470000", "175157.473000", "175157.476000", "175157.480000", "175157.483000", "175157.487000", "175157.490000", "175157.493000", "175157.497000", "175157.500000", "175237.435000", "175237.439000", "175237.443000", "175237.446000", "175237.450000", "175237.453000", "175237.457000", "175237.460000", "175237.463000", "175237.467000", "175237.470000", "175237.474000", "175237.477000", "175237.480000", "175237.484000", "175237.487000", "175237.491000", "175237.494000", "175237.498000", "175237.501000", "175237.504000", "175237.508000", "175237.511000", "175237.515000", "175237.518000", "175237.522000", "175237.525000", "175237.528000", "175237.532000", "175317.435000", "175317.439000", "175317.442000", "175317.446000", "175317.449000", "175317.452000", "175317.456000", "175317.459000", "175317.463000", "175317.466000", "175317.469000", "175317.473000", "175317.477000", "175317.480000", "175317.483000", "175317.487000", "175317.490000", "175317.494000", "175317.497000", "175317.500000", "175317.504000", "175317.507000", "175317.511000", "175317.514000", "175317.518000", "175317.521000", "175317.524000", "175357.435000", "175357.439000", "175357.449000", "175357.452000", "175357.456000", "175357.459000", "175357.463000", "175357.466000", "175357.469000", "175357.473000", "175357.476000", "175357.480000", "175357.483000", "175357.486000", "175357.490000", "175357.493000", "175357.497000", "175357.500000", "175357.504000", "175357.507000", "175357.510000", "175357.514000", "175357.517000", "175357.521000", "175357.524000", "175357.527000", "175357.531000", "175415.328000", "175415.332000", "175415.335000", "175415.339000", "175415.346000", "175415.350000", "175415.353000", "175415.357000", "175415.361000", "175415.364000", "175415.367000", "175415.371000"],
      "InstanceCreationTime": ["175057.478000", "175057.482000", "175057.485000", "175057.489000", "175057.492000", "175057.495000", "175057.499000", "175057.502000", "175057.506000", "175057.509000", "175057.513000", "175057.516000", "175057.519000", "175057.523000", "175057.526000", "175057.530000", "175057.533000", "175057.536000", "175057.540000", "175057.543000", "175057.547000", "175057.550000", "175057.553000", "175057.557000", "175057.560000", "175057.564000", "175057.567000", "175057.570000", "175057.585000", "175057.589000", "175057.592000", "175057.596000", "175057.599000", "175057.602000", "175117.435000", "175117.439000", "175117.442000", "175117.446000", "175117.449000", "175117.453000", "175117.456000", "175117.459000", "175117.463000", "175117.466000", "175117.470000", "175117.473000", "175117.476000", "175117.480000", "175117.483000", "175117.486000", "175117.490000", "175117.493000", "175117.497000", "175117.500000", "175137.435000", "175137.445000", "175137.448000", "175137.452000", "175137.455000", "175137.459000", "175137.462000", "175137.465000", "175137.469000", "175137.472000", "175137.476000", "175137.479000", "175137.483000", "175137.486000", "175137.489000", "175137.493000", "175137.496000", "175137.500000", "175137.503000", "175137.506000", "175137.510000", "175157.435000", "175157.439000", "175157.442000", "175157.446000", "175157.449000", "175157.453000", "175157.456000", "175157.459000", "175157.463000", "175157.466000", "175157.470000", "175157.473000", "175157.476000", "175157.480000", "175157.483000", "175157.487000", "175157.490000", "175157.493000", "175157.497000", "175157.500000", "175237.435000", "175237.439000", "175237.443000", "175237.446000", "175237.450000", "175237.453000", "175237.457000", "175237.460000", "175237.463000", "175237.467000", "175237.470000", "175237.474000", "175237.477000", "175237.480000", "175237.484000", "175237.487000", "175237.491000", "175237.494000", "175237.498000", "175237.501000", "175237.504000", "175237.508000", "175237.511000", "175237.515000", "175237.518000", "175237.522000", "175237.525000", "175237.528000", "175237.532000", "175317.435000", "175317.439000", "175317.442000", "175317.446000", "175317.449000", "175317.452000", "175317.456000", "175317.459000", "175317.463000", "175317.466000", "175317.469000", "175317.473000", "175317.477000", "175317.480000", "175317.483000", "175317.487000", "175317.490000", "175317.494000", "175317.497000", "175317.500000", "175317.504000", "175317.507000", "175317.511000", "175317.514000", "175317.518000", "175317.521000", "175317.524000", "175357.435000", "175357.439000", "175357.449000", "175357.452000", "175357.456000", "175357.459000", "175357.463000", "175357.466000", "175357.469000", "175357.473000", "175357.476000", "175357.480000", "175357.483000", "175357.486000", "175357.490000", "175357.493000", "175357.497000", "175357.500000", "175357.504000", "175357.507000", "175357.510000", "175357.514000", "175357.517000", "175357.521000", "175357.524000", "175357.527000", "175357.531000", "175415.328000", "175415.332000", "175415.335000", "175415.339000", "175415.346000", "175415.350000", "175415.353000", "175415.357000", "175415.361000", "175415.364000", "175415.367000", "175415.371000"],
      "InstanceNumber": [1, 2, 3, 4, 5, 6, 7, 8, 9, 10, 11, 12, 13, 14, 15, 16, 17, 18, 19, 20, 21, 22, 23, 24, 25, 26, 27, 28, 29, 30, 31, 32, 33, 34, 35, 36, 37, 38, 39, 40, 41, 42, 43, 44, 45, 46, 47, 48, 49, 50, 51, 52, 53, 54, 55, 56, 57, 58, 59, 60, 61, 62, 63, 64, 65, 66, 67, 68, 69, 70, 71, 72, 73, 74, 75, 76, 77, 78, 79, 80, 81, 82, 83, 84, 85, 86, 87, 88, 89, 90, 91, 92, 93, 94, 95, 96, 97, 98, 99, 100, 101, 102, 103, 104, 105, 106, 107, 108, 109, 110, 111, 112, 113, 114, 115, 116, 117, 118, 119, 120, 121, 122, 123, 124, 125, 126, 127, 128, 129, 130, 131, 132, 133, 134, 135, 136, 137, 138, 139, 140, 141, 142, 143, 144, 145, 146, 147, 148, 149, 150, 151, 152, 153, 154, 155, 156, 157, 158, 159, 160, 161, 162, 163, 164, 165, 166, 167, 168, 169, 170, 171, 172, 173, 174, 175, 176, 177, 178, 179, 180, 181, 182, 183, 184, 185, 186, 187, 188, 189, 190],
      "LargestImagePixelValue": [46584, 44882, 45864, 45103, 46562, 46111, 45284, 44802, 44544, 44047, 44347, 44796, 44226, 44832, 45329, 43713, 44006, 43893, 43452, 43631, 44390, 44872, 44814, 44588, 44601, 44123, 45082, 45078, 44066, 43974, 44675, 44514, 44065, 43636, 44719, 45295, 44383, 44033, 41983, 42186, 43662, 43822, 44209, 43207, 41564, 41509, 41547, 41328, 42288, 43240, 42403, 42444, 42823, 41767, 41571, 41502, 41405, 40999, 39203, 39571, 42072, 41878, 41371, 41297, 40195, 41250, 40436, 40884, 41042, 40554, 42483, 43172, 40383, 41510, 41133, 41994, 42116, 40845, 40916, 40610, 40831, 41571, 40733, 39768, 42435, 43340, 43585, 42617, 43078, 42400, 41647, 43751, 43131, 43437, 41089, 42942, 42791, 41901, 40517, 39976, 41097, 41839, 41080, 40992, 41772, 40933, 42454, 42420, 41548, 42555, 42413, 40636, 40243, 41341, 42410, 40730, 40391, 41318, 42042, 41743, 43052, 41661, 42073, 42203, 41794, 41455, 41422, 40736, 41485, 41424, 40359, 41511, 41081, 42070, 41854, 40127, 42090, 40675, 40705, 41053, 40557, 40306, 42013, 41924, 44488, 40050, 40964, 41548, 41366, 40404, 43301, 42454, 40858, 42102, 41028, 41266, 41977, 41959, 40807, 41614, 41515, 41585, 41941, 40399, 41011, 40149, 40374, 42562, 41487, 41495, 40567, 40883, 41006, 42482, 41286, 40407, 39919, 39999, 40454, 43843, 42851, 42825, 42619, 42552, 42712, 42228, 41450, 42181, 44751, 42334],
      "WindowCenter": [10667.0, 10607.0, 10602.0, 10609.0, 10651.0, 10644.0, 10624.0, 10595.0, 10572.0, 10576.0, 10574.0, 10585.0, 10570.0, 10566.0, 10578.0, 10570.0, 10574.0, 10577.0, 10584.0, 10573.0, 10578.0, 10610.0, 10620.0, 10608.0, 10589.0, 10573.0, 10591.0, 10598.0, 10597.0, 10589.0, 10592.0, 10594.0, 10605.0, 10586.0, 10601.0, 10623.0, 10623.0, 10614.0, 10577.0, 10573.0, 10589.0, 10612.0, 10624.0, 10597.0, 10554.0, 10559.0, 10569.0, 10572.0, 10567.0, 10582.0, 10575.0, 10587.0, 10587.0, 10578.0, 10579.0, 10581.0, 10567.0, 10577.0, 10568.0, 10564.0, 10601.0, 10622.0, 10608.0, 10594.0, 10565.0, 10583.0, 10580.0, 10584.0, 10576.0, 10576.0, 10598.0, 10625.0, 10591.0, 10589.0, 10573.0, 10595.0, 10619.0, 10604.0, 10577.0, 10566.0, 10563.0, 10559.0, 10530.0, 10529.0, 10567.0, 10617.0, 10641.0, 10622.0, 10603.0, 10577.0, 10563.0, 10579.0, 10573.0, 10570.0, 10554.0, 10581.0, 10603.0, 10604.0, 10587.0, 10562.0, 10558.0, 10575.0, 10574.0, 10566.0, 10574.0, 10565.0, 10572.0, 10575.0, 10571.0, 10581.0, 10580.0, 10557.0, 10549.0, 10576.0, 10624.0, 10606.0, 10575.0, 10565.0, 10559.0, 10551.0, 10580.0, 10575.0, 10600.0, 10605.0, 10603.0, 10606.0, 10579.0, 10564.0, 10575.0, 10613.0, 10595.0, 10594.0, 10589.0, 10585.0, 10566.0, 10553.0, 10579.0, 10570.0, 10580.0, 10589.0, 10580.0, 10576.0, 10575.0, 10574.0, 10589.0, 10568.0, 10588.0, 10638.0, 10646.0, 10612.0, 10615.0, 10602.0, 10579.0, 10576.0, 10560.0, 10561.0, 10560.0, 10558.0, 10561.0, 10570.0, 10594.0, 10626.0, 10615.0, 10555.0, 10539.0, 10526.0, 10537.0, 10557.0, 10561.0, 10574.0, 10566.0, 10563.0, 10583.0, 10639.0, 10617.0, 10571.0, 10543.0, 10534.0, 10539.0, 10566.0, 10564.0, 10573.0, 10572.0, 10578.0, 10571.0, 10553.0, 10542.0, 10557.0, 10600.0, 10582.0],
      "WindowWidth": [22723.0, 22567.0, 22548.0, 22559.0, 22650.0, 22634.0, 22591.0, 22519.0, 22462.0, 22473.0, 22468.0, 22499.0, 22461.0, 22449.0, 22479.0, 22460.0, 22470.0, 22477.0, 22498.0, 22472.0, 22481.0, 22558.0, 22581.0, 22552.0, 22509.0, 22475.0, 22511.0, 22528.0, 22532.0, 22508.0, 22510.0, 22521.0, 22548.0, 22507.0, 22535.0, 22585.0, 22587.0, 22565.0, 22492.0, 22480.0, 22514.0, 22564.0, 22592.0, 22535.0, 22433.0, 22446.0, 22473.0, 22483.0, 22465.0, 22494.0, 22486.0, 22511.0, 22511.0, 22495.0, 22499.0, 22504.0, 22472.0, 22494.0, 22480.0, 22466.0, 22546.0, 22597.0, 22561.0, 22532.0, 22467.0, 22504.0, 22508.0, 22511.0, 22490.0, 22490.0, 22535.0, 22612.0, 22529.0, 22521.0, 22484.0, 22537.0, 22590.0, 22563.0, 22490.0, 22464.0, 22461.0, 22453.0, 22388.0, 22387.0, 22462.0, 22581.0, 22639.0, 22600.0, 22551.0, 22486.0, 22452.0, 22488.0, 22482.0, 22467.0, 22441.0, 22491.0, 22547.0, 22554.0, 22515.0, 22455.0, 22446.0, 22479.0, 22486.0, 22468.0, 22478.0, 22462.0, 22476.0, 22478.0, 22481.0, 22496.0, 22500.0, 22442.0, 22431.0, 22488.0, 22601.0, 22567.0, 22488.0, 22464.0, 22449.0, 22430.0, 22497.0, 22489.0, 22546.0, 22553.0, 22550.0, 22564.0, 22496.0, 22460.0, 22481.0, 22581.0, 22540.0, 22530.0, 22522.0, 22511.0, 22467.0, 22439.0, 22496.0, 22475.0, 22501.0, 22519.0, 22497.0, 22496.0, 22495.0, 22490.0, 22511.0, 22477.0, 22520.0, 22636.0, 22655.0, 22577.0, 22571.0, 22547.0, 22501.0, 22482.0, 22459.0, 22451.0, 22450.0, 22441.0, 22452.0, 22469.0, 22532.0, 22607.0, 22576.0, 22438.0, 22400.0, 22372.0, 22399.0, 22438.0, 22446.0, 22484.0, 22467.0, 22458.0, 22501.0, 22632.0, 22587.0, 22476.0, 22408.0, 22392.0, 22406.0, 22453.0, 22449.0, 22470.0, 22466.0, 22483.0, 22473.0, 22425.0, 22403.0, 22444.0, 22540.0, 22501.0]
    },
    "slices": {}
  }
}