{
  "AcquisitionMatrixPE": 104,
  "AcquisitionNumber": 1,
  "AcquisitionTime": "17:49:31.732500",
  "BandwidthPerPixelPhaseEncode": 17.17,
  "BaseResolution": 104,
  "BodyPartExamined": "BRAIN",
  "CoilString": "HC1-7;NC1_2",
  "ConsistencyInfo": "N4_VE11C_LATEST_20160120",
  "ConversionSoftware": "dcm2niix",
  "ConversionSoftwareVersion": "v1.0.20190902",
  "DerivedVendorReportedEchoSpacing": 0.000560011,
  "DeviceSerialNumber": "167006",
  "DwellTime": 2.1e-06,
  "EchoTime": 0.037,
  "EchoTrainLength": 104,
  "EffectiveEchoSpacing": 0.000560011,
  "FlipAngle": 52,
  "ImageComments": "Unaliased_MB4_PE3_LB",
  "ImageOrientationPatientDICOM": [0.995008, 0.0746339, 0.0662427, -0.0387461, 0.900671, -0.43277],
  "ImageType": [
    "ORIGINAL",
    "PRIMARY",
    "P",
    "MB",
    "ND",
    "MOSAIC"
],
  "ImagingFrequency": 123.259,
  "InPlanePhaseEncodingDirectionDICOM": "COL",
  "InstitutionAddress": "Chemin_Queen-Mary_4565_Montreal_District_CA_H3W_1W5",
  "InstitutionName": "Institut_Universitaire_de_Geriatrie_de_Montreal",
  "InstitutionalDepartmentName": "Department",
  "MRAcquisitionType": "2D",
  "MagneticFieldStrength": 3,
  "Manufacturer": "Siemens",
  "ManufacturersModelName": "Prisma_fit",
  "Modality": "MR",
  "MultibandAccelerationFactor": 4,
  "PartialFourier": 1,
  "PatientPosition": "HFS",
  "PercentPhaseFOV": 100,
  "PhaseEncodingDirection": "j",
  "PhaseEncodingSteps": 104,
  "PhaseResolution": 1,
  "PixelBandwidth": 2290,
  "ProcedureStepDescription": "memory_things",
  "ProtocolName": "func_task-things_run-3",
  "PulseSequenceDetails": "%CustomerSeq%_cmrr_mbep2d_bold",
  "ReceiveCoilActiveElements": "HC1-7;NC1,2",
  "ReceiveCoilName": "HeadNeck_64",
  "ReconMatrixPE": 104,
  "RepetitionTime": 1.49,
  "SAR": 0.0403804,
  "ScanOptions": "FS",
  "ScanningSequence": "EP",
  "SequenceName": "epfid2d1_104",
  "SequenceVariant": "SK_SS",
  "SeriesDescription": "func_task-things_run-3",
  "SeriesNumber": 17,
  "ShimSetting": [649, -7195, -8817, 624, 74, -44, -57, 3],
  "SliceThickness": 2,
  "SliceTiming": [0, 0.7825, 0.0975, 0.8825, 0.195, 0.98, 0.2925, 1.0775, 0.3925, 1.175, 0.49, 1.2725, 0.5875, 1.3725, 0.685, 0, 0.7825, 0.0975, 0.8825, 0.195, 0.98, 0.2925, 1.0775, 0.3925, 1.175, 0.49, 1.2725, 0.5875, 1.3725, 0.685, 0, 0.7825, 0.0975, 0.8825, 0.195, 0.98, 0.2925, 1.0775, 0.3925, 1.175, 0.49, 1.2725, 0.5875, 1.3725, 0.685, 0, 0.7825, 0.0975, 0.8825, 0.195, 0.98, 0.2925, 1.0775, 0.3925, 1.175, 0.49, 1.2725, 0.5875, 1.3725, 0.685],
  "SoftwareVersions": "syngo_MR_E11",
  "SpacingBetweenSlices": 2,
  "StationName": "MRC35049",
  "TaskName": "things",
  "TotalReadoutTime": 0.0576811,
  "TxRefAmp": 250.849,
  "WipMemBlock": "499c9f2f-2593-4db8-b2b5-d272c0e0513e||Sequence: R016 ve11c/master r/e634e98; Dec 19 2017 11:00:25 by eja",
  "dcmmeta_affine": [
    [-1.9900168180465698, -0.07749225199222565, 0.1839243769645691, 105.2362289428711],
    [-0.14926770329475403, 1.8013427257537842, -0.856086254119873, -51.95201110839844],
    [0.13248538970947266, 0.8655399680137634, 1.798134684562683, -76.97675323486328],
    [0.0, 0.0, 0.0, 1.0]
],
  "dcmmeta_reorient_transform": [
    [0.0, -1.0, 0.0, 103.0],
    [1.0, 0.0, 0.0, 0.0],
    [0.0, 0.0, 1.0, 0.0],
    [0.0, 0.0, 0.0, 1.0]
],
  "dcmmeta_shape": [104, 104, 60, 190],
  "dcmmeta_slice_dim": 2,
  "dcmmeta_version": 0.6,
  "global": {
    "const": {
      "AcquisitionMatrix": [104, 0, 0, 104],
      "AngioFlag": "N",
      "BitsAllocated": 16,
      "BitsStored": 16,
      "BodyPartExamined": "BRAIN",
      "Columns": 832,
      "EchoNumbers": 1,
      "EchoTime": 37.0,
      "EchoTrainLength": 104,
      "FlipAngle": 52.0,
      "HighBit": 15,
      "ImageOrientationPatient": [0.9950083886554, 0.07463385276957, 0.06624269413422, -0.0387461276426, 0.90067134349233, -0.4327699950371],
      "ImagePositionPatient": [-793.41345052181, -843.60846812022, 279.00574326663],
      "ImageType": [
        "ORIGINAL",
        "PRIMARY",
        "P",
        "MB",
        "ND",
        "MOSAIC"
],
      "ImagedNucleus": "1H",
      "ImagingFrequency": 123.258969,
      "InPlanePhaseEncodingDirection": "COL",
      "LargestImagePixelValue": 4095,
      "MRAcquisitionType": "2D",
      "MagneticFieldStrength": 3.0,
      "Manufacturer": "SIEMENS",
      "ManufacturerModelName": "Prisma_fit",
      "Modality": "MR",
      "NumberOfAverages": 1.0,
      "NumberOfPhaseEncodingSteps": 104,
      "PercentPhaseFieldOfView": 100.0,
      "PercentSampling": 100.0,
      "PerformedProcedureStepStartTime": "165704.704000",
      "PhotometricInterpretation": "MONOCHROME2",
      "PixelBandwidth": 2290.0,
      "PixelRepresentation": 0,
      "PixelSpacing": [2.0, 2.0],
      "ProtocolName": "func_task-things_run-3",
      "RepetitionTime": 1490.0,
      "RescaleIntercept": -4096.0,
      "RescaleSlope": 2.0,
      "RescaleType": "US",
      "Rows": 832,
      "SAR": 0.04038039416615,
      "SamplesPerPixel": 1,
      "ScanOptions": "FS",
      "ScanningSequence": "EP",
      "SequenceName": "epfid2d1_104",
      "SequenceVariant": [
        "SK",
        "SS"
],
      "SeriesDescription": "func_task-things_run-3",
      "SeriesNumber": 17,
      "SeriesTime": "175057.668000",
      "SliceLocation": -37.291825420387,
      "SliceThickness": 2.0,
      "SmallestImagePixelValue": 0,
      "SoftwareVersions": "syngo MR E11",
      "SpacingBetweenSlices": 2.0000000222661,
      "SpecificCharacterSet": "ISO_IR 100",
      "StudyID": "1",
      "StudyTime": "165704.640000",
      "TransmitCoilName": "Body",
      "VariableFlipAngleFlag": "N",
      "WindowCenterWidthExplanation": "Algo1",
      "dBdt": 0.0},
    "slices": {}
  },
  "time": {
    "samples": {
      "AcquisitionNumber": [1, 2, 3, 4, 5, 6, 7, 8, 9, 10, 11, 12, 13, 14, 15, 16, 17, 18, 19, 20, 21, 22, 23, 24, 25, 26, 27, 28, 29, 30, 31, 32, 33, 34, 35, 36, 37, 38, 39, 40, 41, 42, 43, 44, 45, 46, 47, 48, 49, 50, 51, 52, 53, 54, 55, 56, 57, 58, 59, 60, 61, 62, 63, 64, 65, 66, 67, 68, 69, 70, 71, 72, 73, 74, 75, 76, 77, 78, 79, 80, 81, 82, 83, 84, 85, 86, 87, 88, 89, 90, 91, 92, 93, 94, 95, 96, 97, 98, 99, 100, 101, 102, 103, 104, 105, 106, 107, 108, 109, 110, 111, 112, 113, 114, 115, 116, 117, 118, 119, 120, 121, 122, 123, 124, 125, 126, 127, 128, 129, 130, 131, 132, 133, 134, 135, 136, 137, 138, 139, 140, 141, 142, 143, 144, 145, 146, 147, 148, 149, 150, 151, 152, 153, 154, 155, 156, 157, 158, 159, 160, 161, 162, 163, 164, 165, 166, 167, 168, 169, 170, 171, 172, 173, 174, 175, 176, 177, 178, 179, 180, 181, 182, 183, 184, 185, 186, 187, 188, 189, 190],
      "AcquisitionTime": ["174931.732500", "174933.222500", "174934.712500", "174936.202500", "174937.692500", "174939.182500", "174940.672500", "174942.162500", "174943.652500", "174945.142500", "174946.632500", "174948.122500", "174949.612500", "174951.102500", "174952.592500", "174954.082500", "174955.572500", "174957.062500", "174958.552500", "175000.042500", "175001.532500", "175003.022500", "175004.512500", "175006.002500", "175007.492500", "175008.982500", "175010.472500", "175011.962500", "175013.452500", "175014.942500", "175016.432500", "175017.922500", "175019.412500", "175020.902500", "175022.392500", "175023.882500", "175025.372500", "175026.862500", "175028.352500", "175029.842500", "175031.332500", "175032.822500", "175034.312500", "175035.802500", "175037.292500", "175038.782500", "175040.272500", "175041.762500", "175043.252500", "175044.742500", "175046.232500", "175047.722500", "175049.212500", "175050.702500", "175052.192500", "175053.682500", "175055.172500", "175056.662500", "175058.152500", "175059.642500", "175101.132500", "175102.622500", "175104.112500", "175105.602500", "175107.092500", "175108.582500", "175110.072500", "175111.562500", "175113.052500", "175114.542500", "175116.032500", "175117.522500", "175119.012500", "175120.502500", "175121.992500", "175123.482500", "175124.972500", "175126.462500", "175127.952500", "175129.442500", "175130.932500", "175132.422500", "175133.912500", "175135.402500", "175136.892500", "175138.382500", "175139.872500", "175141.362500", "175142.852500", "175144.342500", "175145.832500", "175147.322500", "175148.812500", "175150.302500", "175151.792500", "175153.282500", "175154.772500", "175156.262500", "175157.752500", "175159.242500", "175200.732500", "175202.222500", "175203.712500", "175205.202500", "175206.692500", "175208.182500", "175209.672500", "175211.162500", "175212.652500", "175214.142500", "175215.632500", "175217.122500", "175218.612500", "175220.102500", "175221.592500", "175223.082500", "175224.572500", "175226.062500", "175227.552500", "175229.042500", "175230.532500", "175232.022500", "175233.512500", "175235.002500", "175236.492500", "175237.982500", "175239.472500", "175240.962500", "175242.452500", "175243.942500", "175245.432500", "175246.922500", "175248.412500", "175249.902500", "175251.392500", "175252.882500", "175254.372500", "175255.862500", "175257.352500", "175258.842500", "175300.332500", "175301.822500", "175303.312500", "175304.802500", "175306.292500", "175307.782500", "175309.272500", "175310.762500", "175312.252500", "175313.742500", "175315.232500", "175316.722500", "175318.212500", "175319.702500", "175321.192500", "175322.682500", "175324.172500", "175325.662500", "175327.152500", "175328.642500", "175330.132500", "175331.622500", "175333.112500", "175334.602500", "175336.092500", "175337.582500", "175339.072500", "175340.562500", "175342.052500", "175343.542500", "175345.032500", "175346.522500", "175348.012500", "175349.502500", "175350.992500", "175352.482500", "175353.972500", "175355.462500", "175356.952500", "175358.442500", "175359.932500", "175401.422500", "175402.912500", "175404.402500", "175405.892500", "175407.382500", "175408.872500", "175410.362500", "175411.852500", "175413.342500"],
      "ContentTime": ["175057.670000", "175057.673000", "175057.675000", "175057.683000", "175057.685000", "175057.688000", "175057.690000", "175057.693000", "175057.695000", "175057.698000", "175057.700000", "175057.703000", "175057.706000", "175057.708000", "175057.711000", "175057.713000", "175057.716000", "175057.718000", "175057.721000", "175057.723000", "175057.726000", "175057.728000", "175057.731000", "175057.734000", "175057.736000", "175057.739000", "175057.741000", "175057.744000", "175057.746000", "175057.749000", "175057.751000", "175057.754000", "175057.757000", "175057.759000", "175117.552000", "175117.555000", "175117.558000", "175117.560000", "175117.563000", "175117.565000", "175117.568000", "175117.571000", "175117.573000", "175117.576000", "175117.578000", "175117.581000", "175117.584000", "175117.586000", "175117.589000", "175117.591000", "175117.594000", "175117.596000", "175117.599000", "175117.601000", "175137.563000", "175137.566000", "175137.568000", "175137.571000", "175137.574000", "175137.576000", "175137.579000", "175137.581000", "175137.584000", "175137.587000", "175137.589000", "175137.592000", "175137.594000", "175137.597000", "175137.599000", "175137.602000", "175137.605000", "175137.607000", "175137.610000", "175137.612000", "175137.615000", "175157.545000", "175157.548000", "175157.550000", "175157.553000", "175157.555000", "175157.558000", "175157.561000", "175157.563000", "175157.566000", "175157.568000", "175157.571000", "175157.573000", "175157.576000", "175157.579000", "175157.581000", "175157.584000", "175157.587000", "175157.589000", "175157.592000", "175157.594000", "175237.587000", "175237.590000", "175237.593000", "175237.595000", "175237.598000", "175237.600000", "175237.603000", "175237.606000", "175237.608000", "175237.611000", "175237.613000", "175237.616000", "175237.619000", "175237.621000", "175237.624000", "175237.626000", "175237.629000", "175237.641000", "175237.643000", "175237.646000", "175237.649000", "175237.651000", "175237.654000", "175237.656000", "175237.659000", "175237.661000", "175237.664000", "175237.667000", "175237.669000", "175317.583000", "175317.586000", "175317.588000", "175317.591000", "175317.593000", "175317.596000", "175317.599000", "175317.601000", "175317.604000", "175317.606000", "175317.609000", "175317.611000", "175317.614000", "175317.617000", "175317.619000", "175317.622000", "175317.624000", "175317.627000", "175317.630000", "175317.632000", "175317.635000", "175317.637000", "175317.640000", "175317.642000", "175317.645000", "175317.648000", "175317.650000", "175357.585000", "175357.587000", "175357.590000", "175357.593000", "175357.595000", "175357.598000", "175357.600000", "175357.603000", "175357.606000", "175357.608000", "175357.611000", "175357.614000", "175357.616000", "175357.619000", "175357.621000", "175357.624000", "175357.626000", "175357.629000", "175357.631000", "175357.634000", "175357.637000", "175357.639000", "175357.642000", "175357.645000", "175357.647000", "175357.650000", "175357.652000", "175415.398000", "175415.401000", "175415.403000", "175415.406000", "175415.413000", "175415.416000", "175415.419000", "175415.421000", "175415.424000", "175415.426000", "175415.429000", "175415.432000"],
      "InstanceCreationTime": ["175057.670000", "175057.673000", "175057.675000", "175057.683000", "175057.685000", "175057.688000", "175057.690000", "175057.693000", "175057.695000", "175057.698000", "175057.700000", "175057.703000", "175057.706000", "175057.708000", "175057.711000", "175057.713000", "175057.716000", "175057.718000", "175057.721000", "175057.723000", "175057.726000", "175057.728000", "175057.731000", "175057.734000", "175057.736000", "175057.739000", "175057.741000", "175057.744000", "175057.746000", "175057.749000", "175057.751000", "175057.754000", "175057.757000", "175057.759000", "175117.552000", "175117.555000", "175117.558000", "175117.560000", "175117.563000", "175117.565000", "175117.568000", "175117.571000", "175117.573000", "175117.576000", "175117.578000", "175117.581000", "175117.584000", "175117.586000", "175117.589000", "175117.591000", "175117.594000", "175117.596000", "175117.599000", "175117.601000", "175137.563000", "175137.566000", "175137.568000", "175137.571000", "175137.574000", "175137.576000", "175137.579000", "175137.581000", "175137.584000", "175137.587000", "175137.589000", "175137.592000", "175137.594000", "175137.597000", "175137.599000", "175137.602000", "175137.605000", "175137.607000", "175137.610000", "175137.612000", "175137.615000", "175157.545000", "175157.548000", "175157.550000", "175157.553000", "175157.555000", "175157.558000", "175157.561000", "175157.563000", "175157.566000", "175157.568000", "175157.571000", "175157.573000", "175157.576000", "175157.579000", "175157.581000", "175157.584000", "175157.587000", "175157.589000", "175157.592000", "175157.594000", "175237.587000", "175237.590000", "175237.593000", "175237.595000", "175237.598000", "175237.600000", "175237.603000", "175237.606000", "175237.608000", "175237.611000", "175237.613000", "175237.616000", "175237.619000", "175237.621000", "175237.624000", "175237.626000", "175237.629000", "175237.641000", "175237.643000", "175237.646000", "175237.649000", "175237.651000", "175237.654000", "175237.656000", "175237.659000", "175237.661000", "175237.664000", "175237.667000", "175237.669000", "175317.583000", "175317.586000", "175317.588000", "175317.591000", "175317.593000", "175317.596000", "175317.599000", "175317.601000", "175317.604000", "175317.606000", "175317.609000", "175317.611000", "175317.614000", "175317.617000", "175317.619000", "175317.622000", "175317.624000", "175317.627000", "175317.630000", "175317.632000", "175317.635000", "175317.637000", "175317.640000", "175317.642000", "175317.645000", "175317.648000", "175317.650000", "175357.585000", "175357.587000", "175357.590000", "175357.593000", "175357.595000", "175357.598000", "175357.600000", "175357.603000", "175357.606000", "175357.608000", "175357.611000", "175357.614000", "175357.616000", "175357.619000", "175357.621000", "175357.624000", "175357.626000", "175357.629000", "175357.631000", "175357.634000", "175357.637000", "175357.639000", "175357.642000", "175357.645000", "175357.647000", "175357.650000", "175357.652000", "175415.398000", "175415.401000", "175415.403000", "175415.406000", "175415.413000", "175415.416000", "175415.419000", "175415.421000", "175415.424000", "175415.426000", "175415.429000", "175415.432000"],
      "InstanceNumber": [1, 2, 3, 4, 5, 6, 7, 8, 9, 10, 11, 12, 13, 14, 15, 16, 17, 18, 19, 20, 21, 22, 23, 24, 25, 26, 27, 28, 29, 30, 31, 32, 33, 34, 35, 36, 37, 38, 39, 40, 41, 42, 43, 44, 45, 46, 47, 48, 49, 50, 51, 52, 53, 54, 55, 56, 57, 58, 59, 60, 61, 62, 63, 64, 65, 66, 67, 68, 69, 70, 71, 72, 73, 74, 75, 76, 77, 78, 79, 80, 81, 82, 83, 84, 85, 86, 87, 88, 89, 90, 91, 92, 93, 94, 95, 96, 97, 98, 99, 100, 101, 102, 103, 104, 105, 106, 107, 108, 109, 110, 111, 112, 113, 114, 115, 116, 117, 118, 119, 120, 121, 122, 123, 124, 125, 126, 127, 128, 129, 130, 131, 132, 133, 134, 135, 136, 137, 138, 139, 140, 141, 142, 143, 144, 145, 146, 147, 148, 149, 150, 151, 152, 153, 154, 155, 156, 157, 158, 159, 160, 161, 162, 163, 164, 165, 166, 167, 168, 169, 170, 171, 172, 173, 174, 175, 176, 177, 178, 179, 180, 181, 182, 183, 184, 185, 186, 187, 188, 189, 190],
      "WindowCenter": [4848.0, 4850.0, 4850.0, 4848.0, 4826.0, 4848.0, 4826.0, 4850.0, 4826.0, 4852.0, 4848.0, 4848.0, 4850.0, 4850.0, 4850.0, 4848.0, 4848.0, 4850.0, 4848.0, 4846.0, 4848.0, 4850.0, 4844.0, 4846.0, 4846.0, 4848.0, 4848.0, 4824.0, 4848.0, 4852.0, 4824.0, 4848.0, 4848.0, 4848.0, 4848.0, 4850.0, 4848.0, 4850.0, 4848.0, 4850.0, 4848.0, 4846.0, 4824.0, 4848.0, 4850.0, 4848.0, 4846.0, 4848.0, 4848.0, 4844.0, 4850.0, 4850.0, 4850.0, 4846.0, 4846.0, 4848.0, 4850.0, 4844.0, 4850.0, 4848.0, 4848.0, 4848.0, 4848.0, 4846.0, 4848.0, 4846.0, 4848.0, 4850.0, 4848.0, 4850.0, 4846.0, 4850.0, 4848.0, 4852.0, 4850.0, 4850.0, 4848.0, 4848.0, 4848.0, 4850.0, 4848.0, 4848.0, 4850.0, 4844.0, 4850.0, 4846.0, 4846.0, 4846.0, 4850.0, 4848.0, 4850.0, 4826.0, 4846.0, 4850.0, 4846.0, 4846.0, 4850.0, 4846.0, 4846.0, 4848.0, 4850.0, 4846.0, 4850.0, 4848.0, 4846.0, 4850.0, 4848.0, 4850.0, 4848.0, 4848.0, 4848.0, 4846.0, 4848.0, 4850.0, 4850.0, 4848.0, 4852.0, 4850.0, 4846.0, 4848.0, 4848.0, 4846.0, 4848.0, 4852.0, 4848.0, 4848.0, 4848.0, 4850.0, 4850.0, 4852.0, 4850.0, 4850.0, 4850.0, 4848.0, 4852.0, 4850.0, 4848.0, 4848.0, 4846.0, 4850.0, 4850.0, 4850.0, 4848.0, 4850.0, 4848.0, 4846.0, 4850.0, 4848.0, 4848.0, 4850.0, 4848.0, 4848.0, 4852.0, 4850.0, 4850.0, 4850.0, 4850.0, 4844.0, 4824.0, 4848.0, 4852.0, 4850.0, 4850.0, 4850.0, 4848.0, 4850.0, 4846.0, 4848.0, 4850.0, 4848.0, 4850.0, 4850.0, 4848.0, 4850.0, 4852.0, 4850.0, 4846.0, 4848.0, 4850.0, 4848.0, 4848.0, 4848.0, 4846.0, 4848.0, 4846.0, 4846.0, 4848.0, 4850.0, 4850.0, 4848.0],
      "WindowWidth": [18632.0, 18640.0, 18620.0, 18624.0, 18598.0, 18636.0, 18608.0, 18638.0, 18606.0, 18632.0, 18630.0, 18634.0, 18630.0, 18628.0, 18632.0, 18630.0, 18632.0, 18636.0, 18638.0, 18636.0, 18626.0, 18638.0, 18634.0, 18634.0, 18626.0, 18628.0, 18634.0, 18604.0, 18636.0, 18634.0, 18604.0, 18632.0, 18632.0, 18628.0, 18624.0, 18634.0, 18636.0, 18640.0, 18636.0, 18634.0, 18630.0, 18630.0, 18604.0, 18634.0, 18632.0, 18632.0, 18630.0, 18626.0, 18626.0, 18632.0, 18638.0, 18636.0, 18636.0, 18634.0, 18628.0, 18628.0, 18630.0, 18626.0, 18634.0, 18628.0, 18632.0, 18640.0, 18636.0, 18636.0, 18630.0, 18634.0, 18634.0, 18634.0, 18628.0, 18628.0, 18628.0, 18636.0, 18638.0, 18640.0, 18634.0, 18636.0, 18636.0, 18628.0, 18632.0, 18634.0, 18628.0, 18634.0, 18632.0, 18622.0, 18626.0, 18636.0, 18630.0, 18632.0, 18624.0, 18636.0, 18632.0, 18600.0, 18628.0, 18632.0, 18628.0, 18626.0, 18634.0, 18632.0, 18634.0, 18636.0, 18632.0, 18626.0, 18638.0, 18624.0, 18626.0, 18634.0, 18626.0, 18632.0, 18630.0, 18628.0, 18628.0, 18632.0, 18626.0, 18632.0, 18634.0, 18632.0, 18630.0, 18632.0, 18632.0, 18628.0, 18632.0, 18630.0, 18628.0, 18630.0, 18630.0, 18632.0, 18632.0, 18626.0, 18632.0, 18634.0, 18628.0, 18630.0, 18634.0, 18628.0, 18626.0, 18630.0, 18632.0, 18632.0, 18628.0, 18628.0, 18632.0, 18630.0, 18630.0, 18632.0, 18628.0, 18628.0, 18626.0, 18632.0, 18632.0, 18628.0, 18630.0, 18632.0, 18638.0, 18630.0, 18634.0, 18630.0, 18634.0, 18628.0, 18596.0, 18628.0, 18630.0, 18634.0, 18636.0, 18636.0, 18630.0, 18638.0, 18630.0, 18630.0, 18630.0, 18628.0, 18632.0, 18626.0, 18624.0, 18632.0, 18632.0, 18636.0, 18630.0, 18628.0, 18632.0, 18630.0, 18632.0, 18626.0, 18628.0, 18632.0, 18626.0, 18628.0, 18628.0, 18632.0, 18630.0, 18634.0]
    },
    "slices": {}
  }
}