{
  "AcquisitionMatrixPE": 104,
  "AcquisitionNumber": 1,
  "AcquisitionTime": "18:02:2.655000",
  "BandwidthPerPixelPhaseEncode": 17.17,
  "BaseResolution": 104,
  "BodyPartExamined": "BRAIN",
  "CoilString": "HC1-7;NC1_2",
  "ConsistencyInfo": "N4_VE11C_LATEST_20160120",
  "ConversionSoftware": "dcm2niix",
  "ConversionSoftwareVersion": "v1.0.20190902",
  "DerivedVendorReportedEchoSpacing": 0.000560011,
  "DeviceSerialNumber": "167006",
  "DwellTime": 2.1e-06,
  "EchoTime": 0.037,
  "EchoTrainLength": 104,
  "EffectiveEchoSpacing": 0.000560011,
  "FlipAngle": 52,
  "ImageComments": "Unaliased_MB4_PE3_LB",
  "ImageOrientationPatientDICOM": [0.995008, 0.0746339, 0.0662427, -0.0387461, 0.900671, -0.43277],
  "ImageType": [
    "ORIGINAL",
    "PRIMARY",
    "M",
    "MB",
    "ND",
    "MOSAIC"
],
  "ImagingFrequency": 123.259,
  "InPlanePhaseEncodingDirectionDICOM": "COL",
  "InstitutionAddress": "Chemin_Queen-Mary_4565_Montreal_District_CA_H3W_1W5",
  "InstitutionName": "Institut_Universitaire_de_Geriatrie_de_Montreal",
  "InstitutionalDepartmentName": "Department",
  "MRAcquisitionType": "2D",
  "MagneticFieldStrength": 3,
  "Manufacturer": "Siemens",
  "ManufacturersModelName": "Prisma_fit",
  "Modality": "MR",
  "MultibandAccelerationFactor": 4,
  "PartialFourier": 1,
  "PatientPosition": "HFS",
  "PercentPhaseFOV": 100,
  "PhaseEncodingDirection": "j",
  "PhaseEncodingSteps": 104,
  "PhaseResolution": 1,
  "PixelBandwidth": 2290,
  "ProcedureStepDescription": "memory_things",
  "ProtocolName": "func_task-things_run-5",
  "PulseSequenceDetails": "%CustomerSeq%_cmrr_mbep2d_bold",
  "ReceiveCoilActiveElements": "HC1-7;NC1,2",
  "ReceiveCoilName": "HeadNeck_64",
  "ReconMatrixPE": 104,
  "RepetitionTime": 1.49,
  "SAR": 0.0403804,
  "ScanOptions": "FS",
  "ScanningSequence": "EP",
  "SequenceName": "epfid2d1_104",
  "SequenceVariant": "SK_SS",
  "SeriesDescription": "func_task-things_run-5",
  "SeriesNumber": 22,
  "ShimSetting": [649, -7195, -8817, 624, 74, -44, -57, 3],
  "SliceThickness": 2,
  "SliceTiming": [0, 0.7825, 0.0975, 0.88, 0.195, 0.98, 0.2925, 1.0775, 0.39, 1.175, 0.49, 1.2725, 0.5875, 1.37, 0.685, 0, 0.7825, 0.0975, 0.88, 0.195, 0.98, 0.2925, 1.0775, 0.39, 1.175, 0.49, 1.2725, 0.5875, 1.37, 0.685, 0, 0.7825, 0.0975, 0.88, 0.195, 0.98, 0.2925, 1.0775, 0.39, 1.175, 0.49, 1.2725, 0.5875, 1.37, 0.685, 0, 0.7825, 0.0975, 0.88, 0.195, 0.98, 0.2925, 1.0775, 0.39, 1.175, 0.49, 1.2725, 0.5875, 1.37, 0.685],
  "SoftwareVersions": "syngo_MR_E11",
  "SpacingBetweenSlices": 2,
  "StationName": "MRC35049",
  "TaskName": "things",
  "TotalReadoutTime": 0.0576811,
  "TxRefAmp": 250.849,
  "WipMemBlock": "d6050e47-fe7c-4729-9fa3-2c0d81f6bc5d||Sequence: R016 ve11c/master r/e634e98; Dec 19 2017 11:00:25 by eja",
  "dcmmeta_affine": [
    [-1.9900168180465698, -0.07749225199222565, 0.1839243769645691, 105.2362289428711],
    [-0.14926770329475403, 1.8013427257537842, -0.856086254119873, -51.95201110839844],
    [0.13248538970947266, 0.8655399680137634, 1.798134684562683, -76.97675323486328],
    [0.0, 0.0, 0.0, 1.0]
],
  "dcmmeta_reorient_transform": [
    [0.0, -1.0, 0.0, 103.0],
    [1.0, 0.0, 0.0, 0.0],
    [0.0, 0.0, 1.0, 0.0],
    [0.0, 0.0, 0.0, 1.0]
],
  "dcmmeta_shape": [104, 104, 60, 190],
  "dcmmeta_slice_dim": 2,
  "dcmmeta_version": 0.6,
  "global": {
    "const": {
      "AcquisitionMatrix": [104, 0, 0, 104],
      "AngioFlag": "N",
      "BitsAllocated": 16,
      "BitsStored": 16,
      "BodyPartExamined": "BRAIN",
      "Columns": 832,
      "EchoNumbers": 1,
      "EchoTime": 37.0,
      "EchoTrainLength": 104,
      "FlipAngle": 52.0,
      "HighBit": 15,
      "ImageOrientationPatient": [0.9950083886554, 0.07463385276957, 0.06624269413422, -0.0387461276426, 0.90067134349233, -0.4327699950371],
      "ImagePositionPatient": [-793.41345052181, -843.60846812022, 279.00574326663],
      "ImageType": [
        "ORIGINAL",
        "PRIMARY",
        "M",
        "MB",
        "ND",
        "MOSAIC"
],
      "ImagedNucleus": "1H",
      "ImagingFrequency": 123.258975,
      "InPlanePhaseEncodingDirection": "COL",
      "MRAcquisitionType": "2D",
      "MagneticFieldStrength": 3.0,
      "Manufacturer": "SIEMENS",
      "ManufacturerModelName": "Prisma_fit",
      "Modality": "MR",
      "NumberOfAverages": 1.0,
      "NumberOfPhaseEncodingSteps": 104,
      "PercentPhaseFieldOfView": 100.0,
      "PercentSampling": 100.0,
      "PerformedProcedureStepStartTime": "165704.704000",
      "PhotometricInterpretation": "MONOCHROME2",
      "PixelBandwidth": 2290.0,
      "PixelRepresentation": 0,
      "PixelSpacing": [2.0, 2.0],
      "ProtocolName": "func_task-things_run-5",
      "RepetitionTime": 1490.0,
      "Rows": 832,
      "SAR": 0.04038039416615,
      "SamplesPerPixel": 1,
      "ScanOptions": "FS",
      "ScanningSequence": "EP",
      "SequenceName": "epfid2d1_104",
      "SequenceVariant": [
        "SK",
        "SS"
],
      "SeriesDescription": "func_task-things_run-5",
      "SeriesNumber": 22,
      "SeriesTime": "180335.089000",
      "SliceLocation": -37.291825420387,
      "SliceThickness": 2.0,
      "SmallestImagePixelValue": 0,
      "SoftwareVersions": "syngo MR E11",
      "SpacingBetweenSlices": 2.0000000222661,
      "SpecificCharacterSet": "ISO_IR 100",
      "StudyID": "1",
      "StudyTime": "165704.640000",
      "TransmitCoilName": "Body",
      "VariableFlipAngleFlag": "N",
      "WindowCenterWidthExplanation": "Algo1",
      "dBdt": 0.0},
    "slices": {}
  },
  "time": {
    "samples": {
      "AcquisitionNumber": [1, 2, 3, 4, 5, 6, 7, 8, 9, 10, 11, 12, 13, 14, 15, 16, 17, 18, 19, 20, 21, 22, 23, 24, 25, 26, 27, 28, 29, 30, 31, 32, 33, 34, 35, 36, 37, 38, 39, 40, 41, 42, 43, 44, 45, 46, 47, 48, 49, 50, 51, 52, 53, 54, 55, 56, 57, 58, 59, 60, 61, 62, 63, 64, 65, 66, 67, 68, 69, 70, 71, 72, 73, 74, 75, 76, 77, 78, 79, 80, 81, 82, 83, 84, 85, 86, 87, 88, 89, 90, 91, 92, 93, 94, 95, 96, 97, 98, 99, 100, 101, 102, 103, 104, 105, 106, 107, 108, 109, 110, 111, 112, 113, 114, 115, 116, 117, 118, 119, 120, 121, 122, 123, 124, 125, 126, 127, 128, 129, 130, 131, 132, 133, 134, 135, 136, 137, 138, 139, 140, 141, 142, 143, 144, 145, 146, 147, 148, 149, 150, 151, 152, 153, 154, 155, 156, 157, 158, 159, 160, 161, 162, 163, 164, 165, 166, 167, 168, 169, 170, 171, 172, 173, 174, 175, 176, 177, 178, 179, 180, 181, 182, 183, 184, 185, 186, 187, 188, 189, 190],
      "AcquisitionTime": ["180202.655000", "180204.145000", "180205.635000", "180207.125000", "180208.615000", "180210.105000", "180211.595000", "180213.085000", "180214.575000", "180216.065000", "180217.555000", "180219.045000", "180220.535000", "180222.025000", "180223.515000", "180225.005000", "180226.495000", "180227.985000", "180229.475000", "180230.965000", "180232.455000", "180233.945000", "180235.435000", "180236.925000", "180238.415000", "180239.905000", "180241.395000", "180242.885000", "180244.375000", "180245.865000", "180247.355000", "180248.845000", "180250.335000", "180251.825000", "180253.315000", "180254.805000", "180256.295000", "180257.785000", "180259.275000", "180300.765000", "180302.255000", "180303.745000", "180305.235000", "180306.725000", "180308.215000", "180309.705000", "180311.195000", "180312.685000", "180314.175000", "180315.665000", "180317.155000", "180318.645000", "180320.135000", "180321.625000", "180323.115000", "180324.605000", "180326.095000", "180327.585000", "180329.075000", "180330.565000", "180332.055000", "180333.545000", "180335.035000", "180336.525000", "180338.015000", "180339.505000", "180340.995000", "180342.485000", "180343.975000", "180345.465000", "180346.955000", "180348.445000", "180349.935000", "180351.425000", "180352.915000", "180354.405000", "180355.895000", "180357.385000", "180358.875000", "180400.365000", "180401.855000", "180403.345000", "180404.835000", "180406.325000", "180407.815000", "180409.305000", "180410.795000", "180412.285000", "180413.775000", "180415.265000", "180416.755000", "180418.245000", "180419.735000", "180421.225000", "180422.715000", "180424.205000", "180425.695000", "180427.185000", "180428.675000", "180430.165000", "180431.655000", "180433.145000", "180434.635000", "180436.125000", "180437.615000", "180439.105000", "180440.595000", "180442.085000", "180443.575000", "180445.065000", "180446.555000", "180448.045000", "180449.535000", "180451.025000", "180452.515000", "180454.005000", "180455.495000", "180456.985000", "180458.475000", "180459.965000", "180501.455000", "180502.945000", "180504.435000", "180505.925000", "180507.415000", "180508.905000", "180510.395000", "180511.885000", "180513.375000", "180514.865000", "180516.355000", "180517.845000", "180519.335000", "180520.825000", "180522.315000", "180523.805000", "180525.295000", "180526.785000", "180528.275000", "180529.765000", "180531.255000", "180532.745000", "180534.235000", "180535.725000", "180537.215000", "180538.705000", "180540.195000", "180541.685000", "180543.175000", "180544.665000", "180546.155000", "180547.645000", "180549.135000", "180550.625000", "180552.115000", "180553.605000", "180555.095000", "180556.585000", "180558.075000", "180559.565000", "180601.055000", "180602.545000", "180604.035000", "180605.525000", "180607.015000", "180608.505000", "180609.995000", "180611.485000", "180612.975000", "180614.465000", "180615.955000", "180617.445000", "180618.935000", "180620.425000", "180621.915000", "180623.405000", "180624.895000", "180626.385000", "180627.875000", "180629.365000", "180630.855000", "180632.345000", "180633.835000", "180635.325000", "180636.815000", "180638.305000", "180639.795000", "180641.285000", "180642.775000", "180644.265000"],
      "ContentTime": ["180335.092000", "180335.096000", "180335.100000", "180335.104000", "180335.107000", "180335.110000", "180335.114000", "180335.117000", "180335.121000", "180335.124000", "180335.128000", "180335.131000", "180335.134000", "180335.138000", "180335.141000", "180335.145000", "180335.148000", "180335.151000", "180335.155000", "180335.159000", "180335.162000", "180335.171000", "180335.175000", "180335.178000", "180335.181000", "180335.185000", "180335.188000", "180335.192000", "180335.195000", "180335.198000", "180335.211000", "180335.214000", "180335.217000", "180335.221000", "180335.224000", "180335.227000", "180335.231000", "180335.234000", "180355.051000", "180355.055000", "180355.058000", "180355.062000", "180355.065000", "180355.069000", "180355.072000", "180355.075000", "180355.079000", "180355.082000", "180355.086000", "180355.089000", "180355.093000", "180355.096000", "180355.100000", "180355.103000", "180355.107000", "180355.110000", "180355.113000", "180355.117000", "180355.120000", "180415.050000", "180415.054000", "180415.058000", "180415.061000", "180415.064000", "180415.068000", "180415.071000", "180415.075000", "180415.078000", "180415.081000", "180415.085000", "180415.088000", "180415.091000", "180415.095000", "180415.098000", "180415.102000", "180415.105000", "180415.108000", "180415.112000", "180415.115000", "180435.050000", "180435.055000", "180435.059000", "180435.062000", "180435.066000", "180435.069000", "180435.073000", "180435.076000", "180435.079000", "180435.083000", "180435.086000", "180435.090000", "180435.093000", "180435.097000", "180435.100000", "180435.104000", "180435.107000", "180435.111000", "180435.114000", "180435.118000", "180515.051000", "180515.055000", "180515.059000", "180515.062000", "180515.065000", "180515.069000", "180515.072000", "180515.076000", "180515.079000", "180515.082000", "180515.086000", "180515.089000", "180515.093000", "180515.096000", "180515.100000", "180515.103000", "180515.107000", "180515.110000", "180515.113000", "180515.117000", "180515.120000", "180515.124000", "180515.127000", "180515.131000", "180515.134000", "180515.137000", "180515.154000", "180515.157000", "180515.161000", "180555.052000", "180555.055000", "180555.059000", "180555.062000", "180555.065000", "180555.069000", "180555.072000", "180555.076000", "180555.079000", "180555.083000", "180555.086000", "180555.090000", "180555.093000", "180555.096000", "180555.100000", "180555.103000", "180555.107000", "180555.110000", "180555.113000", "180555.117000", "180555.120000", "180555.123000", "180555.127000", "180555.130000", "180555.134000", "180555.137000", "180555.140000", "180635.050000", "180635.054000", "180635.058000", "180635.061000", "180635.064000", "180635.068000", "180635.071000", "180635.075000", "180635.078000", "180635.081000", "180635.085000", "180635.088000", "180635.092000", "180635.095000", "180635.098000", "180635.102000", "180635.105000", "180635.109000", "180635.112000", "180635.115000", "180635.119000", "180635.122000", "180635.126000", "180635.129000", "180635.132000", "180635.136000", "180635.139000", "180646.367000", "180646.371000", "180646.375000", "180646.378000", "180646.382000", "180646.385000", "180646.389000", "180646.392000"],
      "InstanceCreationTime": ["180335.092000", "180335.096000", "180335.100000", "180335.104000", "180335.107000", "180335.110000", "180335.114000", "180335.117000", "180335.121000", "180335.124000", "180335.128000", "180335.131000", "180335.134000", "180335.138000", "180335.141000", "180335.145000", "180335.148000", "180335.151000", "180335.155000", "180335.159000", "180335.162000", "180335.171000", "180335.175000", "180335.178000", "180335.181000", "180335.185000", "180335.188000", "180335.192000", "180335.195000", "180335.198000", "180335.211000", "180335.214000", "180335.217000", "180335.221000", "180335.224000", "180335.227000", "180335.231000", "180335.234000", "180355.051000", "180355.055000", "180355.058000", "180355.062000", "180355.065000", "180355.069000", "180355.072000", "180355.075000", "180355.079000", "180355.082000", "180355.086000", "180355.089000", "180355.093000", "180355.096000", "180355.100000", "180355.103000", "180355.107000", "180355.110000", "180355.113000", "180355.117000", "180355.120000", "180415.050000", "180415.054000", "180415.058000", "180415.061000", "180415.064000", "180415.068000", "180415.071000", "180415.075000", "180415.078000", "180415.081000", "180415.085000", "180415.088000", "180415.091000", "180415.095000", "180415.098000", "180415.102000", "180415.105000", "180415.108000", "180415.112000", "180415.115000", "180435.050000", "180435.055000", "180435.059000", "180435.062000", "180435.066000", "180435.069000", "180435.073000", "180435.076000", "180435.079000", "180435.083000", "180435.086000", "180435.090000", "180435.093000", "180435.097000", "180435.100000", "180435.104000", "180435.107000", "180435.111000", "180435.114000", "180435.118000", "180515.051000", "180515.055000", "180515.059000", "180515.062000", "180515.065000", "180515.069000", "180515.072000", "180515.076000", "180515.079000", "180515.082000", "180515.086000", "180515.089000", "180515.093000", "180515.096000", "180515.100000", "180515.103000", "180515.107000", "180515.110000", "180515.113000", "180515.117000", "180515.120000", "180515.124000", "180515.127000", "180515.131000", "180515.134000", "180515.137000", "180515.154000", "180515.157000", "180515.161000", "180555.052000", "180555.055000", "180555.059000", "180555.062000", "180555.065000", "180555.069000", "180555.072000", "180555.076000", "180555.079000", "180555.083000", "180555.086000", "180555.090000", "180555.093000", "180555.096000", "180555.100000", "180555.103000", "180555.107000", "180555.110000", "180555.113000", "180555.117000", "180555.120000", "180555.123000", "180555.127000", "180555.130000", "180555.134000", "180555.137000", "180555.140000", "180635.050000", "180635.054000", "180635.058000", "180635.061000", "180635.064000", "180635.068000", "180635.071000", "180635.075000", "180635.078000", "180635.081000", "180635.085000", "180635.088000", "180635.092000", "180635.095000", "180635.098000", "180635.102000", "180635.105000", "180635.109000", "180635.112000", "180635.115000", "180635.119000", "180635.122000", "180635.126000", "180635.129000", "180635.132000", "180635.136000", "180635.139000", "180646.367000", "180646.371000", "180646.375000", "180646.378000", "180646.382000", "180646.385000", "180646.389000", "180646.392000"],
      "InstanceNumber": [1, 2, 3, 4, 5, 6, 7, 8, 9, 10, 11, 12, 13, 14, 15, 16, 17, 18, 19, 20, 21, 22, 23, 24, 25, 26, 27, 28, 29, 30, 31, 32, 33, 34, 35, 36, 37, 38, 39, 40, 41, 42, 43, 44, 45, 46, 47, 48, 49, 50, 51, 52, 53, 54, 55, 56, 57, 58, 59, 60, 61, 62, 63, 64, 65, 66, 67, 68, 69, 70, 71, 72, 73, 74, 75, 76, 77, 78, 79, 80, 81, 82, 83, 84, 85, 86, 87, 88, 89, 90, 91, 92, 93, 94, 95, 96, 97, 98, 99, 100, 101, 102, 103, 104, 105, 106, 107, 108, 109, 110, 111, 112, 113, 114, 115, 116, 117, 118, 119, 120, 121, 122, 123, 124, 125, 126, 127, 128, 129, 130, 131, 132, 133, 134, 135, 136, 137, 138, 139, 140, 141, 142, 143, 144, 145, 146, 147, 148, 149, 150, 151, 152, 153, 154, 155, 156, 157, 158, 159, 160, 161, 162, 163, 164, 165, 166, 167, 168, 169, 170, 171, 172, 173, 174, 175, 176, 177, 178, 179, 180, 181, 182, 183, 184, 185, 186, 187, 188, 189, 190],
      "LargestImagePixelValue": [46091, 44661, 44097, 44845, 47027, 44259, 44347, 44241, 43440, 43667, 42576, 43125, 43670, 44325, 44697, 44283, 43870, 43947, 44282, 44192, 44281, 44731, 44593, 44411, 43191, 43097, 43640, 44991, 44130, 42402, 42731, 45687, 46058, 46256, 44518, 43010, 43727, 43505, 43021, 42617, 44740, 43290, 43108, 43910, 43357, 44768, 42878, 43945, 43890, 44047, 43379, 43433, 42859, 42478, 43147, 43792, 43385, 43026, 43398, 42268, 42753, 43454, 43853, 42787, 42502, 42712, 43529, 42785, 43010, 42824, 42592, 42284, 43901, 43989, 43595, 43502, 42995, 42571, 42256, 42860, 42804, 42257, 43317, 43608, 43244, 43524, 43365, 42904, 43495, 43222, 43322, 43444, 43350, 42989, 43440, 42974, 43255, 44160, 43581, 43608, 43211, 42992, 42677, 43248, 43363, 43810, 44106, 44343, 43773, 43415, 43582, 42601, 44423, 44167, 44029, 43625, 44214, 43479, 43718, 43966, 44395, 43256, 43476, 43529, 43425, 43675, 43195, 43677, 44236, 43414, 43420, 43308, 42926, 42720, 42622, 45413, 44968, 44757, 44123, 43091, 42932, 43009, 43769, 44721, 44008, 44790, 43054, 44661, 45631, 45405, 44930, 44334, 42499, 43986, 43875, 43534, 44082, 44621, 44501, 44861, 44313, 43590, 44099, 43723, 44517, 44269, 43285, 42479, 43142, 43139, 44383, 43479, 43552, 43431, 42689, 43386, 43697, 43001, 43673, 42872, 43144, 42935, 42743, 43352, 43357, 43533, 43070, 43019, 42521, 42854],
      "WindowCenter": [10650.0, 10597.0, 10580.0, 10597.0, 10618.0, 10575.0, 10575.0, 10573.0, 10560.0, 10554.0, 10559.0, 10583.0, 10581.0, 10590.0, 10581.0, 10568.0, 10550.0, 10537.0, 10563.0, 10575.0, 10575.0, 10565.0, 10548.0, 10536.0, 10536.0, 10562.0, 10582.0, 10595.0, 10566.0, 10537.0, 10542.0, 10562.0, 10560.0, 10559.0, 10551.0, 10552.0, 10556.0, 10548.0, 10536.0, 10526.0, 10540.0, 10529.0, 10554.0, 10566.0, 10550.0, 10559.0, 10534.0, 10551.0, 10561.0, 10560.0, 10544.0, 10544.0, 10554.0, 10560.0, 10569.0, 10578.0, 10573.0, 10552.0, 10546.0, 10529.0, 10531.0, 10534.0, 10549.0, 10532.0, 10521.0, 10520.0, 10540.0, 10545.0, 10544.0, 10539.0, 10540.0, 10533.0, 10559.0, 10559.0, 10561.0, 10560.0, 10542.0, 10533.0, 10524.0, 10522.0, 10529.0, 10517.0, 10517.0, 10540.0, 10561.0, 10562.0, 10537.0, 10514.0, 10509.0, 10504.0, 10495.0, 10494.0, 10500.0, 10506.0, 10521.0, 10514.0, 10535.0, 10573.0, 10570.0, 10549.0, 10523.0, 10512.0, 10503.0, 10514.0, 10522.0, 10530.0, 10519.0, 10518.0, 10517.0, 10510.0, 10513.0, 10500.0, 10516.0, 10533.0, 10549.0, 10522.0, 10526.0, 10508.0, 10509.0, 10514.0, 10564.0, 10569.0, 10542.0, 10518.0, 10507.0, 10505.0, 10490.0, 10501.0, 10539.0, 10542.0, 10550.0, 10537.0, 10522.0, 10514.0, 10510.0, 10549.0, 10560.0, 10553.0, 10541.0, 10526.0, 10515.0, 10512.0, 10513.0, 10531.0, 10521.0, 10534.0, 10517.0, 10547.0, 10579.0, 10569.0, 10537.0, 10512.0, 10479.0, 10492.0, 10492.0, 10498.0, 10523.0, 10531.0, 10535.0, 10537.0, 10541.0, 10537.0, 10540.0, 10537.0, 10554.0, 10553.0, 10546.0, 10543.0, 10546.0, 10556.0, 10586.0, 10566.0, 10538.0, 10520.0, 10501.0, 10506.0, 10519.0, 10527.0, 10532.0, 10522.0, 10500.0, 10493.0, 10497.0, 10498.0, 10531.0, 10533.0, 10518.0, 10497.0, 10494.0, 10487.0],
      "WindowWidth": [22683.0, 22539.0, 22489.0, 22525.0, 22575.0, 22471.0, 22468.0, 22463.0, 22437.0, 22423.0, 22439.0, 22493.0, 22489.0, 22508.0, 22483.0, 22456.0, 22414.0, 22380.0, 22441.0, 22472.0, 22468.0, 22446.0, 22409.0, 22376.0, 22382.0, 22446.0, 22499.0, 22521.0, 22457.0, 22395.0, 22404.0, 22440.0, 22431.0, 22428.0, 22412.0, 22425.0, 22434.0, 22415.0, 22390.0, 22368.0, 22390.0, 22369.0, 22429.0, 22451.0, 22417.0, 22438.0, 22384.0, 22422.0, 22446.0, 22442.0, 22403.0, 22406.0, 22431.0, 22446.0, 22467.0, 22483.0, 22473.0, 22428.0, 22406.0, 22372.0, 22373.0, 22377.0, 22413.0, 22377.0, 22350.0, 22348.0, 22397.0, 22412.0, 22404.0, 22396.0, 22397.0, 22380.0, 22436.0, 22437.0, 22447.0, 22444.0, 22407.0, 22384.0, 22359.0, 22353.0, 22370.0, 22346.0, 22341.0, 22393.0, 22448.0, 22453.0, 22390.0, 22337.0, 22320.0, 22308.0, 22286.0, 22287.0, 22299.0, 22317.0, 22350.0, 22334.0, 22386.0, 22474.0, 22469.0, 22420.0, 22357.0, 22328.0, 22310.0, 22332.0, 22352.0, 22369.0, 22341.0, 22340.0, 22337.0, 22323.0, 22336.0, 22303.0, 22337.0, 22382.0, 22415.0, 22355.0, 22361.0, 22315.0, 22320.0, 22326.0, 22445.0, 22464.0, 22396.0, 22341.0, 22315.0, 22311.0, 22275.0, 22300.0, 22391.0, 22402.0, 22420.0, 22389.0, 22353.0, 22336.0, 22324.0, 22405.0, 22440.0, 22425.0, 22400.0, 22366.0, 22338.0, 22328.0, 22324.0, 22363.0, 22348.0, 22374.0, 22347.0, 22409.0, 22485.0, 22463.0, 22390.0, 22324.0, 22252.0, 22278.0, 22279.0, 22293.0, 22349.0, 22372.0, 22376.0, 22386.0, 22401.0, 22389.0, 22394.0, 22391.0, 22426.0, 22429.0, 22412.0, 22410.0, 22415.0, 22437.0, 22504.0, 22457.0, 22387.0, 22349.0, 22307.0, 22313.0, 22342.0, 22367.0, 22374.0, 22361.0, 22300.0, 22286.0, 22295.0, 22300.0, 22385.0, 22385.0, 22345.0, 22298.0, 22290.0, 22274.0]
    },
    "slices": {}
  }
}