{
  "AcquisitionMatrixPE": 104,
  "AcquisitionNumber": 1,
  "AcquisitionTime": "17:55:50.712500",
  "BandwidthPerPixelPhaseEncode": 17.17,
  "BaseResolution": 104,
  "BodyPartExamined": "BRAIN",
  "CoilString": "HC1-7;NC1_2",
  "ConsistencyInfo": "N4_VE11C_LATEST_20160120",
  "ConversionSoftware": "dcm2niix",
  "ConversionSoftwareVersion": "v1.0.20190902",
  "DerivedVendorReportedEchoSpacing": 0.000560011,
  "DeviceSerialNumber": "167006",
  "DwellTime": 2.1e-06,
  "EchoTime": 0.037,
  "EchoTrainLength": 104,
  "EffectiveEchoSpacing": 0.000560011,
  "FlipAngle": 52,
  "ImageComments": "Unaliased_MB4_PE3_LB",
  "ImageOrientationPatientDICOM": [0.995008, 0.0746339, 0.0662427, -0.0387461, 0.900671, -0.43277],
  "ImageType": [
    "ORIGINAL",
    "PRIMARY",
    "P",
    "MB",
    "ND",
    "MOSAIC"
],
  "ImagingFrequency": 123.259,
  "InPlanePhaseEncodingDirectionDICOM": "COL",
  "InstitutionAddress": "Chemin_Queen-Mary_4565_Montreal_District_CA_H3W_1W5",
  "InstitutionName": "Institut_Universitaire_de_Geriatrie_de_Montreal",
  "InstitutionalDepartmentName": "Department",
  "MRAcquisitionType": "2D",
  "MagneticFieldStrength": 3,
  "Manufacturer": "Siemens",
  "ManufacturersModelName": "Prisma_fit",
  "Modality": "MR",
  "MultibandAccelerationFactor": 4,
  "PartialFourier": 1,
  "PatientPosition": "HFS",
  "PercentPhaseFOV": 100,
  "PhaseEncodingDirection": "j",
  "PhaseEncodingSteps": 104,
  "PhaseResolution": 1,
  "PixelBandwidth": 2290,
  "ProcedureStepDescription": "memory_things",
  "ProtocolName": "func_task-things_run-4",
  "PulseSequenceDetails": "%CustomerSeq%_cmrr_mbep2d_bold",
  "ReceiveCoilActiveElements": "HC1-7;NC1,2",
  "ReceiveCoilName": "HeadNeck_64",
  "ReconMatrixPE": 104,
  "RepetitionTime": 1.49,
  "SAR": 0.0403804,
  "ScanOptions": "FS",
  "ScanningSequence": "EP",
  "SequenceName": "epfid2d1_104",
  "SequenceVariant": "SK_SS",
  "SeriesDescription": "func_task-things_run-4",
  "SeriesNumber": 20,
  "ShimSetting": [649, -7195, -8817, 624, 74, -44, -57, 3],
  "SliceThickness": 2,
  "SliceTiming": [0, 0.7825, 0.0975, 0.88, 0.195, 0.98, 0.2925, 1.0775, 0.39, 1.175, 0.49, 1.2725, 0.5875, 1.37, 0.685, 0, 0.7825, 0.0975, 0.88, 0.195, 0.98, 0.2925, 1.0775, 0.39, 1.175, 0.49, 1.2725, 0.5875, 1.37, 0.685, 0, 0.7825, 0.0975, 0.88, 0.195, 0.98, 0.2925, 1.0775, 0.39, 1.175, 0.49, 1.2725, 0.5875, 1.37, 0.685, 0, 0.7825, 0.0975, 0.88, 0.195, 0.98, 0.2925, 1.0775, 0.39, 1.175, 0.49, 1.2725, 0.5875, 1.37, 0.685],
  "SoftwareVersions": "syngo_MR_E11",
  "SpacingBetweenSlices": 2,
  "StationName": "MRC35049",
  "TaskName": "things",
  "TotalReadoutTime": 0.0576811,
  "TxRefAmp": 250.849,
  "WipMemBlock": "be53bfcb-fcab-43e5-876e-25f6d6f6c841||Sequence: R016 ve11c/master r/e634e98; Dec 19 2017 11:00:25 by eja",
  "dcmmeta_affine": [
    [-1.9900168180465698, -0.07749225199222565, 0.1839243769645691, 105.2362289428711],
    [-0.14926770329475403, 1.8013427257537842, -0.856086254119873, -51.95201110839844],
    [0.13248538970947266, 0.8655399680137634, 1.798134684562683, -76.97675323486328],
    [0.0, 0.0, 0.0, 1.0]
],
  "dcmmeta_reorient_transform": [
    [0.0, -1.0, 0.0, 103.0],
    [1.0, 0.0, 0.0, 0.0],
    [0.0, 0.0, 1.0, 0.0],
    [0.0, 0.0, 0.0, 1.0]
],
  "dcmmeta_shape": [104, 104, 60, 190],
  "dcmmeta_slice_dim": 2,
  "dcmmeta_version": 0.6,
  "global": {
    "const": {
      "AcquisitionMatrix": [104, 0, 0, 104],
      "AngioFlag": "N",
      "BitsAllocated": 16,
      "BitsStored": 16,
      "BodyPartExamined": "BRAIN",
      "Columns": 832,
      "EchoNumbers": 1,
      "EchoTime": 37.0,
      "EchoTrainLength": 104,
      "FlipAngle": 52.0,
      "HighBit": 15,
      "ImageOrientationPatient": [0.9950083886554, 0.07463385276957, 0.06624269413422, -0.0387461276426, 0.90067134349233, -0.4327699950371],
      "ImagePositionPatient": [-793.41345052181, -843.60846812022, 279.00574326663],
      "ImageType": [
        "ORIGINAL",
        "PRIMARY",
        "P",
        "MB",
        "ND",
        "MOSAIC"
],
      "ImagedNucleus": "1H",
      "ImagingFrequency": 123.258973,
      "InPlanePhaseEncodingDirection": "COL",
      "LargestImagePixelValue": 4095,
      "MRAcquisitionType": "2D",
      "MagneticFieldStrength": 3.0,
      "Manufacturer": "SIEMENS",
      "ManufacturerModelName": "Prisma_fit",
      "Modality": "MR",
      "NumberOfAverages": 1.0,
      "NumberOfPhaseEncodingSteps": 104,
      "PercentPhaseFieldOfView": 100.0,
      "PercentSampling": 100.0,
      "PerformedProcedureStepStartTime": "165704.704000",
      "PhotometricInterpretation": "MONOCHROME2",
      "PixelBandwidth": 2290.0,
      "PixelRepresentation": 0,
      "PixelSpacing": [2.0, 2.0],
      "ProtocolName": "func_task-things_run-4",
      "RepetitionTime": 1490.0,
      "RescaleIntercept": -4096.0,
      "RescaleSlope": 2.0,
      "RescaleType": "US",
      "Rows": 832,
      "SAR": 0.04038039416615,
      "SamplesPerPixel": 1,
      "ScanOptions": "FS",
      "ScanningSequence": "EP",
      "SequenceName": "epfid2d1_104",
      "SequenceVariant": [
        "SK",
        "SS"
],
      "SeriesDescription": "func_task-things_run-4",
      "SeriesNumber": 20,
      "SeriesTime": "175655.470000",
      "SliceLocation": -37.291825420387,
      "SliceThickness": 2.0,
      "SmallestImagePixelValue": 0,
      "SoftwareVersions": "syngo MR E11",
      "SpacingBetweenSlices": 2.0000000222661,
      "SpecificCharacterSet": "ISO_IR 100",
      "StudyID": "1",
      "StudyTime": "165704.640000",
      "TransmitCoilName": "Body",
      "VariableFlipAngleFlag": "N",
      "WindowCenterWidthExplanation": "Algo1",
      "dBdt": 0.0},
    "slices": {}
  },
  "time": {
    "samples": {
      "AcquisitionNumber": [1, 2, 3, 4, 5, 6, 7, 8, 9, 10, 11, 12, 13, 14, 15, 16, 17, 18, 19, 20, 21, 22, 23, 24, 25, 26, 27, 28, 29, 30, 31, 32, 33, 34, 35, 36, 37, 38, 39, 40, 41, 42, 43, 44, 45, 46, 47, 48, 49, 50, 51, 52, 53, 54, 55, 56, 57, 58, 59, 60, 61, 62, 63, 64, 65, 66, 67, 68, 69, 70, 71, 72, 73, 74, 75, 76, 77, 78, 79, 80, 81, 82, 83, 84, 85, 86, 87, 88, 89, 90, 91, 92, 93, 94, 95, 96, 97, 98, 99, 100, 101, 102, 103, 104, 105, 106, 107, 108, 109, 110, 111, 112, 113, 114, 115, 116, 117, 118, 119, 120, 121, 122, 123, 124, 125, 126, 127, 128, 129, 130, 131, 132, 133, 134, 135, 136, 137, 138, 139, 140, 141, 142, 143, 144, 145, 146, 147, 148, 149, 150, 151, 152, 153, 154, 155, 156, 157, 158, 159, 160, 161, 162, 163, 164, 165, 166, 167, 168, 169, 170, 171, 172, 173, 174, 175, 176, 177, 178, 179, 180, 181, 182, 183, 184, 185, 186, 187, 188, 189, 190],
      "AcquisitionTime": ["175550.712500", "175552.202500", "175553.692500", "175555.182500", "175556.672500", "175558.162500", "175559.652500", "175601.142500", "175602.632500", "175604.122500", "175605.612500", "175607.102500", "175608.592500", "175610.082500", "175611.572500", "175613.062500", "175614.552500", "175616.042500", "175617.532500", "175619.022500", "175620.512500", "175622.002500", "175623.492500", "175624.982500", "175626.472500", "175627.962500", "175629.452500", "175630.942500", "175632.432500", "175633.922500", "175635.412500", "175636.902500", "175638.392500", "175639.882500", "175641.372500", "175642.862500", "175644.352500", "175645.842500", "175647.332500", "175648.822500", "175650.312500", "175651.802500", "175653.292500", "175654.782500", "175656.272500", "175657.762500", "175659.252500", "175700.742500", "175702.232500", "175703.722500", "175705.212500", "175706.702500", "175708.192500", "175709.682500", "175711.172500", "175712.662500", "175714.152500", "175715.642500", "175717.132500", "175718.622500", "175720.112500", "175721.602500", "175723.092500", "175724.582500", "175726.072500", "175727.562500", "175729.052500", "175730.542500", "175732.032500", "175733.522500", "175735.012500", "175736.502500", "175737.992500", "175739.482500", "175740.972500", "175742.462500", "175743.952500", "175745.442500", "175746.932500", "175748.422500", "175749.912500", "175751.402500", "175752.892500", "175754.382500", "175755.872500", "175757.362500", "175758.852500", "175800.342500", "175801.832500", "175803.322500", "175804.812500", "175806.302500", "175807.792500", "175809.282500", "175810.772500", "175812.262500", "175813.752500", "175815.242500", "175816.732500", "175818.222500", "175819.712500", "175821.202500", "175822.692500", "175824.182500", "175825.672500", "175827.162500", "175828.652500", "175830.142500", "175831.632500", "175833.122500", "175834.612500", "175836.102500", "175837.592500", "175839.082500", "175840.572500", "175842.062500", "175843.552500", "175845.042500", "175846.532500", "175848.022500", "175849.512500", "175851.002500", "175852.492500", "175853.982500", "175855.472500", "175856.962500", "175858.452500", "175859.942500", "175901.432500", "175902.922500", "175904.412500", "175905.902500", "175907.392500", "175908.882500", "175910.372500", "175911.862500", "175913.352500", "175914.842500", "175916.332500", "175917.822500", "175919.312500", "175920.802500", "175922.292500", "175923.782500", "175925.272500", "175926.762500", "175928.252500", "175929.742500", "175931.232500", "175932.722500", "175934.212500", "175935.702500", "175937.192500", "175938.682500", "175940.172500", "175941.662500", "175943.152500", "175944.642500", "175946.132500", "175947.622500", "175949.112500", "175950.602500", "175952.092500", "175953.582500", "175955.072500", "175956.562500", "175958.052500", "175959.542500", "180001.032500", "180002.522500", "180004.012500", "180005.502500", "180006.992500", "180008.482500", "180009.972500", "180011.462500", "180012.952500", "180014.442500", "180015.932500", "180017.422500", "180018.912500", "180020.402500", "180021.892500", "180023.382500", "180024.872500", "180026.362500", "180027.852500", "180029.342500", "180030.832500", "180032.322500"],
      "ContentTime": ["175655.472000", "175655.475000", "175655.477000", "175655.480000", "175655.482000", "175655.485000", "175655.495000", "175655.497000", "175655.500000", "175655.503000", "175655.505000", "175715.464000", "175715.467000", "175715.469000", "175715.472000", "175715.474000", "175715.477000", "175715.479000", "175715.482000", "175715.484000", "175715.487000", "175715.490000", "175715.492000", "175715.495000", "175715.497000", "175715.500000", "175715.503000", "175715.505000", "175715.507000", "175715.510000", "175715.513000", "175715.515000", "175735.452000", "175735.454000", "175735.457000", "175735.460000", "175735.462000", "175735.465000", "175735.467000", "175735.470000", "175735.472000", "175735.475000", "175735.477000", "175735.480000", "175735.482000", "175735.485000", "175735.487000", "175735.490000", "175735.492000", "175735.495000", "175735.498000", "175735.500000", "175755.457000", "175755.460000", "175755.462000", "175755.465000", "175755.468000", "175755.471000", "175755.473000", "175755.476000", "175755.478000", "175755.481000", "175755.483000", "175755.486000", "175755.489000", "175755.491000", "175755.494000", "175755.496000", "175755.499000", "175755.501000", "175755.504000", "175755.507000", "175815.473000", "175815.476000", "175815.479000", "175815.481000", "175815.484000", "175815.486000", "175815.489000", "175815.491000", "175815.494000", "175815.496000", "175815.499000", "175815.502000", "175815.504000", "175815.507000", "175815.509000", "175815.512000", "175815.514000", "175815.517000", "175815.520000", "175815.522000", "175815.525000", "175855.504000", "175855.507000", "175855.510000", "175855.512000", "175855.515000", "175855.517000", "175855.520000", "175855.522000", "175855.525000", "175855.527000", "175855.530000", "175855.532000", "175855.535000", "175855.537000", "175855.540000", "175855.543000", "175855.545000", "175855.548000", "175855.550000", "175855.553000", "175855.555000", "175855.558000", "175855.560000", "175855.563000", "175855.565000", "175855.568000", "175855.571000", "175855.573000", "175855.576000", "175855.579000", "175935.483000", "175935.486000", "175935.488000", "175935.491000", "175935.493000", "175935.496000", "175935.498000", "175935.501000", "175935.503000", "175935.506000", "175935.509000", "175935.511000", "175935.514000", "175935.517000", "175935.519000", "175935.522000", "175935.524000", "175935.527000", "175935.529000", "175935.532000", "175935.534000", "175935.537000", "175935.540000", "175935.542000", "175935.545000", "175935.547000", "175935.550000", "180015.480000", "180015.483000", "180015.486000", "180015.488000", "180015.491000", "180015.493000", "180015.496000", "180015.499000", "180015.501000", "180015.504000", "180015.507000", "180015.509000", "180015.512000", "180015.514000", "180015.517000", "180015.520000", "180015.522000", "180015.525000", "180015.527000", "180015.530000", "180015.533000", "180015.535000", "180015.538000", "180015.540000", "180015.543000", "180015.545000", "180015.548000", "180034.474000", "180034.477000", "180034.480000", "180034.491000", "180034.493000", "180034.496000", "180034.498000", "180034.501000", "180034.504000", "180034.506000", "180034.509000", "180034.512000", "180034.514000"],
      "InstanceCreationTime": ["175655.472000", "175655.475000", "175655.477000", "175655.480000", "175655.482000", "175655.485000", "175655.495000", "175655.497000", "175655.500000", "175655.503000", "175655.505000", "175715.464000", "175715.467000", "175715.469000", "175715.472000", "175715.474000", "175715.477000", "175715.479000", "175715.482000", "175715.484000", "175715.487000", "175715.490000", "175715.492000", "175715.495000", "175715.497000", "175715.500000", "175715.503000", "175715.505000", "175715.507000", "175715.510000", "175715.513000", "175715.515000", "175735.452000", "175735.454000", "175735.457000", "175735.460000", "175735.462000", "175735.465000", "175735.467000", "175735.470000", "175735.472000", "175735.475000", "175735.477000", "175735.480000", "175735.482000", "175735.485000", "175735.487000", "175735.490000", "175735.492000", "175735.495000", "175735.498000", "175735.500000", "175755.457000", "175755.460000", "175755.462000", "175755.465000", "175755.468000", "175755.471000", "175755.473000", "175755.476000", "175755.478000", "175755.481000", "175755.483000", "175755.486000", "175755.489000", "175755.491000", "175755.494000", "175755.496000", "175755.499000", "175755.501000", "175755.504000", "175755.507000", "175815.473000", "175815.476000", "175815.479000", "175815.481000", "175815.484000", "175815.486000", "175815.489000", "175815.491000", "175815.494000", "175815.496000", "175815.499000", "175815.502000", "175815.504000", "175815.507000", "175815.509000", "175815.512000", "175815.514000", "175815.517000", "175815.520000", "175815.522000", "175815.525000", "175855.504000", "175855.507000", "175855.510000", "175855.512000", "175855.515000", "175855.517000", "175855.520000", "175855.522000", "175855.525000", "175855.527000", "175855.530000", "175855.532000", "175855.535000", "175855.537000", "175855.540000", "175855.543000", "175855.545000", "175855.548000", "175855.550000", "175855.553000", "175855.555000", "175855.558000", "175855.560000", "175855.563000", "175855.565000", "175855.568000", "175855.571000", "175855.573000", "175855.576000", "175855.579000", "175935.483000", "175935.486000", "175935.488000", "175935.491000", "175935.493000", "175935.496000", "175935.498000", "175935.501000", "175935.503000", "175935.506000", "175935.509000", "175935.511000", "175935.514000", "175935.517000", "175935.519000", "175935.522000", "175935.524000", "175935.527000", "175935.529000", "175935.532000", "175935.534000", "175935.537000", "175935.540000", "175935.542000", "175935.545000", "175935.547000", "175935.550000", "180015.480000", "180015.483000", "180015.486000", "180015.488000", "180015.491000", "180015.493000", "180015.496000", "180015.499000", "180015.501000", "180015.504000", "180015.507000", "180015.509000", "180015.512000", "180015.514000", "180015.517000", "180015.520000", "180015.522000", "180015.525000", "180015.527000", "180015.530000", "180015.533000", "180015.535000", "180015.538000", "180015.540000", "180015.543000", "180015.545000", "180015.548000", "180034.474000", "180034.477000", "180034.480000", "180034.491000", "180034.493000", "180034.496000", "180034.498000", "180034.501000", "180034.504000", "180034.506000", "180034.509000", "180034.512000", "180034.514000"],
      "InstanceNumber": [1, 2, 3, 4, 5, 6, 7, 8, 9, 10, 11, 12, 13, 14, 15, 16, 17, 18, 19, 20, 21, 22, 23, 24, 25, 26, 27, 28, 29, 30, 31, 32, 33, 34, 35, 36, 37, 38, 39, 40, 41, 42, 43, 44, 45, 46, 47, 48, 49, 50, 51, 52, 53, 54, 55, 56, 57, 58, 59, 60, 61, 62, 63, 64, 65, 66, 67, 68, 69, 70, 71, 72, 73, 74, 75, 76, 77, 78, 79, 80, 81, 82, 83, 84, 85, 86, 87, 88, 89, 90, 91, 92, 93, 94, 95, 96, 97, 98, 99, 100, 101, 102, 103, 104, 105, 106, 107, 108, 109, 110, 111, 112, 113, 114, 115, 116, 117, 118, 119, 120, 121, 122, 123, 124, 125, 126, 127, 128, 129, 130, 131, 132, 133, 134, 135, 136, 137, 138, 139, 140, 141, 142, 143, 144, 145, 146, 147, 148, 149, 150, 151, 152, 153, 154, 155, 156, 157, 158, 159, 160, 161, 162, 163, 164, 165, 166, 167, 168, 169, 170, 171, 172, 173, 174, 175, 176, 177, 178, 179, 180, 181, 182, 183, 184, 185, 186, 187, 188, 189, 190],
      "WindowCenter": [4852.0, 4848.0, 4850.0, 4850.0, 4850.0, 4850.0, 4850.0, 4850.0, 4852.0, 4852.0, 4852.0, 4850.0, 4826.0, 4826.0, 4850.0, 4856.0, 4852.0, 4848.0, 4826.0, 4852.0, 4828.0, 4852.0, 4850.0, 4850.0, 4850.0, 4852.0, 4828.0, 4848.0, 4848.0, 4848.0, 4852.0, 4828.0, 4850.0, 4850.0, 4850.0, 4848.0, 4848.0, 4850.0, 4852.0, 4854.0, 4854.0, 4850.0, 4852.0, 4850.0, 4850.0, 4848.0, 4850.0, 4828.0, 4848.0, 4854.0, 4824.0, 4852.0, 4852.0, 4848.0, 4852.0, 4852.0, 4850.0, 4850.0, 4852.0, 4846.0, 4848.0, 4850.0, 4850.0, 4848.0, 4852.0, 4828.0, 4852.0, 4848.0, 4850.0, 4852.0, 4850.0, 4856.0, 4852.0, 4852.0, 4850.0, 4850.0, 4828.0, 4850.0, 4854.0, 4852.0, 4850.0, 4850.0, 4852.0, 4850.0, 4854.0, 4852.0, 4848.0, 4830.0, 4828.0, 4852.0, 4850.0, 4850.0, 4848.0, 4848.0, 4850.0, 4854.0, 4852.0, 4852.0, 4850.0, 4850.0, 4850.0, 4854.0, 4850.0, 4848.0, 4852.0, 4854.0, 4854.0, 4848.0, 4854.0, 4852.0, 4850.0, 4852.0, 4854.0, 4852.0, 4854.0, 4850.0, 4850.0, 4850.0, 4854.0, 4850.0, 4850.0, 4850.0, 4852.0, 4852.0, 4852.0, 4850.0, 4854.0, 4850.0, 4852.0, 4852.0, 4852.0, 4854.0, 4852.0, 4848.0, 4850.0, 4852.0, 4854.0, 4850.0, 4850.0, 4850.0, 4852.0, 4850.0, 4852.0, 4852.0, 4850.0, 4852.0, 4850.0, 4828.0, 4852.0, 4852.0, 4850.0, 4848.0, 4852.0, 4852.0, 4852.0, 4854.0, 4826.0, 4854.0, 4846.0, 4850.0, 4852.0, 4852.0, 4854.0, 4852.0, 4852.0, 4852.0, 4848.0, 4852.0, 4852.0, 4854.0, 4848.0, 4852.0, 4848.0, 4850.0, 4852.0, 4856.0, 4850.0, 4850.0, 4854.0, 4850.0, 4856.0, 4852.0, 4848.0, 4854.0, 4850.0, 4852.0, 4854.0, 4850.0, 4850.0, 4850.0],
      "WindowWidth": [18640.0, 18632.0, 18642.0, 18638.0, 18636.0, 18628.0, 18632.0, 18636.0, 18638.0, 18638.0, 18630.0, 18636.0, 18606.0, 18604.0, 18632.0, 18630.0, 18626.0, 18628.0, 18604.0, 18636.0, 18610.0, 18636.0, 18622.0, 18630.0, 18634.0, 18634.0, 18598.0, 18630.0, 18626.0, 18632.0, 18634.0, 18608.0, 18632.0, 18632.0, 18634.0, 18630.0, 18634.0, 18636.0, 18630.0, 18638.0, 18640.0, 18634.0, 18634.0, 18636.0, 18632.0, 18634.0, 18624.0, 18598.0, 18632.0, 18638.0, 18598.0, 18634.0, 18636.0, 18632.0, 18634.0, 18632.0, 18632.0, 18632.0, 18634.0, 18630.0, 18632.0, 18632.0, 18630.0, 18636.0, 18630.0, 18600.0, 18636.0, 18634.0, 18632.0, 18636.0, 18636.0, 18638.0, 18626.0, 18626.0, 18632.0, 18632.0, 18604.0, 18632.0, 18632.0, 18632.0, 18630.0, 18634.0, 18628.0, 18630.0, 18632.0, 18628.0, 18630.0, 18606.0, 18602.0, 18636.0, 18628.0, 18634.0, 18628.0, 18632.0, 18634.0, 18632.0, 18628.0, 18632.0, 18626.0, 18632.0, 18632.0, 18632.0, 18632.0, 18628.0, 18630.0, 18630.0, 18632.0, 18630.0, 18634.0, 18628.0, 18630.0, 18626.0, 18634.0, 18632.0, 18628.0, 18632.0, 18622.0, 18630.0, 18630.0, 18628.0, 18634.0, 18628.0, 18626.0, 18632.0, 18632.0, 18632.0, 18628.0, 18628.0, 18628.0, 18636.0, 18626.0, 18630.0, 18636.0, 18630.0, 18632.0, 18634.0, 18638.0, 18628.0, 18630.0, 18630.0, 18636.0, 18632.0, 18632.0, 18630.0, 18632.0, 18626.0, 18628.0, 18602.0, 18632.0, 18630.0, 18632.0, 18626.0, 18628.0, 18632.0, 18630.0, 18636.0, 18604.0, 18632.0, 18624.0, 18628.0, 18634.0, 18632.0, 18636.0, 18628.0, 18626.0, 18632.0, 18624.0, 18626.0, 18634.0, 18638.0, 18626.0, 18628.0, 18628.0, 18628.0, 18630.0, 18634.0, 18634.0, 18636.0, 18634.0, 18630.0, 18636.0, 18632.0, 18622.0, 18630.0, 18632.0, 18636.0, 18634.0, 18630.0, 18632.0, 18632.0]
    },
    "slices": {}
  }
}