{
  "AcquisitionMatrixPE": 104,
  "AcquisitionNumber": 1,
  "AcquisitionTime": "18:08:21.370000",
  "BandwidthPerPixelPhaseEncode": 17.17,
  "BaseResolution": 104,
  "BodyPartExamined": "BRAIN",
  "CoilString": "HC1-7;NC1_2",
  "ConsistencyInfo": "N4_VE11C_LATEST_20160120",
  "ConversionSoftware": "dcm2niix",
  "ConversionSoftwareVersion": "v1.0.20190902",
  "DerivedVendorReportedEchoSpacing": 0.000560011,
  "DeviceSerialNumber": "167006",
  "DwellTime": 2.1e-06,
  "EchoTime": 0.037,
  "EchoTrainLength": 104,
  "EffectiveEchoSpacing": 0.000560011,
  "FlipAngle": 52,
  "ImageComments": "Unaliased_MB4_PE3_LB",
  "ImageOrientationPatientDICOM": [0.995008, 0.0746339, 0.0662427, -0.0387461, 0.900671, -0.43277],
  "ImageType": [
    "ORIGINAL",
    "PRIMARY",
    "M",
    "MB",
    "ND",
    "MOSAIC"
],
  "ImagingFrequency": 123.259,
  "InPlanePhaseEncodingDirectionDICOM": "COL",
  "InstitutionAddress": "Chemin_Queen-Mary_4565_Montreal_District_CA_H3W_1W5",
  "InstitutionName": "Institut_Universitaire_de_Geriatrie_de_Montreal",
  "InstitutionalDepartmentName": "Department",
  "MRAcquisitionType": "2D",
  "MagneticFieldStrength": 3,
  "Manufacturer": "Siemens",
  "ManufacturersModelName": "Prisma_fit",
  "Modality": "MR",
  "MultibandAccelerationFactor": 4,
  "PartialFourier": 1,
  "PatientPosition": "HFS",
  "PercentPhaseFOV": 100,
  "PhaseEncodingDirection": "j",
  "PhaseEncodingSteps": 104,
  "PhaseResolution": 1,
  "PixelBandwidth": 2290,
  "ProcedureStepDescription": "memory_things",
  "ProtocolName": "func_task-things_run-6",
  "PulseSequenceDetails": "%CustomerSeq%_cmrr_mbep2d_bold",
  "ReceiveCoilActiveElements": "HC1-7;NC1,2",
  "ReceiveCoilName": "HeadNeck_64",
  "ReconMatrixPE": 104,
  "RepetitionTime": 1.49,
  "SAR": 0.0403804,
  "ScanOptions": "FS",
  "ScanningSequence": "EP",
  "SequenceName": "epfid2d1_104",
  "SequenceVariant": "SK_SS",
  "SeriesDescription": "func_task-things_run-6",
  "SeriesNumber": 25,
  "ShimSetting": [649, -7195, -8817, 624, 74, -44, -57, 3],
  "SliceThickness": 2,
  "SliceTiming": [0, 0.785, 0.0975, 0.8825, 0.195, 0.98, 0.295, 1.0775, 0.3925, 1.175, 0.49, 1.275, 0.5875, 1.3725, 0.685, 0, 0.785, 0.0975, 0.8825, 0.195, 0.98, 0.295, 1.0775, 0.3925, 1.175, 0.49, 1.275, 0.5875, 1.3725, 0.685, 0, 0.785, 0.0975, 0.8825, 0.195, 0.98, 0.295, 1.0775, 0.3925, 1.175, 0.49, 1.275, 0.5875, 1.3725, 0.685, 0, 0.785, 0.0975, 0.8825, 0.195, 0.98, 0.295, 1.0775, 0.3925, 1.175, 0.49, 1.275, 0.5875, 1.3725, 0.685],
  "SoftwareVersions": "syngo_MR_E11",
  "SpacingBetweenSlices": 2,
  "StationName": "MRC35049",
  "TaskName": "things",
  "TotalReadoutTime": 0.0576811,
  "TxRefAmp": 250.849,
  "WipMemBlock": "e532267c-edff-4693-ac41-387628315d78||Sequence: R016 ve11c/master r/e634e98; Dec 19 2017 11:00:25 by eja",
  "dcmmeta_affine": [
    [-1.9900168180465698, -0.07749225199222565, 0.1839243769645691, 105.2362289428711],
    [-0.14926770329475403, 1.8013427257537842, -0.856086254119873, -51.95201110839844],
    [0.13248538970947266, 0.8655399680137634, 1.798134684562683, -76.97675323486328],
    [0.0, 0.0, 0.0, 1.0]
],
  "dcmmeta_reorient_transform": [
    [0.0, -1.0, 0.0, 103.0],
    [1.0, 0.0, 0.0, 0.0],
    [0.0, 0.0, 1.0, 0.0],
    [0.0, 0.0, 0.0, 1.0]
],
  "dcmmeta_shape": [104, 104, 60, 190],
  "dcmmeta_slice_dim": 2,
  "dcmmeta_version": 0.6,
  "global": {
    "const": {
      "AcquisitionMatrix": [104, 0, 0, 104],
      "AngioFlag": "N",
      "BitsAllocated": 16,
      "BitsStored": 16,
      "BodyPartExamined": "BRAIN",
      "Columns": 832,
      "EchoNumbers": 1,
      "EchoTime": 37.0,
      "EchoTrainLength": 104,
      "FlipAngle": 52.0,
      "HighBit": 15,
      "ImageOrientationPatient": [0.9950083886554, 0.07463385276957, 0.06624269413422, -0.0387461276426, 0.90067134349233, -0.4327699950371],
      "ImagePositionPatient": [-793.41345052181, -843.60846812022, 279.00574326663],
      "ImageType": [
        "ORIGINAL",
        "PRIMARY",
        "M",
        "MB",
        "ND",
        "MOSAIC"
],
      "ImagedNucleus": "1H",
      "ImagingFrequency": 123.258979,
      "InPlanePhaseEncodingDirection": "COL",
      "MRAcquisitionType": "2D",
      "MagneticFieldStrength": 3.0,
      "Manufacturer": "SIEMENS",
      "ManufacturerModelName": "Prisma_fit",
      "Modality": "MR",
      "NumberOfAverages": 1.0,
      "NumberOfPhaseEncodingSteps": 104,
      "PercentPhaseFieldOfView": 100.0,
      "PercentSampling": 100.0,
      "PerformedProcedureStepStartTime": "165704.704000",
      "PhotometricInterpretation": "MONOCHROME2",
      "PixelBandwidth": 2290.0,
      "PixelRepresentation": 0,
      "PixelSpacing": [2.0, 2.0],
      "ProtocolName": "func_task-things_run-6",
      "RepetitionTime": 1490.0,
      "Rows": 832,
      "SAR": 0.04038039416615,
      "SamplesPerPixel": 1,
      "ScanOptions": "FS",
      "ScanningSequence": "EP",
      "SequenceName": "epfid2d1_104",
      "SequenceVariant": [
        "SK",
        "SS"
],
      "SeriesDescription": "func_task-things_run-6",
      "SeriesNumber": 25,
      "SeriesTime": "180937.476000",
      "SliceLocation": -37.291825420387,
      "SliceThickness": 2.0,
      "SmallestImagePixelValue": 0,
      "SoftwareVersions": "syngo MR E11",
      "SpacingBetweenSlices": 2.0000000222661,
      "SpecificCharacterSet": "ISO_IR 100",
      "StudyID": "1",
      "StudyTime": "165704.640000",
      "TransmitCoilName": "Body",
      "VariableFlipAngleFlag": "N",
      "WindowCenterWidthExplanation": "Algo1",
      "dBdt": 0.0},
    "slices": {}
  },
  "time": {
    "samples": {
      "AcquisitionNumber": [1, 2, 3, 4, 5, 6, 7, 8, 9, 10, 11, 12, 13, 14, 15, 16, 17, 18, 19, 20, 21, 22, 23, 24, 25, 26, 27, 28, 29, 30, 31, 32, 33, 34, 35, 36, 37, 38, 39, 40, 41, 42, 43, 44, 45, 46, 47, 48, 49, 50, 51, 52, 53, 54, 55, 56, 57, 58, 59, 60, 61, 62, 63, 64, 65, 66, 67, 68, 69, 70, 71, 72, 73, 74, 75, 76, 77, 78, 79, 80, 81, 82, 83, 84, 85, 86, 87, 88, 89, 90, 91, 92, 93, 94, 95, 96, 97, 98, 99, 100, 101, 102, 103, 104, 105, 106, 107, 108, 109, 110, 111, 112, 113, 114, 115, 116, 117, 118, 119, 120, 121, 122, 123, 124, 125, 126, 127, 128, 129, 130, 131, 132, 133, 134, 135, 136, 137, 138, 139, 140, 141, 142, 143, 144, 145, 146, 147, 148, 149, 150, 151, 152, 153, 154, 155, 156, 157, 158, 159, 160, 161, 162, 163, 164, 165, 166, 167, 168, 169, 170, 171, 172, 173, 174, 175, 176, 177, 178, 179, 180, 181, 182, 183, 184, 185, 186, 187, 188, 189, 190],
      "AcquisitionTime": ["180821.370000", "180822.860000", "180824.350000", "180825.840000", "180827.330000", "180828.820000", "180830.310000", "180831.800000", "180833.290000", "180834.780000", "180836.270000", "180837.760000", "180839.250000", "180840.740000", "180842.230000", "180843.720000", "180845.210000", "180846.700000", "180848.190000", "180849.680000", "180851.170000", "180852.660000", "180854.150000", "180855.640000", "180857.130000", "180858.620000", "180900.110000", "180901.600000", "180903.090000", "180904.580000", "180906.070000", "180907.560000", "180909.050000", "180910.540000", "180912.030000", "180913.520000", "180915.010000", "180916.500000", "180917.990000", "180919.480000", "180920.970000", "180922.460000", "180923.950000", "180925.440000", "180926.930000", "180928.420000", "180929.910000", "180931.400000", "180932.890000", "180934.380000", "180935.870000", "180937.360000", "180938.850000", "180940.340000", "180941.830000", "180943.320000", "180944.810000", "180946.300000", "180947.790000", "180949.280000", "180950.770000", "180952.260000", "180953.750000", "180955.240000", "180956.730000", "180958.220000", "180959.710000", "181001.200000", "181002.690000", "181004.180000", "181005.670000", "181007.160000", "181008.650000", "181010.140000", "181011.630000", "181013.120000", "181014.610000", "181016.100000", "181017.590000", "181019.080000", "181020.570000", "181022.060000", "181023.550000", "181025.040000", "181026.530000", "181028.020000", "181029.510000", "181031.000000", "181032.490000", "181033.980000", "181035.470000", "181036.960000", "181038.450000", "181039.940000", "181041.430000", "181042.920000", "181044.410000", "181045.900000", "181047.390000", "181048.880000", "181050.370000", "181051.860000", "181053.350000", "181054.840000", "181056.330000", "181057.820000", "181059.310000", "181100.800000", "181102.290000", "181103.780000", "181105.270000", "181106.760000", "181108.250000", "181109.740000", "181111.230000", "181112.720000", "181114.210000", "181115.700000", "181117.190000", "181118.680000", "181120.170000", "181121.660000", "181123.150000", "181124.640000", "181126.130000", "181127.620000", "181129.110000", "181130.600000", "181132.090000", "181133.580000", "181135.070000", "181136.560000", "181138.050000", "181139.540000", "181141.030000", "181142.520000", "181144.010000", "181145.500000", "181146.990000", "181148.480000", "181149.970000", "181151.460000", "181152.950000", "181154.440000", "181155.930000", "181157.420000", "181158.910000", "181200.400000", "181201.890000", "181203.380000", "181204.870000", "181206.360000", "181207.850000", "181209.340000", "181210.830000", "181212.320000", "181213.810000", "181215.300000", "181216.790000", "181218.280000", "181219.770000", "181221.260000", "181222.750000", "181224.240000", "181225.730000", "181227.220000", "181228.710000", "181230.200000", "181231.690000", "181233.180000", "181234.670000", "181236.160000", "181237.650000", "181239.140000", "181240.630000", "181242.120000", "181243.610000", "181245.100000", "181246.590000", "181248.080000", "181249.570000", "181251.060000", "181252.550000", "181254.040000", "181255.530000", "181257.020000", "181258.510000", "181300.000000", "181301.490000", "181302.980000"],
      "ContentTime": ["180937.479000", "180937.483000", "180937.498000", "180937.502000", "180937.505000", "180937.510000", "180937.513000", "180937.517000", "180937.520000", "180937.523000", "180937.527000", "180937.530000", "180937.533000", "180937.537000", "180937.540000", "180937.543000", "180937.547000", "180937.550000", "180937.553000", "180937.557000", "180937.560000", "180937.564000", "180957.435000", "180957.439000", "180957.442000", "180957.455000", "180957.458000", "180957.462000", "180957.465000", "180957.469000", "180957.472000", "180957.475000", "180957.479000", "180957.482000", "180957.485000", "180957.489000", "180957.492000", "180957.495000", "180957.499000", "180957.502000", "180957.505000", "180957.509000", "181017.435000", "181017.441000", "181017.446000", "181017.449000", "181017.452000", "181017.456000", "181017.459000", "181017.463000", "181017.466000", "181017.469000", "181017.473000", "181017.476000", "181017.479000", "181017.483000", "181017.486000", "181017.489000", "181017.493000", "181017.496000", "181017.499000", "181017.503000", "181037.435000", "181037.439000", "181037.447000", "181037.450000", "181037.454000", "181037.457000", "181037.460000", "181037.464000", "181037.467000", "181037.471000", "181037.474000", "181037.477000", "181037.481000", "181037.484000", "181037.488000", "181037.491000", "181037.494000", "181037.498000", "181037.501000", "181037.505000", "181037.508000", "181057.435000", "181057.439000", "181057.442000", "181057.446000", "181057.449000", "181057.453000", "181057.456000", "181057.460000", "181057.463000", "181057.467000", "181057.470000", "181057.473000", "181057.477000", "181057.480000", "181057.484000", "181057.490000", "181057.494000", "181057.498000", "181057.501000", "181057.505000", "181137.436000", "181137.440000", "181137.443000", "181137.447000", "181137.450000", "181137.454000", "181137.457000", "181137.461000", "181137.464000", "181137.467000", "181137.471000", "181137.474000", "181137.478000", "181137.481000", "181137.504000", "181137.508000", "181137.511000", "181137.514000", "181137.518000", "181137.521000", "181137.525000", "181137.528000", "181137.531000", "181137.535000", "181137.538000", "181137.542000", "181137.545000", "181137.549000", "181217.435000", "181217.439000", "181217.443000", "181217.446000", "181217.449000", "181217.453000", "181217.456000", "181217.460000", "181217.463000", "181217.466000", "181217.470000", "181217.473000", "181217.476000", "181217.480000", "181217.483000", "181217.487000", "181217.490000", "181217.493000", "181217.497000", "181217.500000", "181217.503000", "181217.507000", "181217.510000", "181217.513000", "181217.517000", "181217.520000", "181217.524000", "181257.435000", "181257.439000", "181257.442000", "181257.446000", "181257.449000", "181257.452000", "181257.456000", "181257.459000", "181257.463000", "181257.466000", "181257.469000", "181257.473000", "181257.476000", "181257.479000", "181257.483000", "181257.486000", "181257.490000", "181257.493000", "181257.496000", "181257.500000", "181257.503000", "181257.506000", "181257.510000", "181257.513000", "181257.517000", "181257.520000", "181257.523000", "181304.816000", "181304.820000", "181304.823000", "181304.827000", "181304.830000"],
      "InstanceCreationTime": ["180937.479000", "180937.483000", "180937.498000", "180937.502000", "180937.505000", "180937.510000", "180937.513000", "180937.517000", "180937.520000", "180937.523000", "180937.527000", "180937.530000", "180937.533000", "180937.537000", "180937.540000", "180937.543000", "180937.547000", "180937.550000", "180937.553000", "180937.557000", "180937.560000", "180937.564000", "180957.435000", "180957.439000", "180957.442000", "180957.455000", "180957.458000", "180957.462000", "180957.465000", "180957.469000", "180957.472000", "180957.475000", "180957.479000", "180957.482000", "180957.485000", "180957.489000", "180957.492000", "180957.495000", "180957.499000", "180957.502000", "180957.505000", "180957.509000", "181017.435000", "181017.441000", "181017.446000", "181017.449000", "181017.452000", "181017.456000", "181017.459000", "181017.463000", "181017.466000", "181017.469000", "181017.473000", "181017.476000", "181017.479000", "181017.483000", "181017.486000", "181017.489000", "181017.493000", "181017.496000", "181017.499000", "181017.503000", "181037.435000", "181037.439000", "181037.447000", "181037.450000", "181037.454000", "181037.457000", "181037.460000", "181037.464000", "181037.467000", "181037.471000", "181037.474000", "181037.477000", "181037.481000", "181037.484000", "181037.488000", "181037.491000", "181037.494000", "181037.498000", "181037.501000", "181037.505000", "181037.508000", "181057.435000", "181057.439000", "181057.442000", "181057.446000", "181057.449000", "181057.453000", "181057.456000", "181057.460000", "181057.463000", "181057.467000", "181057.470000", "181057.473000", "181057.477000", "181057.480000", "181057.484000", "181057.490000", "181057.494000", "181057.498000", "181057.501000", "181057.505000", "181137.436000", "181137.440000", "181137.443000", "181137.447000", "181137.450000", "181137.454000", "181137.457000", "181137.461000", "181137.464000", "181137.467000", "181137.471000", "181137.474000", "181137.478000", "181137.481000", "181137.504000", "181137.508000", "181137.511000", "181137.514000", "181137.518000", "181137.521000", "181137.525000", "181137.528000", "181137.531000", "181137.535000", "181137.538000", "181137.542000", "181137.545000", "181137.549000", "181217.435000", "181217.439000", "181217.443000", "181217.446000", "181217.449000", "181217.453000", "181217.456000", "181217.460000", "181217.463000", "181217.466000", "181217.470000", "181217.473000", "181217.476000", "181217.480000", "181217.483000", "181217.487000", "181217.490000", "181217.493000", "181217.497000", "181217.500000", "181217.503000", "181217.507000", "181217.510000", "181217.513000", "181217.517000", "181217.520000", "181217.524000", "181257.435000", "181257.439000", "181257.442000", "181257.446000", "181257.449000", "181257.452000", "181257.456000", "181257.459000", "181257.463000", "181257.466000", "181257.469000", "181257.473000", "181257.476000", "181257.479000", "181257.483000", "181257.486000", "181257.490000", "181257.493000", "181257.496000", "181257.500000", "181257.503000", "181257.506000", "181257.510000", "181257.513000", "181257.517000", "181257.520000", "181257.523000", "181304.816000", "181304.820000", "181304.823000", "181304.827000", "181304.830000"],
      "InstanceNumber": [1, 2, 3, 4, 5, 6, 7, 8, 9, 10, 11, 12, 13, 14, 15, 16, 17, 18, 19, 20, 21, 22, 23, 24, 25, 26, 27, 28, 29, 30, 31, 32, 33, 34, 35, 36, 37, 38, 39, 40, 41, 42, 43, 44, 45, 46, 47, 48, 49, 50, 51, 52, 53, 54, 55, 56, 57, 58, 59, 60, 61, 62, 63, 64, 65, 66, 67, 68, 69, 70, 71, 72, 73, 74, 75, 76, 77, 78, 79, 80, 81, 82, 83, 84, 85, 86, 87, 88, 89, 90, 91, 92, 93, 94, 95, 96, 97, 98, 99, 100, 101, 102, 103, 104, 105, 106, 107, 108, 109, 110, 111, 112, 113, 114, 115, 116, 117, 118, 119, 120, 121, 122, 123, 124, 125, 126, 127, 128, 129, 130, 131, 132, 133, 134, 135, 136, 137, 138, 139, 140, 141, 142, 143, 144, 145, 146, 147, 148, 149, 150, 151, 152, 153, 154, 155, 156, 157, 158, 159, 160, 161, 162, 163, 164, 165, 166, 167, 168, 169, 170, 171, 172, 173, 174, 175, 176, 177, 178, 179, 180, 181, 182, 183, 184, 185, 186, 187, 188, 189, 190],
      "LargestImagePixelValue": [46356, 43085, 42501, 44927, 44816, 44029, 44185, 44178, 43612, 43355, 43655, 43281, 43787, 44844, 45237, 45132, 45350, 44670, 43567, 42864, 42241, 42842, 44577, 44745, 44224, 45481, 44523, 44953, 44778, 44758, 44352, 45135, 44966, 44821, 44561, 44371, 44788, 44522, 44574, 44123, 44762, 44413, 45536, 45394, 44634, 43191, 44079, 44065, 43264, 44109, 43461, 43515, 44012, 43168, 43321, 43663, 43208, 43337, 43326, 43296, 43153, 43448, 43921, 43689, 43148, 44161, 43234, 43307, 43128, 43405, 43641, 43873, 43899, 44843, 44707, 43287, 43158, 42527, 43356, 43619, 43719, 43730, 43398, 44041, 43028, 43569, 43742, 43881, 43968, 45060, 44919, 44310, 44003, 43016, 44679, 44847, 43254, 43869, 44223, 44296, 43757, 43147, 43272, 43462, 42876, 43333, 42728, 42552, 42862, 43964, 43696, 43395, 43289, 44869, 44946, 46350, 45402, 44274, 44230, 46329, 46671, 45423, 43737, 44407, 44055, 43884, 43974, 43193, 43128, 43062, 42549, 43181, 42905, 42985, 42665, 42692, 42804, 43089, 43194, 41846, 42851, 44988, 45274, 44663, 44518, 42713, 43185, 46978, 47252, 46780, 45239, 43887, 44255, 43628, 42802, 42616, 44930, 45747, 43040, 44446, 44489, 43773, 43722, 43789, 43980, 44382, 43756, 43520, 43549, 42748, 43434, 44860, 43782, 43323, 43785, 43419, 42820, 44483, 43664, 43334, 43256, 42578, 43522, 42706, 43386, 43024, 43004, 42830, 43321, 42716],
      "WindowCenter": [10576.0, 10535.0, 10550.0, 10580.0, 10574.0, 10565.0, 10558.0, 10550.0, 10538.0, 10523.0, 10522.0, 10523.0, 10523.0, 10551.0, 10567.0, 10565.0, 10550.0, 10529.0, 10519.0, 10512.0, 10510.0, 10512.0, 10525.0, 10551.0, 10547.0, 10543.0, 10517.0, 10515.0, 10545.0, 10551.0, 10534.0, 10529.0, 10526.0, 10519.0, 10508.0, 10500.0, 10517.0, 10529.0, 10521.0, 10527.0, 10544.0, 10545.0, 10559.0, 10558.0, 10526.0, 10492.0, 10482.0, 10492.0, 10514.0, 10526.0, 10523.0, 10506.0, 10508.0, 10495.0, 10496.0, 10501.0, 10509.0, 10506.0, 10505.0, 10501.0, 10504.0, 10508.0, 10526.0, 10534.0, 10531.0, 10550.0, 10542.0, 10518.0, 10506.0, 10502.0, 10496.0, 10498.0, 10512.0, 10533.0, 10525.0, 10494.0, 10494.0, 10504.0, 10520.0, 10525.0, 10502.0, 10504.0, 10495.0, 10516.0, 10521.0, 10517.0, 10510.0, 10511.0, 10521.0, 10544.0, 10546.0, 10529.0, 10517.0, 10498.0, 10528.0, 10536.0, 10520.0, 10526.0, 10539.0, 10548.0, 10533.0, 10520.0, 10520.0, 10541.0, 10547.0, 10558.0, 10544.0, 10521.0, 10522.0, 10561.0, 10584.0, 10562.0, 10539.0, 10543.0, 10555.0, 10577.0, 10561.0, 10532.0, 10528.0, 10542.0, 10532.0, 10514.0, 10499.0, 10523.0, 10543.0, 10529.0, 10519.0, 10509.0, 10533.0, 10539.0, 10528.0, 10540.0, 10536.0, 10533.0, 10528.0, 10511.0, 10517.0, 10538.0, 10532.0, 10498.0, 10504.0, 10540.0, 10558.0, 10565.0, 10555.0, 10518.0, 10499.0, 10505.0, 10519.0, 10524.0, 10522.0, 10528.0, 10535.0, 10532.0, 10513.0, 10511.0, 10532.0, 10551.0, 10542.0, 10552.0, 10535.0, 10511.0, 10508.0, 10531.0, 10544.0, 10571.0, 10556.0, 10534.0, 10511.0, 10500.0, 10516.0, 10544.0, 10539.0, 10529.0, 10531.0, 10537.0, 10531.0, 10527.0, 10505.0, 10495.0, 10515.0, 10516.0, 10546.0, 10529.0, 10515.0, 10503.0, 10503.0, 10512.0, 10523.0, 10509.0],
      "WindowWidth": [22512.0, 22416.0, 22446.0, 22508.0, 22491.0, 22465.0, 22446.0, 22419.0, 22387.0, 22355.0, 22352.0, 22355.0, 22355.0, 22416.0, 22460.0, 22455.0, 22415.0, 22368.0, 22351.0, 22333.0, 22332.0, 22335.0, 22355.0, 22416.0, 22412.0, 22401.0, 22337.0, 22334.0, 22406.0, 22420.0, 22380.0, 22362.0, 22358.0, 22344.0, 22316.0, 22299.0, 22340.0, 22371.0, 22349.0, 22362.0, 22403.0, 22412.0, 22441.0, 22437.0, 22363.0, 22287.0, 22254.0, 22278.0, 22336.0, 22364.0, 22359.0, 22320.0, 22319.0, 22297.0, 22301.0, 22307.0, 22324.0, 22320.0, 22318.0, 22305.0, 22319.0, 22325.0, 22366.0, 22385.0, 22384.0, 22418.0, 22406.0, 22350.0, 22320.0, 22311.0, 22300.0, 22298.0, 22331.0, 22379.0, 22355.0, 22293.0, 22293.0, 22319.0, 22354.0, 22367.0, 22306.0, 22312.0, 22293.0, 22339.0, 22357.0, 22343.0, 22326.0, 22330.0, 22353.0, 22399.0, 22410.0, 22370.0, 22340.0, 22312.0, 22366.0, 22384.0, 22352.0, 22364.0, 22393.0, 22420.0, 22384.0, 22356.0, 22357.0, 22407.0, 22424.0, 22450.0, 22414.0, 22361.0, 22364.0, 22453.0, 22515.0, 22458.0, 22400.0, 22398.0, 22431.0, 22476.0, 22440.0, 22383.0, 22370.0, 22393.0, 22360.0, 22316.0, 22287.0, 22350.0, 22401.0, 22371.0, 22345.0, 22323.0, 22381.0, 22396.0, 22379.0, 22399.0, 22390.0, 22379.0, 22366.0, 22326.0, 22341.0, 22389.0, 22380.0, 22307.0, 22318.0, 22395.0, 22435.0, 22453.0, 22436.0, 22351.0, 22299.0, 22298.0, 22328.0, 22344.0, 22345.0, 22363.0, 22379.0, 22378.0, 22339.0, 22333.0, 22373.0, 22414.0, 22402.0, 22422.0, 22381.0, 22327.0, 22318.0, 22376.0, 22404.0, 22474.0, 22430.0, 22382.0, 22327.0, 22301.0, 22336.0, 22399.0, 22392.0, 22374.0, 22376.0, 22392.0, 22384.0, 22367.0, 22314.0, 22291.0, 22346.0, 22344.0, 22408.0, 22376.0, 22339.0, 22310.0, 22311.0, 22337.0, 22369.0, 22328.0]
    },
    "slices": {}
  }
}