{
  "AcquisitionMatrixPE": 104,
  "AcquisitionNumber": 1,
  "AcquisitionTime": "13:56:27.370000",
  "BandwidthPerPixelPhaseEncode": 17.17,
  "BaseResolution": 104,
  "BodyPartExamined": "BRAIN",
  "CoilCombinationMethod": "Sum of Squares",
  "ConsistencyInfo": "N4_VE11C_LATEST_20160120",
  "ConversionSoftware": "dcm2niix",
  "ConversionSoftwareVersion": "v1.0.20211006",
  "DerivedVendorReportedEchoSpacing": 0.000560011,
  "DeviceSerialNumber": "167006",
  "DwellTime": 2.1e-06,
  "EchoTime": 0.037,
  "EchoTime1": 0.037,
  "EchoTime2": 0.001,
  "EchoTrainLength": 104,
  "EffectiveEchoSpacing": 0.000560011,
  "FlipAngle": 52,
  "HeudiconvVersion": "0.10.0",
  "ImageComments": "Unaliased MB4/PE3/LB",
  "ImageOrientationPatientDICOM": [0.999352, -0.00570858, 0.0355416, 0.0139545, 0.971575, -0.236319],
  "ImageOrientationText": "Tra>Cor(-13.7)>Sag(1.9)",
  "ImageType": [
    "ORIGINAL",
    "PRIMARY",
    "P",
    "MB",
    "ND",
    "MOSAIC",
    "PHASE"
],
  "ImagingFrequency": 123.259,
  "InPlanePhaseEncodingDirectionDICOM": "COL",
  "InstitutionAddress": "Chemin Queen-Mary 4565,Montreal,District,CA,H3W 1W5",
  "InstitutionName": "IUGM",
  "InstitutionalDepartmentName": "Department",
  "MRAcquisitionType": "2D",
  "MagneticFieldStrength": 3,
  "Manufacturer": "Siemens",
  "ManufacturersModelName": "Prisma_fit",
  "MatrixCoilMode": "SENSE",
  "Modality": "MR",
  "MultibandAccelerationFactor": 4,
  "PartialFourier": 1,
  "PatientPosition": "HFS",
  "PercentPhaseFOV": 100,
  "PercentSampling": 100,
  "PhaseEncodingDirection": "j",
  "PhaseEncodingSteps": 104,
  "PhaseResolution": 1,
  "PixelBandwidth": 2290,
  "ProcedureStepDescription": "memory^things",
  "ProtocolName": "func_task-things_run-4",
  "PulseSequenceDetails": "%CustomerSeq%\\cmrr_mbep2d_bold",
  "ReceiveCoilActiveElements": "HC1-7;NC1,2",
  "ReceiveCoilName": "HeadNeck_64",
  "ReconMatrixPE": 104,
  "RepetitionTime": 1.49,
  "SAR": 0.0513107,
  "ScanOptions": "FS",
  "ScanningSequence": "EP",
  "SequenceName": "epfid2d1_104",
  "SequenceVariant": "SK\\SS",
  "SeriesDescription": "func_task-things_run-4",
  "SeriesNumber": 26,
  "ShimSetting": [637, -7217, -8764, 695, 46, -13, 79, -6],
  "SliceThickness": 2,
  "SliceTiming": [0, 0.785, 0.1, 0.8825, 0.1975, 0.98, 0.295, 1.08, 0.3925, 1.1775, 0.49, 1.275, 0.59, 1.3725, 0.6875, 0, 0.785, 0.1, 0.8825, 0.1975, 0.98, 0.295, 1.08, 0.3925, 1.1775, 0.49, 1.275, 0.59, 1.3725, 0.6875, 0, 0.785, 0.1, 0.8825, 0.1975, 0.98, 0.295, 1.08, 0.3925, 1.1775, 0.49, 1.275, 0.59, 1.3725, 0.6875, 0, 0.785, 0.1, 0.8825, 0.1975, 0.98, 0.295, 1.08, 0.3925, 1.1775, 0.49, 1.275, 0.59, 1.3725, 0.6875],
  "SoftwareVersions": "syngo MR E11",
  "SpacingBetweenSlices": 2,
  "StationName": "MRC35049",
  "TaskName": "things",
  "TotalReadoutTime": 0.0576811,
  "TxRefAmp": 237.736,
  "WipMemBlock": "c782323b-3df8-4b48-a8f8-b19276a15b50||Sequence: R016 ve11c/master r/e634e98; Dec 19 2017 11:00:25 by eja",
  "dcmmeta_affine": [
    [-1.9987038373947144, 0.027909021824598312, 0.06636451184749603, 105.70950317382812],
    [0.011417153291404247, 1.943150520324707, -0.4733240604400635, -76.74337005615234],
    [0.07108312845230103, 0.47263845801353455, 1.9420504570007324, -56.8017463684082],
    [0.0, 0.0, 0.0, 1.0]
],
  "dcmmeta_reorient_transform": [
    [0.0, -1.0, 0.0, 103.0],
    [1.0, 0.0, 0.0, 0.0],
    [0.0, 0.0, 1.0, 0.0],
    [0.0, 0.0, 0.0, 1.0]
],
  "dcmmeta_shape": [104, 104, 60, 190],
  "dcmmeta_slice_dim": 2,
  "dcmmeta_version": 0.6,
  "global": {
    "const": {
      "AcquisitionMatrix": [104, 0, 0, 104],
      "AngioFlag": "N",
      "BitsAllocated": 16,
      "BitsStored": 16,
      "BodyPartExamined": "BRAIN",
      "Columns": 832,
      "EchoNumbers": 1,
      "EchoTime": 37.0,
      "EchoTrainLength": 104,
      "FlipAngle": 52.0,
      "HighBit": 15,
      "ImageOrientationPatient": [0.99935189471065, -0.0057085766033, 0.03554156287208, 0.01395451046583, 0.97157526459781, -0.2363192265969],
      "ImagePositionPatient": [-846.27119499123, -826.55208462507, 138.0461521901],
      "ImageType": [
        "ORIGINAL",
        "PRIMARY",
        "P",
        "MB",
        "ND",
        "MOSAIC"
],
      "ImagedNucleus": "1H",
      "ImagingFrequency": 123.259091,
      "InPlanePhaseEncodingDirection": "COL",
      "LargestImagePixelValue": 4095,
      "MRAcquisitionType": "2D",
      "MagneticFieldStrength": 3.0,
      "Manufacturer": "SIEMENS",
      "ManufacturerModelName": "Prisma_fit",
      "Modality": "MR",
      "NumberOfAverages": 1.0,
      "NumberOfPhaseEncodingSteps": 104,
      "PercentPhaseFieldOfView": 100.0,
      "PercentSampling": 100.0,
      "PerformedProcedureStepStartTime": "115124.021000",
      "PhotometricInterpretation": "MONOCHROME2",
      "PixelBandwidth": 2290.0,
      "PixelRepresentation": 0,
      "PixelSpacing": [2.0, 2.0],
      "ProtocolName": "func_task-things_run-4",
      "RepetitionTime": 1490.0,
      "RescaleIntercept": -4096.0,
      "RescaleSlope": 2.0,
      "RescaleType": "US",
      "Rows": 832,
      "SAR": 0.05131074513921,
      "SamplesPerPixel": 1,
      "ScanOptions": "FS",
      "ScanningSequence": "EP",
      "SequenceName": "epfid2d1_104",
      "SequenceVariant": [
        "SK",
        "SS"
],
      "SeriesDescription": "func_task-things_run-4",
      "SeriesNumber": 26,
      "SeriesTime": "135727.737000",
      "SliceLocation": -33.486009311005,
      "SliceThickness": 2.0,
      "SmallestImagePixelValue": 0,
      "SoftwareVersions": "syngo MR E11",
      "SpacingBetweenSlices": 2.0000000309362,
      "SpecificCharacterSet": "ISO_IR 100",
      "StudyID": "1",
      "StudyTime": "115123.948000",
      "TransmitCoilName": "Body",
      "VariableFlipAngleFlag": "N",
      "WindowCenterWidthExplanation": "Algo1",
      "dBdt": 0.0},
    "slices": {}
  },
  "time": {
    "samples": {
      "AcquisitionNumber": [1, 2, 3, 4, 5, 6, 7, 8, 9, 10, 11, 12, 13, 14, 15, 16, 17, 18, 19, 20, 21, 22, 23, 24, 25, 26, 27, 28, 29, 30, 31, 32, 33, 34, 35, 36, 37, 38, 39, 40, 41, 42, 43, 44, 45, 46, 47, 48, 49, 50, 51, 52, 53, 54, 55, 56, 57, 58, 59, 60, 61, 62, 63, 64, 65, 66, 67, 68, 69, 70, 71, 72, 73, 74, 75, 76, 77, 78, 79, 80, 81, 82, 83, 84, 85, 86, 87, 88, 89, 90, 91, 92, 93, 94, 95, 96, 97, 98, 99, 100, 101, 102, 103, 104, 105, 106, 107, 108, 109, 110, 111, 112, 113, 114, 115, 116, 117, 118, 119, 120, 121, 122, 123, 124, 125, 126, 127, 128, 129, 130, 131, 132, 133, 134, 135, 136, 137, 138, 139, 140, 141, 142, 143, 144, 145, 146, 147, 148, 149, 150, 151, 152, 153, 154, 155, 156, 157, 158, 159, 160, 161, 162, 163, 164, 165, 166, 167, 168, 169, 170, 171, 172, 173, 174, 175, 176, 177, 178, 179, 180, 181, 182, 183, 184, 185, 186, 187, 188, 189, 190],
      "AcquisitionTime": ["135627.370000", "135628.860000", "135630.350000", "135631.840000", "135633.330000", "135634.820000", "135636.310000", "135637.800000", "135639.290000", "135640.780000", "135642.270000", "135643.760000", "135645.250000", "135646.740000", "135648.230000", "135649.720000", "135651.210000", "135652.700000", "135654.190000", "135655.680000", "135657.170000", "135658.660000", "135700.150000", "135701.640000", "135703.130000", "135704.620000", "135706.110000", "135707.600000", "135709.090000", "135710.580000", "135712.070000", "135713.560000", "135715.050000", "135716.540000", "135718.030000", "135719.520000", "135721.010000", "135722.500000", "135723.990000", "135725.480000", "135726.970000", "135728.460000", "135729.950000", "135731.440000", "135732.930000", "135734.420000", "135735.910000", "135737.400000", "135738.890000", "135740.380000", "135741.870000", "135743.360000", "135744.850000", "135746.340000", "135747.830000", "135749.320000", "135750.810000", "135752.300000", "135753.790000", "135755.280000", "135756.770000", "135758.260000", "135759.750000", "135801.240000", "135802.730000", "135804.220000", "135805.710000", "135807.200000", "135808.690000", "135810.180000", "135811.670000", "135813.160000", "135814.650000", "135816.140000", "135817.630000", "135819.120000", "135820.610000", "135822.100000", "135823.590000", "135825.080000", "135826.570000", "135828.060000", "135829.550000", "135831.040000", "135832.530000", "135834.020000", "135835.510000", "135837.000000", "135838.490000", "135839.980000", "135841.470000", "135842.960000", "135844.450000", "135845.940000", "135847.430000", "135848.920000", "135850.410000", "135851.900000", "135853.390000", "135854.880000", "135856.370000", "135857.860000", "135859.350000", "135900.840000", "135902.330000", "135903.820000", "135905.310000", "135906.800000", "135908.290000", "135909.780000", "135911.270000", "135912.760000", "135914.250000", "135915.740000", "135917.230000", "135918.720000", "135920.210000", "135921.700000", "135923.190000", "135924.680000", "135926.170000", "135927.660000", "135929.150000", "135930.640000", "135932.130000", "135933.620000", "135935.110000", "135936.600000", "135938.090000", "135939.580000", "135941.070000", "135942.560000", "135944.050000", "135945.540000", "135947.030000", "135948.520000", "135950.010000", "135951.500000", "135952.990000", "135954.480000", "135955.970000", "135957.460000", "135958.950000", "140000.440000", "140001.930000", "140003.420000", "140004.910000", "140006.400000", "140007.890000", "140009.380000", "140010.870000", "140012.360000", "140013.850000", "140015.340000", "140016.830000", "140018.320000", "140019.810000", "140021.300000", "140022.790000", "140024.280000", "140025.770000", "140027.260000", "140028.750000", "140030.240000", "140031.730000", "140033.220000", "140034.710000", "140036.200000", "140037.690000", "140039.180000", "140040.670000", "140042.160000", "140043.650000", "140045.140000", "140046.630000", "140048.120000", "140049.610000", "140051.100000", "140052.590000", "140054.080000", "140055.570000", "140057.060000", "140058.550000", "140100.040000", "140101.530000", "140103.020000", "140104.510000", "140106.000000", "140107.490000", "140108.980000"],
      "ContentTime": ["135727.739000", "135727.742000", "135727.744000", "135727.747000", "135727.749000", "135747.805000", "135747.808000", "135747.810000", "135747.813000", "135747.815000", "135747.818000", "135747.820000", "135747.823000", "135747.825000", "135747.828000", "135747.830000", "135747.833000", "135747.835000", "135747.838000", "135747.840000", "135747.843000", "135747.845000", "135747.848000", "135747.850000", "135747.853000", "135747.855000", "135807.770000", "135807.772000", "135807.775000", "135807.777000", "135807.780000", "135807.782000", "135807.785000", "135807.787000", "135807.790000", "135807.792000", "135807.795000", "135807.797000", "135807.800000", "135807.816000", "135807.819000", "135807.821000", "135807.824000", "135807.826000", "135807.829000", "135807.831000", "135827.781000", "135827.784000", "135827.786000", "135827.789000", "135827.791000", "135827.794000", "135827.796000", "135827.799000", "135827.801000", "135827.804000", "135827.806000", "135827.809000", "135827.811000", "135827.814000", "135827.816000", "135827.819000", "135827.821000", "135827.824000", "135827.826000", "135827.829000", "135847.780000", "135847.783000", "135847.786000", "135847.788000", "135847.791000", "135847.793000", "135847.796000", "135847.798000", "135847.801000", "135847.803000", "135847.806000", "135847.808000", "135847.811000", "135847.813000", "135847.816000", "135847.818000", "135847.821000", "135847.823000", "135847.826000", "135847.829000", "135847.834000", "135907.774000", "135907.777000", "135907.779000", "135907.782000", "135907.784000", "135907.787000", "135907.789000", "135907.792000", "135907.794000", "135907.797000", "135907.799000", "135907.802000", "135907.804000", "135907.807000", "135907.809000", "135907.812000", "135907.814000", "135907.817000", "135907.819000", "135907.822000", "135948.289000", "135948.292000", "135948.295000", "135948.297000", "135948.300000", "135948.303000", "135948.305000", "135948.309000", "135948.311000", "135948.314000", "135948.316000", "135948.319000", "135948.322000", "135948.325000", "135948.328000", "135948.330000", "135948.333000", "135948.336000", "135948.338000", "135948.341000", "135948.343000", "135948.346000", "135948.348000", "135948.351000", "135948.354000", "135948.357000", "135948.359000", "140027.811000", "140027.814000", "140027.817000", "140027.819000", "140027.822000", "140027.824000", "140027.827000", "140027.829000", "140027.832000", "140027.834000", "140027.837000", "140027.839000", "140027.842000", "140027.844000", "140027.847000", "140027.850000", "140027.852000", "140027.855000", "140027.857000", "140027.860000", "140027.862000", "140027.865000", "140027.867000", "140027.870000", "140027.872000", "140027.875000", "140107.832000", "140107.834000", "140107.837000", "140107.840000", "140107.842000", "140107.845000", "140107.847000", "140107.850000", "140107.852000", "140107.855000", "140107.858000", "140107.860000", "140107.863000", "140107.865000", "140107.868000", "140107.870000", "140107.873000", "140107.875000", "140107.878000", "140107.881000", "140107.883000", "140107.886000", "140107.889000", "140107.891000", "140107.894000", "140107.897000", "140107.900000", "140110.963000", "140110.965000", "140110.968000"],
      "InstanceCreationTime": ["135727.739000", "135727.742000", "135727.744000", "135727.747000", "135727.749000", "135747.805000", "135747.808000", "135747.810000", "135747.813000", "135747.815000", "135747.818000", "135747.820000", "135747.823000", "135747.825000", "135747.828000", "135747.830000", "135747.833000", "135747.835000", "135747.838000", "135747.840000", "135747.843000", "135747.845000", "135747.848000", "135747.850000", "135747.853000", "135747.855000", "135807.770000", "135807.772000", "135807.775000", "135807.777000", "135807.780000", "135807.782000", "135807.785000", "135807.787000", "135807.790000", "135807.792000", "135807.795000", "135807.797000", "135807.800000", "135807.816000", "135807.819000", "135807.821000", "135807.824000", "135807.826000", "135807.829000", "135807.831000", "135827.781000", "135827.784000", "135827.786000", "135827.789000", "135827.791000", "135827.794000", "135827.796000", "135827.799000", "135827.801000", "135827.804000", "135827.806000", "135827.809000", "135827.811000", "135827.814000", "135827.816000", "135827.819000", "135827.821000", "135827.824000", "135827.826000", "135827.829000", "135847.780000", "135847.783000", "135847.786000", "135847.788000", "135847.791000", "135847.793000", "135847.796000", "135847.798000", "135847.801000", "135847.803000", "135847.806000", "135847.808000", "135847.811000", "135847.813000", "135847.816000", "135847.818000", "135847.821000", "135847.823000", "135847.826000", "135847.829000", "135847.834000", "135907.774000", "135907.777000", "135907.779000", "135907.782000", "135907.784000", "135907.787000", "135907.789000", "135907.792000", "135907.794000", "135907.797000", "135907.799000", "135907.802000", "135907.804000", "135907.807000", "135907.809000", "135907.812000", "135907.814000", "135907.817000", "135907.819000", "135907.822000", "135948.289000", "135948.292000", "135948.295000", "135948.297000", "135948.300000", "135948.303000", "135948.305000", "135948.309000", "135948.311000", "135948.314000", "135948.316000", "135948.319000", "135948.322000", "135948.325000", "135948.328000", "135948.330000", "135948.333000", "135948.336000", "135948.338000", "135948.341000", "135948.343000", "135948.346000", "135948.348000", "135948.351000", "135948.354000", "135948.357000", "135948.359000", "140027.811000", "140027.814000", "140027.817000", "140027.819000", "140027.822000", "140027.824000", "140027.827000", "140027.829000", "140027.832000", "140027.834000", "140027.837000", "140027.839000", "140027.842000", "140027.844000", "140027.847000", "140027.850000", "140027.852000", "140027.855000", "140027.857000", "140027.860000", "140027.862000", "140027.865000", "140027.867000", "140027.870000", "140027.872000", "140027.875000", "140107.832000", "140107.834000", "140107.837000", "140107.840000", "140107.842000", "140107.845000", "140107.847000", "140107.850000", "140107.852000", "140107.855000", "140107.858000", "140107.860000", "140107.863000", "140107.865000", "140107.868000", "140107.870000", "140107.873000", "140107.875000", "140107.878000", "140107.881000", "140107.883000", "140107.886000", "140107.889000", "140107.891000", "140107.894000", "140107.897000", "140107.900000", "140110.963000", "140110.965000", "140110.968000"],
      "InstanceNumber": [1, 2, 3, 4, 5, 6, 7, 8, 9, 10, 11, 12, 13, 14, 15, 16, 17, 18, 19, 20, 21, 22, 23, 24, 25, 26, 27, 28, 29, 30, 31, 32, 33, 34, 35, 36, 37, 38, 39, 40, 41, 42, 43, 44, 45, 46, 47, 48, 49, 50, 51, 52, 53, 54, 55, 56, 57, 58, 59, 60, 61, 62, 63, 64, 65, 66, 67, 68, 69, 70, 71, 72, 73, 74, 75, 76, 77, 78, 79, 80, 81, 82, 83, 84, 85, 86, 87, 88, 89, 90, 91, 92, 93, 94, 95, 96, 97, 98, 99, 100, 101, 102, 103, 104, 105, 106, 107, 108, 109, 110, 111, 112, 113, 114, 115, 116, 117, 118, 119, 120, 121, 122, 123, 124, 125, 126, 127, 128, 129, 130, 131, 132, 133, 134, 135, 136, 137, 138, 139, 140, 141, 142, 143, 144, 145, 146, 147, 148, 149, 150, 151, 152, 153, 154, 155, 156, 157, 158, 159, 160, 161, 162, 163, 164, 165, 166, 167, 168, 169, 170, 171, 172, 173, 174, 175, 176, 177, 178, 179, 180, 181, 182, 183, 184, 185, 186, 187, 188, 189, 190],
      "WindowCenter": [4856.0, 4878.0, 4854.0, 4856.0, 4878.0, 4854.0, 4852.0, 4856.0, 4852.0, 4856.0, 4856.0, 4852.0, 4878.0, 4854.0, 4854.0, 4854.0, 4856.0, 4856.0, 4854.0, 4854.0, 4854.0, 4858.0, 4856.0, 4854.0, 4856.0, 4854.0, 4852.0, 4856.0, 4876.0, 4854.0, 4854.0, 4854.0, 4854.0, 4876.0, 4854.0, 4876.0, 4860.0, 4850.0, 4854.0, 4858.0, 4854.0, 4856.0, 4856.0, 4856.0, 4854.0, 4878.0, 4856.0, 4854.0, 4856.0, 4856.0, 4880.0, 4854.0, 4856.0, 4856.0, 4856.0, 4850.0, 4856.0, 4852.0, 4854.0, 4854.0, 4852.0, 4878.0, 4856.0, 4858.0, 4854.0, 4854.0, 4856.0, 4852.0, 4854.0, 4856.0, 4858.0, 4878.0, 4852.0, 4856.0, 4878.0, 4856.0, 4856.0, 4854.0, 4854.0, 4854.0, 4854.0, 4850.0, 4878.0, 4852.0, 4852.0, 4880.0, 4878.0, 4852.0, 4854.0, 4878.0, 4856.0, 4854.0, 4852.0, 4856.0, 4876.0, 4848.0, 4880.0, 4854.0, 4854.0, 4852.0, 4854.0, 4880.0, 4854.0, 4878.0, 4854.0, 4856.0, 4854.0, 4856.0, 4856.0, 4876.0, 4878.0, 4852.0, 4880.0, 4878.0, 4852.0, 4854.0, 4854.0, 4852.0, 4854.0, 4854.0, 4858.0, 4852.0, 4854.0, 4854.0, 4854.0, 4856.0, 4878.0, 4854.0, 4856.0, 4876.0, 4856.0, 4856.0, 4852.0, 4854.0, 4856.0, 4854.0, 4854.0, 4854.0, 4856.0, 4852.0, 4854.0, 4854.0, 4880.0, 4854.0, 4850.0, 4854.0, 4854.0, 4878.0, 4854.0, 4856.0, 4852.0, 4856.0, 4854.0, 4856.0, 4856.0, 4854.0, 4856.0, 4854.0, 4854.0, 4854.0, 4856.0, 4852.0, 4854.0, 4878.0, 4852.0, 4858.0, 4856.0, 4854.0, 4856.0, 4856.0, 4854.0, 4854.0, 4852.0, 4880.0, 4876.0, 4852.0, 4882.0, 4854.0, 4878.0, 4856.0, 4856.0, 4854.0, 4878.0, 4856.0, 4854.0, 4854.0, 4848.0, 4878.0, 4856.0, 4854.0],
      "WindowWidth": [18616.0, 18650.0, 18616.0, 18616.0, 18644.0, 18614.0, 18616.0, 18622.0, 18610.0, 18614.0, 18612.0, 18620.0, 18644.0, 18618.0, 18622.0, 18616.0, 18616.0, 18614.0, 18614.0, 18614.0, 18616.0, 18622.0, 18620.0, 18616.0, 18620.0, 18614.0, 18618.0, 18614.0, 18654.0, 18616.0, 18618.0, 18620.0, 18616.0, 18652.0, 18620.0, 18648.0, 18618.0, 18612.0, 18614.0, 18616.0, 18614.0, 18614.0, 18616.0, 18620.0, 18614.0, 18648.0, 18620.0, 18616.0, 18618.0, 18618.0, 18652.0, 18614.0, 18626.0, 18622.0, 18614.0, 18610.0, 18614.0, 18616.0, 18620.0, 18616.0, 18616.0, 18652.0, 18622.0, 18622.0, 18620.0, 18618.0, 18616.0, 18616.0, 18620.0, 18620.0, 18620.0, 18652.0, 18616.0, 18618.0, 18648.0, 18618.0, 18620.0, 18618.0, 18624.0, 18616.0, 18622.0, 18618.0, 18652.0, 18614.0, 18620.0, 18652.0, 18652.0, 18620.0, 18616.0, 18650.0, 18618.0, 18618.0, 18618.0, 18618.0, 18654.0, 18618.0, 18652.0, 18620.0, 18620.0, 18618.0, 18612.0, 18652.0, 18616.0, 18650.0, 18620.0, 18618.0, 18624.0, 18626.0, 18618.0, 18650.0, 18648.0, 18610.0, 18650.0, 18646.0, 18616.0, 18612.0, 18624.0, 18614.0, 18624.0, 18620.0, 18626.0, 18624.0, 18622.0, 18616.0, 18624.0, 18612.0, 18650.0, 18622.0, 18620.0, 18650.0, 18620.0, 18618.0, 18622.0, 18620.0, 18624.0, 18622.0, 18618.0, 18618.0, 18624.0, 18614.0, 18622.0, 18620.0, 18652.0, 18616.0, 18616.0, 18618.0, 18616.0, 18652.0, 18616.0, 18622.0, 18612.0, 18622.0, 18616.0, 18622.0, 18620.0, 18624.0, 18622.0, 18622.0, 18622.0, 18624.0, 18618.0, 18618.0, 18620.0, 18650.0, 18622.0, 18626.0, 18622.0, 18620.0, 18624.0, 18620.0, 18622.0, 18616.0, 18620.0, 18656.0, 18650.0, 18614.0, 18658.0, 18616.0, 18652.0, 18622.0, 18618.0, 18618.0, 18650.0, 18622.0, 18620.0, 18622.0, 18618.0, 18654.0, 18626.0, 18618.0]
    },
    "slices": {}
  }
}