{
  "AcquisitionMatrixPE": 104,
  "AcquisitionNumber": 1,
  "AcquisitionTime": "13:50:23.327500",
  "BandwidthPerPixelPhaseEncode": 17.17,
  "BaseResolution": 104,
  "BodyPartExamined": "BRAIN",
  "CoilCombinationMethod": "Sum of Squares",
  "ConsistencyInfo": "N4_VE11C_LATEST_20160120",
  "ConversionSoftware": "dcm2niix",
  "ConversionSoftwareVersion": "v1.0.20211006",
  "DerivedVendorReportedEchoSpacing": 0.000560011,
  "DeviceSerialNumber": "167006",
  "DwellTime": 2.1e-06,
  "EchoTime": 0.037,
  "EchoTrainLength": 104,
  "EffectiveEchoSpacing": 0.000560011,
  "FlipAngle": 52,
  "HeudiconvVersion": "0.10.0",
  "ImageComments": "Unaliased MB4/PE3/LB",
  "ImageOrientationPatientDICOM": [0.999352, -0.00570858, 0.0355416, 0.0139545, 0.971575, -0.236319],
  "ImageOrientationText": "Tra>Cor(-13.7)>Sag(1.9)",
  "ImageType": [
    "ORIGINAL",
    "PRIMARY",
    "M",
    "MB",
    "ND",
    "MOSAIC"
],
  "ImagingFrequency": 123.259,
  "InPlanePhaseEncodingDirectionDICOM": "COL",
  "InstitutionAddress": "Chemin Queen-Mary 4565,Montreal,District,CA,H3W 1W5",
  "InstitutionName": "IUGM",
  "InstitutionalDepartmentName": "Department",
  "MRAcquisitionType": "2D",
  "MagneticFieldStrength": 3,
  "Manufacturer": "Siemens",
  "ManufacturersModelName": "Prisma_fit",
  "MatrixCoilMode": "SENSE",
  "Modality": "MR",
  "MultibandAccelerationFactor": 4,
  "PartialFourier": 1,
  "PatientPosition": "HFS",
  "PercentPhaseFOV": 100,
  "PercentSampling": 100,
  "PhaseEncodingDirection": "j",
  "PhaseEncodingSteps": 104,
  "PhaseResolution": 1,
  "PixelBandwidth": 2290,
  "ProcedureStepDescription": "memory^things",
  "ProtocolName": "func_task-things_run-3",
  "PulseSequenceDetails": "%CustomerSeq%\\cmrr_mbep2d_bold",
  "ReceiveCoilActiveElements": "HC1-7;NC1,2",
  "ReceiveCoilName": "HeadNeck_64",
  "ReconMatrixPE": 104,
  "RepetitionTime": 1.49,
  "SAR": 0.0513107,
  "ScanOptions": "FS",
  "ScanningSequence": "EP",
  "SequenceName": "epfid2d1_104",
  "SequenceVariant": "SK\\SS",
  "SeriesDescription": "func_task-things_run-3",
  "SeriesNumber": 22,
  "ShimSetting": [637, -7217, -8764, 695, 46, -13, 79, -6],
  "SliceThickness": 2,
  "SliceTiming": [0, 0.785, 0.0975, 0.8825, 0.195, 0.98, 0.295, 1.0775, 0.3925, 1.175, 0.49, 1.275, 0.5875, 1.3725, 0.685, 0, 0.785, 0.0975, 0.8825, 0.195, 0.98, 0.295, 1.0775, 0.3925, 1.175, 0.49, 1.275, 0.5875, 1.3725, 0.685, 0, 0.785, 0.0975, 0.8825, 0.195, 0.98, 0.295, 1.0775, 0.3925, 1.175, 0.49, 1.275, 0.5875, 1.3725, 0.685, 0, 0.785, 0.0975, 0.8825, 0.195, 0.98, 0.295, 1.0775, 0.3925, 1.175, 0.49, 1.275, 0.5875, 1.3725, 0.685],
  "SoftwareVersions": "syngo MR E11",
  "SpacingBetweenSlices": 2,
  "StationName": "MRC35049",
  "TaskName": "things",
  "TotalReadoutTime": 0.0576811,
  "TxRefAmp": 237.736,
  "WipMemBlock": "0e9e3d3c-560e-4ab9-9b8a-7b5e2781de17||Sequence: R016 ve11c/master r/e634e98; Dec 19 2017 11:00:25 by eja",
  "dcmmeta_affine": [
    [-1.9987038373947144, 0.027909021824598312, 0.06636451184749603, 105.70950317382812],
    [0.011417153291404247, 1.943150520324707, -0.4733240604400635, -76.74337005615234],
    [0.07108312845230103, 0.47263845801353455, 1.9420504570007324, -56.8017463684082],
    [0.0, 0.0, 0.0, 1.0]
],
  "dcmmeta_reorient_transform": [
    [0.0, -1.0, 0.0, 103.0],
    [1.0, 0.0, 0.0, 0.0],
    [0.0, 0.0, 1.0, 0.0],
    [0.0, 0.0, 0.0, 1.0]
],
  "dcmmeta_shape": [104, 104, 60, 190],
  "dcmmeta_slice_dim": 2,
  "dcmmeta_version": 0.6,
  "global": {
    "const": {
      "AcquisitionMatrix": [104, 0, 0, 104],
      "AngioFlag": "N",
      "BitsAllocated": 16,
      "BitsStored": 16,
      "BodyPartExamined": "BRAIN",
      "Columns": 832,
      "EchoNumbers": 1,
      "EchoTime": 37.0,
      "EchoTrainLength": 104,
      "FlipAngle": 52.0,
      "HighBit": 15,
      "ImageOrientationPatient": [0.99935189471065, -0.0057085766033, 0.03554156287208, 0.01395451046583, 0.97157526459781, -0.2363192265969],
      "ImagePositionPatient": [-846.27119499123, -826.55208462507, 138.0461521901],
      "ImageType": [
        "ORIGINAL",
        "PRIMARY",
        "M",
        "MB",
        "ND",
        "MOSAIC"
],
      "ImagedNucleus": "1H",
      "ImagingFrequency": 123.259088,
      "InPlanePhaseEncodingDirection": "COL",
      "MRAcquisitionType": "2D",
      "MagneticFieldStrength": 3.0,
      "Manufacturer": "SIEMENS",
      "ManufacturerModelName": "Prisma_fit",
      "Modality": "MR",
      "NumberOfAverages": 1.0,
      "NumberOfPhaseEncodingSteps": 104,
      "PercentPhaseFieldOfView": 100.0,
      "PercentSampling": 100.0,
      "PerformedProcedureStepStartTime": "115124.021000",
      "PhotometricInterpretation": "MONOCHROME2",
      "PixelBandwidth": 2290.0,
      "PixelRepresentation": 0,
      "PixelSpacing": [2.0, 2.0],
      "ProtocolName": "func_task-things_run-3",
      "RepetitionTime": 1490.0,
      "Rows": 832,
      "SAR": 0.05131074513921,
      "SamplesPerPixel": 1,
      "ScanOptions": "FS",
      "ScanningSequence": "EP",
      "SequenceName": "epfid2d1_104",
      "SequenceVariant": [
        "SK",
        "SS"
],
      "SeriesDescription": "func_task-things_run-3",
      "SeriesNumber": 22,
      "SeriesTime": "135140.389000",
      "SliceLocation": -33.486009311005,
      "SliceThickness": 2.0,
      "SmallestImagePixelValue": 0,
      "SoftwareVersions": "syngo MR E11",
      "SpacingBetweenSlices": 2.0000000309362,
      "SpecificCharacterSet": "ISO_IR 100",
      "StudyID": "1",
      "StudyTime": "115123.948000",
      "TransmitCoilName": "Body",
      "VariableFlipAngleFlag": "N",
      "WindowCenterWidthExplanation": "Algo1",
      "dBdt": 0.0},
    "slices": {}
  },
  "time": {
    "samples": {
      "AcquisitionNumber": [1, 2, 3, 4, 5, 6, 7, 8, 9, 10, 11, 12, 13, 14, 15, 16, 17, 18, 19, 20, 21, 22, 23, 24, 25, 26, 27, 28, 29, 30, 31, 32, 33, 34, 35, 36, 37, 38, 39, 40, 41, 42, 43, 44, 45, 46, 47, 48, 49, 50, 51, 52, 53, 54, 55, 56, 57, 58, 59, 60, 61, 62, 63, 64, 65, 66, 67, 68, 69, 70, 71, 72, 73, 74, 75, 76, 77, 78, 79, 80, 81, 82, 83, 84, 85, 86, 87, 88, 89, 90, 91, 92, 93, 94, 95, 96, 97, 98, 99, 100, 101, 102, 103, 104, 105, 106, 107, 108, 109, 110, 111, 112, 113, 114, 115, 116, 117, 118, 119, 120, 121, 122, 123, 124, 125, 126, 127, 128, 129, 130, 131, 132, 133, 134, 135, 136, 137, 138, 139, 140, 141, 142, 143, 144, 145, 146, 147, 148, 149, 150, 151, 152, 153, 154, 155, 156, 157, 158, 159, 160, 161, 162, 163, 164, 165, 166, 167, 168, 169, 170, 171, 172, 173, 174, 175, 176, 177, 178, 179, 180, 181, 182, 183, 184, 185, 186, 187, 188, 189, 190],
      "AcquisitionTime": ["135023.327500", "135024.817500", "135026.307500", "135027.797500", "135029.287500", "135030.777500", "135032.267500", "135033.757500", "135035.247500", "135036.737500", "135038.227500", "135039.717500", "135041.207500", "135042.697500", "135044.187500", "135045.677500", "135047.167500", "135048.657500", "135050.147500", "135051.637500", "135053.127500", "135054.617500", "135056.107500", "135057.597500", "135059.087500", "135100.577500", "135102.067500", "135103.557500", "135105.047500", "135106.537500", "135108.027500", "135109.517500", "135111.007500", "135112.497500", "135113.987500", "135115.477500", "135116.967500", "135118.457500", "135119.947500", "135121.437500", "135122.927500", "135124.417500", "135125.907500", "135127.397500", "135128.887500", "135130.377500", "135131.867500", "135133.357500", "135134.847500", "135136.337500", "135137.827500", "135139.317500", "135140.807500", "135142.297500", "135143.787500", "135145.277500", "135146.767500", "135148.257500", "135149.747500", "135151.237500", "135152.727500", "135154.217500", "135155.707500", "135157.197500", "135158.687500", "135200.177500", "135201.667500", "135203.157500", "135204.647500", "135206.137500", "135207.627500", "135209.117500", "135210.607500", "135212.097500", "135213.587500", "135215.077500", "135216.567500", "135218.057500", "135219.547500", "135221.037500", "135222.527500", "135224.017500", "135225.507500", "135226.997500", "135228.487500", "135229.977500", "135231.467500", "135232.957500", "135234.447500", "135235.937500", "135237.427500", "135238.917500", "135240.407500", "135241.897500", "135243.387500", "135244.877500", "135246.367500", "135247.857500", "135249.347500", "135250.837500", "135252.327500", "135253.817500", "135255.307500", "135256.797500", "135258.287500", "135259.777500", "135301.267500", "135302.757500", "135304.247500", "135305.737500", "135307.227500", "135308.717500", "135310.207500", "135311.697500", "135313.187500", "135314.677500", "135316.167500", "135317.657500", "135319.147500", "135320.637500", "135322.127500", "135323.617500", "135325.107500", "135326.597500", "135328.087500", "135329.577500", "135331.067500", "135332.557500", "135334.047500", "135335.537500", "135337.027500", "135338.517500", "135340.007500", "135341.497500", "135342.987500", "135344.477500", "135345.967500", "135347.457500", "135348.947500", "135350.437500", "135351.927500", "135353.417500", "135354.907500", "135356.397500", "135357.887500", "135359.377500", "135400.867500", "135402.357500", "135403.847500", "135405.337500", "135406.827500", "135408.317500", "135409.807500", "135411.297500", "135412.787500", "135414.277500", "135415.767500", "135417.257500", "135418.747500", "135420.237500", "135421.727500", "135423.217500", "135424.707500", "135426.197500", "135427.687500", "135429.177500", "135430.667500", "135432.157500", "135433.647500", "135435.137500", "135436.627500", "135438.117500", "135439.607500", "135441.097500", "135442.587500", "135444.077500", "135445.567500", "135447.057500", "135448.547500", "135450.037500", "135451.527500", "135453.017500", "135454.507500", "135455.997500", "135457.487500", "135458.977500", "135500.467500", "135501.957500", "135503.447500", "135504.937500"],
      "ContentTime": ["135140.392000", "135140.399000", "135140.402000", "135140.405000", "135140.409000", "135140.412000", "135140.415000", "135140.419000", "135140.422000", "135140.425000", "135140.437000", "135140.440000", "135140.443000", "135140.447000", "135140.450000", "135140.453000", "135140.456000", "135140.460000", "135140.463000", "135140.466000", "135140.470000", "135140.473000", "135200.352000", "135200.356000", "135200.359000", "135200.362000", "135200.366000", "135200.369000", "135200.372000", "135200.376000", "135200.379000", "135200.382000", "135200.385000", "135200.389000", "135200.392000", "135200.395000", "135200.398000", "135200.402000", "135200.405000", "135200.408000", "135200.412000", "135200.415000", "135220.353000", "135220.357000", "135220.360000", "135220.364000", "135220.367000", "135220.370000", "135220.374000", "135220.377000", "135220.380000", "135220.383000", "135220.396000", "135220.399000", "135220.403000", "135220.406000", "135220.409000", "135220.413000", "135220.416000", "135220.419000", "135220.423000", "135220.426000", "135240.353000", "135240.357000", "135240.360000", "135240.364000", "135240.367000", "135240.370000", "135240.373000", "135240.377000", "135240.380000", "135240.383000", "135240.387000", "135240.390000", "135240.393000", "135240.396000", "135240.400000", "135240.403000", "135240.406000", "135240.410000", "135240.413000", "135240.416000", "135240.420000", "135300.352000", "135300.356000", "135300.359000", "135300.362000", "135300.366000", "135300.369000", "135300.372000", "135300.376000", "135300.379000", "135300.382000", "135300.386000", "135300.389000", "135300.392000", "135300.396000", "135300.399000", "135300.402000", "135300.406000", "135300.426000", "135300.429000", "135300.432000", "135340.352000", "135340.393000", "135340.396000", "135340.399000", "135340.403000", "135340.406000", "135340.409000", "135340.413000", "135340.416000", "135340.419000", "135340.423000", "135340.426000", "135340.429000", "135340.432000", "135340.436000", "135340.439000", "135340.448000", "135340.452000", "135340.455000", "135340.458000", "135340.462000", "135340.465000", "135340.468000", "135340.472000", "135340.475000", "135340.478000", "135340.482000", "135340.485000", "135420.352000", "135420.356000", "135420.359000", "135420.362000", "135420.366000", "135420.369000", "135420.373000", "135420.376000", "135420.379000", "135420.383000", "135420.386000", "135420.389000", "135420.393000", "135420.396000", "135420.399000", "135420.403000", "135420.406000", "135420.409000", "135420.412000", "135420.416000", "135420.431000", "135420.434000", "135420.437000", "135420.441000", "135420.444000", "135420.448000", "135420.451000", "135500.353000", "135500.357000", "135500.360000", "135500.363000", "135500.367000", "135500.370000", "135500.374000", "135500.377000", "135500.380000", "135500.383000", "135500.387000", "135500.390000", "135500.393000", "135500.397000", "135500.400000", "135500.403000", "135500.407000", "135500.410000", "135500.413000", "135500.417000", "135500.420000", "135500.423000", "135500.427000", "135500.430000", "135500.433000", "135500.436000", "135500.440000", "135507.439000", "135507.442000", "135507.446000", "135507.449000", "135507.453000"],
      "InstanceCreationTime": ["135140.392000", "135140.399000", "135140.402000", "135140.405000", "135140.409000", "135140.412000", "135140.415000", "135140.419000", "135140.422000", "135140.425000", "135140.437000", "135140.440000", "135140.443000", "135140.447000", "135140.450000", "135140.453000", "135140.456000", "135140.460000", "135140.463000", "135140.466000", "135140.470000", "135140.473000", "135200.352000", "135200.356000", "135200.359000", "135200.362000", "135200.366000", "135200.369000", "135200.372000", "135200.376000", "135200.379000", "135200.382000", "135200.385000", "135200.389000", "135200.392000", "135200.395000", "135200.398000", "135200.402000", "135200.405000", "135200.408000", "135200.412000", "135200.415000", "135220.353000", "135220.357000", "135220.360000", "135220.364000", "135220.367000", "135220.370000", "135220.374000", "135220.377000", "135220.380000", "135220.383000", "135220.396000", "135220.399000", "135220.403000", "135220.406000", "135220.409000", "135220.413000", "135220.416000", "135220.419000", "135220.423000", "135220.426000", "135240.353000", "135240.357000", "135240.360000", "135240.364000", "135240.367000", "135240.370000", "135240.373000", "135240.377000", "135240.380000", "135240.383000", "135240.387000", "135240.390000", "135240.393000", "135240.396000", "135240.400000", "135240.403000", "135240.406000", "135240.410000", "135240.413000", "135240.416000", "135240.420000", "135300.352000", "135300.356000", "135300.359000", "135300.362000", "135300.366000", "135300.369000", "135300.372000", "135300.376000", "135300.379000", "135300.382000", "135300.386000", "135300.389000", "135300.392000", "135300.396000", "135300.399000", "135300.402000", "135300.406000", "135300.426000", "135300.429000", "135300.432000", "135340.352000", "135340.393000", "135340.396000", "135340.399000", "135340.403000", "135340.406000", "135340.409000", "135340.413000", "135340.416000", "135340.419000", "135340.423000", "135340.426000", "135340.429000", "135340.432000", "135340.436000", "135340.439000", "135340.448000", "135340.452000", "135340.455000", "135340.458000", "135340.462000", "135340.465000", "135340.468000", "135340.472000", "135340.475000", "135340.478000", "135340.482000", "135340.485000", "135420.352000", "135420.356000", "135420.359000", "135420.362000", "135420.366000", "135420.369000", "135420.373000", "135420.376000", "135420.379000", "135420.383000", "135420.386000", "135420.389000", "135420.393000", "135420.396000", "135420.399000", "135420.403000", "135420.406000", "135420.409000", "135420.412000", "135420.416000", "135420.431000", "135420.434000", "135420.437000", "135420.441000", "135420.444000", "135420.448000", "135420.451000", "135500.353000", "135500.357000", "135500.360000", "135500.363000", "135500.367000", "135500.370000", "135500.374000", "135500.377000", "135500.380000", "135500.383000", "135500.387000", "135500.390000", "135500.393000", "135500.397000", "135500.400000", "135500.403000", "135500.407000", "135500.410000", "135500.413000", "135500.417000", "135500.420000", "135500.423000", "135500.427000", "135500.430000", "135500.433000", "135500.436000", "135500.440000", "135507.439000", "135507.442000", "135507.446000", "135507.449000", "135507.453000"],
      "InstanceNumber": [1, 2, 3, 4, 5, 6, 7, 8, 9, 10, 11, 12, 13, 14, 15, 16, 17, 18, 19, 20, 21, 22, 23, 24, 25, 26, 27, 28, 29, 30, 31, 32, 33, 34, 35, 36, 37, 38, 39, 40, 41, 42, 43, 44, 45, 46, 47, 48, 49, 50, 51, 52, 53, 54, 55, 56, 57, 58, 59, 60, 61, 62, 63, 64, 65, 66, 67, 68, 69, 70, 71, 72, 73, 74, 75, 76, 77, 78, 79, 80, 81, 82, 83, 84, 85, 86, 87, 88, 89, 90, 91, 92, 93, 94, 95, 96, 97, 98, 99, 100, 101, 102, 103, 104, 105, 106, 107, 108, 109, 110, 111, 112, 113, 114, 115, 116, 117, 118, 119, 120, 121, 122, 123, 124, 125, 126, 127, 128, 129, 130, 131, 132, 133, 134, 135, 136, 137, 138, 139, 140, 141, 142, 143, 144, 145, 146, 147, 148, 149, 150, 151, 152, 153, 154, 155, 156, 157, 158, 159, 160, 161, 162, 163, 164, 165, 166, 167, 168, 169, 170, 171, 172, 173, 174, 175, 176, 177, 178, 179, 180, 181, 182, 183, 184, 185, 186, 187, 188, 189, 190],
      "LargestImagePixelValue": [40528, 39800, 39180, 38442, 38769, 37962, 38325, 38015, 37800, 38265, 38170, 37878, 37714, 37979, 38225, 37873, 38231, 37745, 37438, 37765, 37854, 37592, 38122, 37192, 37320, 37122, 37155, 37834, 37217, 37971, 37022, 37314, 37557, 37148, 37394, 37656, 37258, 36912, 36833, 37157, 37172, 36944, 37536, 36840, 37327, 36861, 37557, 37648, 37101, 37222, 37017, 37525, 37688, 36619, 37628, 37525, 37669, 37552, 37474, 38082, 37469, 37551, 37514, 37553, 37293, 37469, 37670, 37791, 37809, 37858, 37671, 37682, 37859, 37990, 37131, 37408, 37849, 37957, 38337, 37716, 37832, 37445, 37696, 37544, 37780, 37439, 37569, 37269, 37257, 36866, 37356, 37165, 37277, 37553, 36729, 37382, 36666, 37338, 36990, 37264, 37543, 37332, 36825, 37276, 37374, 36551, 36958, 36747, 36842, 36698, 36928, 36948, 37170, 36862, 36745, 36658, 36812, 36539, 36725, 36741, 36647, 36530, 37057, 36702, 36580, 36578, 37305, 37114, 37540, 36703, 37122, 36909, 36587, 37025, 36834, 36541, 37044, 37590, 37405, 37350, 37183, 37075, 36779, 36766, 37325, 37132, 37502, 37059, 36987, 36959, 36866, 36743, 36609, 37046, 37213, 36909, 36561, 37040, 36744, 36650, 37054, 37008, 36644, 36739, 36956, 36588, 36479, 36640, 36501, 36552, 37087, 36768, 36992, 36749, 36858, 36555, 36752, 36734, 36763, 36988, 37073, 36816, 36403, 36535, 36653, 36548, 36892, 37139, 37784, 37373],
      "WindowCenter": [10028.0, 10012.0, 9993.0, 10004.0, 10013.0, 10015.0, 10011.0, 9994.0, 9994.0, 10003.0, 10011.0, 10013.0, 10012.0, 10018.0, 10029.0, 10040.0, 10038.0, 10048.0, 10032.0, 10065.0, 10051.0, 10061.0, 10056.0, 10042.0, 10032.0, 10035.0, 10043.0, 10060.0, 10052.0, 10055.0, 10051.0, 10049.0, 10048.0, 10025.0, 10049.0, 10047.0, 10046.0, 10027.0, 10017.0, 10024.0, 10044.0, 10055.0, 10050.0, 10037.0, 10040.0, 10036.0, 10058.0, 10040.0, 10007.0, 10000.0, 9989.0, 9997.0, 10009.0, 10010.0, 10040.0, 10045.0, 10026.0, 9990.0, 9963.0, 9966.0, 9976.0, 10005.0, 10032.0, 10034.0, 10042.0, 10032.0, 10033.0, 10023.0, 10015.0, 10014.0, 10022.0, 10034.0, 10048.0, 10054.0, 10027.0, 10017.0, 10010.0, 10020.0, 10073.0, 10065.0, 10033.0, 10023.0, 10012.0, 10014.0, 10031.0, 10035.0, 10033.0, 10018.0, 10027.0, 10016.0, 10029.0, 10034.0, 10028.0, 10018.0, 10010.0, 10015.0, 10020.0, 10013.0, 10019.0, 10015.0, 10031.0, 10015.0, 10008.0, 10022.0, 10033.0, 10042.0, 10038.0, 10027.0, 9994.0, 9994.0, 9992.0, 9990.0, 9997.0, 10001.0, 10001.0, 10016.0, 10018.0, 10028.0, 10019.0, 10019.0, 10009.0, 10009.0, 10032.0, 10034.0, 10022.0, 9994.0, 9999.0, 9971.0, 10004.0, 10023.0, 10036.0, 10014.0, 10002.0, 10017.0, 9995.0, 9958.0, 9961.0, 9951.0, 9968.0, 9968.0, 9971.0, 9997.0, 9992.0, 9983.0, 9999.0, 9965.0, 9985.0, 10005.0, 10015.0, 10014.0, 10000.0, 9999.0, 10002.0, 10016.0, 10033.0, 10046.0, 10041.0, 10028.0, 10013.0, 10000.0, 10020.0, 10034.0, 10036.0, 10035.0, 10033.0, 10018.0, 10021.0, 10027.0, 10028.0, 10028.0, 10026.0, 10017.0, 10016.0, 10026.0, 10045.0, 10043.0, 10035.0, 10034.0, 10018.0, 10027.0, 10026.0, 10042.0, 10039.0, 10046.0, 10029.0, 10028.0, 10035.0, 10041.0, 10170.0, 10099.0],
      "WindowWidth": [21306.0, 21252.0, 21202.0, 21224.0, 21241.0, 21243.0, 21227.0, 21191.0, 21190.0, 21211.0, 21229.0, 21236.0, 21234.0, 21243.0, 21272.0, 21297.0, 21292.0, 21314.0, 21280.0, 21354.0, 21324.0, 21347.0, 21333.0, 21303.0, 21278.0, 21290.0, 21309.0, 21346.0, 21329.0, 21330.0, 21326.0, 21317.0, 21316.0, 21266.0, 21317.0, 21311.0, 21315.0, 21268.0, 21247.0, 21261.0, 21310.0, 21337.0, 21323.0, 21293.0, 21297.0, 21294.0, 21339.0, 21298.0, 21222.0, 21207.0, 21180.0, 21198.0, 21228.0, 21234.0, 21300.0, 21310.0, 21263.0, 21179.0, 21121.0, 21124.0, 21149.0, 21219.0, 21283.0, 21291.0, 21305.0, 21280.0, 21281.0, 21256.0, 21241.0, 21236.0, 21254.0, 21284.0, 21314.0, 21327.0, 21269.0, 21241.0, 21222.0, 21246.0, 21368.0, 21353.0, 21280.0, 21253.0, 21227.0, 21235.0, 21274.0, 21288.0, 21280.0, 21247.0, 21269.0, 21245.0, 21269.0, 21285.0, 21272.0, 21247.0, 21232.0, 21238.0, 21256.0, 21234.0, 21251.0, 21239.0, 21275.0, 21237.0, 21224.0, 21255.0, 21281.0, 21308.0, 21293.0, 21265.0, 21192.0, 21191.0, 21189.0, 21184.0, 21199.0, 21211.0, 21212.0, 21245.0, 21250.0, 21275.0, 21253.0, 21251.0, 21226.0, 21228.0, 21277.0, 21283.0, 21257.0, 21192.0, 21202.0, 21141.0, 21213.0, 21260.0, 21292.0, 21245.0, 21213.0, 21246.0, 21198.0, 21113.0, 21113.0, 21093.0, 21131.0, 21133.0, 21142.0, 21197.0, 21189.0, 21167.0, 21201.0, 21128.0, 21169.0, 21216.0, 21239.0, 21241.0, 21205.0, 21200.0, 21213.0, 21243.0, 21284.0, 21314.0, 21303.0, 21270.0, 21236.0, 21207.0, 21251.0, 21284.0, 21290.0, 21288.0, 21280.0, 21246.0, 21257.0, 21270.0, 21272.0, 21272.0, 21266.0, 21242.0, 21241.0, 21266.0, 21309.0, 21305.0, 21285.0, 21283.0, 21249.0, 21268.0, 21268.0, 21303.0, 21301.0, 21314.0, 21275.0, 21273.0, 21289.0, 21295.0, 21603.0, 21435.0]
    },
    "slices": {}
  }
}