{
  "AcquisitionMatrixPE": 104,
  "AcquisitionNumber": 1,
  "AcquisitionTime": "14:08:43.265000",
  "BandwidthPerPixelPhaseEncode": 17.17,
  "BaseResolution": 104,
  "BodyPartExamined": "BRAIN",
  "CoilCombinationMethod": "Sum of Squares",
  "ConsistencyInfo": "N4_VE11C_LATEST_20160120",
  "ConversionSoftware": "dcm2niix",
  "ConversionSoftwareVersion": "v1.0.20211006",
  "DerivedVendorReportedEchoSpacing": 0.000560011,
  "DeviceSerialNumber": "167006",
  "DwellTime": 2.1e-06,
  "EchoTime": 0.037,
  "EchoTrainLength": 104,
  "EffectiveEchoSpacing": 0.000560011,
  "FlipAngle": 52,
  "HeudiconvVersion": "0.10.0",
  "ImageComments": "Unaliased MB4/PE3/LB",
  "ImageOrientationPatientDICOM": [0.999352, -0.00570858, 0.0355416, 0.0139545, 0.971575, -0.236319],
  "ImageOrientationText": "Tra>Cor(-13.7)>Sag(1.9)",
  "ImageType": [
    "ORIGINAL",
    "PRIMARY",
    "M",
    "MB",
    "ND",
    "MOSAIC"
],
  "ImagingFrequency": 123.259,
  "InPlanePhaseEncodingDirectionDICOM": "COL",
  "InstitutionAddress": "Chemin Queen-Mary 4565,Montreal,District,CA,H3W 1W5",
  "InstitutionName": "IUGM",
  "InstitutionalDepartmentName": "Department",
  "MRAcquisitionType": "2D",
  "MagneticFieldStrength": 3,
  "Manufacturer": "Siemens",
  "ManufacturersModelName": "Prisma_fit",
  "MatrixCoilMode": "SENSE",
  "Modality": "MR",
  "MultibandAccelerationFactor": 4,
  "PartialFourier": 1,
  "PatientPosition": "HFS",
  "PercentPhaseFOV": 100,
  "PercentSampling": 100,
  "PhaseEncodingDirection": "j",
  "PhaseEncodingSteps": 104,
  "PhaseResolution": 1,
  "PixelBandwidth": 2290,
  "ProcedureStepDescription": "memory^things",
  "ProtocolName": "func_task-things_run-6",
  "PulseSequenceDetails": "%CustomerSeq%\\cmrr_mbep2d_bold",
  "ReceiveCoilActiveElements": "HC1-7;NC1,2",
  "ReceiveCoilName": "HeadNeck_64",
  "ReconMatrixPE": 104,
  "RepetitionTime": 1.49,
  "SAR": 0.0513107,
  "ScanOptions": "FS",
  "ScanningSequence": "EP",
  "SequenceName": "epfid2d1_104",
  "SequenceVariant": "SK\\SS",
  "SeriesDescription": "func_task-things_run-6",
  "SeriesNumber": 31,
  "ShimSetting": [637, -7217, -8764, 695, 46, -13, 79, -6],
  "SliceThickness": 2,
  "SliceTiming": [0, 0.785, 0.0975, 0.8825, 0.195, 0.98, 0.295, 1.0775, 0.3925, 1.175, 0.49, 1.275, 0.5875, 1.3725, 0.685, 0, 0.785, 0.0975, 0.8825, 0.195, 0.98, 0.295, 1.0775, 0.3925, 1.175, 0.49, 1.275, 0.5875, 1.3725, 0.685, 0, 0.785, 0.0975, 0.8825, 0.195, 0.98, 0.295, 1.0775, 0.3925, 1.175, 0.49, 1.275, 0.5875, 1.3725, 0.685, 0, 0.785, 0.0975, 0.8825, 0.195, 0.98, 0.295, 1.0775, 0.3925, 1.175, 0.49, 1.275, 0.5875, 1.3725, 0.685],
  "SoftwareVersions": "syngo MR E11",
  "SpacingBetweenSlices": 2,
  "StationName": "MRC35049",
  "TaskName": "things",
  "TotalReadoutTime": 0.0576811,
  "TxRefAmp": 237.736,
  "WipMemBlock": "285dd2a6-127e-4adf-ba4a-d92c20660347||Sequence: R016 ve11c/master r/e634e98; Dec 19 2017 11:00:25 by eja",
  "dcmmeta_affine": [
    [-1.9987038373947144, 0.027909021824598312, 0.06636451184749603, 105.70950317382812],
    [0.011417153291404247, 1.943150520324707, -0.4733240604400635, -76.74337005615234],
    [0.07108312845230103, 0.47263845801353455, 1.9420504570007324, -56.8017463684082],
    [0.0, 0.0, 0.0, 1.0]
],
  "dcmmeta_reorient_transform": [
    [0.0, -1.0, 0.0, 103.0],
    [1.0, 0.0, 0.0, 0.0],
    [0.0, 0.0, 1.0, 0.0],
    [0.0, 0.0, 0.0, 1.0]
],
  "dcmmeta_shape": [104, 104, 60, 190],
  "dcmmeta_slice_dim": 2,
  "dcmmeta_version": 0.6,
  "global": {
    "const": {
      "AcquisitionMatrix": [104, 0, 0, 104],
      "AngioFlag": "N",
      "BitsAllocated": 16,
      "BitsStored": 16,
      "BodyPartExamined": "BRAIN",
      "Columns": 832,
      "EchoNumbers": 1,
      "EchoTime": 37.0,
      "EchoTrainLength": 104,
      "FlipAngle": 52.0,
      "HighBit": 15,
      "ImageOrientationPatient": [0.99935189471065, -0.0057085766033, 0.03554156287208, 0.01395451046583, 0.97157526459781, -0.2363192265969],
      "ImagePositionPatient": [-846.27119499123, -826.55208462507, 138.0461521901],
      "ImageType": [
        "ORIGINAL",
        "PRIMARY",
        "M",
        "MB",
        "ND",
        "MOSAIC"
],
      "ImagedNucleus": "1H",
      "ImagingFrequency": 123.259095,
      "InPlanePhaseEncodingDirection": "COL",
      "MRAcquisitionType": "2D",
      "MagneticFieldStrength": 3.0,
      "Manufacturer": "SIEMENS",
      "ManufacturerModelName": "Prisma_fit",
      "Modality": "MR",
      "NumberOfAverages": 1.0,
      "NumberOfPhaseEncodingSteps": 104,
      "PercentPhaseFieldOfView": 100.0,
      "PercentSampling": 100.0,
      "PerformedProcedureStepStartTime": "115124.021000",
      "PhotometricInterpretation": "MONOCHROME2",
      "PixelBandwidth": 2290.0,
      "PixelRepresentation": 0,
      "PixelSpacing": [2.0, 2.0],
      "ProtocolName": "func_task-things_run-6",
      "RepetitionTime": 1490.0,
      "Rows": 832,
      "SAR": 0.05131074513921,
      "SamplesPerPixel": 1,
      "ScanOptions": "FS",
      "ScanningSequence": "EP",
      "SequenceName": "epfid2d1_104",
      "SequenceVariant": [
        "SK",
        "SS"
],
      "SeriesDescription": "func_task-things_run-6",
      "SeriesNumber": 31,
      "SeriesTime": "141000.396000",
      "SliceLocation": -33.486009311005,
      "SliceThickness": 2.0,
      "SmallestImagePixelValue": 0,
      "SoftwareVersions": "syngo MR E11",
      "SpacingBetweenSlices": 2.0000000309362,
      "SpecificCharacterSet": "ISO_IR 100",
      "StudyID": "1",
      "StudyTime": "115123.948000",
      "TransmitCoilName": "Body",
      "VariableFlipAngleFlag": "N",
      "WindowCenterWidthExplanation": "Algo1",
      "dBdt": 0.0},
    "slices": {}
  },
  "time": {
    "samples": {
      "AcquisitionNumber": [1, 2, 3, 4, 5, 6, 7, 8, 9, 10, 11, 12, 13, 14, 15, 16, 17, 18, 19, 20, 21, 22, 23, 24, 25, 26, 27, 28, 29, 30, 31, 32, 33, 34, 35, 36, 37, 38, 39, 40, 41, 42, 43, 44, 45, 46, 47, 48, 49, 50, 51, 52, 53, 54, 55, 56, 57, 58, 59, 60, 61, 62, 63, 64, 65, 66, 67, 68, 69, 70, 71, 72, 73, 74, 75, 76, 77, 78, 79, 80, 81, 82, 83, 84, 85, 86, 87, 88, 89, 90, 91, 92, 93, 94, 95, 96, 97, 98, 99, 100, 101, 102, 103, 104, 105, 106, 107, 108, 109, 110, 111, 112, 113, 114, 115, 116, 117, 118, 119, 120, 121, 122, 123, 124, 125, 126, 127, 128, 129, 130, 131, 132, 133, 134, 135, 136, 137, 138, 139, 140, 141, 142, 143, 144, 145, 146, 147, 148, 149, 150, 151, 152, 153, 154, 155, 156, 157, 158, 159, 160, 161, 162, 163, 164, 165, 166, 167, 168, 169, 170, 171, 172, 173, 174, 175, 176, 177, 178, 179, 180, 181, 182, 183, 184, 185, 186, 187, 188, 189, 190],
      "AcquisitionTime": ["140843.265000", "140844.755000", "140846.245000", "140847.735000", "140849.225000", "140850.715000", "140852.205000", "140853.695000", "140855.185000", "140856.675000", "140858.165000", "140859.655000", "140901.145000", "140902.635000", "140904.125000", "140905.615000", "140907.105000", "140908.595000", "140910.085000", "140911.575000", "140913.065000", "140914.555000", "140916.045000", "140917.535000", "140919.025000", "140920.515000", "140922.005000", "140923.495000", "140924.985000", "140926.475000", "140927.965000", "140929.455000", "140930.945000", "140932.435000", "140933.925000", "140935.415000", "140936.905000", "140938.395000", "140939.885000", "140941.375000", "140942.865000", "140944.355000", "140945.845000", "140947.335000", "140948.825000", "140950.315000", "140951.805000", "140953.295000", "140954.785000", "140956.275000", "140957.765000", "140959.255000", "141000.745000", "141002.235000", "141003.725000", "141005.215000", "141006.705000", "141008.195000", "141009.685000", "141011.175000", "141012.665000", "141014.155000", "141015.645000", "141017.135000", "141018.625000", "141020.115000", "141021.605000", "141023.095000", "141024.585000", "141026.075000", "141027.565000", "141029.055000", "141030.545000", "141032.035000", "141033.525000", "141035.015000", "141036.505000", "141037.995000", "141039.485000", "141040.975000", "141042.465000", "141043.955000", "141045.445000", "141046.935000", "141048.425000", "141049.915000", "141051.405000", "141052.895000", "141054.385000", "141055.875000", "141057.365000", "141058.855000", "141100.345000", "141101.835000", "141103.325000", "141104.815000", "141106.305000", "141107.795000", "141109.285000", "141110.775000", "141112.265000", "141113.755000", "141115.245000", "141116.735000", "141118.225000", "141119.715000", "141121.205000", "141122.695000", "141124.185000", "141125.675000", "141127.165000", "141128.655000", "141130.145000", "141131.635000", "141133.125000", "141134.615000", "141136.105000", "141137.595000", "141139.085000", "141140.575000", "141142.065000", "141143.555000", "141145.045000", "141146.535000", "141148.025000", "141149.515000", "141151.005000", "141152.495000", "141153.985000", "141155.475000", "141156.965000", "141158.455000", "141159.945000", "141201.435000", "141202.925000", "141204.415000", "141205.905000", "141207.395000", "141208.885000", "141210.375000", "141211.865000", "141213.355000", "141214.845000", "141216.335000", "141217.825000", "141219.315000", "141220.805000", "141222.295000", "141223.785000", "141225.275000", "141226.765000", "141228.255000", "141229.745000", "141231.235000", "141232.725000", "141234.215000", "141235.705000", "141237.195000", "141238.685000", "141240.175000", "141241.665000", "141243.155000", "141244.645000", "141246.135000", "141247.625000", "141249.115000", "141250.605000", "141252.095000", "141253.585000", "141255.075000", "141256.565000", "141258.055000", "141259.545000", "141301.035000", "141302.525000", "141304.015000", "141305.505000", "141306.995000", "141308.485000", "141309.975000", "141311.465000", "141312.955000", "141314.445000", "141315.935000", "141317.425000", "141318.915000", "141320.405000", "141321.895000", "141323.385000", "141324.875000"],
      "ContentTime": ["141000.399000", "141000.403000", "141000.406000", "141000.410000", "141000.413000", "141000.416000", "141000.420000", "141000.423000", "141000.432000", "141000.435000", "141000.438000", "141000.442000", "141000.445000", "141000.448000", "141000.452000", "141000.455000", "141000.458000", "141000.462000", "141000.465000", "141000.468000", "141000.472000", "141000.475000", "141000.478000", "141020.352000", "141020.356000", "141020.359000", "141020.363000", "141020.366000", "141020.369000", "141020.373000", "141020.376000", "141020.379000", "141020.383000", "141020.386000", "141020.389000", "141020.392000", "141020.396000", "141020.399000", "141020.402000", "141020.405000", "141020.409000", "141020.412000", "141020.415000", "141040.352000", "141040.368000", "141040.371000", "141040.375000", "141040.378000", "141040.381000", "141040.385000", "141040.388000", "141040.391000", "141040.395000", "141040.398000", "141040.402000", "141040.405000", "141040.409000", "141040.412000", "141040.416000", "141040.420000", "141040.423000", "141040.426000", "141040.430000", "141100.353000", "141100.357000", "141100.360000", "141100.363000", "141100.367000", "141100.370000", "141100.373000", "141100.377000", "141100.380000", "141100.383000", "141100.387000", "141100.390000", "141100.393000", "141100.397000", "141100.400000", "141100.403000", "141100.407000", "141100.410000", "141100.418000", "141100.421000", "141100.424000", "141120.352000", "141120.356000", "141120.359000", "141120.363000", "141120.366000", "141120.369000", "141120.373000", "141120.376000", "141120.379000", "141120.383000", "141120.386000", "141120.390000", "141120.393000", "141120.396000", "141120.400000", "141120.403000", "141120.406000", "141120.410000", "141120.413000", "141120.416000", "141200.352000", "141200.356000", "141200.359000", "141200.362000", "141200.366000", "141200.378000", "141200.381000", "141200.384000", "141200.388000", "141200.391000", "141200.394000", "141200.398000", "141200.401000", "141200.404000", "141200.408000", "141200.411000", "141200.415000", "141200.418000", "141200.421000", "141200.425000", "141200.428000", "141200.431000", "141200.435000", "141200.438000", "141200.441000", "141200.445000", "141200.448000", "141240.352000", "141240.356000", "141240.359000", "141240.362000", "141240.366000", "141240.377000", "141240.380000", "141240.383000", "141240.386000", "141240.390000", "141240.393000", "141240.397000", "141240.415000", "141240.419000", "141240.422000", "141240.425000", "141240.429000", "141240.432000", "141240.435000", "141240.439000", "141240.442000", "141240.446000", "141240.449000", "141240.452000", "141240.456000", "141240.459000", "141240.462000", "141320.353000", "141320.383000", "141320.387000", "141320.390000", "141320.394000", "141320.397000", "141320.400000", "141320.404000", "141320.407000", "141320.410000", "141320.414000", "141320.417000", "141320.421000", "141320.424000", "141320.427000", "141320.431000", "141320.434000", "141320.438000", "141320.441000", "141320.444000", "141320.448000", "141320.451000", "141320.455000", "141320.458000", "141320.461000", "141320.465000", "141320.468000", "141327.120000", "141327.124000", "141327.127000", "141327.131000", "141327.134000"],
      "InstanceCreationTime": ["141000.399000", "141000.403000", "141000.406000", "141000.410000", "141000.413000", "141000.416000", "141000.420000", "141000.423000", "141000.432000", "141000.435000", "141000.438000", "141000.442000", "141000.445000", "141000.448000", "141000.452000", "141000.455000", "141000.458000", "141000.462000", "141000.465000", "141000.468000", "141000.472000", "141000.475000", "141000.478000", "141020.352000", "141020.356000", "141020.359000", "141020.363000", "141020.366000", "141020.369000", "141020.373000", "141020.376000", "141020.379000", "141020.383000", "141020.386000", "141020.389000", "141020.392000", "141020.396000", "141020.399000", "141020.402000", "141020.405000", "141020.409000", "141020.412000", "141020.415000", "141040.352000", "141040.368000", "141040.371000", "141040.375000", "141040.378000", "141040.381000", "141040.385000", "141040.388000", "141040.391000", "141040.395000", "141040.398000", "141040.402000", "141040.405000", "141040.409000", "141040.412000", "141040.416000", "141040.420000", "141040.423000", "141040.426000", "141040.430000", "141100.353000", "141100.357000", "141100.360000", "141100.363000", "141100.367000", "141100.370000", "141100.373000", "141100.377000", "141100.380000", "141100.383000", "141100.387000", "141100.390000", "141100.393000", "141100.397000", "141100.400000", "141100.403000", "141100.407000", "141100.410000", "141100.418000", "141100.421000", "141100.424000", "141120.352000", "141120.356000", "141120.359000", "141120.363000", "141120.366000", "141120.369000", "141120.373000", "141120.376000", "141120.379000", "141120.383000", "141120.386000", "141120.390000", "141120.393000", "141120.396000", "141120.400000", "141120.403000", "141120.406000", "141120.410000", "141120.413000", "141120.416000", "141200.352000", "141200.356000", "141200.359000", "141200.362000", "141200.366000", "141200.378000", "141200.381000", "141200.384000", "141200.388000", "141200.391000", "141200.394000", "141200.398000", "141200.401000", "141200.404000", "141200.408000", "141200.411000", "141200.415000", "141200.418000", "141200.421000", "141200.425000", "141200.428000", "141200.431000", "141200.435000", "141200.438000", "141200.441000", "141200.445000", "141200.448000", "141240.352000", "141240.356000", "141240.359000", "141240.362000", "141240.366000", "141240.377000", "141240.380000", "141240.383000", "141240.386000", "141240.390000", "141240.393000", "141240.397000", "141240.415000", "141240.419000", "141240.422000", "141240.425000", "141240.429000", "141240.432000", "141240.435000", "141240.439000", "141240.442000", "141240.446000", "141240.449000", "141240.452000", "141240.456000", "141240.459000", "141240.462000", "141320.353000", "141320.383000", "141320.387000", "141320.390000", "141320.394000", "141320.397000", "141320.400000", "141320.404000", "141320.407000", "141320.410000", "141320.414000", "141320.417000", "141320.421000", "141320.424000", "141320.427000", "141320.431000", "141320.434000", "141320.438000", "141320.441000", "141320.444000", "141320.448000", "141320.451000", "141320.455000", "141320.458000", "141320.461000", "141320.465000", "141320.468000", "141327.120000", "141327.124000", "141327.127000", "141327.131000", "141327.134000"],
      "InstanceNumber": [1, 2, 3, 4, 5, 6, 7, 8, 9, 10, 11, 12, 13, 14, 15, 16, 17, 18, 19, 20, 21, 22, 23, 24, 25, 26, 27, 28, 29, 30, 31, 32, 33, 34, 35, 36, 37, 38, 39, 40, 41, 42, 43, 44, 45, 46, 47, 48, 49, 50, 51, 52, 53, 54, 55, 56, 57, 58, 59, 60, 61, 62, 63, 64, 65, 66, 67, 68, 69, 70, 71, 72, 73, 74, 75, 76, 77, 78, 79, 80, 81, 82, 83, 84, 85, 86, 87, 88, 89, 90, 91, 92, 93, 94, 95, 96, 97, 98, 99, 100, 101, 102, 103, 104, 105, 106, 107, 108, 109, 110, 111, 112, 113, 114, 115, 116, 117, 118, 119, 120, 121, 122, 123, 124, 125, 126, 127, 128, 129, 130, 131, 132, 133, 134, 135, 136, 137, 138, 139, 140, 141, 142, 143, 144, 145, 146, 147, 148, 149, 150, 151, 152, 153, 154, 155, 156, 157, 158, 159, 160, 161, 162, 163, 164, 165, 166, 167, 168, 169, 170, 171, 172, 173, 174, 175, 176, 177, 178, 179, 180, 181, 182, 183, 184, 185, 186, 187, 188, 189, 190],
      "LargestImagePixelValue": [40175, 38840, 38167, 38320, 37656, 38034, 37784, 37666, 37342, 37939, 37297, 37514, 37868, 37594, 38142, 37639, 37467, 37586, 37540, 37301, 37261, 37686, 37551, 37633, 37699, 37964, 37373, 38069, 37332, 37755, 37790, 37259, 37469, 37503, 37907, 37802, 37409, 37488, 38242, 37451, 37586, 37471, 37983, 37380, 37920, 38063, 37718, 37978, 37714, 37794, 37617, 38050, 38674, 37850, 37445, 37248, 38057, 37891, 37594, 37702, 38006, 38081, 37624, 37769, 38059, 37733, 37685, 38015, 37624, 37781, 37882, 37735, 37716, 37405, 37607, 37657, 37435, 37690, 37695, 37913, 37828, 38142, 37442, 38194, 37731, 37680, 37625, 37933, 37971, 37350, 37893, 37590, 38236, 37431, 37747, 37835, 38092, 37401, 38030, 37867, 37451, 38209, 37719, 38252, 38169, 38264, 37824, 37997, 38178, 38217, 37809, 38048, 38522, 38120, 38507, 37552, 37655, 37495, 38801, 37919, 38080, 38344, 38226, 38241, 37921, 38318, 38186, 38208, 38266, 38155, 37797, 37873, 38019, 38449, 37898, 37971, 37985, 38438, 37990, 37645, 38048, 37743, 38465, 37845, 37981, 37827, 37986, 37762, 38643, 38028, 38241, 37612, 37944, 37811, 37897, 37722, 37759, 38446, 37608, 38193, 37899, 38209, 37807, 38240, 38382, 38029, 37880, 37503, 38073, 37692, 37768, 38145, 37890, 37671, 38076, 37780, 37423, 36797, 36722, 36722, 36823, 37110, 36635, 36797, 36855, 36106, 36544, 36314, 36204, 36352],
      "WindowCenter": [10137.0, 10089.0, 10069.0, 10047.0, 10050.0, 10052.0, 10041.0, 10037.0, 10038.0, 10062.0, 10059.0, 10054.0, 10049.0, 10040.0, 10046.0, 10062.0, 10072.0, 10060.0, 10052.0, 10041.0, 10033.0, 10045.0, 10038.0, 10054.0, 10072.0, 10044.0, 10038.0, 10035.0, 10037.0, 10044.0, 10063.0, 10051.0, 10055.0, 10051.0, 10063.0, 10063.0, 10046.0, 10039.0, 10053.0, 10038.0, 10048.0, 10046.0, 10044.0, 10030.0, 10034.0, 10045.0, 10053.0, 10055.0, 10038.0, 10013.0, 10008.0, 10023.0, 10057.0, 10064.0, 10075.0, 10060.0, 10057.0, 10039.0, 10029.0, 10014.0, 10036.0, 10027.0, 10037.0, 10036.0, 10043.0, 10038.0, 10044.0, 10046.0, 10039.0, 10021.0, 10018.0, 10026.0, 10053.0, 10063.0, 10083.0, 10069.0, 10042.0, 10019.0, 10003.0, 10025.0, 10034.0, 10045.0, 10049.0, 10071.0, 10056.0, 10055.0, 10046.0, 10052.0, 10055.0, 10050.0, 10048.0, 10041.0, 10070.0, 10083.0, 10067.0, 10048.0, 10047.0, 10040.0, 10061.0, 10059.0, 10053.0, 10040.0, 10015.0, 10010.0, 10010.0, 10041.0, 10052.0, 10053.0, 10031.0, 10037.0, 10025.0, 10043.0, 10035.0, 10037.0, 10050.0, 10041.0, 10039.0, 10030.0, 10024.0, 10010.0, 10008.0, 10007.0, 10015.0, 10041.0, 10054.0, 10045.0, 10046.0, 10046.0, 10068.0, 10073.0, 10066.0, 10058.0, 10052.0, 10044.0, 10022.0, 10028.0, 10028.0, 10051.0, 10055.0, 10058.0, 10047.0, 10041.0, 10051.0, 10040.0, 10054.0, 10032.0, 10029.0, 10028.0, 10065.0, 10066.0, 10056.0, 10030.0, 10011.0, 10018.0, 10036.0, 10055.0, 10075.0, 10073.0, 10034.0, 10012.0, 10000.0, 10008.0, 10011.0, 10040.0, 10043.0, 10066.0, 10067.0, 10050.0, 10063.0, 10033.0, 10039.0, 10053.0, 10065.0, 10077.0, 10078.0, 10062.0, 10035.0, 10025.0, 10039.0, 10038.0, 10035.0, 10008.0, 9959.0, 9944.0, 9957.0, 9944.0, 9953.0, 9963.0, 9971.0, 9981.0],
      "WindowWidth": [21548.0, 21425.0, 21366.0, 21309.0, 21315.0, 21312.0, 21290.0, 21278.0, 21283.0, 21336.0, 21333.0, 21322.0, 21310.0, 21288.0, 21302.0, 21338.0, 21362.0, 21335.0, 21316.0, 21289.0, 21271.0, 21295.0, 21283.0, 21316.0, 21360.0, 21292.0, 21281.0, 21271.0, 21277.0, 21293.0, 21337.0, 21317.0, 21321.0, 21314.0, 21338.0, 21339.0, 21299.0, 21284.0, 21315.0, 21283.0, 21306.0, 21302.0, 21292.0, 21264.0, 21269.0, 21296.0, 21315.0, 21319.0, 21278.0, 21222.0, 21209.0, 21245.0, 21320.0, 21344.0, 21369.0, 21336.0, 21323.0, 21283.0, 21260.0, 21227.0, 21273.0, 21256.0, 21278.0, 21275.0, 21291.0, 21283.0, 21293.0, 21299.0, 21283.0, 21243.0, 21234.0, 21251.0, 21314.0, 21338.0, 21387.0, 21353.0, 21289.0, 21235.0, 21201.0, 21251.0, 21269.0, 21298.0, 21309.0, 21354.0, 21323.0, 21317.0, 21299.0, 21309.0, 21321.0, 21312.0, 21305.0, 21292.0, 21352.0, 21385.0, 21347.0, 21302.0, 21299.0, 21285.0, 21329.0, 21330.0, 21316.0, 21284.0, 21228.0, 21215.0, 21217.0, 21285.0, 21311.0, 21312.0, 21264.0, 21275.0, 21246.0, 21290.0, 21271.0, 21277.0, 21303.0, 21286.0, 21280.0, 21260.0, 21241.0, 21214.0, 21207.0, 21206.0, 21227.0, 21285.0, 21318.0, 21297.0, 21298.0, 21301.0, 21347.0, 21362.0, 21346.0, 21324.0, 21313.0, 21290.0, 21246.0, 21257.0, 21257.0, 21308.0, 21322.0, 21330.0, 21303.0, 21290.0, 21308.0, 21286.0, 21313.0, 21268.0, 21260.0, 21260.0, 21339.0, 21346.0, 21321.0, 21261.0, 21217.0, 21234.0, 21277.0, 21320.0, 21364.0, 21359.0, 21272.0, 21217.0, 21188.0, 21208.0, 21220.0, 21282.0, 21290.0, 21347.0, 21352.0, 21312.0, 21337.0, 21270.0, 21284.0, 21313.0, 21345.0, 21374.0, 21377.0, 21339.0, 21275.0, 21259.0, 21285.0, 21280.0, 21273.0, 21207.0, 21099.0, 21065.0, 21094.0, 21065.0, 21082.0, 21107.0, 21123.0, 21153.0]
    },
    "slices": {}
  }
}