{
  "AcquisitionMatrixPE": 104,
  "AcquisitionNumber": 1,
  "AcquisitionTime": "14:08:43.265000",
  "BandwidthPerPixelPhaseEncode": 17.17,
  "BaseResolution": 104,
  "BodyPartExamined": "BRAIN",
  "CoilCombinationMethod": "Sum of Squares",
  "ConsistencyInfo": "N4_VE11C_LATEST_20160120",
  "ConversionSoftware": "dcm2niix",
  "ConversionSoftwareVersion": "v1.0.20211006",
  "DerivedVendorReportedEchoSpacing": 0.000560011,
  "DeviceSerialNumber": "167006",
  "DwellTime": 2.1e-06,
  "EchoTime": 0.037,
  "EchoTime1": 0.037,
  "EchoTime2": 0.001,
  "EchoTrainLength": 104,
  "EffectiveEchoSpacing": 0.000560011,
  "FlipAngle": 52,
  "HeudiconvVersion": "0.10.0",
  "ImageComments": "Unaliased MB4/PE3/LB",
  "ImageOrientationPatientDICOM": [0.999352, -0.00570858, 0.0355416, 0.0139545, 0.971575, -0.236319],
  "ImageOrientationText": "Tra>Cor(-13.7)>Sag(1.9)",
  "ImageType": [
    "ORIGINAL",
    "PRIMARY",
    "P",
    "MB",
    "ND",
    "MOSAIC",
    "PHASE"
],
  "ImagingFrequency": 123.259,
  "InPlanePhaseEncodingDirectionDICOM": "COL",
  "InstitutionAddress": "Chemin Queen-Mary 4565,Montreal,District,CA,H3W 1W5",
  "InstitutionName": "IUGM",
  "InstitutionalDepartmentName": "Department",
  "MRAcquisitionType": "2D",
  "MagneticFieldStrength": 3,
  "Manufacturer": "Siemens",
  "ManufacturersModelName": "Prisma_fit",
  "MatrixCoilMode": "SENSE",
  "Modality": "MR",
  "MultibandAccelerationFactor": 4,
  "PartialFourier": 1,
  "PatientPosition": "HFS",
  "PercentPhaseFOV": 100,
  "PercentSampling": 100,
  "PhaseEncodingDirection": "j",
  "PhaseEncodingSteps": 104,
  "PhaseResolution": 1,
  "PixelBandwidth": 2290,
  "ProcedureStepDescription": "memory^things",
  "ProtocolName": "func_task-things_run-6",
  "PulseSequenceDetails": "%CustomerSeq%\\cmrr_mbep2d_bold",
  "ReceiveCoilActiveElements": "HC1-7;NC1,2",
  "ReceiveCoilName": "HeadNeck_64",
  "ReconMatrixPE": 104,
  "RepetitionTime": 1.49,
  "SAR": 0.0513107,
  "ScanOptions": "FS",
  "ScanningSequence": "EP",
  "SequenceName": "epfid2d1_104",
  "SequenceVariant": "SK\\SS",
  "SeriesDescription": "func_task-things_run-6",
  "SeriesNumber": 32,
  "ShimSetting": [637, -7217, -8764, 695, 46, -13, 79, -6],
  "SliceThickness": 2,
  "SliceTiming": [0, 0.785, 0.0975, 0.8825, 0.195, 0.98, 0.295, 1.0775, 0.3925, 1.175, 0.49, 1.275, 0.5875, 1.3725, 0.685, 0, 0.785, 0.0975, 0.8825, 0.195, 0.98, 0.295, 1.0775, 0.3925, 1.175, 0.49, 1.275, 0.5875, 1.3725, 0.685, 0, 0.785, 0.0975, 0.8825, 0.195, 0.98, 0.295, 1.0775, 0.3925, 1.175, 0.49, 1.275, 0.5875, 1.3725, 0.685, 0, 0.785, 0.0975, 0.8825, 0.195, 0.98, 0.295, 1.0775, 0.3925, 1.175, 0.49, 1.275, 0.5875, 1.3725, 0.685],
  "SoftwareVersions": "syngo MR E11",
  "SpacingBetweenSlices": 2,
  "StationName": "MRC35049",
  "TaskName": "things",
  "TotalReadoutTime": 0.0576811,
  "TxRefAmp": 237.736,
  "WipMemBlock": "285dd2a6-127e-4adf-ba4a-d92c20660347||Sequence: R016 ve11c/master r/e634e98; Dec 19 2017 11:00:25 by eja",
  "dcmmeta_affine": [
    [-1.9987038373947144, 0.027909021824598312, 0.06636451184749603, 105.70950317382812],
    [0.011417153291404247, 1.943150520324707, -0.4733240604400635, -76.74337005615234],
    [0.07108312845230103, 0.47263845801353455, 1.9420504570007324, -56.8017463684082],
    [0.0, 0.0, 0.0, 1.0]
],
  "dcmmeta_reorient_transform": [
    [0.0, -1.0, 0.0, 103.0],
    [1.0, 0.0, 0.0, 0.0],
    [0.0, 0.0, 1.0, 0.0],
    [0.0, 0.0, 0.0, 1.0]
],
  "dcmmeta_shape": [104, 104, 60, 190],
  "dcmmeta_slice_dim": 2,
  "dcmmeta_version": 0.6,
  "global": {
    "const": {
      "AcquisitionMatrix": [104, 0, 0, 104],
      "AngioFlag": "N",
      "BitsAllocated": 16,
      "BitsStored": 16,
      "BodyPartExamined": "BRAIN",
      "Columns": 832,
      "EchoNumbers": 1,
      "EchoTime": 37.0,
      "EchoTrainLength": 104,
      "FlipAngle": 52.0,
      "HighBit": 15,
      "ImageOrientationPatient": [0.99935189471065, -0.0057085766033, 0.03554156287208, 0.01395451046583, 0.97157526459781, -0.2363192265969],
      "ImagePositionPatient": [-846.27119499123, -826.55208462507, 138.0461521901],
      "ImageType": [
        "ORIGINAL",
        "PRIMARY",
        "P",
        "MB",
        "ND",
        "MOSAIC"
],
      "ImagedNucleus": "1H",
      "ImagingFrequency": 123.259095,
      "InPlanePhaseEncodingDirection": "COL",
      "LargestImagePixelValue": 4095,
      "MRAcquisitionType": "2D",
      "MagneticFieldStrength": 3.0,
      "Manufacturer": "SIEMENS",
      "ManufacturerModelName": "Prisma_fit",
      "Modality": "MR",
      "NumberOfAverages": 1.0,
      "NumberOfPhaseEncodingSteps": 104,
      "PercentPhaseFieldOfView": 100.0,
      "PercentSampling": 100.0,
      "PerformedProcedureStepStartTime": "115124.021000",
      "PhotometricInterpretation": "MONOCHROME2",
      "PixelBandwidth": 2290.0,
      "PixelRepresentation": 0,
      "PixelSpacing": [2.0, 2.0],
      "ProtocolName": "func_task-things_run-6",
      "RepetitionTime": 1490.0,
      "RescaleIntercept": -4096.0,
      "RescaleSlope": 2.0,
      "RescaleType": "US",
      "Rows": 832,
      "SAR": 0.05131074513921,
      "SamplesPerPixel": 1,
      "ScanOptions": "FS",
      "ScanningSequence": "EP",
      "SequenceName": "epfid2d1_104",
      "SequenceVariant": [
        "SK",
        "SS"
],
      "SeriesDescription": "func_task-things_run-6",
      "SeriesNumber": 32,
      "SeriesTime": "141000.530000",
      "SliceLocation": -33.486009311005,
      "SliceThickness": 2.0,
      "SmallestImagePixelValue": 0,
      "SoftwareVersions": "syngo MR E11",
      "SpacingBetweenSlices": 2.0000000309362,
      "SpecificCharacterSet": "ISO_IR 100",
      "StudyID": "1",
      "StudyTime": "115123.948000",
      "TransmitCoilName": "Body",
      "VariableFlipAngleFlag": "N",
      "WindowCenterWidthExplanation": "Algo1",
      "dBdt": 0.0},
    "slices": {}
  },
  "time": {
    "samples": {
      "AcquisitionNumber": [1, 2, 3, 4, 5, 6, 7, 8, 9, 10, 11, 12, 13, 14, 15, 16, 17, 18, 19, 20, 21, 22, 23, 24, 25, 26, 27, 28, 29, 30, 31, 32, 33, 34, 35, 36, 37, 38, 39, 40, 41, 42, 43, 44, 45, 46, 47, 48, 49, 50, 51, 52, 53, 54, 55, 56, 57, 58, 59, 60, 61, 62, 63, 64, 65, 66, 67, 68, 69, 70, 71, 72, 73, 74, 75, 76, 77, 78, 79, 80, 81, 82, 83, 84, 85, 86, 87, 88, 89, 90, 91, 92, 93, 94, 95, 96, 97, 98, 99, 100, 101, 102, 103, 104, 105, 106, 107, 108, 109, 110, 111, 112, 113, 114, 115, 116, 117, 118, 119, 120, 121, 122, 123, 124, 125, 126, 127, 128, 129, 130, 131, 132, 133, 134, 135, 136, 137, 138, 139, 140, 141, 142, 143, 144, 145, 146, 147, 148, 149, 150, 151, 152, 153, 154, 155, 156, 157, 158, 159, 160, 161, 162, 163, 164, 165, 166, 167, 168, 169, 170, 171, 172, 173, 174, 175, 176, 177, 178, 179, 180, 181, 182, 183, 184, 185, 186, 187, 188, 189, 190],
      "AcquisitionTime": ["140843.265000", "140844.755000", "140846.245000", "140847.735000", "140849.225000", "140850.715000", "140852.205000", "140853.695000", "140855.185000", "140856.675000", "140858.165000", "140859.655000", "140901.145000", "140902.635000", "140904.125000", "140905.615000", "140907.105000", "140908.595000", "140910.085000", "140911.575000", "140913.065000", "140914.555000", "140916.045000", "140917.535000", "140919.025000", "140920.515000", "140922.005000", "140923.495000", "140924.985000", "140926.475000", "140927.965000", "140929.455000", "140930.945000", "140932.435000", "140933.925000", "140935.415000", "140936.905000", "140938.395000", "140939.885000", "140941.375000", "140942.865000", "140944.355000", "140945.845000", "140947.335000", "140948.825000", "140950.315000", "140951.805000", "140953.295000", "140954.785000", "140956.275000", "140957.765000", "140959.255000", "141000.745000", "141002.235000", "141003.725000", "141005.215000", "141006.705000", "141008.195000", "141009.685000", "141011.175000", "141012.665000", "141014.155000", "141015.645000", "141017.135000", "141018.625000", "141020.115000", "141021.605000", "141023.095000", "141024.585000", "141026.075000", "141027.565000", "141029.055000", "141030.545000", "141032.035000", "141033.525000", "141035.015000", "141036.505000", "141037.995000", "141039.485000", "141040.975000", "141042.465000", "141043.955000", "141045.445000", "141046.935000", "141048.425000", "141049.915000", "141051.405000", "141052.895000", "141054.385000", "141055.875000", "141057.365000", "141058.855000", "141100.345000", "141101.835000", "141103.325000", "141104.815000", "141106.305000", "141107.795000", "141109.285000", "141110.775000", "141112.265000", "141113.755000", "141115.245000", "141116.735000", "141118.225000", "141119.715000", "141121.205000", "141122.695000", "141124.185000", "141125.675000", "141127.165000", "141128.655000", "141130.145000", "141131.635000", "141133.125000", "141134.615000", "141136.105000", "141137.595000", "141139.085000", "141140.575000", "141142.065000", "141143.555000", "141145.045000", "141146.535000", "141148.025000", "141149.515000", "141151.005000", "141152.495000", "141153.985000", "141155.475000", "141156.965000", "141158.455000", "141159.945000", "141201.435000", "141202.925000", "141204.415000", "141205.905000", "141207.395000", "141208.885000", "141210.375000", "141211.865000", "141213.355000", "141214.845000", "141216.335000", "141217.825000", "141219.315000", "141220.805000", "141222.295000", "141223.785000", "141225.275000", "141226.765000", "141228.255000", "141229.745000", "141231.235000", "141232.725000", "141234.215000", "141235.705000", "141237.195000", "141238.685000", "141240.175000", "141241.665000", "141243.155000", "141244.645000", "141246.135000", "141247.625000", "141249.115000", "141250.605000", "141252.095000", "141253.585000", "141255.075000", "141256.565000", "141258.055000", "141259.545000", "141301.035000", "141302.525000", "141304.015000", "141305.505000", "141306.995000", "141308.485000", "141309.975000", "141311.465000", "141312.955000", "141314.445000", "141315.935000", "141317.425000", "141318.915000", "141320.405000", "141321.895000", "141323.385000", "141324.875000"],
      "ContentTime": ["141000.532000", "141000.534000", "141000.537000", "141000.540000", "141000.542000", "141000.545000", "141000.547000", "141000.550000", "141000.552000", "141000.555000", "141000.557000", "141000.560000", "141000.562000", "141000.565000", "141000.568000", "141000.570000", "141000.573000", "141000.575000", "141000.578000", "141000.580000", "141000.583000", "141000.585000", "141000.588000", "141020.455000", "141020.458000", "141020.460000", "141020.463000", "141020.465000", "141020.468000", "141020.470000", "141020.473000", "141020.476000", "141020.478000", "141020.481000", "141020.489000", "141020.491000", "141020.494000", "141020.496000", "141020.499000", "141020.501000", "141020.504000", "141020.506000", "141020.509000", "141040.499000", "141040.502000", "141040.505000", "141040.507000", "141040.510000", "141040.521000", "141040.524000", "141040.526000", "141040.529000", "141040.531000", "141040.534000", "141040.536000", "141040.539000", "141040.541000", "141040.544000", "141040.546000", "141040.549000", "141040.551000", "141040.554000", "141040.556000", "141100.477000", "141100.480000", "141100.483000", "141100.485000", "141100.488000", "141100.490000", "141100.493000", "141100.495000", "141100.498000", "141100.500000", "141100.503000", "141100.505000", "141100.508000", "141100.510000", "141100.513000", "141100.515000", "141100.518000", "141100.521000", "141100.523000", "141100.525000", "141100.528000", "141120.459000", "141120.461000", "141120.464000", "141120.467000", "141120.469000", "141120.472000", "141120.474000", "141120.477000", "141120.479000", "141120.482000", "141120.484000", "141120.487000", "141120.489000", "141120.492000", "141120.495000", "141120.497000", "141120.500000", "141120.502000", "141120.505000", "141120.507000", "141200.514000", "141200.516000", "141200.519000", "141200.521000", "141200.524000", "141200.527000", "141200.529000", "141200.532000", "141200.534000", "141200.537000", "141200.539000", "141200.542000", "141200.545000", "141200.547000", "141200.550000", "141200.552000", "141200.555000", "141200.557000", "141200.568000", "141200.570000", "141200.573000", "141200.575000", "141200.578000", "141200.580000", "141200.583000", "141200.586000", "141200.588000", "141240.508000", "141240.511000", "141240.514000", "141240.516000", "141240.519000", "141240.521000", "141240.524000", "141240.526000", "141240.529000", "141240.531000", "141240.534000", "141240.537000", "141240.539000", "141240.542000", "141240.544000", "141240.547000", "141240.552000", "141240.554000", "141240.557000", "141240.560000", "141240.562000", "141240.565000", "141240.567000", "141240.570000", "141240.572000", "141240.575000", "141240.577000", "141320.522000", "141320.525000", "141320.528000", "141320.530000", "141320.542000", "141320.544000", "141320.549000", "141320.552000", "141320.554000", "141320.557000", "141320.560000", "141320.562000", "141320.565000", "141320.567000", "141320.570000", "141320.572000", "141320.575000", "141320.577000", "141320.580000", "141320.582000", "141320.585000", "141320.588000", "141320.590000", "141320.593000", "141320.595000", "141320.598000", "141320.600000", "141327.626000", "141327.629000", "141327.631000", "141327.634000", "141327.637000"],
      "InstanceCreationTime": ["141000.532000", "141000.534000", "141000.537000", "141000.540000", "141000.542000", "141000.545000", "141000.547000", "141000.550000", "141000.552000", "141000.555000", "141000.557000", "141000.560000", "141000.562000", "141000.565000", "141000.568000", "141000.570000", "141000.573000", "141000.575000", "141000.578000", "141000.580000", "141000.583000", "141000.585000", "141000.588000", "141020.455000", "141020.458000", "141020.460000", "141020.463000", "141020.465000", "141020.468000", "141020.470000", "141020.473000", "141020.476000", "141020.478000", "141020.481000", "141020.489000", "141020.491000", "141020.494000", "141020.496000", "141020.499000", "141020.501000", "141020.504000", "141020.506000", "141020.509000", "141040.499000", "141040.502000", "141040.505000", "141040.507000", "141040.510000", "141040.521000", "141040.524000", "141040.526000", "141040.529000", "141040.531000", "141040.534000", "141040.536000", "141040.539000", "141040.541000", "141040.544000", "141040.546000", "141040.549000", "141040.551000", "141040.554000", "141040.556000", "141100.477000", "141100.480000", "141100.483000", "141100.485000", "141100.488000", "141100.490000", "141100.493000", "141100.495000", "141100.498000", "141100.500000", "141100.503000", "141100.505000", "141100.508000", "141100.510000", "141100.513000", "141100.515000", "141100.518000", "141100.521000", "141100.523000", "141100.525000", "141100.528000", "141120.459000", "141120.461000", "141120.464000", "141120.467000", "141120.469000", "141120.472000", "141120.474000", "141120.477000", "141120.479000", "141120.482000", "141120.484000", "141120.487000", "141120.489000", "141120.492000", "141120.495000", "141120.497000", "141120.500000", "141120.502000", "141120.505000", "141120.507000", "141200.514000", "141200.516000", "141200.519000", "141200.521000", "141200.524000", "141200.527000", "141200.529000", "141200.532000", "141200.534000", "141200.537000", "141200.539000", "141200.542000", "141200.545000", "141200.547000", "141200.550000", "141200.552000", "141200.555000", "141200.557000", "141200.568000", "141200.570000", "141200.573000", "141200.575000", "141200.578000", "141200.580000", "141200.583000", "141200.586000", "141200.588000", "141240.508000", "141240.511000", "141240.514000", "141240.516000", "141240.519000", "141240.521000", "141240.524000", "141240.526000", "141240.529000", "141240.531000", "141240.534000", "141240.537000", "141240.539000", "141240.542000", "141240.544000", "141240.547000", "141240.552000", "141240.554000", "141240.557000", "141240.560000", "141240.562000", "141240.565000", "141240.567000", "141240.570000", "141240.572000", "141240.575000", "141240.577000", "141320.522000", "141320.525000", "141320.528000", "141320.530000", "141320.542000", "141320.544000", "141320.549000", "141320.552000", "141320.554000", "141320.557000", "141320.560000", "141320.562000", "141320.565000", "141320.567000", "141320.570000", "141320.572000", "141320.575000", "141320.577000", "141320.580000", "141320.582000", "141320.585000", "141320.588000", "141320.590000", "141320.593000", "141320.595000", "141320.598000", "141320.600000", "141327.626000", "141327.629000", "141327.631000", "141327.634000", "141327.637000"],
      "InstanceNumber": [1, 2, 3, 4, 5, 6, 7, 8, 9, 10, 11, 12, 13, 14, 15, 16, 17, 18, 19, 20, 21, 22, 23, 24, 25, 26, 27, 28, 29, 30, 31, 32, 33, 34, 35, 36, 37, 38, 39, 40, 41, 42, 43, 44, 45, 46, 47, 48, 49, 50, 51, 52, 53, 54, 55, 56, 57, 58, 59, 60, 61, 62, 63, 64, 65, 66, 67, 68, 69, 70, 71, 72, 73, 74, 75, 76, 77, 78, 79, 80, 81, 82, 83, 84, 85, 86, 87, 88, 89, 90, 91, 92, 93, 94, 95, 96, 97, 98, 99, 100, 101, 102, 103, 104, 105, 106, 107, 108, 109, 110, 111, 112, 113, 114, 115, 116, 117, 118, 119, 120, 121, 122, 123, 124, 125, 126, 127, 128, 129, 130, 131, 132, 133, 134, 135, 136, 137, 138, 139, 140, 141, 142, 143, 144, 145, 146, 147, 148, 149, 150, 151, 152, 153, 154, 155, 156, 157, 158, 159, 160, 161, 162, 163, 164, 165, 166, 167, 168, 169, 170, 171, 172, 173, 174, 175, 176, 177, 178, 179, 180, 181, 182, 183, 184, 185, 186, 187, 188, 189, 190],
      "WindowCenter": [4852.0, 4856.0, 4854.0, 4878.0, 4854.0, 4854.0, 4854.0, 4858.0, 4854.0, 4858.0, 4854.0, 4856.0, 4854.0, 4878.0, 4856.0, 4878.0, 4854.0, 4878.0, 4856.0, 4852.0, 4856.0, 4854.0, 4876.0, 4854.0, 4880.0, 4852.0, 4878.0, 4854.0, 4876.0, 4856.0, 4856.0, 4854.0, 4856.0, 4878.0, 4852.0, 4854.0, 4856.0, 4856.0, 4856.0, 4878.0, 4878.0, 4878.0, 4856.0, 4856.0, 4854.0, 4856.0, 4878.0, 4854.0, 4854.0, 4856.0, 4858.0, 4856.0, 4854.0, 4854.0, 4878.0, 4880.0, 4856.0, 4878.0, 4880.0, 4854.0, 4854.0, 4854.0, 4878.0, 4854.0, 4878.0, 4854.0, 4876.0, 4876.0, 4852.0, 4854.0, 4852.0, 4856.0, 4856.0, 4856.0, 4856.0, 4854.0, 4880.0, 4854.0, 4878.0, 4858.0, 4876.0, 4876.0, 4876.0, 4854.0, 4854.0, 4854.0, 4880.0, 4854.0, 4854.0, 4854.0, 4856.0, 4878.0, 4856.0, 4856.0, 4882.0, 4878.0, 4856.0, 4854.0, 4858.0, 4854.0, 4854.0, 4854.0, 4852.0, 4854.0, 4856.0, 4878.0, 4878.0, 4880.0, 4852.0, 4856.0, 4878.0, 4854.0, 4880.0, 4856.0, 4852.0, 4876.0, 4854.0, 4856.0, 4854.0, 4852.0, 4856.0, 4858.0, 4854.0, 4856.0, 4876.0, 4856.0, 4854.0, 4854.0, 4854.0, 4876.0, 4878.0, 4858.0, 4854.0, 4854.0, 4880.0, 4854.0, 4856.0, 4854.0, 4876.0, 4878.0, 4852.0, 4876.0, 4856.0, 4878.0, 4854.0, 4856.0, 4854.0, 4854.0, 4854.0, 4878.0, 4856.0, 4854.0, 4854.0, 4852.0, 4856.0, 4856.0, 4878.0, 4852.0, 4878.0, 4856.0, 4878.0, 4850.0, 4878.0, 4856.0, 4878.0, 4858.0, 4854.0, 4880.0, 4854.0, 4878.0, 4856.0, 4854.0, 4878.0, 4854.0, 4854.0, 4854.0, 4854.0, 4878.0, 4878.0, 4854.0, 4854.0, 4854.0, 4878.0, 4880.0, 4876.0, 4878.0, 4878.0, 4880.0, 4856.0, 4878.0],
      "WindowWidth": [18616.0, 18624.0, 18618.0, 18656.0, 18620.0, 18620.0, 18622.0, 18624.0, 18618.0, 18622.0, 18624.0, 18622.0, 18618.0, 18654.0, 18620.0, 18654.0, 18622.0, 18650.0, 18618.0, 18618.0, 18620.0, 18622.0, 18650.0, 18626.0, 18656.0, 18622.0, 18658.0, 18624.0, 18648.0, 18624.0, 18626.0, 18622.0, 18624.0, 18652.0, 18622.0, 18624.0, 18620.0, 18620.0, 18622.0, 18652.0, 18650.0, 18656.0, 18622.0, 18624.0, 18624.0, 18620.0, 18656.0, 18614.0, 18624.0, 18622.0, 18624.0, 18620.0, 18624.0, 18620.0, 18652.0, 18656.0, 18624.0, 18652.0, 18654.0, 18624.0, 18624.0, 18618.0, 18650.0, 18624.0, 18652.0, 18618.0, 18658.0, 18652.0, 18618.0, 18620.0, 18628.0, 18626.0, 18618.0, 18630.0, 18626.0, 18616.0, 18654.0, 18624.0, 18656.0, 18624.0, 18658.0, 18648.0, 18656.0, 18622.0, 18622.0, 18618.0, 18654.0, 18620.0, 18630.0, 18622.0, 18626.0, 18658.0, 18628.0, 18630.0, 18656.0, 18658.0, 18622.0, 18626.0, 18620.0, 18620.0, 18624.0, 18624.0, 18622.0, 18624.0, 18628.0, 18656.0, 18658.0, 18652.0, 18624.0, 18620.0, 18654.0, 18624.0, 18656.0, 18622.0, 18626.0, 18652.0, 18624.0, 18624.0, 18624.0, 18620.0, 18626.0, 18630.0, 18624.0, 18630.0, 18654.0, 18624.0, 18626.0, 18624.0, 18626.0, 18654.0, 18654.0, 18624.0, 18626.0, 18622.0, 18658.0, 18624.0, 18628.0, 18626.0, 18654.0, 18656.0, 18632.0, 18658.0, 18626.0, 18656.0, 18624.0, 18628.0, 18620.0, 18626.0, 18626.0, 18654.0, 18620.0, 18618.0, 18624.0, 18624.0, 18632.0, 18628.0, 18658.0, 18622.0, 18662.0, 18624.0, 18654.0, 18620.0, 18654.0, 18624.0, 18654.0, 18630.0, 18626.0, 18660.0, 18626.0, 18656.0, 18624.0, 18624.0, 18656.0, 18626.0, 18622.0, 18626.0, 18624.0, 18658.0, 18660.0, 18616.0, 18620.0, 18620.0, 18654.0, 18660.0, 18652.0, 18654.0, 18656.0, 18658.0, 18618.0, 18648.0]
    },
    "slices": {}
  }
}