{
  "AcquisitionMatrixPE": 104,
  "AcquisitionNumber": 1,
  "AcquisitionTime": "13:37:45.637500",
  "BandwidthPerPixelPhaseEncode": 17.17,
  "BaseResolution": 104,
  "BodyPartExamined": "BRAIN",
  "CoilCombinationMethod": "Sum of Squares",
  "ConsistencyInfo": "N4_VE11C_LATEST_20160120",
  "ConversionSoftware": "dcm2niix",
  "ConversionSoftwareVersion": "v1.0.20211006",
  "DerivedVendorReportedEchoSpacing": 0.000560011,
  "DeviceSerialNumber": "167006",
  "DwellTime": 2.1e-06,
  "EchoTime": 0.037,
  "EchoTime1": 0.037,
  "EchoTime2": 0.001,
  "EchoTrainLength": 104,
  "EffectiveEchoSpacing": 0.000560011,
  "FlipAngle": 52,
  "HeudiconvVersion": "0.10.0",
  "ImageComments": "Unaliased MB4/PE3/LB",
  "ImageOrientationPatientDICOM": [0.999352, -0.00570858, 0.0355416, 0.0139545, 0.971575, -0.236319],
  "ImageOrientationText": "Tra>Cor(-13.7)>Sag(1.9)",
  "ImageType": [
    "ORIGINAL",
    "PRIMARY",
    "P",
    "MB",
    "ND",
    "MOSAIC",
    "PHASE"
],
  "ImagingFrequency": 123.259,
  "InPlanePhaseEncodingDirectionDICOM": "COL",
  "InstitutionAddress": "Chemin Queen-Mary 4565,Montreal,District,CA,H3W 1W5",
  "InstitutionName": "IUGM",
  "InstitutionalDepartmentName": "Department",
  "MRAcquisitionType": "2D",
  "MagneticFieldStrength": 3,
  "Manufacturer": "Siemens",
  "ManufacturersModelName": "Prisma_fit",
  "MatrixCoilMode": "SENSE",
  "Modality": "MR",
  "MultibandAccelerationFactor": 4,
  "PartialFourier": 1,
  "PatientPosition": "HFS",
  "PercentPhaseFOV": 100,
  "PercentSampling": 100,
  "PhaseEncodingDirection": "j",
  "PhaseEncodingSteps": 104,
  "PhaseResolution": 1,
  "PixelBandwidth": 2290,
  "ProcedureStepDescription": "memory^things",
  "ProtocolName": "func_task-things_run-1",
  "PulseSequenceDetails": "%CustomerSeq%\\cmrr_mbep2d_bold",
  "ReceiveCoilActiveElements": "HC1-7;NC1,2",
  "ReceiveCoilName": "HeadNeck_64",
  "ReconMatrixPE": 104,
  "RepetitionTime": 1.49,
  "SAR": 0.0513107,
  "ScanOptions": "FS",
  "ScanningSequence": "EP",
  "SequenceName": "epfid2d1_104",
  "SequenceVariant": "SK\\SS",
  "SeriesDescription": "func_task-things_run-1",
  "SeriesNumber": 17,
  "ShimSetting": [637, -7217, -8764, 695, 46, -13, 79, -6],
  "SliceThickness": 2,
  "SliceTiming": [0, 0.785, 0.0975, 0.8825, 0.1975, 0.98, 0.295, 1.0775, 0.3925, 1.1775, 0.49, 1.275, 0.5875, 1.3725, 0.6875, 0, 0.785, 0.0975, 0.8825, 0.1975, 0.98, 0.295, 1.0775, 0.3925, 1.1775, 0.49, 1.275, 0.5875, 1.3725, 0.6875, 0, 0.785, 0.0975, 0.8825, 0.1975, 0.98, 0.295, 1.0775, 0.3925, 1.1775, 0.49, 1.275, 0.5875, 1.3725, 0.6875, 0, 0.785, 0.0975, 0.8825, 0.1975, 0.98, 0.295, 1.0775, 0.3925, 1.1775, 0.49, 1.275, 0.5875, 1.3725, 0.6875],
  "SoftwareVersions": "syngo MR E11",
  "SpacingBetweenSlices": 2,
  "StationName": "MRC35049",
  "TaskName": "things",
  "TotalReadoutTime": 0.0576811,
  "TxRefAmp": 237.736,
  "WipMemBlock": "6f8df00f-93a8-4d5c-9723-994743158f7e||Sequence: R016 ve11c/master r/e634e98; Dec 19 2017 11:00:25 by eja",
  "dcmmeta_affine": [
    [-1.9987038373947144, 0.027909021824598312, 0.06636451184749603, 105.70950317382812],
    [0.011417153291404247, 1.943150520324707, -0.4733240604400635, -76.74337005615234],
    [0.07108312845230103, 0.47263845801353455, 1.9420504570007324, -56.8017463684082],
    [0.0, 0.0, 0.0, 1.0]
],
  "dcmmeta_reorient_transform": [
    [0.0, -1.0, 0.0, 103.0],
    [1.0, 0.0, 0.0, 0.0],
    [0.0, 0.0, 1.0, 0.0],
    [0.0, 0.0, 0.0, 1.0]
],
  "dcmmeta_shape": [104, 104, 60, 190],
  "dcmmeta_slice_dim": 2,
  "dcmmeta_version": 0.6,
  "global": {
    "const": {
      "AcquisitionMatrix": [104, 0, 0, 104],
      "AngioFlag": "N",
      "BitsAllocated": 16,
      "BitsStored": 16,
      "BodyPartExamined": "BRAIN",
      "Columns": 832,
      "EchoNumbers": 1,
      "EchoTime": 37.0,
      "EchoTrainLength": 104,
      "FlipAngle": 52.0,
      "HighBit": 15,
      "ImageOrientationPatient": [0.99935189471065, -0.0057085766033, 0.03554156287208, 0.01395451046583, 0.97157526459781, -0.2363192265969],
      "ImagePositionPatient": [-846.27119499123, -826.55208462507, 138.0461521901],
      "ImageType": [
        "ORIGINAL",
        "PRIMARY",
        "P",
        "MB",
        "ND",
        "MOSAIC"
],
      "ImagedNucleus": "1H",
      "ImagingFrequency": 123.25908,
      "InPlanePhaseEncodingDirection": "COL",
      "LargestImagePixelValue": 4095,
      "MRAcquisitionType": "2D",
      "MagneticFieldStrength": 3.0,
      "Manufacturer": "SIEMENS",
      "ManufacturerModelName": "Prisma_fit",
      "Modality": "MR",
      "NumberOfAverages": 1.0,
      "NumberOfPhaseEncodingSteps": 104,
      "PercentPhaseFieldOfView": 100.0,
      "PercentSampling": 100.0,
      "PerformedProcedureStepStartTime": "115124.021000",
      "PhotometricInterpretation": "MONOCHROME2",
      "PixelBandwidth": 2290.0,
      "PixelRepresentation": 0,
      "PixelSpacing": [2.0, 2.0],
      "ProtocolName": "func_task-things_run-1",
      "RepetitionTime": 1490.0,
      "RescaleIntercept": -4096.0,
      "RescaleSlope": 2.0,
      "RescaleType": "US",
      "Rows": 832,
      "SAR": 0.05131074513921,
      "SamplesPerPixel": 1,
      "ScanOptions": "FS",
      "ScanningSequence": "EP",
      "SequenceName": "epfid2d1_104",
      "SequenceVariant": [
        "SK",
        "SS"
],
      "SeriesDescription": "func_task-things_run-1",
      "SeriesNumber": 17,
      "SeriesTime": "133847.774000",
      "SliceLocation": -33.486009311005,
      "SliceThickness": 2.0,
      "SmallestImagePixelValue": 0,
      "SoftwareVersions": "syngo MR E11",
      "SpacingBetweenSlices": 2.0000000309362,
      "SpecificCharacterSet": "ISO_IR 100",
      "StudyID": "1",
      "StudyTime": "115123.948000",
      "TransmitCoilName": "Body",
      "VariableFlipAngleFlag": "N",
      "WindowCenterWidthExplanation": "Algo1",
      "dBdt": 0.0},
    "slices": {}
  },
  "time": {
    "samples": {
      "AcquisitionNumber": [1, 2, 3, 4, 5, 6, 7, 8, 9, 10, 11, 12, 13, 14, 15, 16, 17, 18, 19, 20, 21, 22, 23, 24, 25, 26, 27, 28, 29, 30, 31, 32, 33, 34, 35, 36, 37, 38, 39, 40, 41, 42, 43, 44, 45, 46, 47, 48, 49, 50, 51, 52, 53, 54, 55, 56, 57, 58, 59, 60, 61, 62, 63, 64, 65, 66, 67, 68, 69, 70, 71, 72, 73, 74, 75, 76, 77, 78, 79, 80, 81, 82, 83, 84, 85, 86, 87, 88, 89, 90, 91, 92, 93, 94, 95, 96, 97, 98, 99, 100, 101, 102, 103, 104, 105, 106, 107, 108, 109, 110, 111, 112, 113, 114, 115, 116, 117, 118, 119, 120, 121, 122, 123, 124, 125, 126, 127, 128, 129, 130, 131, 132, 133, 134, 135, 136, 137, 138, 139, 140, 141, 142, 143, 144, 145, 146, 147, 148, 149, 150, 151, 152, 153, 154, 155, 156, 157, 158, 159, 160, 161, 162, 163, 164, 165, 166, 167, 168, 169, 170, 171, 172, 173, 174, 175, 176, 177, 178, 179, 180, 181, 182, 183, 184, 185, 186, 187, 188, 189, 190],
      "AcquisitionTime": ["133745.637500", "133747.127500", "133748.617500", "133750.107500", "133751.597500", "133753.087500", "133754.577500", "133756.067500", "133757.557500", "133759.047500", "133800.537500", "133802.027500", "133803.517500", "133805.007500", "133806.497500", "133807.987500", "133809.477500", "133810.967500", "133812.457500", "133813.947500", "133815.437500", "133816.927500", "133818.417500", "133819.907500", "133821.397500", "133822.887500", "133824.377500", "133825.867500", "133827.357500", "133828.847500", "133830.337500", "133831.827500", "133833.317500", "133834.807500", "133836.297500", "133837.787500", "133839.277500", "133840.767500", "133842.257500", "133843.747500", "133845.237500", "133846.727500", "133848.217500", "133849.707500", "133851.197500", "133852.687500", "133854.177500", "133855.667500", "133857.157500", "133858.647500", "133900.137500", "133901.627500", "133903.117500", "133904.607500", "133906.097500", "133907.587500", "133909.077500", "133910.567500", "133912.057500", "133913.547500", "133915.037500", "133916.527500", "133918.017500", "133919.507500", "133920.997500", "133922.487500", "133923.977500", "133925.467500", "133926.957500", "133928.447500", "133929.937500", "133931.427500", "133932.917500", "133934.407500", "133935.897500", "133937.387500", "133938.877500", "133940.367500", "133941.857500", "133943.347500", "133944.837500", "133946.327500", "133947.817500", "133949.307500", "133950.797500", "133952.287500", "133953.777500", "133955.267500", "133956.757500", "133958.247500", "133959.737500", "134001.227500", "134002.717500", "134004.207500", "134005.697500", "134007.187500", "134008.677500", "134010.167500", "134011.657500", "134013.147500", "134014.637500", "134016.127500", "134017.617500", "134019.107500", "134020.597500", "134022.087500", "134023.577500", "134025.067500", "134026.557500", "134028.047500", "134029.537500", "134031.027500", "134032.517500", "134034.007500", "134035.497500", "134036.987500", "134038.477500", "134039.967500", "134041.457500", "134042.947500", "134044.437500", "134045.927500", "134047.417500", "134048.907500", "134050.397500", "134051.887500", "134053.377500", "134054.867500", "134056.357500", "134057.847500", "134059.337500", "134100.827500", "134102.317500", "134103.807500", "134105.297500", "134106.787500", "134108.277500", "134109.767500", "134111.257500", "134112.747500", "134114.237500", "134115.727500", "134117.217500", "134118.707500", "134120.197500", "134121.687500", "134123.177500", "134124.667500", "134126.157500", "134127.647500", "134129.137500", "134130.627500", "134132.117500", "134133.607500", "134135.097500", "134136.587500", "134138.077500", "134139.567500", "134141.057500", "134142.547500", "134144.037500", "134145.527500", "134147.017500", "134148.507500", "134149.997500", "134151.487500", "134152.977500", "134154.467500", "134155.957500", "134157.447500", "134158.937500", "134200.427500", "134201.917500", "134203.407500", "134204.897500", "134206.387500", "134207.877500", "134209.367500", "134210.857500", "134212.347500", "134213.837500", "134215.327500", "134216.817500", "134218.307500", "134219.797500", "134221.287500", "134222.777500", "134224.267500", "134225.757500", "134227.247500"],
      "ContentTime": ["133847.776000", "133847.779000", "133847.781000", "133847.784000", "133847.787000", "133847.789000", "133847.792000", "133847.794000", "133847.797000", "133907.797000", "133907.799000", "133907.802000", "133907.805000", "133907.807000", "133907.810000", "133907.812000", "133907.815000", "133907.817000", "133907.820000", "133907.822000", "133907.826000", "133907.828000", "133907.831000", "133907.833000", "133907.836000", "133907.838000", "133907.841000", "133907.843000", "133907.846000", "133927.790000", "133927.793000", "133927.795000", "133927.798000", "133927.800000", "133927.803000", "133927.805000", "133927.808000", "133927.810000", "133927.813000", "133927.815000", "133927.818000", "133927.820000", "133927.822000", "133927.825000", "133927.827000", "133927.830000", "133927.833000", "133927.835000", "133927.838000", "133947.830000", "133947.833000", "133947.835000", "133947.844000", "133947.847000", "133947.849000", "133947.852000", "133947.854000", "133947.857000", "133947.859000", "133947.862000", "133947.864000", "133947.867000", "133947.869000", "133947.872000", "133947.874000", "133947.877000", "133947.879000", "133947.882000", "133947.884000", "134007.772000", "134007.774000", "134007.777000", "134007.780000", "134007.782000", "134007.785000", "134007.787000", "134007.790000", "134007.792000", "134007.795000", "134007.797000", "134007.809000", "134007.811000", "134007.814000", "134007.816000", "134007.819000", "134007.821000", "134007.824000", "134007.826000", "134007.829000", "134007.831000", "134047.838000", "134047.840000", "134047.843000", "134047.845000", "134047.848000", "134047.850000", "134047.853000", "134047.855000", "134047.858000", "134047.860000", "134047.863000", "134047.865000", "134047.868000", "134047.870000", "134047.873000", "134047.875000", "134047.878000", "134047.880000", "134047.883000", "134047.885000", "134047.888000", "134047.890000", "134047.893000", "134047.895000", "134047.898000", "134047.900000", "134047.903000", "134047.906000", "134047.908000", "134047.910000", "134047.913000", "134127.827000", "134127.830000", "134127.833000", "134127.835000", "134127.838000", "134127.840000", "134127.843000", "134127.845000", "134127.848000", "134127.851000", "134127.853000", "134127.856000", "134127.858000", "134127.861000", "134127.863000", "134127.871000", "134127.874000", "134127.876000", "134127.879000", "134127.882000", "134127.885000", "134127.888000", "134127.890000", "134127.893000", "134127.895000", "134127.898000", "134127.901000", "134207.830000", "134207.833000", "134207.835000", "134207.838000", "134207.840000", "134207.843000", "134207.845000", "134207.848000", "134207.850000", "134207.853000", "134207.856000", "134207.858000", "134207.861000", "134207.863000", "134207.865000", "134207.868000", "134207.871000", "134207.873000", "134207.876000", "134207.878000", "134207.881000", "134207.883000", "134207.886000", "134207.888000", "134207.891000", "134207.893000", "134207.896000", "134229.272000", "134229.274000", "134229.277000", "134229.280000", "134229.282000", "134229.285000", "134229.287000", "134229.290000", "134229.292000", "134229.295000", "134229.297000", "134229.300000", "134229.302000", "134229.305000", "134229.307000"],
      "InstanceCreationTime": ["133847.776000", "133847.779000", "133847.781000", "133847.784000", "133847.787000", "133847.789000", "133847.792000", "133847.794000", "133847.797000", "133907.797000", "133907.799000", "133907.802000", "133907.805000", "133907.807000", "133907.810000", "133907.812000", "133907.815000", "133907.817000", "133907.820000", "133907.822000", "133907.826000", "133907.828000", "133907.831000", "133907.833000", "133907.836000", "133907.838000", "133907.841000", "133907.843000", "133907.846000", "133927.790000", "133927.793000", "133927.795000", "133927.798000", "133927.800000", "133927.803000", "133927.805000", "133927.808000", "133927.810000", "133927.813000", "133927.815000", "133927.818000", "133927.820000", "133927.822000", "133927.825000", "133927.827000", "133927.830000", "133927.833000", "133927.835000", "133927.838000", "133947.830000", "133947.833000", "133947.835000", "133947.844000", "133947.847000", "133947.849000", "133947.852000", "133947.854000", "133947.857000", "133947.859000", "133947.862000", "133947.864000", "133947.867000", "133947.869000", "133947.872000", "133947.874000", "133947.877000", "133947.879000", "133947.882000", "133947.884000", "134007.772000", "134007.774000", "134007.777000", "134007.780000", "134007.782000", "134007.785000", "134007.787000", "134007.790000", "134007.792000", "134007.795000", "134007.797000", "134007.809000", "134007.811000", "134007.814000", "134007.816000", "134007.819000", "134007.821000", "134007.824000", "134007.826000", "134007.829000", "134007.831000", "134047.838000", "134047.840000", "134047.843000", "134047.845000", "134047.848000", "134047.850000", "134047.853000", "134047.855000", "134047.858000", "134047.860000", "134047.863000", "134047.865000", "134047.868000", "134047.870000", "134047.873000", "134047.875000", "134047.878000", "134047.880000", "134047.883000", "134047.885000", "134047.888000", "134047.890000", "134047.893000", "134047.895000", "134047.898000", "134047.900000", "134047.903000", "134047.906000", "134047.908000", "134047.910000", "134047.913000", "134127.827000", "134127.830000", "134127.833000", "134127.835000", "134127.838000", "134127.840000", "134127.843000", "134127.845000", "134127.848000", "134127.851000", "134127.853000", "134127.856000", "134127.858000", "134127.861000", "134127.863000", "134127.871000", "134127.874000", "134127.876000", "134127.879000", "134127.882000", "134127.885000", "134127.888000", "134127.890000", "134127.893000", "134127.895000", "134127.898000", "134127.901000", "134207.830000", "134207.833000", "134207.835000", "134207.838000", "134207.840000", "134207.843000", "134207.845000", "134207.848000", "134207.850000", "134207.853000", "134207.856000", "134207.858000", "134207.861000", "134207.863000", "134207.865000", "134207.868000", "134207.871000", "134207.873000", "134207.876000", "134207.878000", "134207.881000", "134207.883000", "134207.886000", "134207.888000", "134207.891000", "134207.893000", "134207.896000", "134229.272000", "134229.274000", "134229.277000", "134229.280000", "134229.282000", "134229.285000", "134229.287000", "134229.290000", "134229.292000", "134229.295000", "134229.297000", "134229.300000", "134229.302000", "134229.305000", "134229.307000"],
      "InstanceNumber": [1, 2, 3, 4, 5, 6, 7, 8, 9, 10, 11, 12, 13, 14, 15, 16, 17, 18, 19, 20, 21, 22, 23, 24, 25, 26, 27, 28, 29, 30, 31, 32, 33, 34, 35, 36, 37, 38, 39, 40, 41, 42, 43, 44, 45, 46, 47, 48, 49, 50, 51, 52, 53, 54, 55, 56, 57, 58, 59, 60, 61, 62, 63, 64, 65, 66, 67, 68, 69, 70, 71, 72, 73, 74, 75, 76, 77, 78, 79, 80, 81, 82, 83, 84, 85, 86, 87, 88, 89, 90, 91, 92, 93, 94, 95, 96, 97, 98, 99, 100, 101, 102, 103, 104, 105, 106, 107, 108, 109, 110, 111, 112, 113, 114, 115, 116, 117, 118, 119, 120, 121, 122, 123, 124, 125, 126, 127, 128, 129, 130, 131, 132, 133, 134, 135, 136, 137, 138, 139, 140, 141, 142, 143, 144, 145, 146, 147, 148, 149, 150, 151, 152, 153, 154, 155, 156, 157, 158, 159, 160, 161, 162, 163, 164, 165, 166, 167, 168, 169, 170, 171, 172, 173, 174, 175, 176, 177, 178, 179, 180, 181, 182, 183, 184, 185, 186, 187, 188, 189, 190],
      "WindowCenter": [4876.0, 4874.0, 4874.0, 4878.0, 4874.0, 4874.0, 4872.0, 4876.0, 4876.0, 4874.0, 4876.0, 4878.0, 4872.0, 4876.0, 4880.0, 4878.0, 4874.0, 4876.0, 4876.0, 4874.0, 4876.0, 4876.0, 4876.0, 4878.0, 4876.0, 4876.0, 4878.0, 4878.0, 4876.0, 4880.0, 4874.0, 4878.0, 4878.0, 4876.0, 4878.0, 4876.0, 4878.0, 4878.0, 4876.0, 4876.0, 4876.0, 4878.0, 4880.0, 4878.0, 4876.0, 4878.0, 4878.0, 4874.0, 4880.0, 4874.0, 4876.0, 4874.0, 4874.0, 4874.0, 4876.0, 4878.0, 4878.0, 4876.0, 4876.0, 4874.0, 4878.0, 4878.0, 4878.0, 4876.0, 4878.0, 4878.0, 4874.0, 4878.0, 4874.0, 4876.0, 4878.0, 4876.0, 4878.0, 4878.0, 4876.0, 4878.0, 4878.0, 4878.0, 4878.0, 4876.0, 4876.0, 4876.0, 4880.0, 4876.0, 4876.0, 4876.0, 4878.0, 4876.0, 4874.0, 4874.0, 4878.0, 4880.0, 4874.0, 4874.0, 4878.0, 4878.0, 4876.0, 4876.0, 4878.0, 4878.0, 4878.0, 4878.0, 4878.0, 4874.0, 4882.0, 4878.0, 4880.0, 4876.0, 4878.0, 4876.0, 4876.0, 4876.0, 4874.0, 4878.0, 4876.0, 4876.0, 4880.0, 4878.0, 4874.0, 4880.0, 4876.0, 4878.0, 4878.0, 4878.0, 4880.0, 4878.0, 4878.0, 4878.0, 4878.0, 4880.0, 4880.0, 4876.0, 4880.0, 4878.0, 4878.0, 4882.0, 4876.0, 4876.0, 4880.0, 4880.0, 4878.0, 4878.0, 4880.0, 4874.0, 4876.0, 4878.0, 4878.0, 4878.0, 4878.0, 4876.0, 4878.0, 4878.0, 4880.0, 4880.0, 4878.0, 4876.0, 4878.0, 4878.0, 4880.0, 4878.0, 4876.0, 4876.0, 4878.0, 4876.0, 4878.0, 4876.0, 4878.0, 4880.0, 4880.0, 4880.0, 4878.0, 4880.0, 4880.0, 4876.0, 4878.0, 4882.0, 4880.0, 4878.0, 4876.0, 4874.0, 4878.0, 4880.0, 4882.0, 4876.0, 4880.0, 4878.0, 4880.0, 4876.0, 4876.0, 4878.0],
      "WindowWidth": [18664.0, 18660.0, 18658.0, 18660.0, 18662.0, 18660.0, 18658.0, 18660.0, 18662.0, 18662.0, 18662.0, 18658.0, 18662.0, 18662.0, 18666.0, 18666.0, 18660.0, 18666.0, 18658.0, 18664.0, 18660.0, 18666.0, 18662.0, 18668.0, 18662.0, 18668.0, 18666.0, 18668.0, 18664.0, 18658.0, 18662.0, 18664.0, 18664.0, 18666.0, 18666.0, 18668.0, 18666.0, 18670.0, 18664.0, 18664.0, 18662.0, 18670.0, 18662.0, 18670.0, 18662.0, 18668.0, 18668.0, 18666.0, 18664.0, 18662.0, 18674.0, 18658.0, 18664.0, 18664.0, 18668.0, 18674.0, 18666.0, 18668.0, 18666.0, 18668.0, 18668.0, 18666.0, 18666.0, 18666.0, 18666.0, 18666.0, 18662.0, 18662.0, 18666.0, 18664.0, 18668.0, 18668.0, 18674.0, 18670.0, 18672.0, 18666.0, 18666.0, 18668.0, 18666.0, 18664.0, 18664.0, 18664.0, 18672.0, 18664.0, 18674.0, 18672.0, 18666.0, 18664.0, 18662.0, 18668.0, 18664.0, 18668.0, 18664.0, 18666.0, 18670.0, 18672.0, 18666.0, 18664.0, 18676.0, 18670.0, 18668.0, 18672.0, 18672.0, 18666.0, 18674.0, 18666.0, 18676.0, 18668.0, 18666.0, 18668.0, 18664.0, 18674.0, 18674.0, 18668.0, 18664.0, 18672.0, 18668.0, 18670.0, 18666.0, 18670.0, 18676.0, 18672.0, 18672.0, 18674.0, 18670.0, 18666.0, 18672.0, 18662.0, 18672.0, 18672.0, 18672.0, 18666.0, 18668.0, 18670.0, 18672.0, 18680.0, 18668.0, 18668.0, 18676.0, 18672.0, 18672.0, 18666.0, 18670.0, 18666.0, 18668.0, 18670.0, 18668.0, 18670.0, 18666.0, 18668.0, 18668.0, 18670.0, 18668.0, 18672.0, 18672.0, 18672.0, 18676.0, 18674.0, 18670.0, 18672.0, 18668.0, 18668.0, 18668.0, 18670.0, 18672.0, 18666.0, 18670.0, 18676.0, 18674.0, 18676.0, 18674.0, 18674.0, 18670.0, 18666.0, 18672.0, 18676.0, 18672.0, 18672.0, 18674.0, 18674.0, 18674.0, 18674.0, 18674.0, 18666.0, 18670.0, 18676.0, 18672.0, 18674.0, 18672.0, 18678.0]
    },
    "slices": {}
  }
}