{
  "AcquisitionMatrixPE": 104,
  "AcquisitionNumber": 1,
  "AcquisitionTime": "14:02:38.675000",
  "BandwidthPerPixelPhaseEncode": 17.17,
  "BaseResolution": 104,
  "BodyPartExamined": "BRAIN",
  "CoilCombinationMethod": "Sum of Squares",
  "ConsistencyInfo": "N4_VE11C_LATEST_20160120",
  "ConversionSoftware": "dcm2niix",
  "ConversionSoftwareVersion": "v1.0.20211006",
  "DerivedVendorReportedEchoSpacing": 0.000560011,
  "DeviceSerialNumber": "167006",
  "DwellTime": 2.1e-06,
  "EchoTime": 0.037,
  "EchoTime1": 0.037,
  "EchoTime2": 0.001,
  "EchoTrainLength": 104,
  "EffectiveEchoSpacing": 0.000560011,
  "FlipAngle": 52,
  "HeudiconvVersion": "0.10.0",
  "ImageComments": "Unaliased MB4/PE3/LB",
  "ImageOrientationPatientDICOM": [0.999352, -0.00570858, 0.0355416, 0.0139545, 0.971575, -0.236319],
  "ImageOrientationText": "Tra>Cor(-13.7)>Sag(1.9)",
  "ImageType": [
    "ORIGINAL",
    "PRIMARY",
    "P",
    "MB",
    "ND",
    "MOSAIC",
    "PHASE"
],
  "ImagingFrequency": 123.259,
  "InPlanePhaseEncodingDirectionDICOM": "COL",
  "InstitutionAddress": "Chemin Queen-Mary 4565,Montreal,District,CA,H3W 1W5",
  "InstitutionName": "IUGM",
  "InstitutionalDepartmentName": "Department",
  "MRAcquisitionType": "2D",
  "MagneticFieldStrength": 3,
  "Manufacturer": "Siemens",
  "ManufacturersModelName": "Prisma_fit",
  "MatrixCoilMode": "SENSE",
  "Modality": "MR",
  "MultibandAccelerationFactor": 4,
  "PartialFourier": 1,
  "PatientPosition": "HFS",
  "PercentPhaseFOV": 100,
  "PercentSampling": 100,
  "PhaseEncodingDirection": "j",
  "PhaseEncodingSteps": 104,
  "PhaseResolution": 1,
  "PixelBandwidth": 2290,
  "ProcedureStepDescription": "memory^things",
  "ProtocolName": "func_task-things_run-5",
  "PulseSequenceDetails": "%CustomerSeq%\\cmrr_mbep2d_bold",
  "ReceiveCoilActiveElements": "HC1-7;NC1,2",
  "ReceiveCoilName": "HeadNeck_64",
  "ReconMatrixPE": 104,
  "RepetitionTime": 1.49,
  "SAR": 0.0513107,
  "ScanOptions": "FS",
  "ScanningSequence": "EP",
  "SequenceName": "epfid2d1_104",
  "SequenceVariant": "SK\\SS",
  "SeriesDescription": "func_task-things_run-5",
  "SeriesNumber": 29,
  "ShimSetting": [637, -7217, -8764, 695, 46, -13, 79, -6],
  "SliceThickness": 2,
  "SliceTiming": [0, 0.785, 0.0975, 0.8825, 0.195, 0.98, 0.295, 1.0775, 0.3925, 1.175, 0.49, 1.275, 0.5875, 1.3725, 0.685, 0, 0.785, 0.0975, 0.8825, 0.195, 0.98, 0.295, 1.0775, 0.3925, 1.175, 0.49, 1.275, 0.5875, 1.3725, 0.685, 0, 0.785, 0.0975, 0.8825, 0.195, 0.98, 0.295, 1.0775, 0.3925, 1.175, 0.49, 1.275, 0.5875, 1.3725, 0.685, 0, 0.785, 0.0975, 0.8825, 0.195, 0.98, 0.295, 1.0775, 0.3925, 1.175, 0.49, 1.275, 0.5875, 1.3725, 0.685],
  "SoftwareVersions": "syngo MR E11",
  "SpacingBetweenSlices": 2,
  "StationName": "MRC35049",
  "TaskName": "things",
  "TotalReadoutTime": 0.0576811,
  "TxRefAmp": 237.736,
  "WipMemBlock": "84e322d3-f24e-4849-8632-412d9629ceca||Sequence: R016 ve11c/master r/e634e98; Dec 19 2017 11:00:25 by eja",
  "dcmmeta_affine": [
    [-1.9987038373947144, 0.027909021824598312, 0.06636451184749603, 105.70950317382812],
    [0.011417153291404247, 1.943150520324707, -0.4733240604400635, -76.74337005615234],
    [0.07108312845230103, 0.47263845801353455, 1.9420504570007324, -56.8017463684082],
    [0.0, 0.0, 0.0, 1.0]
],
  "dcmmeta_reorient_transform": [
    [0.0, -1.0, 0.0, 103.0],
    [1.0, 0.0, 0.0, 0.0],
    [0.0, 0.0, 1.0, 0.0],
    [0.0, 0.0, 0.0, 1.0]
],
  "dcmmeta_shape": [104, 104, 60, 190],
  "dcmmeta_slice_dim": 2,
  "dcmmeta_version": 0.6,
  "global": {
    "const": {
      "AcquisitionMatrix": [104, 0, 0, 104],
      "AngioFlag": "N",
      "BitsAllocated": 16,
      "BitsStored": 16,
      "BodyPartExamined": "BRAIN",
      "Columns": 832,
      "EchoNumbers": 1,
      "EchoTime": 37.0,
      "EchoTrainLength": 104,
      "FlipAngle": 52.0,
      "HighBit": 15,
      "ImageOrientationPatient": [0.99935189471065, -0.0057085766033, 0.03554156287208, 0.01395451046583, 0.97157526459781, -0.2363192265969],
      "ImagePositionPatient": [-846.27119499123, -826.55208462507, 138.0461521901],
      "ImageType": [
        "ORIGINAL",
        "PRIMARY",
        "P",
        "MB",
        "ND",
        "MOSAIC"
],
      "ImagedNucleus": "1H",
      "ImagingFrequency": 123.259094,
      "InPlanePhaseEncodingDirection": "COL",
      "LargestImagePixelValue": 4095,
      "MRAcquisitionType": "2D",
      "MagneticFieldStrength": 3.0,
      "Manufacturer": "SIEMENS",
      "ManufacturerModelName": "Prisma_fit",
      "Modality": "MR",
      "NumberOfAverages": 1.0,
      "NumberOfPhaseEncodingSteps": 104,
      "PercentPhaseFieldOfView": 100.0,
      "PercentSampling": 100.0,
      "PerformedProcedureStepStartTime": "115124.021000",
      "PhotometricInterpretation": "MONOCHROME2",
      "PixelBandwidth": 2290.0,
      "PixelRepresentation": 0,
      "PixelSpacing": [2.0, 2.0],
      "ProtocolName": "func_task-things_run-5",
      "RepetitionTime": 1490.0,
      "RescaleIntercept": -4096.0,
      "RescaleSlope": 2.0,
      "RescaleType": "US",
      "Rows": 832,
      "SAR": 0.05131074513921,
      "SamplesPerPixel": 1,
      "ScanOptions": "FS",
      "ScanningSequence": "EP",
      "SequenceName": "epfid2d1_104",
      "SequenceVariant": [
        "SK",
        "SS"
],
      "SeriesDescription": "func_task-things_run-5",
      "SeriesNumber": 29,
      "SeriesTime": "140409.250000",
      "SliceLocation": -33.486009311005,
      "SliceThickness": 2.0,
      "SmallestImagePixelValue": 0,
      "SoftwareVersions": "syngo MR E11",
      "SpacingBetweenSlices": 2.0000000309362,
      "SpecificCharacterSet": "ISO_IR 100",
      "StudyID": "1",
      "StudyTime": "115123.948000",
      "TransmitCoilName": "Body",
      "VariableFlipAngleFlag": "N",
      "WindowCenterWidthExplanation": "Algo1",
      "dBdt": 0.0},
    "slices": {}
  },
  "time": {
    "samples": {
      "AcquisitionNumber": [1, 2, 3, 4, 5, 6, 7, 8, 9, 10, 11, 12, 13, 14, 15, 16, 17, 18, 19, 20, 21, 22, 23, 24, 25, 26, 27, 28, 29, 30, 31, 32, 33, 34, 35, 36, 37, 38, 39, 40, 41, 42, 43, 44, 45, 46, 47, 48, 49, 50, 51, 52, 53, 54, 55, 56, 57, 58, 59, 60, 61, 62, 63, 64, 65, 66, 67, 68, 69, 70, 71, 72, 73, 74, 75, 76, 77, 78, 79, 80, 81, 82, 83, 84, 85, 86, 87, 88, 89, 90, 91, 92, 93, 94, 95, 96, 97, 98, 99, 100, 101, 102, 103, 104, 105, 106, 107, 108, 109, 110, 111, 112, 113, 114, 115, 116, 117, 118, 119, 120, 121, 122, 123, 124, 125, 126, 127, 128, 129, 130, 131, 132, 133, 134, 135, 136, 137, 138, 139, 140, 141, 142, 143, 144, 145, 146, 147, 148, 149, 150, 151, 152, 153, 154, 155, 156, 157, 158, 159, 160, 161, 162, 163, 164, 165, 166, 167, 168, 169, 170, 171, 172, 173, 174, 175, 176, 177, 178, 179, 180, 181, 182, 183, 184, 185, 186, 187, 188, 189, 190],
      "AcquisitionTime": ["140238.675000", "140240.165000", "140241.655000", "140243.145000", "140244.635000", "140246.125000", "140247.615000", "140249.105000", "140250.595000", "140252.085000", "140253.575000", "140255.065000", "140256.555000", "140258.045000", "140259.535000", "140301.025000", "140302.515000", "140304.005000", "140305.495000", "140306.985000", "140308.475000", "140309.965000", "140311.455000", "140312.945000", "140314.435000", "140315.925000", "140317.415000", "140318.905000", "140320.395000", "140321.885000", "140323.375000", "140324.865000", "140326.355000", "140327.845000", "140329.335000", "140330.825000", "140332.315000", "140333.805000", "140335.295000", "140336.785000", "140338.275000", "140339.765000", "140341.255000", "140342.745000", "140344.235000", "140345.725000", "140347.215000", "140348.705000", "140350.195000", "140351.685000", "140353.175000", "140354.665000", "140356.155000", "140357.645000", "140359.135000", "140400.625000", "140402.115000", "140403.605000", "140405.095000", "140406.585000", "140408.075000", "140409.565000", "140411.055000", "140412.545000", "140414.035000", "140415.525000", "140417.015000", "140418.505000", "140419.995000", "140421.485000", "140422.975000", "140424.465000", "140425.955000", "140427.445000", "140428.935000", "140430.425000", "140431.915000", "140433.405000", "140434.895000", "140436.385000", "140437.875000", "140439.365000", "140440.855000", "140442.345000", "140443.835000", "140445.325000", "140446.815000", "140448.305000", "140449.795000", "140451.285000", "140452.775000", "140454.265000", "140455.755000", "140457.245000", "140458.735000", "140500.225000", "140501.715000", "140503.205000", "140504.695000", "140506.185000", "140507.675000", "140509.165000", "140510.655000", "140512.145000", "140513.635000", "140515.125000", "140516.615000", "140518.105000", "140519.595000", "140521.085000", "140522.575000", "140524.065000", "140525.555000", "140527.045000", "140528.535000", "140530.025000", "140531.515000", "140533.005000", "140534.495000", "140535.985000", "140537.475000", "140538.965000", "140540.455000", "140541.945000", "140543.435000", "140544.925000", "140546.415000", "140547.905000", "140549.395000", "140550.885000", "140552.375000", "140553.865000", "140555.355000", "140556.845000", "140558.335000", "140559.825000", "140601.315000", "140602.805000", "140604.295000", "140605.785000", "140607.275000", "140608.765000", "140610.255000", "140611.745000", "140613.235000", "140614.725000", "140616.215000", "140617.705000", "140619.195000", "140620.685000", "140622.175000", "140623.665000", "140625.155000", "140626.645000", "140628.135000", "140629.625000", "140631.115000", "140632.605000", "140634.095000", "140635.585000", "140637.075000", "140638.565000", "140640.055000", "140641.545000", "140643.035000", "140644.525000", "140646.015000", "140647.505000", "140648.995000", "140650.485000", "140651.975000", "140653.465000", "140654.955000", "140656.445000", "140657.935000", "140659.425000", "140700.915000", "140702.405000", "140703.895000", "140705.385000", "140706.875000", "140708.365000", "140709.855000", "140711.345000", "140712.835000", "140714.325000", "140715.815000", "140717.305000", "140718.795000", "140720.285000"],
      "ContentTime": ["140409.252000", "140409.255000", "140409.257000", "140409.260000", "140409.263000", "140409.265000", "140409.267000", "140409.270000", "140409.273000", "140409.275000", "140409.278000", "140409.280000", "140409.283000", "140409.291000", "140409.294000", "140409.297000", "140409.299000", "140409.307000", "140409.310000", "140409.312000", "140409.315000", "140409.317000", "140409.320000", "140409.322000", "140409.325000", "140409.327000", "140409.330000", "140409.333000", "140409.335000", "140409.338000", "140409.340000", "140409.343000", "140409.346000", "140409.348000", "140409.351000", "140409.354000", "140409.357000", "140429.203000", "140429.206000", "140429.209000", "140429.229000", "140429.231000", "140429.234000", "140429.236000", "140429.239000", "140429.241000", "140429.244000", "140429.246000", "140429.249000", "140429.251000", "140429.254000", "140429.256000", "140429.259000", "140429.262000", "140429.265000", "140429.267000", "140429.270000", "140449.151000", "140449.154000", "140449.157000", "140449.159000", "140449.162000", "140449.164000", "140449.167000", "140449.170000", "140449.172000", "140449.175000", "140449.177000", "140449.180000", "140449.182000", "140449.185000", "140449.187000", "140449.190000", "140449.193000", "140449.195000", "140449.198000", "140449.200000", "140449.203000", "140509.156000", "140509.159000", "140509.162000", "140509.164000", "140509.167000", "140509.170000", "140509.172000", "140509.175000", "140509.177000", "140509.180000", "140509.182000", "140509.185000", "140509.188000", "140509.190000", "140509.193000", "140509.195000", "140509.198000", "140509.200000", "140509.203000", "140509.205000", "140549.175000", "140549.178000", "140549.180000", "140549.183000", "140549.185000", "140549.188000", "140549.197000", "140549.200000", "140549.202000", "140549.205000", "140549.207000", "140549.210000", "140549.213000", "140549.215000", "140549.218000", "140549.220000", "140549.223000", "140549.225000", "140549.228000", "140549.230000", "140549.233000", "140549.235000", "140549.238000", "140549.240000", "140549.243000", "140549.245000", "140549.248000", "140549.251000", "140549.253000", "140629.205000", "140629.208000", "140629.210000", "140629.213000", "140629.215000", "140629.218000", "140629.221000", "140629.223000", "140629.226000", "140629.228000", "140629.231000", "140629.233000", "140629.236000", "140629.238000", "140629.241000", "140629.243000", "140629.246000", "140629.249000", "140629.251000", "140629.254000", "140629.256000", "140629.259000", "140629.261000", "140629.264000", "140629.266000", "140629.269000", "140709.173000", "140709.175000", "140709.178000", "140709.181000", "140709.183000", "140709.186000", "140709.188000", "140709.191000", "140709.193000", "140709.196000", "140709.198000", "140709.201000", "140709.204000", "140709.206000", "140709.209000", "140709.211000", "140709.214000", "140709.216000", "140709.219000", "140709.221000", "140709.224000", "140709.227000", "140709.229000", "140709.232000", "140709.234000", "140709.237000", "140709.240000", "140722.816000", "140722.819000", "140722.822000", "140722.824000", "140722.827000", "140722.830000", "140722.832000", "140722.835000", "140722.837000", "140722.840000"],
      "InstanceCreationTime": ["140409.252000", "140409.255000", "140409.257000", "140409.260000", "140409.263000", "140409.265000", "140409.267000", "140409.270000", "140409.273000", "140409.275000", "140409.278000", "140409.280000", "140409.283000", "140409.291000", "140409.294000", "140409.297000", "140409.299000", "140409.307000", "140409.310000", "140409.312000", "140409.315000", "140409.317000", "140409.320000", "140409.322000", "140409.325000", "140409.327000", "140409.330000", "140409.333000", "140409.335000", "140409.338000", "140409.340000", "140409.343000", "140409.346000", "140409.348000", "140409.351000", "140409.354000", "140409.357000", "140429.203000", "140429.206000", "140429.209000", "140429.229000", "140429.231000", "140429.234000", "140429.236000", "140429.239000", "140429.241000", "140429.244000", "140429.246000", "140429.249000", "140429.251000", "140429.254000", "140429.256000", "140429.259000", "140429.262000", "140429.265000", "140429.267000", "140429.270000", "140449.151000", "140449.154000", "140449.157000", "140449.159000", "140449.162000", "140449.164000", "140449.167000", "140449.170000", "140449.172000", "140449.175000", "140449.177000", "140449.180000", "140449.182000", "140449.185000", "140449.187000", "140449.190000", "140449.193000", "140449.195000", "140449.198000", "140449.200000", "140449.203000", "140509.156000", "140509.159000", "140509.162000", "140509.164000", "140509.167000", "140509.170000", "140509.172000", "140509.175000", "140509.177000", "140509.180000", "140509.182000", "140509.185000", "140509.188000", "140509.190000", "140509.193000", "140509.195000", "140509.198000", "140509.200000", "140509.203000", "140509.205000", "140549.175000", "140549.178000", "140549.180000", "140549.183000", "140549.185000", "140549.188000", "140549.197000", "140549.200000", "140549.202000", "140549.205000", "140549.207000", "140549.210000", "140549.213000", "140549.215000", "140549.218000", "140549.220000", "140549.223000", "140549.225000", "140549.228000", "140549.230000", "140549.233000", "140549.235000", "140549.238000", "140549.240000", "140549.243000", "140549.245000", "140549.248000", "140549.251000", "140549.253000", "140629.205000", "140629.208000", "140629.210000", "140629.213000", "140629.215000", "140629.218000", "140629.221000", "140629.223000", "140629.226000", "140629.228000", "140629.231000", "140629.233000", "140629.236000", "140629.238000", "140629.241000", "140629.243000", "140629.246000", "140629.249000", "140629.251000", "140629.254000", "140629.256000", "140629.259000", "140629.261000", "140629.264000", "140629.266000", "140629.269000", "140709.173000", "140709.175000", "140709.178000", "140709.181000", "140709.183000", "140709.186000", "140709.188000", "140709.191000", "140709.193000", "140709.196000", "140709.198000", "140709.201000", "140709.204000", "140709.206000", "140709.209000", "140709.211000", "140709.214000", "140709.216000", "140709.219000", "140709.221000", "140709.224000", "140709.227000", "140709.229000", "140709.232000", "140709.234000", "140709.237000", "140709.240000", "140722.816000", "140722.819000", "140722.822000", "140722.824000", "140722.827000", "140722.830000", "140722.832000", "140722.835000", "140722.837000", "140722.840000"],
      "InstanceNumber": [1, 2, 3, 4, 5, 6, 7, 8, 9, 10, 11, 12, 13, 14, 15, 16, 17, 18, 19, 20, 21, 22, 23, 24, 25, 26, 27, 28, 29, 30, 31, 32, 33, 34, 35, 36, 37, 38, 39, 40, 41, 42, 43, 44, 45, 46, 47, 48, 49, 50, 51, 52, 53, 54, 55, 56, 57, 58, 59, 60, 61, 62, 63, 64, 65, 66, 67, 68, 69, 70, 71, 72, 73, 74, 75, 76, 77, 78, 79, 80, 81, 82, 83, 84, 85, 86, 87, 88, 89, 90, 91, 92, 93, 94, 95, 96, 97, 98, 99, 100, 101, 102, 103, 104, 105, 106, 107, 108, 109, 110, 111, 112, 113, 114, 115, 116, 117, 118, 119, 120, 121, 122, 123, 124, 125, 126, 127, 128, 129, 130, 131, 132, 133, 134, 135, 136, 137, 138, 139, 140, 141, 142, 143, 144, 145, 146, 147, 148, 149, 150, 151, 152, 153, 154, 155, 156, 157, 158, 159, 160, 161, 162, 163, 164, 165, 166, 167, 168, 169, 170, 171, 172, 173, 174, 175, 176, 177, 178, 179, 180, 181, 182, 183, 184, 185, 186, 187, 188, 189, 190],
      "WindowCenter": [4850.0, 4848.0, 4850.0, 4852.0, 4850.0, 4852.0, 4850.0, 4848.0, 4854.0, 4850.0, 4850.0, 4848.0, 4850.0, 4852.0, 4852.0, 4854.0, 4850.0, 4850.0, 4850.0, 4850.0, 4848.0, 4850.0, 4850.0, 4850.0, 4850.0, 4850.0, 4850.0, 4850.0, 4852.0, 4852.0, 4850.0, 4852.0, 4854.0, 4852.0, 4854.0, 4854.0, 4854.0, 4850.0, 4848.0, 4850.0, 4852.0, 4852.0, 4850.0, 4856.0, 4852.0, 4854.0, 4852.0, 4850.0, 4852.0, 4856.0, 4854.0, 4850.0, 4852.0, 4850.0, 4852.0, 4852.0, 4852.0, 4854.0, 4850.0, 4850.0, 4850.0, 4852.0, 4852.0, 4852.0, 4854.0, 4852.0, 4850.0, 4852.0, 4854.0, 4850.0, 4852.0, 4850.0, 4852.0, 4856.0, 4852.0, 4852.0, 4850.0, 4850.0, 4854.0, 4850.0, 4852.0, 4854.0, 4852.0, 4850.0, 4850.0, 4852.0, 4852.0, 4850.0, 4852.0, 4852.0, 4856.0, 4852.0, 4852.0, 4850.0, 4852.0, 4856.0, 4854.0, 4852.0, 4854.0, 4856.0, 4850.0, 4826.0, 4850.0, 4852.0, 4852.0, 4852.0, 4854.0, 4856.0, 4854.0, 4856.0, 4854.0, 4856.0, 4852.0, 4854.0, 4852.0, 4854.0, 4852.0, 4854.0, 4854.0, 4854.0, 4858.0, 4850.0, 4854.0, 4852.0, 4856.0, 4854.0, 4854.0, 4854.0, 4854.0, 4852.0, 4852.0, 4850.0, 4854.0, 4856.0, 4854.0, 4852.0, 4852.0, 4854.0, 4856.0, 4854.0, 4852.0, 4854.0, 4852.0, 4858.0, 4854.0, 4852.0, 4854.0, 4880.0, 4854.0, 4856.0, 4852.0, 4850.0, 4856.0, 4854.0, 4856.0, 4852.0, 4850.0, 4854.0, 4856.0, 4848.0, 4854.0, 4850.0, 4852.0, 4856.0, 4848.0, 4852.0, 4852.0, 4854.0, 4854.0, 4854.0, 4852.0, 4854.0, 4854.0, 4854.0, 4852.0, 4852.0, 4856.0, 4858.0, 4856.0, 4856.0, 4856.0, 4858.0, 4852.0, 4856.0, 4850.0, 4854.0, 4856.0, 4876.0, 4856.0, 4852.0],
      "WindowWidth": [18616.0, 18614.0, 18622.0, 18610.0, 18618.0, 18616.0, 18614.0, 18618.0, 18622.0, 18614.0, 18614.0, 18610.0, 18610.0, 18618.0, 18614.0, 18612.0, 18614.0, 18614.0, 18612.0, 18614.0, 18612.0, 18616.0, 18612.0, 18610.0, 18614.0, 18616.0, 18616.0, 18614.0, 18612.0, 18610.0, 18612.0, 18612.0, 18620.0, 18618.0, 18614.0, 18614.0, 18618.0, 18612.0, 18612.0, 18606.0, 18614.0, 18612.0, 18616.0, 18614.0, 18612.0, 18614.0, 18612.0, 18618.0, 18614.0, 18614.0, 18616.0, 18612.0, 18612.0, 18610.0, 18618.0, 18612.0, 18614.0, 18614.0, 18614.0, 18612.0, 18616.0, 18612.0, 18614.0, 18616.0, 18618.0, 18612.0, 18610.0, 18618.0, 18618.0, 18606.0, 18618.0, 18606.0, 18610.0, 18620.0, 18614.0, 18614.0, 18612.0, 18612.0, 18616.0, 18614.0, 18614.0, 18618.0, 18616.0, 18612.0, 18616.0, 18614.0, 18616.0, 18610.0, 18612.0, 18618.0, 18616.0, 18614.0, 18614.0, 18612.0, 18614.0, 18620.0, 18618.0, 18616.0, 18614.0, 18612.0, 18614.0, 18578.0, 18608.0, 18618.0, 18610.0, 18614.0, 18616.0, 18614.0, 18612.0, 18616.0, 18612.0, 18618.0, 18614.0, 18614.0, 18610.0, 18612.0, 18614.0, 18618.0, 18618.0, 18618.0, 18616.0, 18614.0, 18614.0, 18610.0, 18614.0, 18612.0, 18618.0, 18616.0, 18618.0, 18612.0, 18614.0, 18612.0, 18614.0, 18616.0, 18614.0, 18618.0, 18612.0, 18612.0, 18618.0, 18612.0, 18614.0, 18612.0, 18614.0, 18614.0, 18614.0, 18618.0, 18612.0, 18648.0, 18616.0, 18618.0, 18612.0, 18608.0, 18616.0, 18608.0, 18614.0, 18610.0, 18616.0, 18610.0, 18616.0, 18610.0, 18620.0, 18612.0, 18610.0, 18616.0, 18618.0, 18612.0, 18616.0, 18616.0, 18614.0, 18620.0, 18618.0, 18612.0, 18616.0, 18618.0, 18618.0, 18614.0, 18618.0, 18622.0, 18620.0, 18618.0, 18618.0, 18618.0, 18614.0, 18618.0, 18610.0, 18614.0, 18620.0, 18646.0, 18612.0, 18608.0]
    },
    "slices": {}
  }
}