{
  "AcquisitionMatrixPE": 104,
  "AcquisitionNumber": 1,
  "AcquisitionTime": "13:44:11.655000",
  "BandwidthPerPixelPhaseEncode": 17.17,
  "BaseResolution": 104,
  "BodyPartExamined": "BRAIN",
  "CoilCombinationMethod": "Sum of Squares",
  "ConsistencyInfo": "N4_VE11C_LATEST_20160120",
  "ConversionSoftware": "dcm2niix",
  "ConversionSoftwareVersion": "v1.0.20211006",
  "DerivedVendorReportedEchoSpacing": 0.000560011,
  "DeviceSerialNumber": "167006",
  "DwellTime": 2.1e-06,
  "EchoTime": 0.037,
  "EchoTrainLength": 104,
  "EffectiveEchoSpacing": 0.000560011,
  "FlipAngle": 52,
  "HeudiconvVersion": "0.10.0",
  "ImageComments": "Unaliased MB4/PE3/LB",
  "ImageOrientationPatientDICOM": [0.999352, -0.00570858, 0.0355416, 0.0139545, 0.971575, -0.236319],
  "ImageOrientationText": "Tra>Cor(-13.7)>Sag(1.9)",
  "ImageType": [
    "ORIGINAL",
    "PRIMARY",
    "M",
    "MB",
    "ND",
    "MOSAIC"
],
  "ImagingFrequency": 123.259,
  "InPlanePhaseEncodingDirectionDICOM": "COL",
  "InstitutionAddress": "Chemin Queen-Mary 4565,Montreal,District,CA,H3W 1W5",
  "InstitutionName": "IUGM",
  "InstitutionalDepartmentName": "Department",
  "MRAcquisitionType": "2D",
  "MagneticFieldStrength": 3,
  "Manufacturer": "Siemens",
  "ManufacturersModelName": "Prisma_fit",
  "MatrixCoilMode": "SENSE",
  "Modality": "MR",
  "MultibandAccelerationFactor": 4,
  "PartialFourier": 1,
  "PatientPosition": "HFS",
  "PercentPhaseFOV": 100,
  "PercentSampling": 100,
  "PhaseEncodingDirection": "j",
  "PhaseEncodingSteps": 104,
  "PhaseResolution": 1,
  "PixelBandwidth": 2290,
  "ProcedureStepDescription": "memory^things",
  "ProtocolName": "func_task-things_run-2",
  "PulseSequenceDetails": "%CustomerSeq%\\cmrr_mbep2d_bold",
  "ReceiveCoilActiveElements": "HC1-7;NC1,2",
  "ReceiveCoilName": "HeadNeck_64",
  "ReconMatrixPE": 104,
  "RepetitionTime": 1.49,
  "SAR": 0.0513107,
  "ScanOptions": "FS",
  "ScanningSequence": "EP",
  "SequenceName": "epfid2d1_104",
  "SequenceVariant": "SK\\SS",
  "SeriesDescription": "func_task-things_run-2",
  "SeriesNumber": 19,
  "ShimSetting": [637, -7217, -8764, 695, 46, -13, 79, -6],
  "SliceThickness": 2,
  "SliceTiming": [0, 0.7825, 0.0975, 0.88, 0.195, 0.98, 0.2925, 1.0775, 0.39, 1.175, 0.49, 1.2725, 0.5875, 1.37, 0.685, 0, 0.7825, 0.0975, 0.88, 0.195, 0.98, 0.2925, 1.0775, 0.39, 1.175, 0.49, 1.2725, 0.5875, 1.37, 0.685, 0, 0.7825, 0.0975, 0.88, 0.195, 0.98, 0.2925, 1.0775, 0.39, 1.175, 0.49, 1.2725, 0.5875, 1.37, 0.685, 0, 0.7825, 0.0975, 0.88, 0.195, 0.98, 0.2925, 1.0775, 0.39, 1.175, 0.49, 1.2725, 0.5875, 1.37, 0.685],
  "SoftwareVersions": "syngo MR E11",
  "SpacingBetweenSlices": 2,
  "StationName": "MRC35049",
  "TaskName": "things",
  "TotalReadoutTime": 0.0576811,
  "TxRefAmp": 237.736,
  "WipMemBlock": "3be8be11-1aca-440d-ba64-d04cb2afe2bf||Sequence: R016 ve11c/master r/e634e98; Dec 19 2017 11:00:25 by eja",
  "dcmmeta_affine": [
    [-1.9987038373947144, 0.027909021824598312, 0.06636451184749603, 105.70950317382812],
    [0.011417153291404247, 1.943150520324707, -0.4733240604400635, -76.74337005615234],
    [0.07108312845230103, 0.47263845801353455, 1.9420504570007324, -56.8017463684082],
    [0.0, 0.0, 0.0, 1.0]
],
  "dcmmeta_reorient_transform": [
    [0.0, -1.0, 0.0, 103.0],
    [1.0, 0.0, 0.0, 0.0],
    [0.0, 0.0, 1.0, 0.0],
    [0.0, 0.0, 0.0, 1.0]
],
  "dcmmeta_shape": [104, 104, 60, 190],
  "dcmmeta_slice_dim": 2,
  "dcmmeta_version": 0.6,
  "global": {
    "const": {
      "AcquisitionMatrix": [104, 0, 0, 104],
      "AngioFlag": "N",
      "BitsAllocated": 16,
      "BitsStored": 16,
      "BodyPartExamined": "BRAIN",
      "Columns": 832,
      "EchoNumbers": 1,
      "EchoTime": 37.0,
      "EchoTrainLength": 104,
      "FlipAngle": 52.0,
      "HighBit": 15,
      "ImageOrientationPatient": [0.99935189471065, -0.0057085766033, 0.03554156287208, 0.01395451046583, 0.97157526459781, -0.2363192265969],
      "ImagePositionPatient": [-846.27119499123, -826.55208462507, 138.0461521901],
      "ImageType": [
        "ORIGINAL",
        "PRIMARY",
        "M",
        "MB",
        "ND",
        "MOSAIC"
],
      "ImagedNucleus": "1H",
      "ImagingFrequency": 123.259085,
      "InPlanePhaseEncodingDirection": "COL",
      "MRAcquisitionType": "2D",
      "MagneticFieldStrength": 3.0,
      "Manufacturer": "SIEMENS",
      "ManufacturerModelName": "Prisma_fit",
      "Modality": "MR",
      "NumberOfAverages": 1.0,
      "NumberOfPhaseEncodingSteps": 104,
      "PercentPhaseFieldOfView": 100.0,
      "PercentSampling": 100.0,
      "PerformedProcedureStepStartTime": "115124.021000",
      "PhotometricInterpretation": "MONOCHROME2",
      "PixelBandwidth": 2290.0,
      "PixelRepresentation": 0,
      "PixelSpacing": [2.0, 2.0],
      "ProtocolName": "func_task-things_run-2",
      "RepetitionTime": 1490.0,
      "Rows": 832,
      "SAR": 0.05131074513921,
      "SamplesPerPixel": 1,
      "ScanOptions": "FS",
      "ScanningSequence": "EP",
      "SequenceName": "epfid2d1_104",
      "SequenceVariant": [
        "SK",
        "SS"
],
      "SeriesDescription": "func_task-things_run-2",
      "SeriesNumber": 19,
      "SeriesTime": "134529.070000",
      "SliceLocation": -33.486009311005,
      "SliceThickness": 2.0,
      "SmallestImagePixelValue": 0,
      "SoftwareVersions": "syngo MR E11",
      "SpacingBetweenSlices": 2.0000000309362,
      "SpecificCharacterSet": "ISO_IR 100",
      "StudyID": "1",
      "StudyTime": "115123.948000",
      "TransmitCoilName": "Body",
      "VariableFlipAngleFlag": "N",
      "WindowCenterWidthExplanation": "Algo1",
      "dBdt": 0.0},
    "slices": {}
  },
  "time": {
    "samples": {
      "AcquisitionNumber": [1, 2, 3, 4, 5, 6, 7, 8, 9, 10, 11, 12, 13, 14, 15, 16, 17, 18, 19, 20, 21, 22, 23, 24, 25, 26, 27, 28, 29, 30, 31, 32, 33, 34, 35, 36, 37, 38, 39, 40, 41, 42, 43, 44, 45, 46, 47, 48, 49, 50, 51, 52, 53, 54, 55, 56, 57, 58, 59, 60, 61, 62, 63, 64, 65, 66, 67, 68, 69, 70, 71, 72, 73, 74, 75, 76, 77, 78, 79, 80, 81, 82, 83, 84, 85, 86, 87, 88, 89, 90, 91, 92, 93, 94, 95, 96, 97, 98, 99, 100, 101, 102, 103, 104, 105, 106, 107, 108, 109, 110, 111, 112, 113, 114, 115, 116, 117, 118, 119, 120, 121, 122, 123, 124, 125, 126, 127, 128, 129, 130, 131, 132, 133, 134, 135, 136, 137, 138, 139, 140, 141, 142, 143, 144, 145, 146, 147, 148, 149, 150, 151, 152, 153, 154, 155, 156, 157, 158, 159, 160, 161, 162, 163, 164, 165, 166, 167, 168, 169, 170, 171, 172, 173, 174, 175, 176, 177, 178, 179, 180, 181, 182, 183, 184, 185, 186, 187, 188, 189, 190],
      "AcquisitionTime": ["134411.655000", "134413.145000", "134414.635000", "134416.125000", "134417.615000", "134419.105000", "134420.595000", "134422.085000", "134423.575000", "134425.065000", "134426.555000", "134428.045000", "134429.535000", "134431.025000", "134432.515000", "134434.005000", "134435.495000", "134436.985000", "134438.475000", "134439.965000", "134441.455000", "134442.945000", "134444.435000", "134445.925000", "134447.415000", "134448.905000", "134450.395000", "134451.885000", "134453.375000", "134454.865000", "134456.355000", "134457.845000", "134459.335000", "134500.825000", "134502.315000", "134503.805000", "134505.295000", "134506.785000", "134508.275000", "134509.765000", "134511.255000", "134512.745000", "134514.235000", "134515.725000", "134517.215000", "134518.705000", "134520.195000", "134521.685000", "134523.175000", "134524.665000", "134526.155000", "134527.645000", "134529.135000", "134530.625000", "134532.115000", "134533.605000", "134535.095000", "134536.585000", "134538.075000", "134539.565000", "134541.055000", "134542.545000", "134544.035000", "134545.525000", "134547.015000", "134548.505000", "134549.995000", "134551.485000", "134552.975000", "134554.465000", "134555.955000", "134557.445000", "134558.935000", "134600.425000", "134601.915000", "134603.405000", "134604.895000", "134606.385000", "134607.875000", "134609.365000", "134610.855000", "134612.345000", "134613.835000", "134615.325000", "134616.815000", "134618.305000", "134619.795000", "134621.285000", "134622.775000", "134624.265000", "134625.755000", "134627.245000", "134628.735000", "134630.225000", "134631.715000", "134633.205000", "134634.695000", "134636.185000", "134637.675000", "134639.165000", "134640.655000", "134642.145000", "134643.635000", "134645.125000", "134646.615000", "134648.105000", "134649.595000", "134651.085000", "134652.575000", "134654.065000", "134655.555000", "134657.045000", "134658.535000", "134700.025000", "134701.515000", "134703.005000", "134704.495000", "134705.985000", "134707.475000", "134708.965000", "134710.455000", "134711.945000", "134713.435000", "134714.925000", "134716.415000", "134717.905000", "134719.395000", "134720.885000", "134722.375000", "134723.865000", "134725.355000", "134726.845000", "134728.335000", "134729.825000", "134731.315000", "134732.805000", "134734.295000", "134735.785000", "134737.275000", "134738.765000", "134740.255000", "134741.745000", "134743.235000", "134744.725000", "134746.215000", "134747.705000", "134749.195000", "134750.685000", "134752.175000", "134753.665000", "134755.155000", "134756.645000", "134758.135000", "134759.625000", "134801.115000", "134802.605000", "134804.095000", "134805.585000", "134807.075000", "134808.565000", "134810.055000", "134811.545000", "134813.035000", "134814.525000", "134816.015000", "134817.505000", "134818.995000", "134820.485000", "134821.975000", "134823.465000", "134824.955000", "134826.445000", "134827.935000", "134829.425000", "134830.915000", "134832.405000", "134833.895000", "134835.385000", "134836.875000", "134838.365000", "134839.855000", "134841.345000", "134842.835000", "134844.325000", "134845.815000", "134847.305000", "134848.795000", "134850.285000", "134851.775000", "134853.265000"],
      "ContentTime": ["134529.073000", "134529.077000", "134529.080000", "134529.083000", "134529.087000", "134529.090000", "134529.093000", "134529.097000", "134529.105000", "134529.108000", "134529.111000", "134529.115000", "134529.118000", "134529.121000", "134529.125000", "134529.128000", "134529.131000", "134529.135000", "134529.138000", "134529.141000", "134529.145000", "134529.148000", "134549.037000", "134549.041000", "134549.044000", "134549.048000", "134549.051000", "134549.054000", "134549.058000", "134549.061000", "134549.064000", "134549.068000", "134549.071000", "134549.074000", "134549.077000", "134549.081000", "134549.084000", "134549.088000", "134549.091000", "134549.094000", "134549.097000", "134549.101000", "134609.037000", "134609.041000", "134609.044000", "134609.047000", "134609.051000", "134609.054000", "134609.057000", "134609.061000", "134609.064000", "134609.067000", "134609.071000", "134609.074000", "134609.077000", "134609.080000", "134609.084000", "134609.087000", "134609.090000", "134609.105000", "134609.108000", "134609.112000", "134609.125000", "134629.036000", "134629.040000", "134629.043000", "134629.046000", "134629.050000", "134629.053000", "134629.056000", "134629.060000", "134629.063000", "134629.066000", "134629.070000", "134629.073000", "134629.076000", "134629.079000", "134629.083000", "134629.086000", "134629.089000", "134629.093000", "134629.096000", "134629.099000", "134649.037000", "134649.041000", "134649.044000", "134649.047000", "134649.051000", "134649.054000", "134649.057000", "134649.061000", "134649.064000", "134649.067000", "134649.071000", "134649.074000", "134649.077000", "134649.082000", "134649.085000", "134649.089000", "134649.092000", "134649.095000", "134649.099000", "134649.102000", "134729.037000", "134729.041000", "134729.044000", "134729.047000", "134729.051000", "134729.054000", "134729.057000", "134729.061000", "134729.064000", "134729.072000", "134729.075000", "134729.078000", "134729.082000", "134729.085000", "134729.088000", "134729.092000", "134729.095000", "134729.098000", "134729.102000", "134729.105000", "134729.108000", "134729.112000", "134729.115000", "134729.119000", "134729.122000", "134729.126000", "134729.129000", "134729.132000", "134809.037000", "134809.041000", "134809.049000", "134809.052000", "134809.055000", "134809.059000", "134809.062000", "134809.065000", "134809.069000", "134809.072000", "134809.075000", "134809.078000", "134809.082000", "134809.085000", "134809.088000", "134809.092000", "134809.095000", "134809.099000", "134809.102000", "134809.106000", "134809.110000", "134809.113000", "134809.116000", "134809.120000", "134809.123000", "134809.126000", "134809.130000", "134849.036000", "134849.041000", "134849.044000", "134849.047000", "134849.051000", "134849.054000", "134849.058000", "134849.061000", "134849.064000", "134849.068000", "134849.071000", "134849.074000", "134849.078000", "134849.081000", "134849.084000", "134849.087000", "134849.091000", "134849.094000", "134849.097000", "134849.101000", "134849.104000", "134849.107000", "134849.111000", "134849.114000", "134849.117000", "134849.121000", "134849.124000", "134855.921000", "134855.924000", "134855.928000", "134855.931000", "134855.935000"],
      "InstanceCreationTime": ["134529.073000", "134529.077000", "134529.080000", "134529.083000", "134529.087000", "134529.090000", "134529.093000", "134529.097000", "134529.105000", "134529.108000", "134529.111000", "134529.115000", "134529.118000", "134529.121000", "134529.125000", "134529.128000", "134529.131000", "134529.135000", "134529.138000", "134529.141000", "134529.145000", "134529.148000", "134549.037000", "134549.041000", "134549.044000", "134549.048000", "134549.051000", "134549.054000", "134549.058000", "134549.061000", "134549.064000", "134549.068000", "134549.071000", "134549.074000", "134549.077000", "134549.081000", "134549.084000", "134549.088000", "134549.091000", "134549.094000", "134549.097000", "134549.101000", "134609.037000", "134609.041000", "134609.044000", "134609.047000", "134609.051000", "134609.054000", "134609.057000", "134609.061000", "134609.064000", "134609.067000", "134609.071000", "134609.074000", "134609.077000", "134609.080000", "134609.084000", "134609.087000", "134609.090000", "134609.105000", "134609.108000", "134609.112000", "134609.125000", "134629.036000", "134629.040000", "134629.043000", "134629.046000", "134629.050000", "134629.053000", "134629.056000", "134629.060000", "134629.063000", "134629.066000", "134629.070000", "134629.073000", "134629.076000", "134629.079000", "134629.083000", "134629.086000", "134629.089000", "134629.093000", "134629.096000", "134629.099000", "134649.037000", "134649.041000", "134649.044000", "134649.047000", "134649.051000", "134649.054000", "134649.057000", "134649.061000", "134649.064000", "134649.067000", "134649.071000", "134649.074000", "134649.077000", "134649.082000", "134649.085000", "134649.089000", "134649.092000", "134649.095000", "134649.099000", "134649.102000", "134729.037000", "134729.041000", "134729.044000", "134729.047000", "134729.051000", "134729.054000", "134729.057000", "134729.061000", "134729.064000", "134729.072000", "134729.075000", "134729.078000", "134729.082000", "134729.085000", "134729.088000", "134729.092000", "134729.095000", "134729.098000", "134729.102000", "134729.105000", "134729.108000", "134729.112000", "134729.115000", "134729.119000", "134729.122000", "134729.126000", "134729.129000", "134729.132000", "134809.037000", "134809.041000", "134809.049000", "134809.052000", "134809.055000", "134809.059000", "134809.062000", "134809.065000", "134809.069000", "134809.072000", "134809.075000", "134809.078000", "134809.082000", "134809.085000", "134809.088000", "134809.092000", "134809.095000", "134809.099000", "134809.102000", "134809.106000", "134809.110000", "134809.113000", "134809.116000", "134809.120000", "134809.123000", "134809.126000", "134809.130000", "134849.036000", "134849.041000", "134849.044000", "134849.047000", "134849.051000", "134849.054000", "134849.058000", "134849.061000", "134849.064000", "134849.068000", "134849.071000", "134849.074000", "134849.078000", "134849.081000", "134849.084000", "134849.087000", "134849.091000", "134849.094000", "134849.097000", "134849.101000", "134849.104000", "134849.107000", "134849.111000", "134849.114000", "134849.117000", "134849.121000", "134849.124000", "134855.921000", "134855.924000", "134855.928000", "134855.931000", "134855.935000"],
      "InstanceNumber": [1, 2, 3, 4, 5, 6, 7, 8, 9, 10, 11, 12, 13, 14, 15, 16, 17, 18, 19, 20, 21, 22, 23, 24, 25, 26, 27, 28, 29, 30, 31, 32, 33, 34, 35, 36, 37, 38, 39, 40, 41, 42, 43, 44, 45, 46, 47, 48, 49, 50, 51, 52, 53, 54, 55, 56, 57, 58, 59, 60, 61, 62, 63, 64, 65, 66, 67, 68, 69, 70, 71, 72, 73, 74, 75, 76, 77, 78, 79, 80, 81, 82, 83, 84, 85, 86, 87, 88, 89, 90, 91, 92, 93, 94, 95, 96, 97, 98, 99, 100, 101, 102, 103, 104, 105, 106, 107, 108, 109, 110, 111, 112, 113, 114, 115, 116, 117, 118, 119, 120, 121, 122, 123, 124, 125, 126, 127, 128, 129, 130, 131, 132, 133, 134, 135, 136, 137, 138, 139, 140, 141, 142, 143, 144, 145, 146, 147, 148, 149, 150, 151, 152, 153, 154, 155, 156, 157, 158, 159, 160, 161, 162, 163, 164, 165, 166, 167, 168, 169, 170, 171, 172, 173, 174, 175, 176, 177, 178, 179, 180, 181, 182, 183, 184, 185, 186, 187, 188, 189, 190],
      "LargestImagePixelValue": [40914, 39828, 39080, 38831, 38503, 38357, 38176, 38758, 38209, 38609, 38169, 38129, 37695, 38628, 38282, 38271, 38591, 38050, 38211, 38165, 38450, 38236, 38561, 38089, 37828, 37975, 38654, 37567, 37959, 38415, 38164, 38264, 37990, 38193, 38290, 38297, 37630, 38172, 38288, 38232, 38362, 38425, 38136, 37837, 37854, 38403, 38248, 38057, 37944, 37940, 38115, 38258, 38184, 37949, 37725, 38316, 37992, 37946, 37968, 37706, 37783, 37985, 38076, 37897, 37797, 38021, 37755, 37605, 38124, 38274, 37489, 38120, 37684, 37899, 37985, 37973, 38004, 37506, 38207, 38203, 38024, 38185, 37580, 37926, 37720, 37811, 38007, 37439, 38050, 38182, 37701, 37814, 38234, 37796, 37993, 37723, 38063, 37738, 38015, 38231, 38052, 37747, 37637, 37779, 37914, 38524, 38074, 37707, 38001, 38315, 38071, 37977, 37678, 37905, 38125, 37576, 37952, 38265, 38355, 37826, 38359, 37827, 37877, 37904, 37900, 38070, 37814, 37726, 37406, 38358, 37888, 37699, 37579, 37709, 37466, 37887, 37665, 37841, 38563, 37777, 37900, 37649, 37750, 37728, 37833, 37918, 38235, 37634, 37985, 37630, 37635, 37785, 38082, 38014, 37875, 37705, 37984, 37907, 37567, 37968, 37703, 38199, 37795, 37815, 38012, 37775, 37396, 38606, 38340, 37778, 37491, 37953, 37796, 37445, 37667, 37788, 37701, 37443, 37738, 37408, 37957, 37477, 37211, 37512, 37561, 37640, 37596, 37356, 38099, 37967],
      "WindowCenter": [10114.0, 10072.0, 10060.0, 10068.0, 10051.0, 10036.0, 10033.0, 10040.0, 10032.0, 10042.0, 10034.0, 10025.0, 10033.0, 10038.0, 10040.0, 10032.0, 10049.0, 10058.0, 10070.0, 10051.0, 10050.0, 10049.0, 10047.0, 10050.0, 10061.0, 10045.0, 10032.0, 10001.0, 10023.0, 10029.0, 10041.0, 10041.0, 10034.0, 10042.0, 10043.0, 10031.0, 10015.0, 10026.0, 10037.0, 10055.0, 10057.0, 10059.0, 10024.0, 10010.0, 10008.0, 10028.0, 10055.0, 10058.0, 10077.0, 10062.0, 10032.0, 10015.0, 9998.0, 10012.0, 10025.0, 10025.0, 10009.0, 9991.0, 9988.0, 9989.0, 10006.0, 10025.0, 10032.0, 10029.0, 10025.0, 10016.0, 10008.0, 10010.0, 10016.0, 10021.0, 10003.0, 10015.0, 10014.0, 10035.0, 10041.0, 10042.0, 10052.0, 10039.0, 10043.0, 10032.0, 10040.0, 10078.0, 10080.0, 10079.0, 10056.0, 10030.0, 10018.0, 10017.0, 10033.0, 10043.0, 10037.0, 10030.0, 10018.0, 10016.0, 10031.0, 10042.0, 10040.0, 10035.0, 10026.0, 10026.0, 10016.0, 10018.0, 10024.0, 10044.0, 10047.0, 10062.0, 10043.0, 10036.0, 10044.0, 10046.0, 10044.0, 10035.0, 10022.0, 10012.0, 10016.0, 10008.0, 10017.0, 10022.0, 10025.0, 10026.0, 10015.0, 10016.0, 10018.0, 10009.0, 10007.0, 9998.0, 10017.0, 10035.0, 10045.0, 10050.0, 10045.0, 10021.0, 10029.0, 10037.0, 10032.0, 10032.0, 10003.0, 9997.0, 10018.0, 10033.0, 10044.0, 10048.0, 10045.0, 10022.0, 10018.0, 10026.0, 10032.0, 10018.0, 10026.0, 10016.0, 10018.0, 10028.0, 10034.0, 10015.0, 10025.0, 10036.0, 10027.0, 10037.0, 10021.0, 10032.0, 10027.0, 10016.0, 10002.0, 9993.0, 9988.0, 9972.0, 9983.0, 10002.0, 10003.0, 10007.0, 10019.0, 10030.0, 10026.0, 10012.0, 10016.0, 10007.0, 10019.0, 10037.0, 10043.0, 10028.0, 10024.0, 10026.0, 10044.0, 10060.0, 10056.0, 10054.0, 10044.0, 10036.0, 10027.0, 10008.0],
      "WindowWidth": [21511.0, 21400.0, 21359.0, 21370.0, 21330.0, 21295.0, 21286.0, 21296.0, 21282.0, 21304.0, 21290.0, 21270.0, 21285.0, 21295.0, 21298.0, 21283.0, 21318.0, 21342.0, 21369.0, 21324.0, 21319.0, 21317.0, 21310.0, 21321.0, 21346.0, 21308.0, 21278.0, 21212.0, 21258.0, 21273.0, 21304.0, 21303.0, 21286.0, 21303.0, 21306.0, 21276.0, 21239.0, 21267.0, 21292.0, 21331.0, 21336.0, 21339.0, 21257.0, 21230.0, 21227.0, 21271.0, 21333.0, 21339.0, 21383.0, 21346.0, 21277.0, 21235.0, 21200.0, 21230.0, 21264.0, 21262.0, 21226.0, 21184.0, 21175.0, 21180.0, 21218.0, 21263.0, 21277.0, 21274.0, 21261.0, 21238.0, 21223.0, 21232.0, 21242.0, 21250.0, 21216.0, 21239.0, 21237.0, 21286.0, 21298.0, 21301.0, 21324.0, 21298.0, 21302.0, 21276.0, 21295.0, 21387.0, 21393.0, 21389.0, 21335.0, 21277.0, 21248.0, 21246.0, 21282.0, 21306.0, 21292.0, 21275.0, 21245.0, 21240.0, 21275.0, 21301.0, 21294.0, 21284.0, 21262.0, 21262.0, 21238.0, 21247.0, 21261.0, 21308.0, 21317.0, 21346.0, 21301.0, 21285.0, 21303.0, 21306.0, 21304.0, 21284.0, 21257.0, 21236.0, 21241.0, 21225.0, 21244.0, 21253.0, 21261.0, 21263.0, 21238.0, 21241.0, 21247.0, 21226.0, 21219.0, 21199.0, 21244.0, 21286.0, 21311.0, 21321.0, 21311.0, 21257.0, 21271.0, 21291.0, 21281.0, 21282.0, 21213.0, 21195.0, 21239.0, 21279.0, 21308.0, 21317.0, 21308.0, 21257.0, 21246.0, 21265.0, 21277.0, 21245.0, 21263.0, 21240.0, 21245.0, 21267.0, 21279.0, 21236.0, 21258.0, 21286.0, 21264.0, 21291.0, 21254.0, 21275.0, 21266.0, 21240.0, 21207.0, 21186.0, 21171.0, 21138.0, 21166.0, 21205.0, 21207.0, 21221.0, 21250.0, 21271.0, 21266.0, 21236.0, 21241.0, 21219.0, 21251.0, 21291.0, 21301.0, 21270.0, 21258.0, 21267.0, 21307.0, 21342.0, 21336.0, 21326.0, 21299.0, 21281.0, 21262.0, 21218.0]
    },
    "slices": {}
  }
}