{
  "AcquisitionMatrixPE": 104,
  "AcquisitionNumber": 1,
  "AcquisitionTime": "13:50:23.327500",
  "BandwidthPerPixelPhaseEncode": 17.17,
  "BaseResolution": 104,
  "BodyPartExamined": "BRAIN",
  "CoilCombinationMethod": "Sum of Squares",
  "ConsistencyInfo": "N4_VE11C_LATEST_20160120",
  "ConversionSoftware": "dcm2niix",
  "ConversionSoftwareVersion": "v1.0.20211006",
  "DerivedVendorReportedEchoSpacing": 0.000560011,
  "DeviceSerialNumber": "167006",
  "DwellTime": 2.1e-06,
  "EchoTime": 0.037,
  "EchoTime1": 0.037,
  "EchoTime2": 0.001,
  "EchoTrainLength": 104,
  "EffectiveEchoSpacing": 0.000560011,
  "FlipAngle": 52,
  "HeudiconvVersion": "0.10.0",
  "ImageComments": "Unaliased MB4/PE3/LB",
  "ImageOrientationPatientDICOM": [0.999352, -0.00570858, 0.0355416, 0.0139545, 0.971575, -0.236319],
  "ImageOrientationText": "Tra>Cor(-13.7)>Sag(1.9)",
  "ImageType": [
    "ORIGINAL",
    "PRIMARY",
    "P",
    "MB",
    "ND",
    "MOSAIC",
    "PHASE"
],
  "ImagingFrequency": 123.259,
  "InPlanePhaseEncodingDirectionDICOM": "COL",
  "InstitutionAddress": "Chemin Queen-Mary 4565,Montreal,District,CA,H3W 1W5",
  "InstitutionName": "IUGM",
  "InstitutionalDepartmentName": "Department",
  "MRAcquisitionType": "2D",
  "MagneticFieldStrength": 3,
  "Manufacturer": "Siemens",
  "ManufacturersModelName": "Prisma_fit",
  "MatrixCoilMode": "SENSE",
  "Modality": "MR",
  "MultibandAccelerationFactor": 4,
  "PartialFourier": 1,
  "PatientPosition": "HFS",
  "PercentPhaseFOV": 100,
  "PercentSampling": 100,
  "PhaseEncodingDirection": "j",
  "PhaseEncodingSteps": 104,
  "PhaseResolution": 1,
  "PixelBandwidth": 2290,
  "ProcedureStepDescription": "memory^things",
  "ProtocolName": "func_task-things_run-3",
  "PulseSequenceDetails": "%CustomerSeq%\\cmrr_mbep2d_bold",
  "ReceiveCoilActiveElements": "HC1-7;NC1,2",
  "ReceiveCoilName": "HeadNeck_64",
  "ReconMatrixPE": 104,
  "RepetitionTime": 1.49,
  "SAR": 0.0513107,
  "ScanOptions": "FS",
  "ScanningSequence": "EP",
  "SequenceName": "epfid2d1_104",
  "SequenceVariant": "SK\\SS",
  "SeriesDescription": "func_task-things_run-3",
  "SeriesNumber": 23,
  "ShimSetting": [637, -7217, -8764, 695, 46, -13, 79, -6],
  "SliceThickness": 2,
  "SliceTiming": [0, 0.785, 0.0975, 0.8825, 0.195, 0.98, 0.295, 1.0775, 0.3925, 1.175, 0.49, 1.275, 0.5875, 1.3725, 0.685, 0, 0.785, 0.0975, 0.8825, 0.195, 0.98, 0.295, 1.0775, 0.3925, 1.175, 0.49, 1.275, 0.5875, 1.3725, 0.685, 0, 0.785, 0.0975, 0.8825, 0.195, 0.98, 0.295, 1.0775, 0.3925, 1.175, 0.49, 1.275, 0.5875, 1.3725, 0.685, 0, 0.785, 0.0975, 0.8825, 0.195, 0.98, 0.295, 1.0775, 0.3925, 1.175, 0.49, 1.275, 0.5875, 1.3725, 0.685],
  "SoftwareVersions": "syngo MR E11",
  "SpacingBetweenSlices": 2,
  "StationName": "MRC35049",
  "TaskName": "things",
  "TotalReadoutTime": 0.0576811,
  "TxRefAmp": 237.736,
  "WipMemBlock": "0e9e3d3c-560e-4ab9-9b8a-7b5e2781de17||Sequence: R016 ve11c/master r/e634e98; Dec 19 2017 11:00:25 by eja",
  "dcmmeta_affine": [
    [-1.9987038373947144, 0.027909021824598312, 0.06636451184749603, 105.70950317382812],
    [0.011417153291404247, 1.943150520324707, -0.4733240604400635, -76.74337005615234],
    [0.07108312845230103, 0.47263845801353455, 1.9420504570007324, -56.8017463684082],
    [0.0, 0.0, 0.0, 1.0]
],
  "dcmmeta_reorient_transform": [
    [0.0, -1.0, 0.0, 103.0],
    [1.0, 0.0, 0.0, 0.0],
    [0.0, 0.0, 1.0, 0.0],
    [0.0, 0.0, 0.0, 1.0]
],
  "dcmmeta_shape": [104, 104, 60, 190],
  "dcmmeta_slice_dim": 2,
  "dcmmeta_version": 0.6,
  "global": {
    "const": {
      "AcquisitionMatrix": [104, 0, 0, 104],
      "AngioFlag": "N",
      "BitsAllocated": 16,
      "BitsStored": 16,
      "BodyPartExamined": "BRAIN",
      "Columns": 832,
      "EchoNumbers": 1,
      "EchoTime": 37.0,
      "EchoTrainLength": 104,
      "FlipAngle": 52.0,
      "HighBit": 15,
      "ImageOrientationPatient": [0.99935189471065, -0.0057085766033, 0.03554156287208, 0.01395451046583, 0.97157526459781, -0.2363192265969],
      "ImagePositionPatient": [-846.27119499123, -826.55208462507, 138.0461521901],
      "ImageType": [
        "ORIGINAL",
        "PRIMARY",
        "P",
        "MB",
        "ND",
        "MOSAIC"
],
      "ImagedNucleus": "1H",
      "ImagingFrequency": 123.259088,
      "InPlanePhaseEncodingDirection": "COL",
      "LargestImagePixelValue": 4095,
      "MRAcquisitionType": "2D",
      "MagneticFieldStrength": 3.0,
      "Manufacturer": "SIEMENS",
      "ManufacturerModelName": "Prisma_fit",
      "Modality": "MR",
      "NumberOfAverages": 1.0,
      "NumberOfPhaseEncodingSteps": 104,
      "PercentPhaseFieldOfView": 100.0,
      "PercentSampling": 100.0,
      "PerformedProcedureStepStartTime": "115124.021000",
      "PhotometricInterpretation": "MONOCHROME2",
      "PixelBandwidth": 2290.0,
      "PixelRepresentation": 0,
      "PixelSpacing": [2.0, 2.0],
      "ProtocolName": "func_task-things_run-3",
      "RepetitionTime": 1490.0,
      "RescaleIntercept": -4096.0,
      "RescaleSlope": 2.0,
      "RescaleType": "US",
      "Rows": 832,
      "SAR": 0.05131074513921,
      "SamplesPerPixel": 1,
      "ScanOptions": "FS",
      "ScanningSequence": "EP",
      "SequenceName": "epfid2d1_104",
      "SequenceVariant": [
        "SK",
        "SS"
],
      "SeriesDescription": "func_task-things_run-3",
      "SeriesNumber": 23,
      "SeriesTime": "135140.551000",
      "SliceLocation": -33.486009311005,
      "SliceThickness": 2.0,
      "SmallestImagePixelValue": 0,
      "SoftwareVersions": "syngo MR E11",
      "SpacingBetweenSlices": 2.0000000309362,
      "SpecificCharacterSet": "ISO_IR 100",
      "StudyID": "1",
      "StudyTime": "115123.948000",
      "TransmitCoilName": "Body",
      "VariableFlipAngleFlag": "N",
      "WindowCenterWidthExplanation": "Algo1",
      "dBdt": 0.0},
    "slices": {}
  },
  "time": {
    "samples": {
      "AcquisitionNumber": [1, 2, 3, 4, 5, 6, 7, 8, 9, 10, 11, 12, 13, 14, 15, 16, 17, 18, 19, 20, 21, 22, 23, 24, 25, 26, 27, 28, 29, 30, 31, 32, 33, 34, 35, 36, 37, 38, 39, 40, 41, 42, 43, 44, 45, 46, 47, 48, 49, 50, 51, 52, 53, 54, 55, 56, 57, 58, 59, 60, 61, 62, 63, 64, 65, 66, 67, 68, 69, 70, 71, 72, 73, 74, 75, 76, 77, 78, 79, 80, 81, 82, 83, 84, 85, 86, 87, 88, 89, 90, 91, 92, 93, 94, 95, 96, 97, 98, 99, 100, 101, 102, 103, 104, 105, 106, 107, 108, 109, 110, 111, 112, 113, 114, 115, 116, 117, 118, 119, 120, 121, 122, 123, 124, 125, 126, 127, 128, 129, 130, 131, 132, 133, 134, 135, 136, 137, 138, 139, 140, 141, 142, 143, 144, 145, 146, 147, 148, 149, 150, 151, 152, 153, 154, 155, 156, 157, 158, 159, 160, 161, 162, 163, 164, 165, 166, 167, 168, 169, 170, 171, 172, 173, 174, 175, 176, 177, 178, 179, 180, 181, 182, 183, 184, 185, 186, 187, 188, 189, 190],
      "AcquisitionTime": ["135023.327500", "135024.817500", "135026.307500", "135027.797500", "135029.287500", "135030.777500", "135032.267500", "135033.757500", "135035.247500", "135036.737500", "135038.227500", "135039.717500", "135041.207500", "135042.697500", "135044.187500", "135045.677500", "135047.167500", "135048.657500", "135050.147500", "135051.637500", "135053.127500", "135054.617500", "135056.107500", "135057.597500", "135059.087500", "135100.577500", "135102.067500", "135103.557500", "135105.047500", "135106.537500", "135108.027500", "135109.517500", "135111.007500", "135112.497500", "135113.987500", "135115.477500", "135116.967500", "135118.457500", "135119.947500", "135121.437500", "135122.927500", "135124.417500", "135125.907500", "135127.397500", "135128.887500", "135130.377500", "135131.867500", "135133.357500", "135134.847500", "135136.337500", "135137.827500", "135139.317500", "135140.807500", "135142.297500", "135143.787500", "135145.277500", "135146.767500", "135148.257500", "135149.747500", "135151.237500", "135152.727500", "135154.217500", "135155.707500", "135157.197500", "135158.687500", "135200.177500", "135201.667500", "135203.157500", "135204.647500", "135206.137500", "135207.627500", "135209.117500", "135210.607500", "135212.097500", "135213.587500", "135215.077500", "135216.567500", "135218.057500", "135219.547500", "135221.037500", "135222.527500", "135224.017500", "135225.507500", "135226.997500", "135228.487500", "135229.977500", "135231.467500", "135232.957500", "135234.447500", "135235.937500", "135237.427500", "135238.917500", "135240.407500", "135241.897500", "135243.387500", "135244.877500", "135246.367500", "135247.857500", "135249.347500", "135250.837500", "135252.327500", "135253.817500", "135255.307500", "135256.797500", "135258.287500", "135259.777500", "135301.267500", "135302.757500", "135304.247500", "135305.737500", "135307.227500", "135308.717500", "135310.207500", "135311.697500", "135313.187500", "135314.677500", "135316.167500", "135317.657500", "135319.147500", "135320.637500", "135322.127500", "135323.617500", "135325.107500", "135326.597500", "135328.087500", "135329.577500", "135331.067500", "135332.557500", "135334.047500", "135335.537500", "135337.027500", "135338.517500", "135340.007500", "135341.497500", "135342.987500", "135344.477500", "135345.967500", "135347.457500", "135348.947500", "135350.437500", "135351.927500", "135353.417500", "135354.907500", "135356.397500", "135357.887500", "135359.377500", "135400.867500", "135402.357500", "135403.847500", "135405.337500", "135406.827500", "135408.317500", "135409.807500", "135411.297500", "135412.787500", "135414.277500", "135415.767500", "135417.257500", "135418.747500", "135420.237500", "135421.727500", "135423.217500", "135424.707500", "135426.197500", "135427.687500", "135429.177500", "135430.667500", "135432.157500", "135433.647500", "135435.137500", "135436.627500", "135438.117500", "135439.607500", "135441.097500", "135442.587500", "135444.077500", "135445.567500", "135447.057500", "135448.547500", "135450.037500", "135451.527500", "135453.017500", "135454.507500", "135455.997500", "135457.487500", "135458.977500", "135500.467500", "135501.957500", "135503.447500", "135504.937500"],
      "ContentTime": ["135140.553000", "135140.556000", "135140.558000", "135140.561000", "135140.563000", "135140.566000", "135140.568000", "135140.571000", "135140.573000", "135140.576000", "135140.587000", "135140.589000", "135140.592000", "135140.594000", "135140.597000", "135140.599000", "135140.602000", "135140.604000", "135140.607000", "135140.609000", "135140.612000", "135140.614000", "135200.470000", "135200.473000", "135200.476000", "135200.478000", "135200.487000", "135200.490000", "135200.492000", "135200.495000", "135200.497000", "135200.499000", "135200.502000", "135200.504000", "135200.507000", "135200.509000", "135200.512000", "135200.514000", "135200.517000", "135200.519000", "135200.529000", "135200.531000", "135220.471000", "135220.473000", "135220.476000", "135220.478000", "135220.481000", "135220.483000", "135220.486000", "135220.488000", "135220.491000", "135220.493000", "135220.496000", "135220.498000", "135220.501000", "135220.503000", "135220.506000", "135220.508000", "135220.511000", "135220.513000", "135220.515000", "135220.518000", "135240.469000", "135240.472000", "135240.475000", "135240.477000", "135240.480000", "135240.482000", "135240.485000", "135240.487000", "135240.490000", "135240.492000", "135240.495000", "135240.497000", "135240.500000", "135240.502000", "135240.505000", "135240.507000", "135240.510000", "135240.512000", "135240.515000", "135240.517000", "135240.520000", "135300.480000", "135300.482000", "135300.485000", "135300.487000", "135300.490000", "135300.493000", "135300.495000", "135300.497000", "135300.500000", "135300.502000", "135300.505000", "135300.508000", "135300.510000", "135300.513000", "135300.515000", "135300.518000", "135300.520000", "135300.523000", "135300.525000", "135300.528000", "135340.545000", "135340.547000", "135340.550000", "135340.553000", "135340.555000", "135340.558000", "135340.560000", "135340.563000", "135340.565000", "135340.568000", "135340.570000", "135340.573000", "135340.575000", "135340.578000", "135340.580000", "135340.583000", "135340.585000", "135340.588000", "135340.590000", "135340.593000", "135340.595000", "135340.598000", "135340.600000", "135340.603000", "135340.605000", "135340.608000", "135340.610000", "135340.613000", "135420.506000", "135420.509000", "135420.512000", "135420.514000", "135420.517000", "135420.519000", "135420.522000", "135420.524000", "135420.527000", "135420.529000", "135420.532000", "135420.534000", "135420.537000", "135420.539000", "135420.542000", "135420.544000", "135420.547000", "135420.549000", "135420.552000", "135420.555000", "135420.557000", "135420.560000", "135420.567000", "135420.569000", "135420.572000", "135420.574000", "135420.577000", "135500.498000", "135500.501000", "135500.503000", "135500.506000", "135500.508000", "135500.511000", "135500.513000", "135500.516000", "135500.518000", "135500.521000", "135500.523000", "135500.526000", "135500.528000", "135500.531000", "135500.533000", "135500.536000", "135500.538000", "135500.541000", "135500.543000", "135500.546000", "135500.548000", "135500.551000", "135500.553000", "135500.556000", "135500.558000", "135500.561000", "135500.563000", "135507.488000", "135507.491000", "135507.493000", "135507.496000", "135507.498000"],
      "InstanceCreationTime": ["135140.553000", "135140.556000", "135140.558000", "135140.561000", "135140.563000", "135140.566000", "135140.568000", "135140.571000", "135140.573000", "135140.576000", "135140.587000", "135140.589000", "135140.592000", "135140.594000", "135140.597000", "135140.599000", "135140.602000", "135140.604000", "135140.607000", "135140.609000", "135140.612000", "135140.614000", "135200.470000", "135200.473000", "135200.476000", "135200.478000", "135200.487000", "135200.490000", "135200.492000", "135200.495000", "135200.497000", "135200.499000", "135200.502000", "135200.504000", "135200.507000", "135200.509000", "135200.512000", "135200.514000", "135200.517000", "135200.519000", "135200.529000", "135200.531000", "135220.471000", "135220.473000", "135220.476000", "135220.478000", "135220.481000", "135220.483000", "135220.486000", "135220.488000", "135220.491000", "135220.493000", "135220.496000", "135220.498000", "135220.501000", "135220.503000", "135220.506000", "135220.508000", "135220.511000", "135220.513000", "135220.515000", "135220.518000", "135240.469000", "135240.472000", "135240.475000", "135240.477000", "135240.480000", "135240.482000", "135240.485000", "135240.487000", "135240.490000", "135240.492000", "135240.495000", "135240.497000", "135240.500000", "135240.502000", "135240.505000", "135240.507000", "135240.510000", "135240.512000", "135240.515000", "135240.517000", "135240.520000", "135300.480000", "135300.482000", "135300.485000", "135300.487000", "135300.490000", "135300.493000", "135300.495000", "135300.497000", "135300.500000", "135300.502000", "135300.505000", "135300.508000", "135300.510000", "135300.513000", "135300.515000", "135300.518000", "135300.520000", "135300.523000", "135300.525000", "135300.528000", "135340.545000", "135340.547000", "135340.550000", "135340.553000", "135340.555000", "135340.558000", "135340.560000", "135340.563000", "135340.565000", "135340.568000", "135340.570000", "135340.573000", "135340.575000", "135340.578000", "135340.580000", "135340.583000", "135340.585000", "135340.588000", "135340.590000", "135340.593000", "135340.595000", "135340.598000", "135340.600000", "135340.603000", "135340.605000", "135340.608000", "135340.610000", "135340.613000", "135420.506000", "135420.509000", "135420.512000", "135420.514000", "135420.517000", "135420.519000", "135420.522000", "135420.524000", "135420.527000", "135420.529000", "135420.532000", "135420.534000", "135420.537000", "135420.539000", "135420.542000", "135420.544000", "135420.547000", "135420.549000", "135420.552000", "135420.555000", "135420.557000", "135420.560000", "135420.567000", "135420.569000", "135420.572000", "135420.574000", "135420.577000", "135500.498000", "135500.501000", "135500.503000", "135500.506000", "135500.508000", "135500.511000", "135500.513000", "135500.516000", "135500.518000", "135500.521000", "135500.523000", "135500.526000", "135500.528000", "135500.531000", "135500.533000", "135500.536000", "135500.538000", "135500.541000", "135500.543000", "135500.546000", "135500.548000", "135500.551000", "135500.553000", "135500.556000", "135500.558000", "135500.561000", "135500.563000", "135507.488000", "135507.491000", "135507.493000", "135507.496000", "135507.498000"],
      "InstanceNumber": [1, 2, 3, 4, 5, 6, 7, 8, 9, 10, 11, 12, 13, 14, 15, 16, 17, 18, 19, 20, 21, 22, 23, 24, 25, 26, 27, 28, 29, 30, 31, 32, 33, 34, 35, 36, 37, 38, 39, 40, 41, 42, 43, 44, 45, 46, 47, 48, 49, 50, 51, 52, 53, 54, 55, 56, 57, 58, 59, 60, 61, 62, 63, 64, 65, 66, 67, 68, 69, 70, 71, 72, 73, 74, 75, 76, 77, 78, 79, 80, 81, 82, 83, 84, 85, 86, 87, 88, 89, 90, 91, 92, 93, 94, 95, 96, 97, 98, 99, 100, 101, 102, 103, 104, 105, 106, 107, 108, 109, 110, 111, 112, 113, 114, 115, 116, 117, 118, 119, 120, 121, 122, 123, 124, 125, 126, 127, 128, 129, 130, 131, 132, 133, 134, 135, 136, 137, 138, 139, 140, 141, 142, 143, 144, 145, 146, 147, 148, 149, 150, 151, 152, 153, 154, 155, 156, 157, 158, 159, 160, 161, 162, 163, 164, 165, 166, 167, 168, 169, 170, 171, 172, 173, 174, 175, 176, 177, 178, 179, 180, 181, 182, 183, 184, 185, 186, 187, 188, 189, 190],
      "WindowCenter": [4856.0, 4854.0, 4876.0, 4852.0, 4876.0, 4854.0, 4876.0, 4878.0, 4878.0, 4876.0, 4852.0, 4854.0, 4878.0, 4854.0, 4880.0, 4856.0, 4878.0, 4880.0, 4880.0, 4878.0, 4876.0, 4852.0, 4878.0, 4854.0, 4854.0, 4878.0, 4858.0, 4878.0, 4854.0, 4880.0, 4856.0, 4882.0, 4854.0, 4878.0, 4878.0, 4878.0, 4854.0, 4856.0, 4878.0, 4858.0, 4880.0, 4878.0, 4876.0, 4856.0, 4878.0, 4880.0, 4856.0, 4882.0, 4856.0, 4856.0, 4856.0, 4856.0, 4858.0, 4852.0, 4878.0, 4878.0, 4878.0, 4854.0, 4856.0, 4856.0, 4880.0, 4876.0, 4878.0, 4880.0, 4878.0, 4856.0, 4856.0, 4878.0, 4878.0, 4856.0, 4878.0, 4878.0, 4854.0, 4878.0, 4878.0, 4856.0, 4878.0, 4876.0, 4854.0, 4856.0, 4880.0, 4858.0, 4856.0, 4878.0, 4880.0, 4856.0, 4876.0, 4878.0, 4878.0, 4876.0, 4878.0, 4882.0, 4854.0, 4878.0, 4854.0, 4878.0, 4876.0, 4882.0, 4878.0, 4880.0, 4876.0, 4854.0, 4880.0, 4878.0, 4880.0, 4854.0, 4876.0, 4878.0, 4854.0, 4856.0, 4878.0, 4880.0, 4878.0, 4878.0, 4880.0, 4880.0, 4880.0, 4878.0, 4878.0, 4878.0, 4878.0, 4878.0, 4878.0, 4878.0, 4880.0, 4880.0, 4854.0, 4876.0, 4880.0, 4880.0, 4882.0, 4878.0, 4882.0, 4878.0, 4854.0, 4854.0, 4854.0, 4876.0, 4878.0, 4874.0, 4882.0, 4880.0, 4880.0, 4878.0, 4856.0, 4876.0, 4880.0, 4874.0, 4856.0, 4876.0, 4858.0, 4858.0, 4878.0, 4878.0, 4880.0, 4856.0, 4856.0, 4856.0, 4878.0, 4854.0, 4856.0, 4880.0, 4876.0, 4882.0, 4878.0, 4876.0, 4882.0, 4880.0, 4858.0, 4878.0, 4856.0, 4880.0, 4882.0, 4878.0, 4880.0, 4880.0, 4878.0, 4880.0, 4878.0, 4858.0, 4858.0, 4880.0, 4880.0, 4878.0, 4852.0, 4878.0, 4878.0, 4880.0, 4876.0, 4878.0],
      "WindowWidth": [18622.0, 18622.0, 18656.0, 18622.0, 18656.0, 18618.0, 18652.0, 18652.0, 18646.0, 18650.0, 18620.0, 18624.0, 18654.0, 18620.0, 18654.0, 18622.0, 18656.0, 18656.0, 18654.0, 18650.0, 18646.0, 18616.0, 18652.0, 18626.0, 18618.0, 18652.0, 18614.0, 18652.0, 18620.0, 18656.0, 18620.0, 18654.0, 18622.0, 18652.0, 18656.0, 18650.0, 18624.0, 18618.0, 18654.0, 18622.0, 18660.0, 18650.0, 18650.0, 18626.0, 18652.0, 18658.0, 18624.0, 18654.0, 18622.0, 18620.0, 18616.0, 18618.0, 18626.0, 18624.0, 18660.0, 18654.0, 18654.0, 18622.0, 18622.0, 18620.0, 18654.0, 18654.0, 18654.0, 18652.0, 18654.0, 18628.0, 18622.0, 18650.0, 18650.0, 18622.0, 18650.0, 18656.0, 18624.0, 18652.0, 18654.0, 18624.0, 18652.0, 18648.0, 18626.0, 18620.0, 18650.0, 18626.0, 18626.0, 18650.0, 18658.0, 18622.0, 18652.0, 18656.0, 18652.0, 18650.0, 18656.0, 18658.0, 18626.0, 18652.0, 18622.0, 18650.0, 18650.0, 18656.0, 18648.0, 18658.0, 18646.0, 18628.0, 18652.0, 18656.0, 18650.0, 18620.0, 18652.0, 18654.0, 18624.0, 18624.0, 18652.0, 18652.0, 18654.0, 18650.0, 18656.0, 18654.0, 18646.0, 18654.0, 18656.0, 18654.0, 18656.0, 18656.0, 18660.0, 18652.0, 18654.0, 18658.0, 18620.0, 18654.0, 18660.0, 18654.0, 18658.0, 18662.0, 18672.0, 18656.0, 18618.0, 18614.0, 18616.0, 18652.0, 18652.0, 18654.0, 18674.0, 18660.0, 18664.0, 18650.0, 18624.0, 18646.0, 18652.0, 18654.0, 18622.0, 18652.0, 18630.0, 18622.0, 18658.0, 18658.0, 18658.0, 18624.0, 18622.0, 18620.0, 18652.0, 18620.0, 18624.0, 18656.0, 18654.0, 18658.0, 18652.0, 18658.0, 18654.0, 18660.0, 18622.0, 18658.0, 18620.0, 18658.0, 18656.0, 18660.0, 18654.0, 18656.0, 18654.0, 18652.0, 18650.0, 18626.0, 18620.0, 18656.0, 18654.0, 18650.0, 18624.0, 18654.0, 18656.0, 18658.0, 18654.0, 18654.0]
    },
    "slices": {}
  }
}