{
  "AcquisitionMatrixPE": 104,
  "AcquisitionNumber": 1,
  "AcquisitionTime": "13:44:11.655000",
  "BandwidthPerPixelPhaseEncode": 17.17,
  "BaseResolution": 104,
  "BodyPartExamined": "BRAIN",
  "CoilCombinationMethod": "Sum of Squares",
  "ConsistencyInfo": "N4_VE11C_LATEST_20160120",
  "ConversionSoftware": "dcm2niix",
  "ConversionSoftwareVersion": "v1.0.20211006",
  "DerivedVendorReportedEchoSpacing": 0.000560011,
  "DeviceSerialNumber": "167006",
  "DwellTime": 2.1e-06,
  "EchoTime": 0.037,
  "EchoTime1": 0.037,
  "EchoTime2": 0.001,
  "EchoTrainLength": 104,
  "EffectiveEchoSpacing": 0.000560011,
  "FlipAngle": 52,
  "HeudiconvVersion": "0.10.0",
  "ImageComments": "Unaliased MB4/PE3/LB",
  "ImageOrientationPatientDICOM": [0.999352, -0.00570858, 0.0355416, 0.0139545, 0.971575, -0.236319],
  "ImageOrientationText": "Tra>Cor(-13.7)>Sag(1.9)",
  "ImageType": [
    "ORIGINAL",
    "PRIMARY",
    "P",
    "MB",
    "ND",
    "MOSAIC",
    "PHASE"
],
  "ImagingFrequency": 123.259,
  "InPlanePhaseEncodingDirectionDICOM": "COL",
  "InstitutionAddress": "Chemin Queen-Mary 4565,Montreal,District,CA,H3W 1W5",
  "InstitutionName": "IUGM",
  "InstitutionalDepartmentName": "Department",
  "MRAcquisitionType": "2D",
  "MagneticFieldStrength": 3,
  "Manufacturer": "Siemens",
  "ManufacturersModelName": "Prisma_fit",
  "MatrixCoilMode": "SENSE",
  "Modality": "MR",
  "MultibandAccelerationFactor": 4,
  "PartialFourier": 1,
  "PatientPosition": "HFS",
  "PercentPhaseFOV": 100,
  "PercentSampling": 100,
  "PhaseEncodingDirection": "j",
  "PhaseEncodingSteps": 104,
  "PhaseResolution": 1,
  "PixelBandwidth": 2290,
  "ProcedureStepDescription": "memory^things",
  "ProtocolName": "func_task-things_run-2",
  "PulseSequenceDetails": "%CustomerSeq%\\cmrr_mbep2d_bold",
  "ReceiveCoilActiveElements": "HC1-7;NC1,2",
  "ReceiveCoilName": "HeadNeck_64",
  "ReconMatrixPE": 104,
  "RepetitionTime": 1.49,
  "SAR": 0.0513107,
  "ScanOptions": "FS",
  "ScanningSequence": "EP",
  "SequenceName": "epfid2d1_104",
  "SequenceVariant": "SK\\SS",
  "SeriesDescription": "func_task-things_run-2",
  "SeriesNumber": 20,
  "ShimSetting": [637, -7217, -8764, 695, 46, -13, 79, -6],
  "SliceThickness": 2,
  "SliceTiming": [0, 0.7825, 0.0975, 0.88, 0.195, 0.98, 0.2925, 1.0775, 0.39, 1.175, 0.49, 1.2725, 0.5875, 1.37, 0.685, 0, 0.7825, 0.0975, 0.88, 0.195, 0.98, 0.2925, 1.0775, 0.39, 1.175, 0.49, 1.2725, 0.5875, 1.37, 0.685, 0, 0.7825, 0.0975, 0.88, 0.195, 0.98, 0.2925, 1.0775, 0.39, 1.175, 0.49, 1.2725, 0.5875, 1.37, 0.685, 0, 0.7825, 0.0975, 0.88, 0.195, 0.98, 0.2925, 1.0775, 0.39, 1.175, 0.49, 1.2725, 0.5875, 1.37, 0.685],
  "SoftwareVersions": "syngo MR E11",
  "SpacingBetweenSlices": 2,
  "StationName": "MRC35049",
  "TaskName": "things",
  "TotalReadoutTime": 0.0576811,
  "TxRefAmp": 237.736,
  "WipMemBlock": "3be8be11-1aca-440d-ba64-d04cb2afe2bf||Sequence: R016 ve11c/master r/e634e98; Dec 19 2017 11:00:25 by eja",
  "dcmmeta_affine": [
    [-1.9987038373947144, 0.027909021824598312, 0.06636451184749603, 105.70950317382812],
    [0.011417153291404247, 1.943150520324707, -0.4733240604400635, -76.74337005615234],
    [0.07108312845230103, 0.47263845801353455, 1.9420504570007324, -56.8017463684082],
    [0.0, 0.0, 0.0, 1.0]
],
  "dcmmeta_reorient_transform": [
    [0.0, -1.0, 0.0, 103.0],
    [1.0, 0.0, 0.0, 0.0],
    [0.0, 0.0, 1.0, 0.0],
    [0.0, 0.0, 0.0, 1.0]
],
  "dcmmeta_shape": [104, 104, 60, 190],
  "dcmmeta_slice_dim": 2,
  "dcmmeta_version": 0.6,
  "global": {
    "const": {
      "AcquisitionMatrix": [104, 0, 0, 104],
      "AngioFlag": "N",
      "BitsAllocated": 16,
      "BitsStored": 16,
      "BodyPartExamined": "BRAIN",
      "Columns": 832,
      "EchoNumbers": 1,
      "EchoTime": 37.0,
      "EchoTrainLength": 104,
      "FlipAngle": 52.0,
      "HighBit": 15,
      "ImageOrientationPatient": [0.99935189471065, -0.0057085766033, 0.03554156287208, 0.01395451046583, 0.97157526459781, -0.2363192265969],
      "ImagePositionPatient": [-846.27119499123, -826.55208462507, 138.0461521901],
      "ImageType": [
        "ORIGINAL",
        "PRIMARY",
        "P",
        "MB",
        "ND",
        "MOSAIC"
],
      "ImagedNucleus": "1H",
      "ImagingFrequency": 123.259085,
      "InPlanePhaseEncodingDirection": "COL",
      "LargestImagePixelValue": 4095,
      "MRAcquisitionType": "2D",
      "MagneticFieldStrength": 3.0,
      "Manufacturer": "SIEMENS",
      "ManufacturerModelName": "Prisma_fit",
      "Modality": "MR",
      "NumberOfAverages": 1.0,
      "NumberOfPhaseEncodingSteps": 104,
      "PercentPhaseFieldOfView": 100.0,
      "PercentSampling": 100.0,
      "PerformedProcedureStepStartTime": "115124.021000",
      "PhotometricInterpretation": "MONOCHROME2",
      "PixelBandwidth": 2290.0,
      "PixelRepresentation": 0,
      "PixelSpacing": [2.0, 2.0],
      "ProtocolName": "func_task-things_run-2",
      "RepetitionTime": 1490.0,
      "RescaleIntercept": -4096.0,
      "RescaleSlope": 2.0,
      "RescaleType": "US",
      "Rows": 832,
      "SAR": 0.05131074513921,
      "SamplesPerPixel": 1,
      "ScanOptions": "FS",
      "ScanningSequence": "EP",
      "SequenceName": "epfid2d1_104",
      "SequenceVariant": [
        "SK",
        "SS"
],
      "SeriesDescription": "func_task-things_run-2",
      "SeriesNumber": 20,
      "SeriesTime": "134529.193000",
      "SliceLocation": -33.486009311005,
      "SliceThickness": 2.0,
      "SmallestImagePixelValue": 0,
      "SoftwareVersions": "syngo MR E11",
      "SpacingBetweenSlices": 2.0000000309362,
      "SpecificCharacterSet": "ISO_IR 100",
      "StudyID": "1",
      "StudyTime": "115123.948000",
      "TransmitCoilName": "Body",
      "VariableFlipAngleFlag": "N",
      "WindowCenterWidthExplanation": "Algo1",
      "dBdt": 0.0},
    "slices": {}
  },
  "time": {
    "samples": {
      "AcquisitionNumber": [1, 2, 3, 4, 5, 6, 7, 8, 9, 10, 11, 12, 13, 14, 15, 16, 17, 18, 19, 20, 21, 22, 23, 24, 25, 26, 27, 28, 29, 30, 31, 32, 33, 34, 35, 36, 37, 38, 39, 40, 41, 42, 43, 44, 45, 46, 47, 48, 49, 50, 51, 52, 53, 54, 55, 56, 57, 58, 59, 60, 61, 62, 63, 64, 65, 66, 67, 68, 69, 70, 71, 72, 73, 74, 75, 76, 77, 78, 79, 80, 81, 82, 83, 84, 85, 86, 87, 88, 89, 90, 91, 92, 93, 94, 95, 96, 97, 98, 99, 100, 101, 102, 103, 104, 105, 106, 107, 108, 109, 110, 111, 112, 113, 114, 115, 116, 117, 118, 119, 120, 121, 122, 123, 124, 125, 126, 127, 128, 129, 130, 131, 132, 133, 134, 135, 136, 137, 138, 139, 140, 141, 142, 143, 144, 145, 146, 147, 148, 149, 150, 151, 152, 153, 154, 155, 156, 157, 158, 159, 160, 161, 162, 163, 164, 165, 166, 167, 168, 169, 170, 171, 172, 173, 174, 175, 176, 177, 178, 179, 180, 181, 182, 183, 184, 185, 186, 187, 188, 189, 190],
      "AcquisitionTime": ["134411.655000", "134413.145000", "134414.635000", "134416.125000", "134417.615000", "134419.105000", "134420.595000", "134422.085000", "134423.575000", "134425.065000", "134426.555000", "134428.045000", "134429.535000", "134431.025000", "134432.515000", "134434.005000", "134435.495000", "134436.985000", "134438.475000", "134439.965000", "134441.455000", "134442.945000", "134444.435000", "134445.925000", "134447.415000", "134448.905000", "134450.395000", "134451.885000", "134453.375000", "134454.865000", "134456.355000", "134457.845000", "134459.335000", "134500.825000", "134502.315000", "134503.805000", "134505.295000", "134506.785000", "134508.275000", "134509.765000", "134511.255000", "134512.745000", "134514.235000", "134515.725000", "134517.215000", "134518.705000", "134520.195000", "134521.685000", "134523.175000", "134524.665000", "134526.155000", "134527.645000", "134529.135000", "134530.625000", "134532.115000", "134533.605000", "134535.095000", "134536.585000", "134538.075000", "134539.565000", "134541.055000", "134542.545000", "134544.035000", "134545.525000", "134547.015000", "134548.505000", "134549.995000", "134551.485000", "134552.975000", "134554.465000", "134555.955000", "134557.445000", "134558.935000", "134600.425000", "134601.915000", "134603.405000", "134604.895000", "134606.385000", "134607.875000", "134609.365000", "134610.855000", "134612.345000", "134613.835000", "134615.325000", "134616.815000", "134618.305000", "134619.795000", "134621.285000", "134622.775000", "134624.265000", "134625.755000", "134627.245000", "134628.735000", "134630.225000", "134631.715000", "134633.205000", "134634.695000", "134636.185000", "134637.675000", "134639.165000", "134640.655000", "134642.145000", "134643.635000", "134645.125000", "134646.615000", "134648.105000", "134649.595000", "134651.085000", "134652.575000", "134654.065000", "134655.555000", "134657.045000", "134658.535000", "134700.025000", "134701.515000", "134703.005000", "134704.495000", "134705.985000", "134707.475000", "134708.965000", "134710.455000", "134711.945000", "134713.435000", "134714.925000", "134716.415000", "134717.905000", "134719.395000", "134720.885000", "134722.375000", "134723.865000", "134725.355000", "134726.845000", "134728.335000", "134729.825000", "134731.315000", "134732.805000", "134734.295000", "134735.785000", "134737.275000", "134738.765000", "134740.255000", "134741.745000", "134743.235000", "134744.725000", "134746.215000", "134747.705000", "134749.195000", "134750.685000", "134752.175000", "134753.665000", "134755.155000", "134756.645000", "134758.135000", "134759.625000", "134801.115000", "134802.605000", "134804.095000", "134805.585000", "134807.075000", "134808.565000", "134810.055000", "134811.545000", "134813.035000", "134814.525000", "134816.015000", "134817.505000", "134818.995000", "134820.485000", "134821.975000", "134823.465000", "134824.955000", "134826.445000", "134827.935000", "134829.425000", "134830.915000", "134832.405000", "134833.895000", "134835.385000", "134836.875000", "134838.365000", "134839.855000", "134841.345000", "134842.835000", "134844.325000", "134845.815000", "134847.305000", "134848.795000", "134850.285000", "134851.775000", "134853.265000"],
      "ContentTime": ["134529.195000", "134529.198000", "134529.200000", "134529.203000", "134529.205000", "134529.208000", "134529.210000", "134529.213000", "134529.215000", "134529.218000", "134529.220000", "134529.223000", "134529.225000", "134529.228000", "134529.230000", "134529.233000", "134529.235000", "134529.238000", "134529.240000", "134529.243000", "134529.245000", "134529.248000", "134549.141000", "134549.143000", "134549.146000", "134549.148000", "134549.151000", "134549.153000", "134549.156000", "134549.158000", "134549.161000", "134549.163000", "134549.166000", "134549.168000", "134549.171000", "134549.173000", "134549.176000", "134549.178000", "134549.181000", "134549.190000", "134549.192000", "134549.195000", "134609.710000", "134609.713000", "134609.716000", "134609.718000", "134609.721000", "134609.723000", "134609.726000", "134609.728000", "134609.731000", "134609.733000", "134609.736000", "134609.738000", "134609.750000", "134609.753000", "134609.755000", "134609.758000", "134609.760000", "134609.763000", "134609.765000", "134609.768000", "134609.770000", "134629.144000", "134629.147000", "134629.150000", "134629.158000", "134629.161000", "134629.164000", "134629.166000", "134629.169000", "134629.171000", "134629.174000", "134629.176000", "134629.179000", "134629.181000", "134629.184000", "134629.186000", "134629.189000", "134629.191000", "134629.194000", "134629.196000", "134629.199000", "134649.162000", "134649.165000", "134649.167000", "134649.170000", "134649.172000", "134649.175000", "134649.177000", "134649.180000", "134649.196000", "134649.199000", "134649.201000", "134649.204000", "134649.206000", "134649.209000", "134649.211000", "134649.214000", "134649.216000", "134649.219000", "134649.221000", "134649.224000", "134729.215000", "134729.218000", "134729.220000", "134729.223000", "134729.233000", "134729.235000", "134729.238000", "134729.240000", "134729.243000", "134729.245000", "134729.248000", "134729.250000", "134729.253000", "134729.255000", "134729.258000", "134729.260000", "134729.263000", "134729.265000", "134729.268000", "134729.270000", "134729.273000", "134729.275000", "134729.278000", "134729.280000", "134729.283000", "134729.285000", "134729.288000", "134729.290000", "134809.183000", "134809.185000", "134809.188000", "134809.190000", "134809.203000", "134809.206000", "134809.208000", "134809.211000", "134809.213000", "134809.216000", "134809.218000", "134809.221000", "134809.223000", "134809.226000", "134809.228000", "134809.231000", "134809.233000", "134809.236000", "134809.238000", "134809.241000", "134809.243000", "134809.246000", "134809.248000", "134809.251000", "134809.253000", "134809.256000", "134809.258000", "134849.173000", "134849.176000", "134849.178000", "134849.181000", "134849.183000", "134849.186000", "134849.188000", "134849.191000", "134849.193000", "134849.196000", "134849.198000", "134849.201000", "134849.203000", "134849.206000", "134849.208000", "134849.211000", "134849.213000", "134849.216000", "134849.218000", "134849.221000", "134849.223000", "134849.226000", "134849.228000", "134849.231000", "134849.233000", "134849.244000", "134849.247000", "134855.961000", "134855.964000", "134855.967000", "134855.970000", "134855.972000"],
      "InstanceCreationTime": ["134529.195000", "134529.198000", "134529.200000", "134529.203000", "134529.205000", "134529.208000", "134529.210000", "134529.213000", "134529.215000", "134529.218000", "134529.220000", "134529.223000", "134529.225000", "134529.228000", "134529.230000", "134529.233000", "134529.235000", "134529.238000", "134529.240000", "134529.243000", "134529.245000", "134529.248000", "134549.141000", "134549.143000", "134549.146000", "134549.148000", "134549.151000", "134549.153000", "134549.156000", "134549.158000", "134549.161000", "134549.163000", "134549.166000", "134549.168000", "134549.171000", "134549.173000", "134549.176000", "134549.178000", "134549.181000", "134549.190000", "134549.192000", "134549.195000", "134609.710000", "134609.713000", "134609.716000", "134609.718000", "134609.721000", "134609.723000", "134609.726000", "134609.728000", "134609.731000", "134609.733000", "134609.736000", "134609.738000", "134609.750000", "134609.753000", "134609.755000", "134609.758000", "134609.760000", "134609.763000", "134609.765000", "134609.768000", "134609.770000", "134629.144000", "134629.147000", "134629.150000", "134629.158000", "134629.161000", "134629.164000", "134629.166000", "134629.169000", "134629.171000", "134629.174000", "134629.176000", "134629.179000", "134629.181000", "134629.184000", "134629.186000", "134629.189000", "134629.191000", "134629.194000", "134629.196000", "134629.199000", "134649.162000", "134649.165000", "134649.167000", "134649.170000", "134649.172000", "134649.175000", "134649.177000", "134649.180000", "134649.196000", "134649.199000", "134649.201000", "134649.204000", "134649.206000", "134649.209000", "134649.211000", "134649.214000", "134649.216000", "134649.219000", "134649.221000", "134649.224000", "134729.215000", "134729.218000", "134729.220000", "134729.223000", "134729.233000", "134729.235000", "134729.238000", "134729.240000", "134729.243000", "134729.245000", "134729.248000", "134729.250000", "134729.253000", "134729.255000", "134729.258000", "134729.260000", "134729.263000", "134729.265000", "134729.268000", "134729.270000", "134729.273000", "134729.275000", "134729.278000", "134729.280000", "134729.283000", "134729.285000", "134729.288000", "134729.290000", "134809.183000", "134809.185000", "134809.188000", "134809.190000", "134809.203000", "134809.206000", "134809.208000", "134809.211000", "134809.213000", "134809.216000", "134809.218000", "134809.221000", "134809.223000", "134809.226000", "134809.228000", "134809.231000", "134809.233000", "134809.236000", "134809.238000", "134809.241000", "134809.243000", "134809.246000", "134809.248000", "134809.251000", "134809.253000", "134809.256000", "134809.258000", "134849.173000", "134849.176000", "134849.178000", "134849.181000", "134849.183000", "134849.186000", "134849.188000", "134849.191000", "134849.193000", "134849.196000", "134849.198000", "134849.201000", "134849.203000", "134849.206000", "134849.208000", "134849.211000", "134849.213000", "134849.216000", "134849.218000", "134849.221000", "134849.223000", "134849.226000", "134849.228000", "134849.231000", "134849.233000", "134849.244000", "134849.247000", "134855.961000", "134855.964000", "134855.967000", "134855.970000", "134855.972000"],
      "InstanceNumber": [1, 2, 3, 4, 5, 6, 7, 8, 9, 10, 11, 12, 13, 14, 15, 16, 17, 18, 19, 20, 21, 22, 23, 24, 25, 26, 27, 28, 29, 30, 31, 32, 33, 34, 35, 36, 37, 38, 39, 40, 41, 42, 43, 44, 45, 46, 47, 48, 49, 50, 51, 52, 53, 54, 55, 56, 57, 58, 59, 60, 61, 62, 63, 64, 65, 66, 67, 68, 69, 70, 71, 72, 73, 74, 75, 76, 77, 78, 79, 80, 81, 82, 83, 84, 85, 86, 87, 88, 89, 90, 91, 92, 93, 94, 95, 96, 97, 98, 99, 100, 101, 102, 103, 104, 105, 106, 107, 108, 109, 110, 111, 112, 113, 114, 115, 116, 117, 118, 119, 120, 121, 122, 123, 124, 125, 126, 127, 128, 129, 130, 131, 132, 133, 134, 135, 136, 137, 138, 139, 140, 141, 142, 143, 144, 145, 146, 147, 148, 149, 150, 151, 152, 153, 154, 155, 156, 157, 158, 159, 160, 161, 162, 163, 164, 165, 166, 167, 168, 169, 170, 171, 172, 173, 174, 175, 176, 177, 178, 179, 180, 181, 182, 183, 184, 185, 186, 187, 188, 189, 190],
      "WindowCenter": [4856.0, 4854.0, 4878.0, 4854.0, 4878.0, 4854.0, 4876.0, 4878.0, 4878.0, 4878.0, 4854.0, 4874.0, 4878.0, 4880.0, 4856.0, 4876.0, 4854.0, 4876.0, 4876.0, 4880.0, 4878.0, 4878.0, 4878.0, 4878.0, 4876.0, 4878.0, 4878.0, 4880.0, 4880.0, 4878.0, 4878.0, 4880.0, 4874.0, 4876.0, 4856.0, 4878.0, 4880.0, 4878.0, 4880.0, 4878.0, 4878.0, 4878.0, 4878.0, 4880.0, 4878.0, 4854.0, 4878.0, 4880.0, 4880.0, 4880.0, 4882.0, 4878.0, 4876.0, 4878.0, 4878.0, 4880.0, 4876.0, 4880.0, 4878.0, 4878.0, 4878.0, 4878.0, 4880.0, 4880.0, 4880.0, 4876.0, 4878.0, 4876.0, 4878.0, 4876.0, 4882.0, 4880.0, 4880.0, 4854.0, 4878.0, 4880.0, 4876.0, 4878.0, 4880.0, 4878.0, 4878.0, 4878.0, 4880.0, 4878.0, 4878.0, 4878.0, 4882.0, 4874.0, 4878.0, 4876.0, 4878.0, 4880.0, 4882.0, 4878.0, 4878.0, 4876.0, 4880.0, 4882.0, 4880.0, 4878.0, 4876.0, 4878.0, 4878.0, 4876.0, 4882.0, 4878.0, 4876.0, 4878.0, 4878.0, 4876.0, 4878.0, 4876.0, 4878.0, 4880.0, 4882.0, 4878.0, 4880.0, 4880.0, 4880.0, 4878.0, 4878.0, 4880.0, 4880.0, 4880.0, 4880.0, 4878.0, 4876.0, 4878.0, 4880.0, 4878.0, 4882.0, 4878.0, 4878.0, 4880.0, 4882.0, 4878.0, 4880.0, 4882.0, 4878.0, 4880.0, 4880.0, 4880.0, 4878.0, 4878.0, 4876.0, 4880.0, 4880.0, 4878.0, 4876.0, 4878.0, 4878.0, 4878.0, 4880.0, 4882.0, 4880.0, 4880.0, 4882.0, 4880.0, 4884.0, 4878.0, 4876.0, 4878.0, 4878.0, 4880.0, 4882.0, 4880.0, 4878.0, 4878.0, 4882.0, 4882.0, 4876.0, 4878.0, 4880.0, 4876.0, 4878.0, 4880.0, 4880.0, 4876.0, 4880.0, 4880.0, 4880.0, 4880.0, 4876.0, 4880.0, 4878.0, 4884.0, 4884.0, 4878.0, 4874.0, 4878.0],
      "WindowWidth": [18628.0, 18626.0, 18656.0, 18618.0, 18652.0, 18622.0, 18656.0, 18658.0, 18656.0, 18656.0, 18630.0, 18654.0, 18658.0, 18660.0, 18624.0, 18654.0, 18624.0, 18650.0, 18654.0, 18652.0, 18654.0, 18656.0, 18654.0, 18652.0, 18654.0, 18658.0, 18652.0, 18658.0, 18654.0, 18654.0, 18656.0, 18662.0, 18656.0, 18654.0, 18632.0, 18656.0, 18654.0, 18656.0, 18660.0, 18658.0, 18662.0, 18656.0, 18656.0, 18650.0, 18660.0, 18624.0, 18658.0, 18668.0, 18656.0, 18664.0, 18660.0, 18660.0, 18656.0, 18658.0, 18648.0, 18658.0, 18654.0, 18658.0, 18658.0, 18656.0, 18658.0, 18658.0, 18658.0, 18656.0, 18662.0, 18654.0, 18656.0, 18654.0, 18660.0, 18658.0, 18658.0, 18660.0, 18662.0, 18620.0, 18660.0, 18660.0, 18656.0, 18658.0, 18654.0, 18658.0, 18650.0, 18666.0, 18660.0, 18658.0, 18652.0, 18656.0, 18654.0, 18656.0, 18656.0, 18656.0, 18662.0, 18656.0, 18664.0, 18656.0, 18662.0, 18654.0, 18660.0, 18660.0, 18664.0, 18658.0, 18658.0, 18658.0, 18656.0, 18654.0, 18664.0, 18654.0, 18654.0, 18656.0, 18656.0, 18656.0, 18658.0, 18658.0, 18656.0, 18660.0, 18660.0, 18660.0, 18656.0, 18656.0, 18660.0, 18658.0, 18656.0, 18662.0, 18662.0, 18660.0, 18656.0, 18662.0, 18658.0, 18658.0, 18654.0, 18660.0, 18656.0, 18660.0, 18660.0, 18662.0, 18664.0, 18658.0, 18662.0, 18656.0, 18654.0, 18662.0, 18660.0, 18662.0, 18658.0, 18660.0, 18656.0, 18666.0, 18662.0, 18658.0, 18660.0, 18660.0, 18656.0, 18658.0, 18658.0, 18664.0, 18660.0, 18658.0, 18658.0, 18656.0, 18664.0, 18654.0, 18656.0, 18660.0, 18652.0, 18664.0, 18660.0, 18662.0, 18658.0, 18660.0, 18662.0, 18662.0, 18658.0, 18660.0, 18660.0, 18654.0, 18660.0, 18658.0, 18668.0, 18656.0, 18658.0, 18660.0, 18660.0, 18658.0, 18660.0, 18662.0, 18662.0, 18660.0, 18664.0, 18658.0, 18652.0, 18662.0]
    },
    "slices": {}
  }
}