{
  "AcquisitionMatrixPE": 104,
  "AcquisitionNumber": 1,
  "AcquisitionTime": "13:37:45.637500",
  "BandwidthPerPixelPhaseEncode": 17.17,
  "BaseResolution": 104,
  "BodyPartExamined": "BRAIN",
  "CoilCombinationMethod": "Sum of Squares",
  "ConsistencyInfo": "N4_VE11C_LATEST_20160120",
  "ConversionSoftware": "dcm2niix",
  "ConversionSoftwareVersion": "v1.0.20211006",
  "DerivedVendorReportedEchoSpacing": 0.000560011,
  "DeviceSerialNumber": "167006",
  "DwellTime": 2.1e-06,
  "EchoTime": 0.037,
  "EchoTrainLength": 104,
  "EffectiveEchoSpacing": 0.000560011,
  "FlipAngle": 52,
  "HeudiconvVersion": "0.10.0",
  "ImageComments": "Unaliased MB4/PE3/LB",
  "ImageOrientationPatientDICOM": [0.999352, -0.00570858, 0.0355416, 0.0139545, 0.971575, -0.236319],
  "ImageOrientationText": "Tra>Cor(-13.7)>Sag(1.9)",
  "ImageType": [
    "ORIGINAL",
    "PRIMARY",
    "M",
    "MB",
    "ND",
    "MOSAIC"
],
  "ImagingFrequency": 123.259,
  "InPlanePhaseEncodingDirectionDICOM": "COL",
  "InstitutionAddress": "Chemin Queen-Mary 4565,Montreal,District,CA,H3W 1W5",
  "InstitutionName": "IUGM",
  "InstitutionalDepartmentName": "Department",
  "MRAcquisitionType": "2D",
  "MagneticFieldStrength": 3,
  "Manufacturer": "Siemens",
  "ManufacturersModelName": "Prisma_fit",
  "MatrixCoilMode": "SENSE",
  "Modality": "MR",
  "MultibandAccelerationFactor": 4,
  "PartialFourier": 1,
  "PatientPosition": "HFS",
  "PercentPhaseFOV": 100,
  "PercentSampling": 100,
  "PhaseEncodingDirection": "j",
  "PhaseEncodingSteps": 104,
  "PhaseResolution": 1,
  "PixelBandwidth": 2290,
  "ProcedureStepDescription": "memory^things",
  "ProtocolName": "func_task-things_run-1",
  "PulseSequenceDetails": "%CustomerSeq%\\cmrr_mbep2d_bold",
  "ReceiveCoilActiveElements": "HC1-7;NC1,2",
  "ReceiveCoilName": "HeadNeck_64",
  "ReconMatrixPE": 104,
  "RepetitionTime": 1.49,
  "SAR": 0.0513107,
  "ScanOptions": "FS",
  "ScanningSequence": "EP",
  "SequenceName": "epfid2d1_104",
  "SequenceVariant": "SK\\SS",
  "SeriesDescription": "func_task-things_run-1",
  "SeriesNumber": 16,
  "ShimSetting": [637, -7217, -8764, 695, 46, -13, 79, -6],
  "SliceThickness": 2,
  "SliceTiming": [0, 0.785, 0.0975, 0.8825, 0.1975, 0.98, 0.295, 1.0775, 0.3925, 1.1775, 0.49, 1.275, 0.5875, 1.3725, 0.6875, 0, 0.785, 0.0975, 0.8825, 0.1975, 0.98, 0.295, 1.0775, 0.3925, 1.1775, 0.49, 1.275, 0.5875, 1.3725, 0.6875, 0, 0.785, 0.0975, 0.8825, 0.1975, 0.98, 0.295, 1.0775, 0.3925, 1.1775, 0.49, 1.275, 0.5875, 1.3725, 0.6875, 0, 0.785, 0.0975, 0.8825, 0.1975, 0.98, 0.295, 1.0775, 0.3925, 1.1775, 0.49, 1.275, 0.5875, 1.3725, 0.6875],
  "SoftwareVersions": "syngo MR E11",
  "SpacingBetweenSlices": 2,
  "StationName": "MRC35049",
  "TaskName": "things",
  "TotalReadoutTime": 0.0576811,
  "TxRefAmp": 237.736,
  "WipMemBlock": "6f8df00f-93a8-4d5c-9723-994743158f7e||Sequence: R016 ve11c/master r/e634e98; Dec 19 2017 11:00:25 by eja",
  "dcmmeta_affine": [
    [-1.9987038373947144, 0.027909021824598312, 0.06636451184749603, 105.70950317382812],
    [0.011417153291404247, 1.943150520324707, -0.4733240604400635, -76.74337005615234],
    [0.07108312845230103, 0.47263845801353455, 1.9420504570007324, -56.8017463684082],
    [0.0, 0.0, 0.0, 1.0]
],
  "dcmmeta_reorient_transform": [
    [0.0, -1.0, 0.0, 103.0],
    [1.0, 0.0, 0.0, 0.0],
    [0.0, 0.0, 1.0, 0.0],
    [0.0, 0.0, 0.0, 1.0]
],
  "dcmmeta_shape": [104, 104, 60, 190],
  "dcmmeta_slice_dim": 2,
  "dcmmeta_version": 0.6,
  "global": {
    "const": {
      "AcquisitionMatrix": [104, 0, 0, 104],
      "AngioFlag": "N",
      "BitsAllocated": 16,
      "BitsStored": 16,
      "BodyPartExamined": "BRAIN",
      "Columns": 832,
      "EchoNumbers": 1,
      "EchoTime": 37.0,
      "EchoTrainLength": 104,
      "FlipAngle": 52.0,
      "HighBit": 15,
      "ImageOrientationPatient": [0.99935189471065, -0.0057085766033, 0.03554156287208, 0.01395451046583, 0.97157526459781, -0.2363192265969],
      "ImagePositionPatient": [-846.27119499123, -826.55208462507, 138.0461521901],
      "ImageType": [
        "ORIGINAL",
        "PRIMARY",
        "M",
        "MB",
        "ND",
        "MOSAIC"
],
      "ImagedNucleus": "1H",
      "ImagingFrequency": 123.25908,
      "InPlanePhaseEncodingDirection": "COL",
      "MRAcquisitionType": "2D",
      "MagneticFieldStrength": 3.0,
      "Manufacturer": "SIEMENS",
      "ManufacturerModelName": "Prisma_fit",
      "Modality": "MR",
      "NumberOfAverages": 1.0,
      "NumberOfPhaseEncodingSteps": 104,
      "PercentPhaseFieldOfView": 100.0,
      "PercentSampling": 100.0,
      "PerformedProcedureStepStartTime": "115124.021000",
      "PhotometricInterpretation": "MONOCHROME2",
      "PixelBandwidth": 2290.0,
      "PixelRepresentation": 0,
      "PixelSpacing": [2.0, 2.0],
      "ProtocolName": "func_task-things_run-1",
      "RepetitionTime": 1490.0,
      "Rows": 832,
      "SAR": 0.05131074513921,
      "SamplesPerPixel": 1,
      "ScanOptions": "FS",
      "ScanningSequence": "EP",
      "SequenceName": "epfid2d1_104",
      "SequenceVariant": [
        "SK",
        "SS"
],
      "SeriesDescription": "func_task-things_run-1",
      "SeriesNumber": 16,
      "SeriesTime": "133847.699000",
      "SliceLocation": -33.486009311005,
      "SliceThickness": 2.0,
      "SmallestImagePixelValue": 0,
      "SoftwareVersions": "syngo MR E11",
      "SpacingBetweenSlices": 2.0000000309362,
      "SpecificCharacterSet": "ISO_IR 100",
      "StudyID": "1",
      "StudyTime": "115123.948000",
      "TransmitCoilName": "Body",
      "VariableFlipAngleFlag": "N",
      "WindowCenterWidthExplanation": "Algo1",
      "dBdt": 0.0},
    "slices": {}
  },
  "time": {
    "samples": {
      "AcquisitionNumber": [1, 2, 3, 4, 5, 6, 7, 8, 9, 10, 11, 12, 13, 14, 15, 16, 17, 18, 19, 20, 21, 22, 23, 24, 25, 26, 27, 28, 29, 30, 31, 32, 33, 34, 35, 36, 37, 38, 39, 40, 41, 42, 43, 44, 45, 46, 47, 48, 49, 50, 51, 52, 53, 54, 55, 56, 57, 58, 59, 60, 61, 62, 63, 64, 65, 66, 67, 68, 69, 70, 71, 72, 73, 74, 75, 76, 77, 78, 79, 80, 81, 82, 83, 84, 85, 86, 87, 88, 89, 90, 91, 92, 93, 94, 95, 96, 97, 98, 99, 100, 101, 102, 103, 104, 105, 106, 107, 108, 109, 110, 111, 112, 113, 114, 115, 116, 117, 118, 119, 120, 121, 122, 123, 124, 125, 126, 127, 128, 129, 130, 131, 132, 133, 134, 135, 136, 137, 138, 139, 140, 141, 142, 143, 144, 145, 146, 147, 148, 149, 150, 151, 152, 153, 154, 155, 156, 157, 158, 159, 160, 161, 162, 163, 164, 165, 166, 167, 168, 169, 170, 171, 172, 173, 174, 175, 176, 177, 178, 179, 180, 181, 182, 183, 184, 185, 186, 187, 188, 189, 190],
      "AcquisitionTime": ["133745.637500", "133747.127500", "133748.617500", "133750.107500", "133751.597500", "133753.087500", "133754.577500", "133756.067500", "133757.557500", "133759.047500", "133800.537500", "133802.027500", "133803.517500", "133805.007500", "133806.497500", "133807.987500", "133809.477500", "133810.967500", "133812.457500", "133813.947500", "133815.437500", "133816.927500", "133818.417500", "133819.907500", "133821.397500", "133822.887500", "133824.377500", "133825.867500", "133827.357500", "133828.847500", "133830.337500", "133831.827500", "133833.317500", "133834.807500", "133836.297500", "133837.787500", "133839.277500", "133840.767500", "133842.257500", "133843.747500", "133845.237500", "133846.727500", "133848.217500", "133849.707500", "133851.197500", "133852.687500", "133854.177500", "133855.667500", "133857.157500", "133858.647500", "133900.137500", "133901.627500", "133903.117500", "133904.607500", "133906.097500", "133907.587500", "133909.077500", "133910.567500", "133912.057500", "133913.547500", "133915.037500", "133916.527500", "133918.017500", "133919.507500", "133920.997500", "133922.487500", "133923.977500", "133925.467500", "133926.957500", "133928.447500", "133929.937500", "133931.427500", "133932.917500", "133934.407500", "133935.897500", "133937.387500", "133938.877500", "133940.367500", "133941.857500", "133943.347500", "133944.837500", "133946.327500", "133947.817500", "133949.307500", "133950.797500", "133952.287500", "133953.777500", "133955.267500", "133956.757500", "133958.247500", "133959.737500", "134001.227500", "134002.717500", "134004.207500", "134005.697500", "134007.187500", "134008.677500", "134010.167500", "134011.657500", "134013.147500", "134014.637500", "134016.127500", "134017.617500", "134019.107500", "134020.597500", "134022.087500", "134023.577500", "134025.067500", "134026.557500", "134028.047500", "134029.537500", "134031.027500", "134032.517500", "134034.007500", "134035.497500", "134036.987500", "134038.477500", "134039.967500", "134041.457500", "134042.947500", "134044.437500", "134045.927500", "134047.417500", "134048.907500", "134050.397500", "134051.887500", "134053.377500", "134054.867500", "134056.357500", "134057.847500", "134059.337500", "134100.827500", "134102.317500", "134103.807500", "134105.297500", "134106.787500", "134108.277500", "134109.767500", "134111.257500", "134112.747500", "134114.237500", "134115.727500", "134117.217500", "134118.707500", "134120.197500", "134121.687500", "134123.177500", "134124.667500", "134126.157500", "134127.647500", "134129.137500", "134130.627500", "134132.117500", "134133.607500", "134135.097500", "134136.587500", "134138.077500", "134139.567500", "134141.057500", "134142.547500", "134144.037500", "134145.527500", "134147.017500", "134148.507500", "134149.997500", "134151.487500", "134152.977500", "134154.467500", "134155.957500", "134157.447500", "134158.937500", "134200.427500", "134201.917500", "134203.407500", "134204.897500", "134206.387500", "134207.877500", "134209.367500", "134210.857500", "134212.347500", "134213.837500", "134215.327500", "134216.817500", "134218.307500", "134219.797500", "134221.287500", "134222.777500", "134224.267500", "134225.757500", "134227.247500"],
      "ContentTime": ["133847.702000", "133847.706000", "133847.714000", "133847.718000", "133847.721000", "133847.724000", "133847.728000", "133847.731000", "133847.734000", "133907.662000", "133907.666000", "133907.669000", "133907.672000", "133907.678000", "133907.682000", "133907.685000", "133907.688000", "133907.692000", "133907.695000", "133907.699000", "133907.702000", "133907.705000", "133907.708000", "133907.712000", "133907.715000", "133907.719000", "133907.738000", "133907.742000", "133907.745000", "133927.662000", "133927.666000", "133927.669000", "133927.672000", "133927.676000", "133927.685000", "133927.688000", "133927.691000", "133927.695000", "133927.698000", "133927.701000", "133927.705000", "133927.708000", "133927.711000", "133927.714000", "133927.718000", "133927.721000", "133927.724000", "133927.728000", "133927.731000", "133947.662000", "133947.666000", "133947.681000", "133947.685000", "133947.698000", "133947.701000", "133947.704000", "133947.707000", "133947.711000", "133947.722000", "133947.725000", "133947.729000", "133947.732000", "133947.735000", "133947.738000", "133947.742000", "133947.745000", "133947.748000", "133947.752000", "133947.755000", "133947.758000", "134007.662000", "134007.666000", "134007.669000", "134007.672000", "134007.676000", "134007.679000", "134007.682000", "134007.686000", "134007.689000", "134007.692000", "134007.696000", "134007.699000", "134007.702000", "134007.705000", "134007.709000", "134007.712000", "134007.716000", "134007.719000", "134007.722000", "134007.726000", "134047.662000", "134047.666000", "134047.669000", "134047.680000", "134047.683000", "134047.686000", "134047.690000", "134047.693000", "134047.696000", "134047.700000", "134047.703000", "134047.706000", "134047.710000", "134047.713000", "134047.716000", "134047.720000", "134047.723000", "134047.726000", "134047.730000", "134047.733000", "134047.736000", "134047.740000", "134047.743000", "134047.746000", "134047.750000", "134047.753000", "134047.756000", "134047.759000", "134047.763000", "134047.766000", "134047.769000", "134127.662000", "134127.666000", "134127.669000", "134127.673000", "134127.676000", "134127.679000", "134127.682000", "134127.686000", "134127.689000", "134127.692000", "134127.696000", "134127.699000", "134127.702000", "134127.706000", "134127.709000", "134127.712000", "134127.716000", "134127.719000", "134127.722000", "134127.725000", "134127.740000", "134127.743000", "134127.747000", "134127.750000", "134127.754000", "134127.757000", "134127.760000", "134207.669000", "134207.672000", "134207.676000", "134207.679000", "134207.683000", "134207.686000", "134207.690000", "134207.693000", "134207.696000", "134207.700000", "134207.703000", "134207.706000", "134207.710000", "134207.713000", "134207.716000", "134207.720000", "134207.723000", "134207.726000", "134207.730000", "134207.733000", "134207.743000", "134207.746000", "134207.749000", "134207.753000", "134207.756000", "134207.759000", "134207.763000", "134229.178000", "134229.182000", "134229.185000", "134229.189000", "134229.197000", "134229.201000", "134229.205000", "134229.208000", "134229.211000", "134229.215000", "134229.218000", "134229.221000", "134229.225000", "134229.228000", "134229.232000"],
      "InstanceCreationTime": ["133847.702000", "133847.706000", "133847.714000", "133847.718000", "133847.721000", "133847.724000", "133847.728000", "133847.731000", "133847.734000", "133907.662000", "133907.666000", "133907.669000", "133907.672000", "133907.678000", "133907.682000", "133907.685000", "133907.688000", "133907.692000", "133907.695000", "133907.699000", "133907.702000", "133907.705000", "133907.708000", "133907.712000", "133907.715000", "133907.719000", "133907.738000", "133907.742000", "133907.745000", "133927.662000", "133927.666000", "133927.669000", "133927.672000", "133927.676000", "133927.685000", "133927.688000", "133927.691000", "133927.695000", "133927.698000", "133927.701000", "133927.705000", "133927.708000", "133927.711000", "133927.714000", "133927.718000", "133927.721000", "133927.724000", "133927.728000", "133927.731000", "133947.662000", "133947.666000", "133947.681000", "133947.685000", "133947.698000", "133947.701000", "133947.704000", "133947.707000", "133947.711000", "133947.722000", "133947.725000", "133947.729000", "133947.732000", "133947.735000", "133947.738000", "133947.742000", "133947.745000", "133947.748000", "133947.752000", "133947.755000", "133947.758000", "134007.662000", "134007.666000", "134007.669000", "134007.672000", "134007.676000", "134007.679000", "134007.682000", "134007.686000", "134007.689000", "134007.692000", "134007.696000", "134007.699000", "134007.702000", "134007.705000", "134007.709000", "134007.712000", "134007.716000", "134007.719000", "134007.722000", "134007.726000", "134047.662000", "134047.666000", "134047.669000", "134047.680000", "134047.683000", "134047.686000", "134047.690000", "134047.693000", "134047.696000", "134047.700000", "134047.703000", "134047.706000", "134047.710000", "134047.713000", "134047.716000", "134047.720000", "134047.723000", "134047.726000", "134047.730000", "134047.733000", "134047.736000", "134047.740000", "134047.743000", "134047.746000", "134047.750000", "134047.753000", "134047.756000", "134047.759000", "134047.763000", "134047.766000", "134047.769000", "134127.662000", "134127.666000", "134127.669000", "134127.673000", "134127.676000", "134127.679000", "134127.682000", "134127.686000", "134127.689000", "134127.692000", "134127.696000", "134127.699000", "134127.702000", "134127.706000", "134127.709000", "134127.712000", "134127.716000", "134127.719000", "134127.722000", "134127.725000", "134127.740000", "134127.743000", "134127.747000", "134127.750000", "134127.754000", "134127.757000", "134127.760000", "134207.669000", "134207.672000", "134207.676000", "134207.679000", "134207.683000", "134207.686000", "134207.690000", "134207.693000", "134207.696000", "134207.700000", "134207.703000", "134207.706000", "134207.710000", "134207.713000", "134207.716000", "134207.720000", "134207.723000", "134207.726000", "134207.730000", "134207.733000", "134207.743000", "134207.746000", "134207.749000", "134207.753000", "134207.756000", "134207.759000", "134207.763000", "134229.178000", "134229.182000", "134229.185000", "134229.189000", "134229.197000", "134229.201000", "134229.205000", "134229.208000", "134229.211000", "134229.215000", "134229.218000", "134229.221000", "134229.225000", "134229.228000", "134229.232000"],
      "InstanceNumber": [1, 2, 3, 4, 5, 6, 7, 8, 9, 10, 11, 12, 13, 14, 15, 16, 17, 18, 19, 20, 21, 22, 23, 24, 25, 26, 27, 28, 29, 30, 31, 32, 33, 34, 35, 36, 37, 38, 39, 40, 41, 42, 43, 44, 45, 46, 47, 48, 49, 50, 51, 52, 53, 54, 55, 56, 57, 58, 59, 60, 61, 62, 63, 64, 65, 66, 67, 68, 69, 70, 71, 72, 73, 74, 75, 76, 77, 78, 79, 80, 81, 82, 83, 84, 85, 86, 87, 88, 89, 90, 91, 92, 93, 94, 95, 96, 97, 98, 99, 100, 101, 102, 103, 104, 105, 106, 107, 108, 109, 110, 111, 112, 113, 114, 115, 116, 117, 118, 119, 120, 121, 122, 123, 124, 125, 126, 127, 128, 129, 130, 131, 132, 133, 134, 135, 136, 137, 138, 139, 140, 141, 142, 143, 144, 145, 146, 147, 148, 149, 150, 151, 152, 153, 154, 155, 156, 157, 158, 159, 160, 161, 162, 163, 164, 165, 166, 167, 168, 169, 170, 171, 172, 173, 174, 175, 176, 177, 178, 179, 180, 181, 182, 183, 184, 185, 186, 187, 188, 189, 190],
      "LargestImagePixelValue": [39883, 38897, 38158, 37991, 37599, 37509, 37142, 37091, 37368, 37350, 36940, 36985, 37038, 37307, 37113, 37129, 37399, 37236, 37232, 37113, 37045, 37083, 37571, 37213, 37007, 37498, 36905, 36981, 37106, 36980, 37422, 37654, 36977, 37308, 37602, 37244, 37436, 37414, 37438, 37577, 37369, 37067, 36866, 37252, 37256, 37313, 37448, 37166, 37410, 37142, 37704, 36943, 37224, 37787, 37125, 37518, 37418, 37496, 37265, 37653, 37389, 37489, 37390, 37217, 37275, 37674, 37029, 37206, 36749, 37477, 37206, 37252, 37132, 37632, 37287, 37370, 37562, 37352, 37426, 37585, 37303, 37547, 37333, 37395, 37489, 37162, 37376, 37905, 37844, 37045, 37215, 37325, 37503, 37520, 37554, 37211, 37132, 37001, 37324, 37263, 37567, 37312, 37406, 36931, 37103, 37176, 36998, 36916, 37368, 37243, 37382, 37929, 38197, 37731, 37093, 37269, 36615, 36902, 37449, 37243, 37458, 37757, 37400, 37404, 37141, 37109, 36999, 37386, 37735, 37741, 36869, 36998, 37074, 37069, 37303, 37268, 36857, 37239, 36952, 36984, 36944, 37190, 37062, 36655, 36960, 37173, 36562, 36712, 37180, 37170, 36692, 37244, 36914, 36877, 37071, 37324, 37465, 37002, 37322, 37283, 36889, 37140, 37276, 36874, 37142, 37897, 37332, 37167, 37436, 37172, 37156, 36711, 36994, 36922, 37023, 37268, 37284, 37138, 36954, 37042, 36909, 37482, 37391, 37320, 36949, 36692, 37208, 37157, 37402, 37482],
      "WindowCenter": [10123.0, 10074.0, 10062.0, 10081.0, 10075.0, 10069.0, 10058.0, 10044.0, 10048.0, 10065.0, 10070.0, 10074.0, 10077.0, 10057.0, 10040.0, 10029.0, 10046.0, 10050.0, 10065.0, 10058.0, 10050.0, 10050.0, 10052.0, 10040.0, 10039.0, 10046.0, 10040.0, 10022.0, 10046.0, 10046.0, 10057.0, 10060.0, 10056.0, 10059.0, 10047.0, 10033.0, 10038.0, 10029.0, 10027.0, 10028.0, 10038.0, 10037.0, 10034.0, 10038.0, 10037.0, 10037.0, 10036.0, 10046.0, 10057.0, 10048.0, 10037.0, 10023.0, 10027.0, 10035.0, 10045.0, 10047.0, 10038.0, 10029.0, 10021.0, 10033.0, 10042.0, 10039.0, 10045.0, 10045.0, 10054.0, 10053.0, 10055.0, 10040.0, 10018.0, 10020.0, 10014.0, 10021.0, 10021.0, 10035.0, 10027.0, 10025.0, 10029.0, 10021.0, 10019.0, 10034.0, 10044.0, 10056.0, 10055.0, 10032.0, 10028.0, 10022.0, 10052.0, 10091.0, 10082.0, 10045.0, 10025.0, 10011.0, 10011.0, 10025.0, 10038.0, 10041.0, 10050.0, 10025.0, 10025.0, 10034.0, 10039.0, 10032.0, 10031.0, 10032.0, 10038.0, 10041.0, 10036.0, 10042.0, 10038.0, 10030.0, 10029.0, 10027.0, 10051.0, 10063.0, 10049.0, 10027.0, 10009.0, 9999.0, 10002.0, 9988.0, 9983.0, 9998.0, 10009.0, 10027.0, 10011.0, 10013.0, 10011.0, 10019.0, 10026.0, 10043.0, 10048.0, 10033.0, 10031.0, 10029.0, 10038.0, 10047.0, 10042.0, 10034.0, 10041.0, 10041.0, 10036.0, 10058.0, 10058.0, 10061.0, 10067.0, 10067.0, 10052.0, 10034.0, 10048.0, 10049.0, 10052.0, 10042.0, 10036.0, 10028.0, 10040.0, 10048.0, 10057.0, 10049.0, 10040.0, 10033.0, 10032.0, 10039.0, 10040.0, 10023.0, 10032.0, 10030.0, 10020.0, 10021.0, 10035.0, 10039.0, 10042.0, 10053.0, 10026.0, 10013.0, 10009.0, 10012.0, 10029.0, 10040.0, 10035.0, 10023.0, 10015.0, 10019.0, 10028.0, 10053.0, 10044.0, 10031.0, 10004.0, 9997.0, 10010.0, 10025.0],
      "WindowWidth": [21543.0, 21411.0, 21374.0, 21412.0, 21395.0, 21380.0, 21351.0, 21321.0, 21327.0, 21367.0, 21383.0, 21389.0, 21396.0, 21348.0, 21308.0, 21283.0, 21322.0, 21334.0, 21368.0, 21351.0, 21335.0, 21334.0, 21333.0, 21310.0, 21304.0, 21320.0, 21311.0, 21269.0, 21322.0, 21321.0, 21349.0, 21350.0, 21344.0, 21353.0, 21322.0, 21292.0, 21302.0, 21283.0, 21276.0, 21278.0, 21302.0, 21302.0, 21298.0, 21304.0, 21303.0, 21300.0, 21298.0, 21321.0, 21351.0, 21330.0, 21300.0, 21271.0, 21276.0, 21293.0, 21319.0, 21325.0, 21302.0, 21282.0, 21265.0, 21289.0, 21309.0, 21305.0, 21318.0, 21315.0, 21339.0, 21337.0, 21342.0, 21308.0, 21261.0, 21261.0, 21249.0, 21266.0, 21263.0, 21292.0, 21275.0, 21270.0, 21282.0, 21264.0, 21259.0, 21292.0, 21316.0, 21344.0, 21341.0, 21288.0, 21278.0, 21267.0, 21335.0, 21424.0, 21403.0, 21320.0, 21272.0, 21239.0, 21239.0, 21271.0, 21303.0, 21311.0, 21331.0, 21274.0, 21273.0, 21292.0, 21303.0, 21288.0, 21285.0, 21288.0, 21299.0, 21308.0, 21299.0, 21311.0, 21299.0, 21280.0, 21277.0, 21274.0, 21328.0, 21356.0, 21327.0, 21275.0, 21234.0, 21212.0, 21216.0, 21187.0, 21174.0, 21205.0, 21233.0, 21273.0, 21238.0, 21242.0, 21236.0, 21253.0, 21270.0, 21309.0, 21324.0, 21292.0, 21284.0, 21279.0, 21298.0, 21320.0, 21310.0, 21294.0, 21309.0, 21307.0, 21302.0, 21347.0, 21347.0, 21354.0, 21367.0, 21365.0, 21334.0, 21293.0, 21323.0, 21328.0, 21336.0, 21311.0, 21298.0, 21280.0, 21306.0, 21324.0, 21343.0, 21324.0, 21303.0, 21286.0, 21285.0, 21301.0, 21302.0, 21263.0, 21286.0, 21277.0, 21254.0, 21260.0, 21289.0, 21301.0, 21311.0, 21336.0, 21273.0, 21239.0, 21230.0, 21242.0, 21282.0, 21308.0, 21296.0, 21268.0, 21248.0, 21252.0, 21275.0, 21330.0, 21314.0, 21278.0, 21216.0, 21203.0, 21229.0, 21262.0]
    },
    "slices": {}
  }
}