{
  "AcquisitionMatrixPE": 104,
  "AcquisitionNumber": 1,
  "AcquisitionTime": "17:35:56.662500",
  "BandwidthPerPixelPhaseEncode": 17.17,
  "BaseResolution": 104,
  "BodyPartExamined": "BRAIN",
  "CoilString": "HC1-7;NC1_2",
  "ConsistencyInfo": "N4_VE11C_LATEST_20160120",
  "ConversionSoftware": "dcm2niix",
  "ConversionSoftwareVersion": "v1.0.20190902",
  "DerivedVendorReportedEchoSpacing": 0.000560011,
  "DeviceSerialNumber": "167006",
  "DwellTime": 2.1e-06,
  "EchoTime": 0.037,
  "EchoTrainLength": 104,
  "EffectiveEchoSpacing": 0.000560011,
  "FlipAngle": 52,
  "ImageComments": "Unaliased_MB4_PE3_LB",
  "ImageOrientationPatientDICOM": [0.997024, 0.0217121, 0.073972, 0.00852682, 0.922576, -0.385721],
  "ImageType": [
    "ORIGINAL",
    "PRIMARY",
    "P",
    "MB",
    "ND",
    "MOSAIC"
],
  "ImagingFrequency": 123.259,
  "InPlanePhaseEncodingDirectionDICOM": "COL",
  "InstitutionAddress": "Chemin_Queen-Mary_4565_Montreal_District_CA_H3W_1W5",
  "InstitutionName": "IUGM",
  "InstitutionalDepartmentName": "Department",
  "MRAcquisitionType": "2D",
  "MagneticFieldStrength": 3,
  "Manufacturer": "Siemens",
  "ManufacturersModelName": "Prisma_fit",
  "Modality": "MR",
  "MultibandAccelerationFactor": 4,
  "PartialFourier": 1,
  "PatientPosition": "HFS",
  "PercentPhaseFOV": 100,
  "PhaseEncodingDirection": "j",
  "PhaseEncodingSteps": 104,
  "PhaseResolution": 1,
  "PixelBandwidth": 2290,
  "ProcedureStepDescription": "memory_things",
  "ProtocolName": "func_task-things_run-1",
  "PulseSequenceDetails": "%CustomerSeq%_cmrr_mbep2d_bold",
  "ReceiveCoilActiveElements": "HC1-7;NC1,2",
  "ReceiveCoilName": "HeadNeck_64",
  "ReconMatrixPE": 104,
  "RepetitionTime": 1.49,
  "SAR": 0.0611485,
  "ScanOptions": "FS",
  "ScanningSequence": "EP",
  "SequenceName": "epfid2d1_104",
  "SequenceVariant": "SK_SS",
  "SeriesDescription": "func_task-things_run-1",
  "SeriesNumber": 11,
  "ShimSetting": [640, -7185, -8815, 611, 91, 39, -61, 15],
  "SliceThickness": 2,
  "SliceTiming": [0, 0.785, 0.1, 0.8825, 0.1975, 0.98, 0.295, 1.0775, 0.3925, 1.1775, 0.49, 1.275, 0.5875, 1.3725, 0.6875, 0, 0.785, 0.1, 0.8825, 0.1975, 0.98, 0.295, 1.0775, 0.3925, 1.1775, 0.49, 1.275, 0.5875, 1.3725, 0.6875, 0, 0.785, 0.1, 0.8825, 0.1975, 0.98, 0.295, 1.0775, 0.3925, 1.1775, 0.49, 1.275, 0.5875, 1.3725, 0.6875, 0, 0.785, 0.1, 0.8825, 0.1975, 0.98, 0.295, 1.0775, 0.3925, 1.1775, 0.49, 1.275, 0.5875, 1.3725, 0.6875],
  "SoftwareVersions": "syngo_MR_E11",
  "SpacingBetweenSlices": 2,
  "StationName": "MRC35049",
  "TaskName": "things",
  "TotalReadoutTime": 0.0576811,
  "TxRefAmp": 296.276,
  "WipMemBlock": "bfc901bb-bdbb-4695-bbbe-fdca297961e9||Sequence: R016 ve11c/master r/e634e98; Dec 19 2017 11:00:25 by eja",
  "dcmmeta_affine": [
    [-1.9940478801727295, 0.017053641378879547, 0.1532392054796219, 103.0791244506836],
    [-0.04342421889305115, 1.845152497291565, -0.7704068422317505, -55.896446228027344],
    [0.14794397354125977, 0.7714412212371826, 1.8392908573150635, -68.5754623413086],
    [0.0, 0.0, 0.0, 1.0]
],
  "dcmmeta_reorient_transform": [
    [0.0, -1.0, 0.0, 103.0],
    [1.0, 0.0, 0.0, 0.0],
    [0.0, 0.0, 1.0, 0.0],
    [0.0, 0.0, 0.0, 1.0]
],
  "dcmmeta_shape": [104, 104, 60, 190],
  "dcmmeta_slice_dim": 2,
  "dcmmeta_version": 0.6,
  "global": {
    "const": {
      "AcquisitionMatrix": [104, 0, 0, 104],
      "AngioFlag": "N",
      "BitsAllocated": 16,
      "BitsStored": 16,
      "BodyPartExamined": "BRAIN",
      "Columns": 832,
      "EchoNumbers": 1,
      "EchoTime": 37.0,
      "EchoTrainLength": 104,
      "FlipAngle": 52.0,
      "HighBit": 15,
      "ImageOrientationPatient": [0.99702393623566, 0.02171210874041, 0.0739719873141, 0.00852682084959, 0.92257623280419, -0.3857206087196],
      "ImagePositionPatient": [-836.8766002348, -821.59616905549, 237.83597933691],
      "ImageType": [
        "ORIGINAL",
        "PRIMARY",
        "P",
        "MB",
        "ND",
        "MOSAIC"
],
      "ImagedNucleus": "1H",
      "ImagingFrequency": 123.258919,
      "InPlanePhaseEncodingDirection": "COL",
      "LargestImagePixelValue": 4095,
      "MRAcquisitionType": "2D",
      "MagneticFieldStrength": 3.0,
      "Manufacturer": "SIEMENS",
      "ManufacturerModelName": "Prisma_fit",
      "Modality": "MR",
      "NumberOfAverages": 1.0,
      "NumberOfPhaseEncodingSteps": 104,
      "PercentPhaseFieldOfView": 100.0,
      "PercentSampling": 100.0,
      "PerformedProcedureStepStartTime": "172852.753000",
      "PhotometricInterpretation": "MONOCHROME2",
      "PixelBandwidth": 2290.0,
      "PixelRepresentation": 0,
      "PixelSpacing": [2.0, 2.0],
      "ProtocolName": "func_task-things_run-1",
      "RepetitionTime": 1490.0,
      "RescaleIntercept": -4096.0,
      "RescaleSlope": 2.0,
      "RescaleType": "US",
      "Rows": 832,
      "SAR": 0.06114849773324,
      "SamplesPerPixel": 1,
      "ScanOptions": "FS",
      "ScanningSequence": "EP",
      "SequenceName": "epfid2d1_104",
      "SequenceVariant": [
        "SK",
        "SS"
],
      "SeriesDescription": "func_task-things_run-1",
      "SeriesNumber": 11,
      "SeriesTime": "173707.135000",
      "SliceLocation": -33.635727293889,
      "SliceThickness": 2.0,
      "SmallestImagePixelValue": 0,
      "SoftwareVersions": "syngo MR E11",
      "SpacingBetweenSlices": 1.999999938679,
      "SpecificCharacterSet": "ISO_IR 100",
      "StudyID": "1",
      "StudyTime": "172852.606000",
      "TransmitCoilName": "Body",
      "VariableFlipAngleFlag": "N",
      "WindowCenterWidthExplanation": "Algo1",
      "dBdt": 0.0},
    "slices": {}
  },
  "time": {
    "samples": {
      "AcquisitionNumber": [1, 2, 3, 4, 5, 6, 7, 8, 9, 10, 11, 12, 13, 14, 15, 16, 17, 18, 19, 20, 21, 22, 23, 24, 25, 26, 27, 28, 29, 30, 31, 32, 33, 34, 35, 36, 37, 38, 39, 40, 41, 42, 43, 44, 45, 46, 47, 48, 49, 50, 51, 52, 53, 54, 55, 56, 57, 58, 59, 60, 61, 62, 63, 64, 65, 66, 67, 68, 69, 70, 71, 72, 73, 74, 75, 76, 77, 78, 79, 80, 81, 82, 83, 84, 85, 86, 87, 88, 89, 90, 91, 92, 93, 94, 95, 96, 97, 98, 99, 100, 101, 102, 103, 104, 105, 106, 107, 108, 109, 110, 111, 112, 113, 114, 115, 116, 117, 118, 119, 120, 121, 122, 123, 124, 125, 126, 127, 128, 129, 130, 131, 132, 133, 134, 135, 136, 137, 138, 139, 140, 141, 142, 143, 144, 145, 146, 147, 148, 149, 150, 151, 152, 153, 154, 155, 156, 157, 158, 159, 160, 161, 162, 163, 164, 165, 166, 167, 168, 169, 170, 171, 172, 173, 174, 175, 176, 177, 178, 179, 180, 181, 182, 183, 184, 185, 186, 187, 188, 189, 190],
      "AcquisitionTime": ["173556.662500", "173558.152500", "173559.642500", "173601.132500", "173602.622500", "173604.112500", "173605.602500", "173607.092500", "173608.582500", "173610.072500", "173611.562500", "173613.052500", "173614.542500", "173616.032500", "173617.522500", "173619.012500", "173620.502500", "173621.992500", "173623.482500", "173624.972500", "173626.462500", "173627.952500", "173629.442500", "173630.932500", "173632.422500", "173633.912500", "173635.402500", "173636.892500", "173638.382500", "173639.872500", "173641.362500", "173642.852500", "173644.342500", "173645.832500", "173647.322500", "173648.812500", "173650.302500", "173651.792500", "173653.282500", "173654.772500", "173656.262500", "173657.752500", "173659.242500", "173700.732500", "173702.222500", "173703.712500", "173705.202500", "173706.692500", "173708.182500", "173709.672500", "173711.162500", "173712.652500", "173714.142500", "173715.632500", "173717.122500", "173718.612500", "173720.102500", "173721.592500", "173723.082500", "173724.572500", "173726.062500", "173727.552500", "173729.042500", "173730.532500", "173732.022500", "173733.512500", "173735.002500", "173736.492500", "173737.982500", "173739.472500", "173740.962500", "173742.452500", "173743.942500", "173745.432500", "173746.922500", "173748.412500", "173749.902500", "173751.392500", "173752.882500", "173754.372500", "173755.862500", "173757.352500", "173758.842500", "173800.332500", "173801.822500", "173803.312500", "173804.802500", "173806.292500", "173807.782500", "173809.272500", "173810.762500", "173812.252500", "173813.742500", "173815.232500", "173816.722500", "173818.212500", "173819.702500", "173821.192500", "173822.682500", "173824.172500", "173825.662500", "173827.152500", "173828.642500", "173830.132500", "173831.622500", "173833.112500", "173834.602500", "173836.092500", "173837.582500", "173839.072500", "173840.562500", "173842.052500", "173843.542500", "173845.032500", "173846.522500", "173848.012500", "173849.502500", "173850.992500", "173852.482500", "173853.972500", "173855.462500", "173856.952500", "173858.442500", "173859.932500", "173901.422500", "173902.912500", "173904.402500", "173905.892500", "173907.382500", "173908.872500", "173910.362500", "173911.852500", "173913.342500", "173914.832500", "173916.322500", "173917.812500", "173919.302500", "173920.792500", "173922.282500", "173923.772500", "173925.262500", "173926.752500", "173928.242500", "173929.732500", "173931.222500", "173932.712500", "173934.202500", "173935.692500", "173937.182500", "173938.672500", "173940.162500", "173941.652500", "173943.142500", "173944.632500", "173946.122500", "173947.612500", "173949.102500", "173950.592500", "173952.082500", "173953.572500", "173955.062500", "173956.552500", "173958.042500", "173959.532500", "174001.022500", "174002.512500", "174004.002500", "174005.492500", "174006.982500", "174008.472500", "174009.962500", "174011.452500", "174012.942500", "174014.432500", "174015.922500", "174017.412500", "174018.902500", "174020.392500", "174021.882500", "174023.372500", "174024.862500", "174026.352500", "174027.842500", "174029.332500", "174030.822500", "174032.312500", "174033.802500", "174035.292500", "174036.782500", "174038.272500"],
      "ContentTime": ["173707.137000", "173707.140000", "173707.143000", "173707.145000", "173707.148000", "173707.150000", "173707.153000", "173707.155000", "173707.157000", "173707.160000", "173707.162000", "173707.165000", "173707.167000", "173707.170000", "173707.172000", "173707.175000", "173747.175000", "173747.177000", "173747.180000", "173747.183000", "173747.185000", "173747.187000", "173747.190000", "173747.193000", "173747.195000", "173747.197000", "173747.200000", "173747.203000", "173747.205000", "173747.207000", "173747.210000", "173747.213000", "173747.215000", "173747.218000", "173747.220000", "173747.223000", "173747.225000", "173747.228000", "173747.230000", "173747.233000", "173747.235000", "173747.238000", "173747.240000", "173747.243000", "173747.245000", "173747.248000", "173747.255000", "173747.258000", "173747.261000", "173747.263000", "173747.265000", "173747.268000", "173747.271000", "173747.273000", "173747.275000", "173747.278000", "173807.087000", "173807.089000", "173807.092000", "173807.095000", "173807.097000", "173807.100000", "173807.102000", "173807.105000", "173807.107000", "173807.110000", "173807.112000", "173807.115000", "173807.117000", "173807.120000", "173807.122000", "173807.125000", "173807.127000", "173807.130000", "173807.132000", "173807.135000", "173827.064000", "173827.067000", "173827.069000", "173827.072000", "173827.075000", "173827.077000", "173827.080000", "173827.082000", "173827.085000", "173827.087000", "173827.090000", "173827.092000", "173827.095000", "173827.097000", "173827.100000", "173827.102000", "173827.105000", "173827.107000", "173827.121000", "173827.123000", "173907.118000", "173907.121000", "173907.123000", "173907.126000", "173907.128000", "173907.131000", "173907.133000", "173907.136000", "173907.138000", "173907.141000", "173907.143000", "173907.146000", "173907.148000", "173907.151000", "173907.153000", "173907.156000", "173907.158000", "173907.161000", "173907.163000", "173907.166000", "173907.168000", "173907.171000", "173907.173000", "173907.176000", "173907.178000", "173907.181000", "173907.183000", "173907.186000", "173907.188000", "173907.191000", "173907.193000", "173947.108000", "173947.111000", "173947.114000", "173947.116000", "173947.119000", "173947.122000", "173947.124000", "173947.127000", "173947.129000", "173947.132000", "173947.134000", "173947.137000", "173947.139000", "173947.142000", "173947.144000", "173947.147000", "173947.149000", "173947.152000", "173947.154000", "173947.157000", "173947.159000", "173947.162000", "173947.164000", "173947.167000", "173947.169000", "173947.172000", "173947.174000", "174027.110000", "174027.113000", "174027.115000", "174027.118000", "174027.120000", "174027.123000", "174027.125000", "174027.128000", "174027.130000", "174027.133000", "174027.135000", "174027.138000", "174027.140000", "174027.143000", "174027.145000", "174027.148000", "174027.150000", "174027.153000", "174027.155000", "174027.158000", "174027.160000", "174027.163000", "174027.165000", "174027.168000", "174027.170000", "174027.173000", "174027.175000", "174040.292000", "174040.295000", "174040.297000", "174040.300000", "174040.302000", "174040.305000", "174040.308000", "174040.310000", "174040.313000"],
      "InstanceCreationTime": ["173707.137000", "173707.140000", "173707.143000", "173707.145000", "173707.148000", "173707.150000", "173707.153000", "173707.155000", "173707.157000", "173707.160000", "173707.162000", "173707.165000", "173707.167000", "173707.170000", "173707.172000", "173707.175000", "173747.175000", "173747.177000", "173747.180000", "173747.183000", "173747.185000", "173747.187000", "173747.190000", "173747.193000", "173747.195000", "173747.197000", "173747.200000", "173747.203000", "173747.205000", "173747.207000", "173747.210000", "173747.213000", "173747.215000", "173747.218000", "173747.220000", "173747.223000", "173747.225000", "173747.228000", "173747.230000", "173747.233000", "173747.235000", "173747.238000", "173747.240000", "173747.243000", "173747.245000", "173747.248000", "173747.255000", "173747.258000", "173747.261000", "173747.263000", "173747.265000", "173747.268000", "173747.271000", "173747.273000", "173747.275000", "173747.278000", "173807.087000", "173807.089000", "173807.092000", "173807.095000", "173807.097000", "173807.100000", "173807.102000", "173807.105000", "173807.107000", "173807.110000", "173807.112000", "173807.115000", "173807.117000", "173807.120000", "173807.122000", "173807.125000", "173807.127000", "173807.130000", "173807.132000", "173807.135000", "173827.064000", "173827.067000", "173827.069000", "173827.072000", "173827.075000", "173827.077000", "173827.080000", "173827.082000", "173827.085000", "173827.087000", "173827.090000", "173827.092000", "173827.095000", "173827.097000", "173827.100000", "173827.102000", "173827.105000", "173827.107000", "173827.121000", "173827.123000", "173907.118000", "173907.121000", "173907.123000", "173907.126000", "173907.128000", "173907.131000", "173907.133000", "173907.136000", "173907.138000", "173907.141000", "173907.143000", "173907.146000", "173907.148000", "173907.151000", "173907.153000", "173907.156000", "173907.158000", "173907.161000", "173907.163000", "173907.166000", "173907.168000", "173907.171000", "173907.173000", "173907.176000", "173907.178000", "173907.181000", "173907.183000", "173907.186000", "173907.188000", "173907.191000", "173907.193000", "173947.108000", "173947.111000", "173947.114000", "173947.116000", "173947.119000", "173947.122000", "173947.124000", "173947.127000", "173947.129000", "173947.132000", "173947.134000", "173947.137000", "173947.139000", "173947.142000", "173947.144000", "173947.147000", "173947.149000", "173947.152000", "173947.154000", "173947.157000", "173947.159000", "173947.162000", "173947.164000", "173947.167000", "173947.169000", "173947.172000", "173947.174000", "174027.110000", "174027.113000", "174027.115000", "174027.118000", "174027.120000", "174027.123000", "174027.125000", "174027.128000", "174027.130000", "174027.133000", "174027.135000", "174027.138000", "174027.140000", "174027.143000", "174027.145000", "174027.148000", "174027.150000", "174027.153000", "174027.155000", "174027.158000", "174027.160000", "174027.163000", "174027.165000", "174027.168000", "174027.170000", "174027.173000", "174027.175000", "174040.292000", "174040.295000", "174040.297000", "174040.300000", "174040.302000", "174040.305000", "174040.308000", "174040.310000", "174040.313000"],
      "InstanceNumber": [1, 2, 3, 4, 5, 6, 7, 8, 9, 10, 11, 12, 13, 14, 15, 16, 17, 18, 19, 20, 21, 22, 23, 24, 25, 26, 27, 28, 29, 30, 31, 32, 33, 34, 35, 36, 37, 38, 39, 40, 41, 42, 43, 44, 45, 46, 47, 48, 49, 50, 51, 52, 53, 54, 55, 56, 57, 58, 59, 60, 61, 62, 63, 64, 65, 66, 67, 68, 69, 70, 71, 72, 73, 74, 75, 76, 77, 78, 79, 80, 81, 82, 83, 84, 85, 86, 87, 88, 89, 90, 91, 92, 93, 94, 95, 96, 97, 98, 99, 100, 101, 102, 103, 104, 105, 106, 107, 108, 109, 110, 111, 112, 113, 114, 115, 116, 117, 118, 119, 120, 121, 122, 123, 124, 125, 126, 127, 128, 129, 130, 131, 132, 133, 134, 135, 136, 137, 138, 139, 140, 141, 142, 143, 144, 145, 146, 147, 148, 149, 150, 151, 152, 153, 154, 155, 156, 157, 158, 159, 160, 161, 162, 163, 164, 165, 166, 167, 168, 169, 170, 171, 172, 173, 174, 175, 176, 177, 178, 179, 180, 181, 182, 183, 184, 185, 186, 187, 188, 189, 190],
      "WindowCenter": [4846.0, 4822.0, 4822.0, 4822.0, 4824.0, 4848.0, 4826.0, 4822.0, 4820.0, 4822.0, 4824.0, 4824.0, 4824.0, 4848.0, 4848.0, 4822.0, 4822.0, 4826.0, 4820.0, 4826.0, 4824.0, 4824.0, 4824.0, 4822.0, 4822.0, 4824.0, 4848.0, 4826.0, 4826.0, 4826.0, 4828.0, 4848.0, 4822.0, 4848.0, 4850.0, 4824.0, 4826.0, 4850.0, 4850.0, 4850.0, 4848.0, 4828.0, 4846.0, 4848.0, 4828.0, 4850.0, 4848.0, 4846.0, 4848.0, 4848.0, 4850.0, 4846.0, 4854.0, 4848.0, 4848.0, 4824.0, 4850.0, 4828.0, 4848.0, 4848.0, 4874.0, 4816.0, 4822.0, 4826.0, 4848.0, 4848.0, 4850.0, 4876.0, 4874.0, 4870.0, 4872.0, 4820.0, 4792.0, 4794.0, 4790.0, 4826.0, 4856.0, 4876.0, 4878.0, 4876.0, 4876.0, 4852.0, 4824.0, 4820.0, 4820.0, 4824.0, 4822.0, 4824.0, 4848.0, 4854.0, 4876.0, 4854.0, 4854.0, 4850.0, 4850.0, 4850.0, 4826.0, 4826.0, 4828.0, 4826.0, 4826.0, 4852.0, 4854.0, 4848.0, 4852.0, 4850.0, 4826.0, 4826.0, 4824.0, 4848.0, 4848.0, 4850.0, 4850.0, 4848.0, 4852.0, 4856.0, 4850.0, 4852.0, 4850.0, 4852.0, 4852.0, 4850.0, 4850.0, 4852.0, 4850.0, 4854.0, 4850.0, 4852.0, 4854.0, 4850.0, 4850.0, 4850.0, 4852.0, 4848.0, 4852.0, 4852.0, 4850.0, 4852.0, 4850.0, 4848.0, 4850.0, 4848.0, 4852.0, 4850.0, 4848.0, 4850.0, 4850.0, 4848.0, 4852.0, 4852.0, 4852.0, 4850.0, 4850.0, 4852.0, 4874.0, 4850.0, 4852.0, 4852.0, 4852.0, 4850.0, 4852.0, 4852.0, 4854.0, 4852.0, 4850.0, 4876.0, 4854.0, 4848.0, 4852.0, 4852.0, 4850.0, 4850.0, 4852.0, 4850.0, 4852.0, 4874.0, 4850.0, 4874.0, 4852.0, 4852.0, 4852.0, 4846.0, 4852.0, 4856.0, 4852.0, 4850.0, 4854.0, 4850.0, 4852.0, 4852.0],
      "WindowWidth": [18618.0, 18588.0, 18590.0, 18592.0, 18594.0, 18626.0, 18600.0, 18590.0, 18588.0, 18588.0, 18594.0, 18596.0, 18594.0, 18630.0, 18628.0, 18592.0, 18590.0, 18592.0, 18588.0, 18592.0, 18592.0, 18594.0, 18594.0, 18592.0, 18598.0, 18594.0, 18626.0, 18598.0, 18596.0, 18590.0, 18598.0, 18622.0, 18594.0, 18628.0, 18628.0, 18594.0, 18598.0, 18628.0, 18626.0, 18628.0, 18624.0, 18596.0, 18622.0, 18626.0, 18596.0, 18632.0, 18628.0, 18628.0, 18632.0, 18624.0, 18632.0, 18634.0, 18632.0, 18630.0, 18626.0, 18600.0, 18632.0, 18598.0, 18626.0, 18636.0, 18668.0, 18590.0, 18598.0, 18594.0, 18632.0, 18636.0, 18632.0, 18682.0, 18684.0, 18684.0, 18670.0, 18586.0, 18556.0, 18562.0, 18546.0, 18590.0, 18636.0, 18670.0, 18676.0, 18676.0, 18672.0, 18630.0, 18596.0, 18590.0, 18586.0, 18590.0, 18592.0, 18592.0, 18626.0, 18640.0, 18666.0, 18638.0, 18636.0, 18630.0, 18634.0, 18630.0, 18590.0, 18598.0, 18596.0, 18598.0, 18598.0, 18634.0, 18638.0, 18634.0, 18636.0, 18634.0, 18600.0, 18600.0, 18598.0, 18630.0, 18632.0, 18634.0, 18634.0, 18636.0, 18638.0, 18640.0, 18630.0, 18642.0, 18634.0, 18642.0, 18636.0, 18634.0, 18632.0, 18644.0, 18636.0, 18636.0, 18638.0, 18640.0, 18640.0, 18640.0, 18636.0, 18638.0, 18640.0, 18636.0, 18638.0, 18640.0, 18642.0, 18638.0, 18634.0, 18632.0, 18638.0, 18632.0, 18636.0, 18640.0, 18634.0, 18642.0, 18634.0, 18638.0, 18636.0, 18638.0, 18640.0, 18638.0, 18638.0, 18636.0, 18670.0, 18636.0, 18636.0, 18636.0, 18638.0, 18638.0, 18634.0, 18640.0, 18644.0, 18636.0, 18642.0, 18670.0, 18640.0, 18640.0, 18640.0, 18642.0, 18642.0, 18632.0, 18642.0, 18634.0, 18640.0, 18668.0, 18636.0, 18672.0, 18644.0, 18638.0, 18642.0, 18630.0, 18634.0, 18638.0, 18638.0, 18642.0, 18644.0, 18634.0, 18638.0, 18638.0]
    },
    "slices": {}
  }
}