{
  "AcquisitionMatrixPE": 104,
  "AcquisitionNumber": 1,
  "AcquisitionTime": "17:47:58.442500",
  "BandwidthPerPixelPhaseEncode": 17.17,
  "BaseResolution": 104,
  "BodyPartExamined": "BRAIN",
  "CoilString": "HC1-7;NC1_2",
  "ConsistencyInfo": "N4_VE11C_LATEST_20160120",
  "ConversionSoftware": "dcm2niix",
  "ConversionSoftwareVersion": "v1.0.20190902",
  "DerivedVendorReportedEchoSpacing": 0.000560011,
  "DeviceSerialNumber": "167006",
  "DwellTime": 2.1e-06,
  "EchoTime": 0.037,
  "EchoTrainLength": 104,
  "EffectiveEchoSpacing": 0.000560011,
  "FlipAngle": 52,
  "ImageComments": "Unaliased_MB4_PE3_LB",
  "ImageOrientationPatientDICOM": [0.997024, 0.0217121, 0.073972, 0.00852682, 0.922576, -0.385721],
  "ImageType": [
    "ORIGINAL",
    "PRIMARY",
    "M",
    "MB",
    "ND",
    "MOSAIC"
],
  "ImagingFrequency": 123.259,
  "InPlanePhaseEncodingDirectionDICOM": "COL",
  "InstitutionAddress": "Chemin_Queen-Mary_4565_Montreal_District_CA_H3W_1W5",
  "InstitutionName": "IUGM",
  "InstitutionalDepartmentName": "Department",
  "MRAcquisitionType": "2D",
  "MagneticFieldStrength": 3,
  "Manufacturer": "Siemens",
  "ManufacturersModelName": "Prisma_fit",
  "Modality": "MR",
  "MultibandAccelerationFactor": 4,
  "PartialFourier": 1,
  "PatientPosition": "HFS",
  "PercentPhaseFOV": 100,
  "PhaseEncodingDirection": "j",
  "PhaseEncodingSteps": 104,
  "PhaseResolution": 1,
  "PixelBandwidth": 2290,
  "ProcedureStepDescription": "memory_things",
  "ProtocolName": "func_task-things_run-3",
  "PulseSequenceDetails": "%CustomerSeq%_cmrr_mbep2d_bold",
  "ReceiveCoilActiveElements": "HC1-7;NC1,2",
  "ReceiveCoilName": "HeadNeck_64",
  "ReconMatrixPE": 104,
  "RepetitionTime": 1.49,
  "SAR": 0.0611485,
  "ScanOptions": "FS",
  "ScanningSequence": "EP",
  "SequenceName": "epfid2d1_104",
  "SequenceVariant": "SK_SS",
  "SeriesDescription": "func_task-things_run-3",
  "SeriesNumber": 16,
  "ShimSetting": [640, -7185, -8815, 611, 91, 39, -61, 15],
  "SliceThickness": 2,
  "SliceTiming": [0, 0.785, 0.0975, 0.8825, 0.1975, 0.98, 0.295, 1.0775, 0.3925, 1.1775, 0.49, 1.275, 0.5875, 1.3725, 0.6875, 0, 0.785, 0.0975, 0.8825, 0.1975, 0.98, 0.295, 1.0775, 0.3925, 1.1775, 0.49, 1.275, 0.5875, 1.3725, 0.6875, 0, 0.785, 0.0975, 0.8825, 0.1975, 0.98, 0.295, 1.0775, 0.3925, 1.1775, 0.49, 1.275, 0.5875, 1.3725, 0.6875, 0, 0.785, 0.0975, 0.8825, 0.1975, 0.98, 0.295, 1.0775, 0.3925, 1.1775, 0.49, 1.275, 0.5875, 1.3725, 0.6875],
  "SoftwareVersions": "syngo_MR_E11",
  "SpacingBetweenSlices": 2,
  "StationName": "MRC35049",
  "TaskName": "things",
  "TotalReadoutTime": 0.0576811,
  "TxRefAmp": 296.276,
  "WipMemBlock": "3f348e40-8494-4fd2-923a-1fbec940c21f||Sequence: R016 ve11c/master r/e634e98; Dec 19 2017 11:00:25 by eja",
  "dcmmeta_affine": [
    [-1.9940478801727295, 0.017053641378879547, 0.1532392054796219, 103.0791244506836],
    [-0.04342421889305115, 1.845152497291565, -0.7704068422317505, -55.896446228027344],
    [0.14794397354125977, 0.7714412212371826, 1.8392908573150635, -68.5754623413086],
    [0.0, 0.0, 0.0, 1.0]
],
  "dcmmeta_reorient_transform": [
    [0.0, -1.0, 0.0, 103.0],
    [1.0, 0.0, 0.0, 0.0],
    [0.0, 0.0, 1.0, 0.0],
    [0.0, 0.0, 0.0, 1.0]
],
  "dcmmeta_shape": [104, 104, 60, 190],
  "dcmmeta_slice_dim": 2,
  "dcmmeta_version": 0.6,
  "global": {
    "const": {
      "AcquisitionMatrix": [104, 0, 0, 104],
      "AngioFlag": "N",
      "BitsAllocated": 16,
      "BitsStored": 16,
      "BodyPartExamined": "BRAIN",
      "Columns": 832,
      "EchoNumbers": 1,
      "EchoTime": 37.0,
      "EchoTrainLength": 104,
      "FlipAngle": 52.0,
      "HighBit": 15,
      "ImageOrientationPatient": [0.99702393623566, 0.02171210874041, 0.0739719873141, 0.00852682084959, 0.92257623280419, -0.3857206087196],
      "ImagePositionPatient": [-836.8766002348, -821.59616905549, 237.83597933691],
      "ImageType": [
        "ORIGINAL",
        "PRIMARY",
        "M",
        "MB",
        "ND",
        "MOSAIC"
],
      "ImagedNucleus": "1H",
      "ImagingFrequency": 123.258928,
      "InPlanePhaseEncodingDirection": "COL",
      "MRAcquisitionType": "2D",
      "MagneticFieldStrength": 3.0,
      "Manufacturer": "SIEMENS",
      "ManufacturerModelName": "Prisma_fit",
      "Modality": "MR",
      "NumberOfAverages": 1.0,
      "NumberOfPhaseEncodingSteps": 104,
      "PercentPhaseFieldOfView": 100.0,
      "PercentSampling": 100.0,
      "PerformedProcedureStepStartTime": "172852.753000",
      "PhotometricInterpretation": "MONOCHROME2",
      "PixelBandwidth": 2290.0,
      "PixelRepresentation": 0,
      "PixelSpacing": [2.0, 2.0],
      "ProtocolName": "func_task-things_run-3",
      "RepetitionTime": 1490.0,
      "Rows": 832,
      "SAR": 0.06114849773324,
      "SamplesPerPixel": 1,
      "ScanOptions": "FS",
      "ScanningSequence": "EP",
      "SequenceName": "epfid2d1_104",
      "SequenceVariant": [
        "SK",
        "SS"
],
      "SeriesDescription": "func_task-things_run-3",
      "SeriesNumber": 16,
      "SeriesTime": "174931.392000",
      "SliceLocation": -33.635727293889,
      "SliceThickness": 2.0,
      "SmallestImagePixelValue": 0,
      "SoftwareVersions": "syngo MR E11",
      "SpacingBetweenSlices": 1.999999938679,
      "SpecificCharacterSet": "ISO_IR 100",
      "StudyID": "1",
      "StudyTime": "172852.606000",
      "TransmitCoilName": "Body",
      "VariableFlipAngleFlag": "N",
      "WindowCenterWidthExplanation": "Algo1",
      "dBdt": 0.0},
    "slices": {}
  },
  "time": {
    "samples": {
      "AcquisitionNumber": [1, 2, 3, 4, 5, 6, 7, 8, 9, 10, 11, 12, 13, 14, 15, 16, 17, 18, 19, 20, 21, 22, 23, 24, 25, 26, 27, 28, 29, 30, 31, 32, 33, 34, 35, 36, 37, 38, 39, 40, 41, 42, 43, 44, 45, 46, 47, 48, 49, 50, 51, 52, 53, 54, 55, 56, 57, 58, 59, 60, 61, 62, 63, 64, 65, 66, 67, 68, 69, 70, 71, 72, 73, 74, 75, 76, 77, 78, 79, 80, 81, 82, 83, 84, 85, 86, 87, 88, 89, 90, 91, 92, 93, 94, 95, 96, 97, 98, 99, 100, 101, 102, 103, 104, 105, 106, 107, 108, 109, 110, 111, 112, 113, 114, 115, 116, 117, 118, 119, 120, 121, 122, 123, 124, 125, 126, 127, 128, 129, 130, 131, 132, 133, 134, 135, 136, 137, 138, 139, 140, 141, 142, 143, 144, 145, 146, 147, 148, 149, 150, 151, 152, 153, 154, 155, 156, 157, 158, 159, 160, 161, 162, 163, 164, 165, 166, 167, 168, 169, 170, 171, 172, 173, 174, 175, 176, 177, 178, 179, 180, 181, 182, 183, 184, 185, 186, 187, 188, 189, 190],
      "AcquisitionTime": ["174758.442500", "174759.932500", "174801.422500", "174802.912500", "174804.402500", "174805.892500", "174807.382500", "174808.872500", "174810.362500", "174811.852500", "174813.342500", "174814.832500", "174816.322500", "174817.812500", "174819.302500", "174820.792500", "174822.282500", "174823.772500", "174825.262500", "174826.752500", "174828.242500", "174829.732500", "174831.222500", "174832.712500", "174834.202500", "174835.692500", "174837.182500", "174838.672500", "174840.162500", "174841.652500", "174843.142500", "174844.632500", "174846.122500", "174847.612500", "174849.102500", "174850.592500", "174852.082500", "174853.572500", "174855.062500", "174856.552500", "174858.042500", "174859.532500", "174901.022500", "174902.512500", "174904.002500", "174905.492500", "174906.982500", "174908.472500", "174909.962500", "174911.452500", "174912.942500", "174914.432500", "174915.922500", "174917.412500", "174918.902500", "174920.392500", "174921.882500", "174923.372500", "174924.862500", "174926.352500", "174927.842500", "174929.332500", "174930.822500", "174932.312500", "174933.802500", "174935.292500", "174936.782500", "174938.272500", "174939.762500", "174941.252500", "174942.742500", "174944.232500", "174945.722500", "174947.212500", "174948.702500", "174950.192500", "174951.682500", "174953.172500", "174954.662500", "174956.152500", "174957.642500", "174959.132500", "175000.622500", "175002.112500", "175003.602500", "175005.092500", "175006.582500", "175008.072500", "175009.562500", "175011.052500", "175012.542500", "175014.032500", "175015.522500", "175017.012500", "175018.502500", "175019.992500", "175021.482500", "175022.972500", "175024.462500", "175025.952500", "175027.442500", "175028.932500", "175030.422500", "175031.912500", "175033.402500", "175034.892500", "175036.382500", "175037.872500", "175039.362500", "175040.852500", "175042.342500", "175043.832500", "175045.322500", "175046.812500", "175048.302500", "175049.792500", "175051.282500", "175052.772500", "175054.262500", "175055.752500", "175057.242500", "175058.732500", "175100.222500", "175101.712500", "175103.202500", "175104.692500", "175106.182500", "175107.672500", "175109.162500", "175110.652500", "175112.142500", "175113.632500", "175115.122500", "175116.612500", "175118.102500", "175119.592500", "175121.082500", "175122.572500", "175124.062500", "175125.552500", "175127.042500", "175128.532500", "175130.022500", "175131.512500", "175133.002500", "175134.492500", "175135.982500", "175137.472500", "175138.962500", "175140.452500", "175141.942500", "175143.432500", "175144.922500", "175146.412500", "175147.902500", "175149.392500", "175150.882500", "175152.372500", "175153.862500", "175155.352500", "175156.842500", "175158.332500", "175159.822500", "175201.312500", "175202.802500", "175204.292500", "175205.782500", "175207.272500", "175208.762500", "175210.252500", "175211.742500", "175213.232500", "175214.722500", "175216.212500", "175217.702500", "175219.192500", "175220.682500", "175222.172500", "175223.662500", "175225.152500", "175226.642500", "175228.132500", "175229.622500", "175231.112500", "175232.602500", "175234.092500", "175235.582500", "175237.072500", "175238.562500", "175240.052500"],
      "ContentTime": ["174931.395000", "174931.399000", "174931.402000", "174931.405000", "174931.413000", "174931.416000", "174931.419000", "174931.423000", "174931.426000", "174931.429000", "174931.432000", "174931.436000", "174931.439000", "174931.442000", "174931.445000", "174931.449000", "174931.452000", "174931.455000", "174931.458000", "174931.462000", "174931.465000", "174931.468000", "174931.472000", "174931.475000", "174931.478000", "174931.481000", "174931.484000", "174931.488000", "174931.491000", "174931.494000", "174931.498000", "174931.501000", "174931.504000", "174931.507000", "174931.511000", "174931.514000", "174931.517000", "174951.357000", "174951.361000", "174951.364000", "174951.367000", "174951.370000", "174951.374000", "174951.377000", "174951.380000", "174951.383000", "174951.387000", "174951.390000", "174951.393000", "174951.397000", "174951.400000", "174951.403000", "174951.406000", "174951.409000", "174951.413000", "174951.416000", "174951.419000", "175011.357000", "175011.360000", "175011.364000", "175011.367000", "175011.370000", "175011.374000", "175011.377000", "175011.380000", "175011.383000", "175011.387000", "175011.390000", "175011.393000", "175011.396000", "175011.400000", "175011.403000", "175011.406000", "175011.409000", "175011.413000", "175011.416000", "175011.419000", "175031.357000", "175031.361000", "175031.364000", "175031.367000", "175031.371000", "175031.374000", "175031.377000", "175031.380000", "175031.383000", "175031.398000", "175031.401000", "175031.404000", "175031.408000", "175031.411000", "175031.414000", "175031.418000", "175031.421000", "175031.424000", "175031.427000", "175031.431000", "175111.357000", "175111.361000", "175111.364000", "175111.367000", "175111.371000", "175111.374000", "175111.377000", "175111.380000", "175111.384000", "175111.387000", "175111.390000", "175111.394000", "175111.397000", "175111.400000", "175111.403000", "175111.407000", "175111.410000", "175111.413000", "175111.417000", "175111.420000", "175111.423000", "175111.426000", "175111.430000", "175111.433000", "175111.436000", "175111.439000", "175111.443000", "175111.446000", "175111.449000", "175111.453000", "175111.456000", "175111.459000", "175151.357000", "175151.361000", "175151.364000", "175151.368000", "175151.371000", "175151.374000", "175151.377000", "175151.381000", "175151.384000", "175151.387000", "175151.391000", "175151.394000", "175151.398000", "175151.401000", "175151.404000", "175151.408000", "175151.411000", "175151.414000", "175151.417000", "175151.421000", "175151.445000", "175151.449000", "175151.452000", "175151.455000", "175151.459000", "175151.462000", "175231.357000", "175231.361000", "175231.364000", "175231.367000", "175231.371000", "175231.374000", "175231.377000", "175231.381000", "175231.384000", "175231.387000", "175231.390000", "175231.394000", "175231.397000", "175231.400000", "175231.404000", "175231.407000", "175231.410000", "175231.413000", "175231.417000", "175231.420000", "175231.423000", "175231.427000", "175231.430000", "175231.433000", "175231.436000", "175231.440000", "175231.443000", "175242.111000", "175242.114000", "175242.118000", "175242.121000", "175242.130000", "175242.134000", "175242.137000", "175242.140000"],
      "InstanceCreationTime": ["174931.395000", "174931.399000", "174931.402000", "174931.405000", "174931.413000", "174931.416000", "174931.419000", "174931.423000", "174931.426000", "174931.429000", "174931.432000", "174931.436000", "174931.439000", "174931.442000", "174931.445000", "174931.449000", "174931.452000", "174931.455000", "174931.458000", "174931.462000", "174931.465000", "174931.468000", "174931.472000", "174931.475000", "174931.478000", "174931.481000", "174931.484000", "174931.488000", "174931.491000", "174931.494000", "174931.498000", "174931.501000", "174931.504000", "174931.507000", "174931.511000", "174931.514000", "174931.517000", "174951.357000", "174951.361000", "174951.364000", "174951.367000", "174951.370000", "174951.374000", "174951.377000", "174951.380000", "174951.383000", "174951.387000", "174951.390000", "174951.393000", "174951.397000", "174951.400000", "174951.403000", "174951.406000", "174951.409000", "174951.413000", "174951.416000", "174951.419000", "175011.357000", "175011.360000", "175011.364000", "175011.367000", "175011.370000", "175011.374000", "175011.377000", "175011.380000", "175011.383000", "175011.387000", "175011.390000", "175011.393000", "175011.396000", "175011.400000", "175011.403000", "175011.406000", "175011.409000", "175011.413000", "175011.416000", "175011.419000", "175031.357000", "175031.361000", "175031.364000", "175031.367000", "175031.371000", "175031.374000", "175031.377000", "175031.380000", "175031.383000", "175031.398000", "175031.401000", "175031.404000", "175031.408000", "175031.411000", "175031.414000", "175031.418000", "175031.421000", "175031.424000", "175031.427000", "175031.431000", "175111.357000", "175111.361000", "175111.364000", "175111.367000", "175111.371000", "175111.374000", "175111.377000", "175111.380000", "175111.384000", "175111.387000", "175111.390000", "175111.394000", "175111.397000", "175111.400000", "175111.403000", "175111.407000", "175111.410000", "175111.413000", "175111.417000", "175111.420000", "175111.423000", "175111.426000", "175111.430000", "175111.433000", "175111.436000", "175111.439000", "175111.443000", "175111.446000", "175111.449000", "175111.453000", "175111.456000", "175111.459000", "175151.357000", "175151.361000", "175151.364000", "175151.368000", "175151.371000", "175151.374000", "175151.377000", "175151.381000", "175151.384000", "175151.387000", "175151.391000", "175151.394000", "175151.398000", "175151.401000", "175151.404000", "175151.408000", "175151.411000", "175151.414000", "175151.417000", "175151.421000", "175151.445000", "175151.449000", "175151.452000", "175151.455000", "175151.459000", "175151.462000", "175231.357000", "175231.361000", "175231.364000", "175231.367000", "175231.371000", "175231.374000", "175231.377000", "175231.381000", "175231.384000", "175231.387000", "175231.390000", "175231.394000", "175231.397000", "175231.400000", "175231.404000", "175231.407000", "175231.410000", "175231.413000", "175231.417000", "175231.420000", "175231.423000", "175231.427000", "175231.430000", "175231.433000", "175231.436000", "175231.440000", "175231.443000", "175242.111000", "175242.114000", "175242.118000", "175242.121000", "175242.130000", "175242.134000", "175242.137000", "175242.140000"],
      "InstanceNumber": [1, 2, 3, 4, 5, 6, 7, 8, 9, 10, 11, 12, 13, 14, 15, 16, 17, 18, 19, 20, 21, 22, 23, 24, 25, 26, 27, 28, 29, 30, 31, 32, 33, 34, 35, 36, 37, 38, 39, 40, 41, 42, 43, 44, 45, 46, 47, 48, 49, 50, 51, 52, 53, 54, 55, 56, 57, 58, 59, 60, 61, 62, 63, 64, 65, 66, 67, 68, 69, 70, 71, 72, 73, 74, 75, 76, 77, 78, 79, 80, 81, 82, 83, 84, 85, 86, 87, 88, 89, 90, 91, 92, 93, 94, 95, 96, 97, 98, 99, 100, 101, 102, 103, 104, 105, 106, 107, 108, 109, 110, 111, 112, 113, 114, 115, 116, 117, 118, 119, 120, 121, 122, 123, 124, 125, 126, 127, 128, 129, 130, 131, 132, 133, 134, 135, 136, 137, 138, 139, 140, 141, 142, 143, 144, 145, 146, 147, 148, 149, 150, 151, 152, 153, 154, 155, 156, 157, 158, 159, 160, 161, 162, 163, 164, 165, 166, 167, 168, 169, 170, 171, 172, 173, 174, 175, 176, 177, 178, 179, 180, 181, 182, 183, 184, 185, 186, 187, 188, 189, 190],
      "LargestImagePixelValue": [42490, 40289, 41086, 41571, 41191, 40653, 41027, 39547, 39906, 40429, 39786, 40189, 40405, 40258, 40826, 42184, 40347, 39841, 39655, 49240, 39857, 40941, 39666, 39529, 39931, 44987, 40229, 40297, 41606, 40125, 39732, 38822, 41484, 38522, 38934, 38887, 38763, 38791, 39479, 38981, 39953, 39643, 39886, 40385, 40237, 39271, 39922, 39757, 39649, 39570, 43537, 40064, 40345, 45417, 38887, 38568, 42116, 40869, 44080, 42082, 38934, 40064, 39610, 40048, 40074, 40642, 39566, 39913, 39241, 44701, 39722, 39792, 47494, 40089, 39818, 42201, 42885, 41701, 40216, 39704, 39812, 39913, 39844, 40101, 39486, 39903, 39924, 40615, 45045, 44368, 39663, 39650, 40254, 47674, 39632, 38953, 40350, 48915, 38476, 39542, 39551, 39931, 42426, 45280, 38305, 39191, 36695, 37079, 37714, 39758, 38751, 39731, 39250, 40278, 39607, 38574, 38633, 38531, 38617, 38213, 37614, 37704, 37918, 37933, 38326, 38722, 38616, 38348, 39126, 40032, 37886, 38791, 38699, 38364, 38048, 38834, 37914, 37511, 38183, 38273, 37660, 37987, 38620, 38159, 38851, 47214, 38345, 39957, 50519, 48195, 40045, 39658, 39036, 39680, 40081, 40015, 50285, 39451, 38850, 39457, 39806, 40190, 40553, 39623, 39318, 39543, 39714, 39064, 39574, 40142, 39831, 39644, 37651, 44386, 39612, 40223, 40119, 40075, 40160, 41662, 40158, 39326, 41462, 39414, 39554, 41444, 41938, 40997, 40260, 40234],
      "WindowCenter": [10537.0, 10455.0, 10439.0, 10466.0, 10467.0, 10451.0, 10453.0, 10430.0, 10429.0, 10442.0, 10440.0, 10439.0, 10450.0, 10443.0, 10437.0, 10441.0, 10425.0, 10411.0, 10394.0, 10475.0, 10402.0, 10419.0, 10410.0, 10419.0, 10435.0, 10477.0, 10423.0, 10414.0, 10405.0, 10398.0, 10400.0, 10391.0, 10423.0, 10383.0, 10402.0, 10420.0, 10417.0, 10441.0, 10474.0, 10453.0, 10454.0, 10422.0, 10411.0, 10412.0, 10405.0, 10391.0, 10391.0, 10389.0, 10365.0, 10365.0, 10416.0, 10386.0, 10404.0, 10446.0, 10380.0, 10363.0, 10400.0, 10397.0, 10423.0, 10415.0, 10385.0, 10423.0, 10423.0, 10450.0, 10453.0, 10413.0, 10385.0, 10371.0, 10357.0, 10421.0, 10363.0, 10355.0, 10449.0, 10368.0, 10360.0, 10398.0, 10392.0, 10392.0, 10376.0, 10370.0, 10389.0, 10400.0, 10380.0, 10354.0, 10337.0, 10348.0, 10379.0, 10418.0, 10449.0, 10422.0, 10364.0, 10360.0, 10392.0, 10458.0, 10385.0, 10371.0, 10371.0, 10448.0, 10367.0, 10395.0, 10423.0, 10418.0, 10400.0, 10406.0, 10336.0, 10345.0, 10325.0, 10350.0, 10401.0, 10461.0, 10473.0, 10498.0, 10484.0, 10488.0, 10457.0, 10405.0, 10404.0, 10436.0, 10423.0, 10409.0, 10392.0, 10375.0, 10366.0, 10378.0, 10370.0, 10372.0, 10373.0, 10364.0, 10357.0, 10374.0, 10353.0, 10354.0, 10371.0, 10372.0, 10361.0, 10375.0, 10367.0, 10365.0, 10387.0, 10403.0, 10389.0, 10397.0, 10409.0, 10415.0, 10419.0, 10495.0, 10410.0, 10409.0, 10424.0, 10518.0, 10435.0, 10430.0, 10425.0, 10424.0, 10420.0, 10409.0, 10487.0, 10409.0, 10411.0, 10428.0, 10449.0, 10452.0, 10443.0, 10429.0, 10413.0, 10428.0, 10437.0, 10423.0, 10430.0, 10437.0, 10429.0, 10420.0, 10386.0, 10488.0, 10443.0, 10433.0, 10444.0, 10442.0, 10448.0, 10469.0, 10434.0, 10414.0, 10432.0, 10403.0, 10420.0, 10398.0, 10459.0, 10443.0, 10423.0, 10414.0],
      "WindowWidth": [22401.0, 22194.0, 22143.0, 22197.0, 22206.0, 22166.0, 22175.0, 22119.0, 22114.0, 22142.0, 22142.0, 22132.0, 22160.0, 22148.0, 22130.0, 22141.0, 22107.0, 22083.0, 22044.0, 22192.0, 22058.0, 22095.0, 22072.0, 22093.0, 22127.0, 22213.0, 22100.0, 22081.0, 22050.0, 22041.0, 22048.0, 22027.0, 22089.0, 22008.0, 22050.0, 22095.0, 22089.0, 22144.0, 22223.0, 22174.0, 22171.0, 22098.0, 22068.0, 22074.0, 22061.0, 22026.0, 22033.0, 22026.0, 21967.0, 21970.0, 22069.0, 22013.0, 22063.0, 22140.0, 22008.0, 21965.0, 22037.0, 22031.0, 22078.0, 22067.0, 22007.0, 22096.0, 22094.0, 22157.0, 22166.0, 22065.0, 22007.0, 21976.0, 21944.0, 22082.0, 21959.0, 21943.0, 22143.0, 21970.0, 21950.0, 22038.0, 22015.0, 22017.0, 21988.0, 21972.0, 22018.0, 22047.0, 21998.0, 21936.0, 21898.0, 21922.0, 21994.0, 22093.0, 22141.0, 22074.0, 21963.0, 21952.0, 22028.0, 22157.0, 22016.0, 21982.0, 21976.0, 22128.0, 21972.0, 22033.0, 22099.0, 22094.0, 22034.0, 22033.0, 21905.0, 21919.0, 21882.0, 21941.0, 22063.0, 22189.0, 22220.0, 22277.0, 22242.0, 22246.0, 22180.0, 22060.0, 22057.0, 22133.0, 22101.0, 22073.0, 22035.0, 21993.0, 21971.0, 21999.0, 21980.0, 21976.0, 21980.0, 21960.0, 21943.0, 21985.0, 21946.0, 21940.0, 21978.0, 21984.0, 21960.0, 21995.0, 21976.0, 21978.0, 22027.0, 22066.0, 22030.0, 22050.0, 22074.0, 22093.0, 22095.0, 22249.0, 22074.0, 22073.0, 22101.0, 22306.0, 22133.0, 22123.0, 22116.0, 22111.0, 22100.0, 22076.0, 22214.0, 22073.0, 22080.0, 22117.0, 22168.0, 22169.0, 22147.0, 22116.0, 22083.0, 22121.0, 22140.0, 22113.0, 22125.0, 22146.0, 22122.0, 22099.0, 22029.0, 22252.0, 22155.0, 22131.0, 22153.0, 22144.0, 22161.0, 22214.0, 22130.0, 22088.0, 22116.0, 22057.0, 22102.0, 22050.0, 22184.0, 22143.0, 22107.0, 22080.0]
    },
    "slices": {}
  }
}