{
  "AcquisitionMatrixPE": 104,
  "AcquisitionNumber": 1,
  "AcquisitionTime": "17:42:17.217500",
  "BandwidthPerPixelPhaseEncode": 17.17,
  "BaseResolution": 104,
  "BodyPartExamined": "BRAIN",
  "CoilString": "HC1-7;NC1_2",
  "ConsistencyInfo": "N4_VE11C_LATEST_20160120",
  "ConversionSoftware": "dcm2niix",
  "ConversionSoftwareVersion": "v1.0.20190902",
  "DerivedVendorReportedEchoSpacing": 0.000560011,
  "DeviceSerialNumber": "167006",
  "DwellTime": 2.1e-06,
  "EchoTime": 0.037,
  "EchoTrainLength": 104,
  "EffectiveEchoSpacing": 0.000560011,
  "FlipAngle": 52,
  "ImageComments": "Unaliased_MB4_PE3_LB",
  "ImageOrientationPatientDICOM": [0.997024, 0.0217121, 0.073972, 0.00852682, 0.922576, -0.385721],
  "ImageType": [
    "ORIGINAL",
    "PRIMARY",
    "M",
    "MB",
    "ND",
    "MOSAIC"
],
  "ImagingFrequency": 123.259,
  "InPlanePhaseEncodingDirectionDICOM": "COL",
  "InstitutionAddress": "Chemin_Queen-Mary_4565_Montreal_District_CA_H3W_1W5",
  "InstitutionName": "IUGM",
  "InstitutionalDepartmentName": "Department",
  "MRAcquisitionType": "2D",
  "MagneticFieldStrength": 3,
  "Manufacturer": "Siemens",
  "ManufacturersModelName": "Prisma_fit",
  "Modality": "MR",
  "MultibandAccelerationFactor": 4,
  "PartialFourier": 1,
  "PatientPosition": "HFS",
  "PercentPhaseFOV": 100,
  "PhaseEncodingDirection": "j",
  "PhaseEncodingSteps": 104,
  "PhaseResolution": 1,
  "PixelBandwidth": 2290,
  "ProcedureStepDescription": "memory_things",
  "ProtocolName": "func_task-things_run-2",
  "PulseSequenceDetails": "%CustomerSeq%_cmrr_mbep2d_bold",
  "ReceiveCoilActiveElements": "HC1-7;NC1,2",
  "ReceiveCoilName": "HeadNeck_64",
  "ReconMatrixPE": 104,
  "RepetitionTime": 1.49,
  "SAR": 0.0611485,
  "ScanOptions": "FS",
  "ScanningSequence": "EP",
  "SequenceName": "epfid2d1_104",
  "SequenceVariant": "SK_SS",
  "SeriesDescription": "func_task-things_run-2",
  "SeriesNumber": 13,
  "ShimSetting": [640, -7185, -8815, 611, 91, 39, -61, 15],
  "SliceThickness": 2,
  "SliceTiming": [0, 0.7825, 0.0975, 0.8825, 0.195, 0.98, 0.2925, 1.0775, 0.3925, 1.175, 0.49, 1.2725, 0.5875, 1.3725, 0.685, 0, 0.7825, 0.0975, 0.8825, 0.195, 0.98, 0.2925, 1.0775, 0.3925, 1.175, 0.49, 1.2725, 0.5875, 1.3725, 0.685, 0, 0.7825, 0.0975, 0.8825, 0.195, 0.98, 0.2925, 1.0775, 0.3925, 1.175, 0.49, 1.2725, 0.5875, 1.3725, 0.685, 0, 0.7825, 0.0975, 0.8825, 0.195, 0.98, 0.2925, 1.0775, 0.3925, 1.175, 0.49, 1.2725, 0.5875, 1.3725, 0.685],
  "SoftwareVersions": "syngo_MR_E11",
  "SpacingBetweenSlices": 2,
  "StationName": "MRC35049",
  "TaskName": "things",
  "TotalReadoutTime": 0.0576811,
  "TxRefAmp": 296.276,
  "WipMemBlock": "e292c974-e514-489b-9d8c-9836ba91b940||Sequence: R016 ve11c/master r/e634e98; Dec 19 2017 11:00:25 by eja",
  "dcmmeta_affine": [
    [-1.9940478801727295, 0.017053641378879547, 0.1532392054796219, 103.0791244506836],
    [-0.04342421889305115, 1.845152497291565, -0.7704068422317505, -55.896446228027344],
    [0.14794397354125977, 0.7714412212371826, 1.8392908573150635, -68.5754623413086],
    [0.0, 0.0, 0.0, 1.0]
],
  "dcmmeta_reorient_transform": [
    [0.0, -1.0, 0.0, 103.0],
    [1.0, 0.0, 0.0, 0.0],
    [0.0, 0.0, 1.0, 0.0],
    [0.0, 0.0, 0.0, 1.0]
],
  "dcmmeta_shape": [104, 104, 60, 190],
  "dcmmeta_slice_dim": 2,
  "dcmmeta_version": 0.6,
  "global": {
    "const": {
      "AcquisitionMatrix": [104, 0, 0, 104],
      "AngioFlag": "N",
      "BitsAllocated": 16,
      "BitsStored": 16,
      "BodyPartExamined": "BRAIN",
      "Columns": 832,
      "EchoNumbers": 1,
      "EchoTime": 37.0,
      "EchoTrainLength": 104,
      "FlipAngle": 52.0,
      "HighBit": 15,
      "ImageOrientationPatient": [0.99702393623566, 0.02171210874041, 0.0739719873141, 0.00852682084959, 0.92257623280419, -0.3857206087196],
      "ImagePositionPatient": [-836.8766002348, -821.59616905549, 237.83597933691],
      "ImageType": [
        "ORIGINAL",
        "PRIMARY",
        "M",
        "MB",
        "ND",
        "MOSAIC"
],
      "ImagedNucleus": "1H",
      "ImagingFrequency": 123.258925,
      "InPlanePhaseEncodingDirection": "COL",
      "MRAcquisitionType": "2D",
      "MagneticFieldStrength": 3.0,
      "Manufacturer": "SIEMENS",
      "ManufacturerModelName": "Prisma_fit",
      "Modality": "MR",
      "NumberOfAverages": 1.0,
      "NumberOfPhaseEncodingSteps": 104,
      "PercentPhaseFieldOfView": 100.0,
      "PercentSampling": 100.0,
      "PerformedProcedureStepStartTime": "172852.753000",
      "PhotometricInterpretation": "MONOCHROME2",
      "PixelBandwidth": 2290.0,
      "PixelRepresentation": 0,
      "PixelSpacing": [2.0, 2.0],
      "ProtocolName": "func_task-things_run-2",
      "RepetitionTime": 1490.0,
      "Rows": 832,
      "SAR": 0.06114849773324,
      "SamplesPerPixel": 1,
      "ScanOptions": "FS",
      "ScanningSequence": "EP",
      "SequenceName": "epfid2d1_104",
      "SequenceVariant": [
        "SK",
        "SS"
],
      "SeriesDescription": "func_task-things_run-2",
      "SeriesNumber": 13,
      "SeriesTime": "174331.468000",
      "SliceLocation": -33.635727293889,
      "SliceThickness": 2.0,
      "SmallestImagePixelValue": 0,
      "SoftwareVersions": "syngo MR E11",
      "SpacingBetweenSlices": 1.999999938679,
      "SpecificCharacterSet": "ISO_IR 100",
      "StudyID": "1",
      "StudyTime": "172852.606000",
      "TransmitCoilName": "Body",
      "VariableFlipAngleFlag": "N",
      "WindowCenterWidthExplanation": "Algo1",
      "dBdt": 0.0},
    "slices": {}
  },
  "time": {
    "samples": {
      "AcquisitionNumber": [1, 2, 3, 4, 5, 6, 7, 8, 9, 10, 11, 12, 13, 14, 15, 16, 17, 18, 19, 20, 21, 22, 23, 24, 25, 26, 27, 28, 29, 30, 31, 32, 33, 34, 35, 36, 37, 38, 39, 40, 41, 42, 43, 44, 45, 46, 47, 48, 49, 50, 51, 52, 53, 54, 55, 56, 57, 58, 59, 60, 61, 62, 63, 64, 65, 66, 67, 68, 69, 70, 71, 72, 73, 74, 75, 76, 77, 78, 79, 80, 81, 82, 83, 84, 85, 86, 87, 88, 89, 90, 91, 92, 93, 94, 95, 96, 97, 98, 99, 100, 101, 102, 103, 104, 105, 106, 107, 108, 109, 110, 111, 112, 113, 114, 115, 116, 117, 118, 119, 120, 121, 122, 123, 124, 125, 126, 127, 128, 129, 130, 131, 132, 133, 134, 135, 136, 137, 138, 139, 140, 141, 142, 143, 144, 145, 146, 147, 148, 149, 150, 151, 152, 153, 154, 155, 156, 157, 158, 159, 160, 161, 162, 163, 164, 165, 166, 167, 168, 169, 170, 171, 172, 173, 174, 175, 176, 177, 178, 179, 180, 181, 182, 183, 184, 185, 186, 187, 188, 189, 190],
      "AcquisitionTime": ["174217.217500", "174218.707500", "174220.197500", "174221.687500", "174223.177500", "174224.667500", "174226.157500", "174227.647500", "174229.137500", "174230.627500", "174232.117500", "174233.607500", "174235.097500", "174236.587500", "174238.077500", "174239.567500", "174241.057500", "174242.547500", "174244.037500", "174245.527500", "174247.017500", "174248.507500", "174249.997500", "174251.487500", "174252.977500", "174254.467500", "174255.957500", "174257.447500", "174258.937500", "174300.427500", "174301.917500", "174303.407500", "174304.897500", "174306.387500", "174307.877500", "174309.367500", "174310.857500", "174312.347500", "174313.837500", "174315.327500", "174316.817500", "174318.307500", "174319.797500", "174321.287500", "174322.777500", "174324.267500", "174325.757500", "174327.247500", "174328.737500", "174330.227500", "174331.717500", "174333.207500", "174334.697500", "174336.187500", "174337.677500", "174339.167500", "174340.657500", "174342.147500", "174343.637500", "174345.127500", "174346.617500", "174348.107500", "174349.597500", "174351.087500", "174352.577500", "174354.067500", "174355.557500", "174357.047500", "174358.537500", "174400.027500", "174401.517500", "174403.007500", "174404.497500", "174405.987500", "174407.477500", "174408.967500", "174410.457500", "174411.947500", "174413.437500", "174414.927500", "174416.417500", "174417.907500", "174419.397500", "174420.887500", "174422.377500", "174423.867500", "174425.357500", "174426.847500", "174428.337500", "174429.827500", "174431.317500", "174432.807500", "174434.297500", "174435.787500", "174437.277500", "174438.767500", "174440.257500", "174441.747500", "174443.237500", "174444.727500", "174446.217500", "174447.707500", "174449.197500", "174450.687500", "174452.177500", "174453.667500", "174455.157500", "174456.647500", "174458.137500", "174459.627500", "174501.117500", "174502.607500", "174504.097500", "174505.587500", "174507.077500", "174508.567500", "174510.057500", "174511.547500", "174513.037500", "174514.527500", "174516.017500", "174517.507500", "174518.997500", "174520.487500", "174521.977500", "174523.467500", "174524.957500", "174526.447500", "174527.937500", "174529.427500", "174530.917500", "174532.407500", "174533.897500", "174535.387500", "174536.877500", "174538.367500", "174539.857500", "174541.347500", "174542.837500", "174544.327500", "174545.817500", "174547.307500", "174548.797500", "174550.287500", "174551.777500", "174553.267500", "174554.757500", "174556.247500", "174557.737500", "174559.227500", "174600.717500", "174602.207500", "174603.697500", "174605.187500", "174606.677500", "174608.167500", "174609.657500", "174611.147500", "174612.637500", "174614.127500", "174615.617500", "174617.107500", "174618.597500", "174620.087500", "174621.577500", "174623.067500", "174624.557500", "174626.047500", "174627.537500", "174629.027500", "174630.517500", "174632.007500", "174633.497500", "174634.987500", "174636.477500", "174637.967500", "174639.457500", "174640.947500", "174642.437500", "174643.927500", "174645.417500", "174646.907500", "174648.397500", "174649.887500", "174651.377500", "174652.867500", "174654.357500", "174655.847500", "174657.337500", "174658.827500"],
      "ContentTime": ["174331.471000", "174331.475000", "174331.478000", "174331.481000", "174331.485000", "174331.488000", "174331.491000", "174331.494000", "174331.498000", "174331.501000", "174331.504000", "174331.508000", "174331.511000", "174331.514000", "174331.518000", "174331.528000", "174331.532000", "174331.535000", "174331.538000", "174331.541000", "174351.436000", "174351.440000", "174351.443000", "174351.446000", "174351.450000", "174351.453000", "174351.456000", "174351.459000", "174351.463000", "174351.466000", "174351.469000", "174351.472000", "174351.476000", "174351.479000", "174351.482000", "174351.485000", "174351.489000", "174351.492000", "174351.495000", "174351.498000", "174351.501000", "174411.436000", "174411.440000", "174411.443000", "174411.446000", "174411.449000", "174411.453000", "174411.457000", "174411.460000", "174411.463000", "174411.466000", "174411.469000", "174411.473000", "174411.476000", "174411.479000", "174411.482000", "174411.486000", "174411.489000", "174411.492000", "174411.495000", "174411.498000", "174431.436000", "174431.440000", "174431.443000", "174431.446000", "174431.449000", "174431.453000", "174431.456000", "174431.459000", "174431.462000", "174431.465000", "174431.469000", "174431.472000", "174431.484000", "174431.487000", "174431.491000", "174431.494000", "174431.497000", "174431.500000", "174431.504000", "174431.507000", "174451.436000", "174451.440000", "174451.443000", "174451.446000", "174451.449000", "174451.453000", "174451.456000", "174451.459000", "174451.462000", "174451.466000", "174451.469000", "174451.472000", "174451.476000", "174451.479000", "174451.482000", "174451.485000", "174451.489000", "174451.492000", "174451.495000", "174451.498000", "174531.436000", "174531.440000", "174531.443000", "174531.446000", "174531.449000", "174531.453000", "174531.456000", "174531.459000", "174531.463000", "174531.466000", "174531.469000", "174531.472000", "174531.476000", "174531.479000", "174531.482000", "174531.485000", "174531.489000", "174531.492000", "174531.495000", "174531.498000", "174531.502000", "174531.505000", "174531.508000", "174531.512000", "174531.515000", "174531.518000", "174531.521000", "174531.525000", "174531.528000", "174611.436000", "174611.440000", "174611.443000", "174611.446000", "174611.450000", "174611.454000", "174611.458000", "174611.461000", "174611.464000", "174611.468000", "174611.471000", "174611.474000", "174611.478000", "174611.481000", "174611.484000", "174611.488000", "174611.491000", "174611.494000", "174611.498000", "174611.501000", "174611.504000", "174611.507000", "174611.511000", "174611.514000", "174611.517000", "174611.521000", "174651.435000", "174651.439000", "174651.442000", "174651.446000", "174651.449000", "174651.452000", "174651.456000", "174651.459000", "174651.462000", "174651.466000", "174651.469000", "174651.472000", "174651.476000", "174651.479000", "174651.482000", "174651.485000", "174651.489000", "174651.492000", "174651.505000", "174651.509000", "174651.512000", "174651.515000", "174651.518000", "174651.522000", "174651.525000", "174651.528000", "174651.532000", "174700.793000", "174700.796000", "174700.800000", "174700.803000", "174700.807000", "174700.810000", "174700.813000"],
      "InstanceCreationTime": ["174331.471000", "174331.475000", "174331.478000", "174331.481000", "174331.485000", "174331.488000", "174331.491000", "174331.494000", "174331.498000", "174331.501000", "174331.504000", "174331.508000", "174331.511000", "174331.514000", "174331.518000", "174331.528000", "174331.532000", "174331.535000", "174331.538000", "174331.541000", "174351.436000", "174351.440000", "174351.443000", "174351.446000", "174351.450000", "174351.453000", "174351.456000", "174351.459000", "174351.463000", "174351.466000", "174351.469000", "174351.472000", "174351.476000", "174351.479000", "174351.482000", "174351.485000", "174351.489000", "174351.492000", "174351.495000", "174351.498000", "174351.501000", "174411.436000", "174411.440000", "174411.443000", "174411.446000", "174411.449000", "174411.453000", "174411.457000", "174411.460000", "174411.463000", "174411.466000", "174411.469000", "174411.473000", "174411.476000", "174411.479000", "174411.482000", "174411.486000", "174411.489000", "174411.492000", "174411.495000", "174411.498000", "174431.436000", "174431.440000", "174431.443000", "174431.446000", "174431.449000", "174431.453000", "174431.456000", "174431.459000", "174431.462000", "174431.465000", "174431.469000", "174431.472000", "174431.484000", "174431.487000", "174431.491000", "174431.494000", "174431.497000", "174431.500000", "174431.504000", "174431.507000", "174451.436000", "174451.440000", "174451.443000", "174451.446000", "174451.449000", "174451.453000", "174451.456000", "174451.459000", "174451.462000", "174451.466000", "174451.469000", "174451.472000", "174451.476000", "174451.479000", "174451.482000", "174451.485000", "174451.489000", "174451.492000", "174451.495000", "174451.498000", "174531.436000", "174531.440000", "174531.443000", "174531.446000", "174531.449000", "174531.453000", "174531.456000", "174531.459000", "174531.463000", "174531.466000", "174531.469000", "174531.472000", "174531.476000", "174531.479000", "174531.482000", "174531.485000", "174531.489000", "174531.492000", "174531.495000", "174531.498000", "174531.502000", "174531.505000", "174531.508000", "174531.512000", "174531.515000", "174531.518000", "174531.521000", "174531.525000", "174531.528000", "174611.436000", "174611.440000", "174611.443000", "174611.446000", "174611.450000", "174611.454000", "174611.458000", "174611.461000", "174611.464000", "174611.468000", "174611.471000", "174611.474000", "174611.478000", "174611.481000", "174611.484000", "174611.488000", "174611.491000", "174611.494000", "174611.498000", "174611.501000", "174611.504000", "174611.507000", "174611.511000", "174611.514000", "174611.517000", "174611.521000", "174651.435000", "174651.439000", "174651.442000", "174651.446000", "174651.449000", "174651.452000", "174651.456000", "174651.459000", "174651.462000", "174651.466000", "174651.469000", "174651.472000", "174651.476000", "174651.479000", "174651.482000", "174651.485000", "174651.489000", "174651.492000", "174651.505000", "174651.509000", "174651.512000", "174651.515000", "174651.518000", "174651.522000", "174651.525000", "174651.528000", "174651.532000", "174700.793000", "174700.796000", "174700.800000", "174700.803000", "174700.807000", "174700.810000", "174700.813000"],
      "InstanceNumber": [1, 2, 3, 4, 5, 6, 7, 8, 9, 10, 11, 12, 13, 14, 15, 16, 17, 18, 19, 20, 21, 22, 23, 24, 25, 26, 27, 28, 29, 30, 31, 32, 33, 34, 35, 36, 37, 38, 39, 40, 41, 42, 43, 44, 45, 46, 47, 48, 49, 50, 51, 52, 53, 54, 55, 56, 57, 58, 59, 60, 61, 62, 63, 64, 65, 66, 67, 68, 69, 70, 71, 72, 73, 74, 75, 76, 77, 78, 79, 80, 81, 82, 83, 84, 85, 86, 87, 88, 89, 90, 91, 92, 93, 94, 95, 96, 97, 98, 99, 100, 101, 102, 103, 104, 105, 106, 107, 108, 109, 110, 111, 112, 113, 114, 115, 116, 117, 118, 119, 120, 121, 122, 123, 124, 125, 126, 127, 128, 129, 130, 131, 132, 133, 134, 135, 136, 137, 138, 139, 140, 141, 142, 143, 144, 145, 146, 147, 148, 149, 150, 151, 152, 153, 154, 155, 156, 157, 158, 159, 160, 161, 162, 163, 164, 165, 166, 167, 168, 169, 170, 171, 172, 173, 174, 175, 176, 177, 178, 179, 180, 181, 182, 183, 184, 185, 186, 187, 188, 189, 190],
      "LargestImagePixelValue": [45305, 44209, 42781, 41976, 45916, 41208, 40769, 40654, 41559, 41176, 41258, 41222, 41107, 41056, 40978, 40510, 40220, 40332, 40645, 41152, 40572, 41019, 40503, 41156, 41280, 40936, 40738, 40459, 40007, 41059, 44998, 49914, 38843, 39662, 39461, 41310, 40083, 41010, 39592, 41409, 40688, 40339, 39764, 38677, 39305, 39778, 39612, 39786, 47386, 39659, 40179, 38088, 40004, 40146, 41074, 40728, 41317, 38355, 39461, 38943, 39716, 39498, 38756, 48020, 40547, 40420, 39854, 39778, 40220, 42013, 41688, 40504, 39827, 53332, 39128, 39523, 38866, 40827, 39562, 39113, 40076, 39093, 38896, 39803, 45026, 40112, 50654, 43121, 45836, 38511, 39271, 38012, 39813, 39645, 40465, 40066, 42066, 39772, 39965, 39296, 53533, 38324, 39365, 40595, 42098, 38262, 37752, 38723, 39685, 39901, 39495, 39803, 38298, 43955, 41327, 40087, 39755, 40480, 40069, 39759, 39758, 39750, 39467, 39518, 39107, 44549, 39815, 42820, 39229, 38846, 39638, 40724, 43651, 43818, 39526, 40243, 41411, 39105, 38670, 39138, 38665, 39242, 42332, 39623, 42042, 43818, 39760, 40620, 40678, 51991, 47129, 39336, 38208, 40294, 40544, 39828, 41317, 44615, 38273, 38138, 42631, 39648, 40368, 39444, 39002, 39779, 40203, 45006, 42259, 44340, 41146, 39751, 39400, 47087, 42654, 41589, 39598, 39761, 39588, 46314, 41961, 40033, 41916, 39629, 42546, 39620, 40401, 39809, 39648, 39719],
      "WindowCenter": [10525.0, 10470.0, 10400.0, 10375.0, 10418.0, 10373.0, 10374.0, 10428.0, 10508.0, 10497.0, 10520.0, 10502.0, 10528.0, 10528.0, 10521.0, 10505.0, 10501.0, 10500.0, 10493.0, 10521.0, 10526.0, 10536.0, 10525.0, 10537.0, 10541.0, 10536.0, 10554.0, 10550.0, 10532.0, 10544.0, 10578.0, 10605.0, 10505.0, 10524.0, 10544.0, 10574.0, 10541.0, 10518.0, 10489.0, 10487.0, 10475.0, 10490.0, 10485.0, 10499.0, 10515.0, 10528.0, 10521.0, 10504.0, 10560.0, 10470.0, 10461.0, 10432.0, 10463.0, 10483.0, 10476.0, 10465.0, 10462.0, 10442.0, 10467.0, 10472.0, 10518.0, 10511.0, 10450.0, 10530.0, 10481.0, 10473.0, 10471.0, 10479.0, 10479.0, 10478.0, 10458.0, 10418.0, 10404.0, 10530.0, 10442.0, 10513.0, 10536.0, 10551.0, 10516.0, 10473.0, 10477.0, 10453.0, 10445.0, 10467.0, 10513.0, 10468.0, 10543.0, 10471.0, 10500.0, 10434.0, 10438.0, 10427.0, 10444.0, 10446.0, 10450.0, 10439.0, 10464.0, 10451.0, 10460.0, 10466.0, 10569.0, 10419.0, 10428.0, 10472.0, 10481.0, 10445.0, 10441.0, 10458.0, 10472.0, 10451.0, 10438.0, 10432.0, 10425.0, 10492.0, 10486.0, 10501.0, 10535.0, 10555.0, 10473.0, 10447.0, 10451.0, 10433.0, 10452.0, 10456.0, 10437.0, 10485.0, 10424.0, 10445.0, 10423.0, 10411.0, 10428.0, 10430.0, 10449.0, 10456.0, 10421.0, 10445.0, 10477.0, 10458.0, 10440.0, 10431.0, 10427.0, 10420.0, 10445.0, 10422.0, 10458.0, 10491.0, 10466.0, 10488.0, 10475.0, 10521.0, 10461.0, 10393.0, 10397.0, 10432.0, 10479.0, 10489.0, 10515.0, 10496.0, 10408.0, 10383.0, 10428.0, 10410.0, 10426.0, 10424.0, 10416.0, 10432.0, 10444.0, 10429.0, 10450.0, 10441.0, 10399.0, 10383.0, 10377.0, 10455.0, 10428.0, 10428.0, 10448.0, 10455.0, 10473.0, 10538.0, 10465.0, 10432.0, 10440.0, 10414.0, 10447.0, 10413.0, 10418.0, 10430.0, 10441.0, 10443.0],
      "WindowWidth": [22380.0, 22237.0, 22054.0, 21992.0, 22087.0, 21991.0, 21994.0, 22120.0, 22309.0, 22282.0, 22334.0, 22291.0, 22355.0, 22353.0, 22337.0, 22299.0, 22297.0, 22301.0, 22270.0, 22334.0, 22365.0, 22371.0, 22349.0, 22374.0, 22388.0, 22375.0, 22417.0, 22409.0, 22367.0, 22396.0, 22461.0, 22509.0, 22313.0, 22356.0, 22403.0, 22468.0, 22386.0, 22333.0, 22264.0, 22260.0, 22232.0, 22270.0, 22260.0, 22294.0, 22327.0, 22353.0, 22338.0, 22295.0, 22409.0, 22218.0, 22189.0, 22132.0, 22202.0, 22260.0, 22233.0, 22208.0, 22195.0, 22158.0, 22215.0, 22221.0, 22335.0, 22319.0, 22172.0, 22338.0, 22245.0, 22231.0, 22219.0, 22247.0, 22250.0, 22242.0, 22191.0, 22098.0, 22070.0, 22314.0, 22158.0, 22329.0, 22385.0, 22407.0, 22328.0, 22226.0, 22235.0, 22179.0, 22160.0, 22210.0, 22308.0, 22221.0, 22355.0, 22205.0, 22271.0, 22141.0, 22149.0, 22124.0, 22168.0, 22172.0, 22171.0, 22149.0, 22200.0, 22180.0, 22205.0, 22221.0, 22404.0, 22108.0, 22125.0, 22226.0, 22239.0, 22166.0, 22158.0, 22203.0, 22234.0, 22178.0, 22148.0, 22131.0, 22116.0, 22248.0, 22245.0, 22288.0, 22371.0, 22416.0, 22219.0, 22164.0, 22176.0, 22131.0, 22175.0, 22188.0, 22143.0, 22245.0, 22112.0, 22149.0, 22107.0, 22084.0, 22121.0, 22123.0, 22152.0, 22170.0, 22100.0, 22158.0, 22235.0, 22195.0, 22153.0, 22134.0, 22125.0, 22109.0, 22153.0, 22104.0, 22173.0, 22252.0, 22208.0, 22256.0, 22229.0, 22292.0, 22171.0, 22041.0, 22052.0, 22122.0, 22238.0, 22268.0, 22319.0, 22271.0, 22075.0, 22020.0, 22112.0, 22086.0, 22118.0, 22118.0, 22093.0, 22125.0, 22151.0, 22104.0, 22158.0, 22131.0, 22039.0, 22007.0, 21994.0, 22148.0, 22102.0, 22106.0, 22160.0, 22178.0, 22220.0, 22357.0, 22197.0, 22132.0, 22135.0, 22086.0, 22157.0, 22084.0, 22088.0, 22121.0, 22149.0, 22150.0]
    },
    "slices": {}
  }
}