{
  "AcquisitionMatrixPE": 104,
  "AcquisitionNumber": 1,
  "AcquisitionTime": "17:54:28.285000",
  "BandwidthPerPixelPhaseEncode": 17.17,
  "BaseResolution": 104,
  "BodyPartExamined": "BRAIN",
  "CoilString": "HC1-7;NC1_2",
  "ConsistencyInfo": "N4_VE11C_LATEST_20160120",
  "ConversionSoftware": "dcm2niix",
  "ConversionSoftwareVersion": "v1.0.20190902",
  "DerivedVendorReportedEchoSpacing": 0.000560011,
  "DeviceSerialNumber": "167006",
  "DwellTime": 2.1e-06,
  "EchoTime": 0.037,
  "EchoTrainLength": 104,
  "EffectiveEchoSpacing": 0.000560011,
  "FlipAngle": 52,
  "ImageComments": "Unaliased_MB4_PE3_LB",
  "ImageOrientationPatientDICOM": [0.997024, 0.0217121, 0.073972, 0.00852682, 0.922576, -0.385721],
  "ImageType": [
    "ORIGINAL",
    "PRIMARY",
    "P",
    "MB",
    "ND",
    "MOSAIC"
],
  "ImagingFrequency": 123.259,
  "InPlanePhaseEncodingDirectionDICOM": "COL",
  "InstitutionAddress": "Chemin_Queen-Mary_4565_Montreal_District_CA_H3W_1W5",
  "InstitutionName": "IUGM",
  "InstitutionalDepartmentName": "Department",
  "MRAcquisitionType": "2D",
  "MagneticFieldStrength": 3,
  "Manufacturer": "Siemens",
  "ManufacturersModelName": "Prisma_fit",
  "Modality": "MR",
  "MultibandAccelerationFactor": 4,
  "PartialFourier": 1,
  "PatientPosition": "HFS",
  "PercentPhaseFOV": 100,
  "PhaseEncodingDirection": "j",
  "PhaseEncodingSteps": 104,
  "PhaseResolution": 1,
  "PixelBandwidth": 2290,
  "ProcedureStepDescription": "memory_things",
  "ProtocolName": "func_task-things_run-4",
  "PulseSequenceDetails": "%CustomerSeq%_cmrr_mbep2d_bold",
  "ReceiveCoilActiveElements": "HC1-7;NC1,2",
  "ReceiveCoilName": "HeadNeck_64",
  "ReconMatrixPE": 104,
  "RepetitionTime": 1.49,
  "SAR": 0.0611485,
  "ScanOptions": "FS",
  "ScanningSequence": "EP",
  "SequenceName": "epfid2d1_104",
  "SequenceVariant": "SK_SS",
  "SeriesDescription": "func_task-things_run-4",
  "SeriesNumber": 20,
  "ShimSetting": [640, -7185, -8815, 611, 91, 39, -61, 15],
  "SliceThickness": 2,
  "SliceTiming": [0, 0.7825, 0.0975, 0.8825, 0.195, 0.98, 0.2925, 1.0775, 0.3925, 1.175, 0.49, 1.2725, 0.5875, 1.3725, 0.685, 0, 0.7825, 0.0975, 0.8825, 0.195, 0.98, 0.2925, 1.0775, 0.3925, 1.175, 0.49, 1.2725, 0.5875, 1.3725, 0.685, 0, 0.7825, 0.0975, 0.8825, 0.195, 0.98, 0.2925, 1.0775, 0.3925, 1.175, 0.49, 1.2725, 0.5875, 1.3725, 0.685, 0, 0.7825, 0.0975, 0.8825, 0.195, 0.98, 0.2925, 1.0775, 0.3925, 1.175, 0.49, 1.2725, 0.5875, 1.3725, 0.685],
  "SoftwareVersions": "syngo_MR_E11",
  "SpacingBetweenSlices": 2,
  "StationName": "MRC35049",
  "TaskName": "things",
  "TotalReadoutTime": 0.0576811,
  "TxRefAmp": 296.276,
  "WipMemBlock": "5088d4ff-8873-4c14-8fd4-1db9456b485b||Sequence: R016 ve11c/master r/e634e98; Dec 19 2017 11:00:25 by eja",
  "dcmmeta_affine": [
    [-1.9940478801727295, 0.017053641378879547, 0.1532392054796219, 103.0791244506836],
    [-0.04342421889305115, 1.845152497291565, -0.7704068422317505, -55.896446228027344],
    [0.14794397354125977, 0.7714412212371826, 1.8392908573150635, -68.5754623413086],
    [0.0, 0.0, 0.0, 1.0]
],
  "dcmmeta_reorient_transform": [
    [0.0, -1.0, 0.0, 103.0],
    [1.0, 0.0, 0.0, 0.0],
    [0.0, 0.0, 1.0, 0.0],
    [0.0, 0.0, 0.0, 1.0]
],
  "dcmmeta_shape": [104, 104, 60, 190],
  "dcmmeta_slice_dim": 2,
  "dcmmeta_version": 0.6,
  "global": {
    "const": {
      "AcquisitionMatrix": [104, 0, 0, 104],
      "AngioFlag": "N",
      "BitsAllocated": 16,
      "BitsStored": 16,
      "BodyPartExamined": "BRAIN",
      "Columns": 832,
      "EchoNumbers": 1,
      "EchoTime": 37.0,
      "EchoTrainLength": 104,
      "FlipAngle": 52.0,
      "HighBit": 15,
      "ImageOrientationPatient": [0.99702393623566, 0.02171210874041, 0.0739719873141, 0.00852682084959, 0.92257623280419, -0.3857206087196],
      "ImagePositionPatient": [-836.8766002348, -821.59616905549, 237.83597933691],
      "ImageType": [
        "ORIGINAL",
        "PRIMARY",
        "P",
        "MB",
        "ND",
        "MOSAIC"
],
      "ImagedNucleus": "1H",
      "ImagingFrequency": 123.258932,
      "InPlanePhaseEncodingDirection": "COL",
      "LargestImagePixelValue": 4095,
      "MRAcquisitionType": "2D",
      "MagneticFieldStrength": 3.0,
      "Manufacturer": "SIEMENS",
      "ManufacturerModelName": "Prisma_fit",
      "Modality": "MR",
      "NumberOfAverages": 1.0,
      "NumberOfPhaseEncodingSteps": 104,
      "PercentPhaseFieldOfView": 100.0,
      "PercentSampling": 100.0,
      "PerformedProcedureStepStartTime": "172852.753000",
      "PhotometricInterpretation": "MONOCHROME2",
      "PixelBandwidth": 2290.0,
      "PixelRepresentation": 0,
      "PixelSpacing": [2.0, 2.0],
      "ProtocolName": "func_task-things_run-4",
      "RepetitionTime": 1490.0,
      "RescaleIntercept": -4096.0,
      "RescaleSlope": 2.0,
      "RescaleType": "US",
      "Rows": 832,
      "SAR": 0.06114849773324,
      "SamplesPerPixel": 1,
      "ScanOptions": "FS",
      "ScanningSequence": "EP",
      "SequenceName": "epfid2d1_104",
      "SequenceVariant": [
        "SK",
        "SS"
],
      "SeriesDescription": "func_task-things_run-4",
      "SeriesNumber": 20,
      "SeriesTime": "175547.132000",
      "SliceLocation": -33.635727293889,
      "SliceThickness": 2.0,
      "SmallestImagePixelValue": 0,
      "SoftwareVersions": "syngo MR E11",
      "SpacingBetweenSlices": 1.999999938679,
      "SpecificCharacterSet": "ISO_IR 100",
      "StudyID": "1",
      "StudyTime": "172852.606000",
      "TransmitCoilName": "Body",
      "VariableFlipAngleFlag": "N",
      "WindowCenterWidthExplanation": "Algo1",
      "dBdt": 0.0},
    "slices": {}
  },
  "time": {
    "samples": {
      "AcquisitionNumber": [1, 2, 3, 4, 5, 6, 7, 8, 9, 10, 11, 12, 13, 14, 15, 16, 17, 18, 19, 20, 21, 22, 23, 24, 25, 26, 27, 28, 29, 30, 31, 32, 33, 34, 35, 36, 37, 38, 39, 40, 41, 42, 43, 44, 45, 46, 47, 48, 49, 50, 51, 52, 53, 54, 55, 56, 57, 58, 59, 60, 61, 62, 63, 64, 65, 66, 67, 68, 69, 70, 71, 72, 73, 74, 75, 76, 77, 78, 79, 80, 81, 82, 83, 84, 85, 86, 87, 88, 89, 90, 91, 92, 93, 94, 95, 96, 97, 98, 99, 100, 101, 102, 103, 104, 105, 106, 107, 108, 109, 110, 111, 112, 113, 114, 115, 116, 117, 118, 119, 120, 121, 122, 123, 124, 125, 126, 127, 128, 129, 130, 131, 132, 133, 134, 135, 136, 137, 138, 139, 140, 141, 142, 143, 144, 145, 146, 147, 148, 149, 150, 151, 152, 153, 154, 155, 156, 157, 158, 159, 160, 161, 162, 163, 164, 165, 166, 167, 168, 169, 170, 171, 172, 173, 174, 175, 176, 177, 178, 179, 180, 181, 182, 183, 184, 185, 186, 187, 188, 189, 190],
      "AcquisitionTime": ["175428.285000", "175429.775000", "175431.265000", "175432.755000", "175434.245000", "175435.735000", "175437.225000", "175438.715000", "175440.205000", "175441.695000", "175443.185000", "175444.675000", "175446.165000", "175447.655000", "175449.145000", "175450.635000", "175452.125000", "175453.615000", "175455.105000", "175456.595000", "175458.085000", "175459.575000", "175501.065000", "175502.555000", "175504.045000", "175505.535000", "175507.025000", "175508.515000", "175510.005000", "175511.495000", "175512.985000", "175514.475000", "175515.965000", "175517.455000", "175518.945000", "175520.435000", "175521.925000", "175523.415000", "175524.905000", "175526.395000", "175527.885000", "175529.375000", "175530.865000", "175532.355000", "175533.845000", "175535.335000", "175536.825000", "175538.315000", "175539.805000", "175541.295000", "175542.785000", "175544.275000", "175545.765000", "175547.255000", "175548.745000", "175550.235000", "175551.725000", "175553.215000", "175554.705000", "175556.195000", "175557.685000", "175559.175000", "175600.665000", "175602.155000", "175603.645000", "175605.135000", "175606.625000", "175608.115000", "175609.605000", "175611.095000", "175612.585000", "175614.075000", "175615.565000", "175617.055000", "175618.545000", "175620.035000", "175621.525000", "175623.015000", "175624.505000", "175625.995000", "175627.485000", "175628.975000", "175630.465000", "175631.955000", "175633.445000", "175634.935000", "175636.425000", "175637.915000", "175639.405000", "175640.895000", "175642.385000", "175643.875000", "175645.365000", "175646.855000", "175648.345000", "175649.835000", "175651.325000", "175652.815000", "175654.305000", "175655.795000", "175657.285000", "175658.775000", "175700.265000", "175701.755000", "175703.245000", "175704.735000", "175706.225000", "175707.715000", "175709.205000", "175710.695000", "175712.185000", "175713.675000", "175715.165000", "175716.655000", "175718.145000", "175719.635000", "175721.125000", "175722.615000", "175724.105000", "175725.595000", "175727.085000", "175728.575000", "175730.065000", "175731.555000", "175733.045000", "175734.535000", "175736.025000", "175737.515000", "175739.005000", "175740.495000", "175741.985000", "175743.475000", "175744.965000", "175746.455000", "175747.945000", "175749.435000", "175750.925000", "175752.415000", "175753.905000", "175755.395000", "175756.885000", "175758.375000", "175759.865000", "175801.355000", "175802.845000", "175804.335000", "175805.825000", "175807.315000", "175808.805000", "175810.295000", "175811.785000", "175813.275000", "175814.765000", "175816.255000", "175817.745000", "175819.235000", "175820.725000", "175822.215000", "175823.705000", "175825.195000", "175826.685000", "175828.175000", "175829.665000", "175831.155000", "175832.645000", "175834.135000", "175835.625000", "175837.115000", "175838.605000", "175840.095000", "175841.585000", "175843.075000", "175844.565000", "175846.055000", "175847.545000", "175849.035000", "175850.525000", "175852.015000", "175853.505000", "175854.995000", "175856.485000", "175857.975000", "175859.465000", "175900.955000", "175902.445000", "175903.935000", "175905.425000", "175906.915000", "175908.405000", "175909.895000"],
      "ContentTime": ["175547.134000", "175547.139000", "175547.141000", "175547.144000", "175547.146000", "175547.149000", "175547.151000", "175547.153000", "175547.156000", "175547.158000", "175547.161000", "175547.163000", "175547.166000", "175547.168000", "175547.171000", "175547.173000", "175547.175000", "175547.178000", "175547.180000", "175547.183000", "175547.185000", "175547.188000", "175547.190000", "175547.193000", "175547.195000", "175547.198000", "175607.052000", "175607.054000", "175607.057000", "175607.059000", "175607.062000", "175607.064000", "175607.067000", "175607.069000", "175607.071000", "175607.074000", "175607.076000", "175607.079000", "175607.081000", "175607.084000", "175607.086000", "175607.089000", "175607.091000", "175607.094000", "175607.096000", "175607.098000", "175627.051000", "175627.053000", "175627.056000", "175627.058000", "175627.061000", "175627.063000", "175627.066000", "175627.068000", "175627.070000", "175627.073000", "175627.075000", "175627.078000", "175627.080000", "175627.083000", "175627.085000", "175627.088000", "175627.090000", "175627.093000", "175627.095000", "175627.103000", "175647.056000", "175647.059000", "175647.061000", "175647.064000", "175647.067000", "175647.070000", "175647.072000", "175647.074000", "175647.083000", "175647.085000", "175647.088000", "175647.090000", "175647.093000", "175647.095000", "175647.098000", "175647.100000", "175647.103000", "175647.124000", "175647.126000", "175647.129000", "175707.061000", "175707.064000", "175707.066000", "175707.069000", "175707.071000", "175707.073000", "175707.076000", "175707.078000", "175707.081000", "175707.083000", "175707.086000", "175707.088000", "175707.091000", "175707.093000", "175707.096000", "175707.098000", "175707.101000", "175707.103000", "175707.106000", "175707.108000", "175747.097000", "175747.100000", "175747.102000", "175747.104000", "175747.107000", "175747.109000", "175747.112000", "175747.114000", "175747.117000", "175747.119000", "175747.122000", "175747.124000", "175747.127000", "175747.129000", "175747.132000", "175747.134000", "175747.137000", "175747.139000", "175747.142000", "175747.144000", "175747.146000", "175747.149000", "175747.151000", "175747.154000", "175747.156000", "175747.159000", "175747.161000", "175827.121000", "175827.124000", "175827.126000", "175827.129000", "175827.131000", "175827.134000", "175827.136000", "175827.139000", "175827.141000", "175827.144000", "175827.146000", "175827.148000", "175827.151000", "175827.153000", "175827.156000", "175827.158000", "175827.161000", "175827.163000", "175827.166000", "175827.168000", "175827.171000", "175827.173000", "175827.175000", "175827.178000", "175827.180000", "175827.183000", "175907.107000", "175907.110000", "175907.112000", "175907.115000", "175907.117000", "175907.120000", "175907.123000", "175907.126000", "175907.128000", "175907.131000", "175907.133000", "175907.136000", "175907.138000", "175907.141000", "175907.143000", "175907.146000", "175907.148000", "175907.151000", "175907.153000", "175907.156000", "175907.158000", "175907.160000", "175907.163000", "175907.165000", "175907.168000", "175907.170000", "175907.187000", "175911.842000", "175911.845000", "175911.848000", "175911.850000"],
      "InstanceCreationTime": ["175547.134000", "175547.139000", "175547.141000", "175547.144000", "175547.146000", "175547.149000", "175547.151000", "175547.153000", "175547.156000", "175547.158000", "175547.161000", "175547.163000", "175547.166000", "175547.168000", "175547.171000", "175547.173000", "175547.175000", "175547.178000", "175547.180000", "175547.183000", "175547.185000", "175547.188000", "175547.190000", "175547.193000", "175547.195000", "175547.198000", "175607.052000", "175607.054000", "175607.057000", "175607.059000", "175607.062000", "175607.064000", "175607.067000", "175607.069000", "175607.071000", "175607.074000", "175607.076000", "175607.079000", "175607.081000", "175607.084000", "175607.086000", "175607.089000", "175607.091000", "175607.094000", "175607.096000", "175607.098000", "175627.051000", "175627.053000", "175627.056000", "175627.058000", "175627.061000", "175627.063000", "175627.066000", "175627.068000", "175627.070000", "175627.073000", "175627.075000", "175627.078000", "175627.080000", "175627.083000", "175627.085000", "175627.088000", "175627.090000", "175627.093000", "175627.095000", "175627.103000", "175647.056000", "175647.059000", "175647.061000", "175647.064000", "175647.067000", "175647.070000", "175647.072000", "175647.074000", "175647.083000", "175647.085000", "175647.088000", "175647.090000", "175647.093000", "175647.095000", "175647.098000", "175647.100000", "175647.103000", "175647.124000", "175647.126000", "175647.129000", "175707.061000", "175707.064000", "175707.066000", "175707.069000", "175707.071000", "175707.073000", "175707.076000", "175707.078000", "175707.081000", "175707.083000", "175707.086000", "175707.088000", "175707.091000", "175707.093000", "175707.096000", "175707.098000", "175707.101000", "175707.103000", "175707.106000", "175707.108000", "175747.097000", "175747.100000", "175747.102000", "175747.104000", "175747.107000", "175747.109000", "175747.112000", "175747.114000", "175747.117000", "175747.119000", "175747.122000", "175747.124000", "175747.127000", "175747.129000", "175747.132000", "175747.134000", "175747.137000", "175747.139000", "175747.142000", "175747.144000", "175747.146000", "175747.149000", "175747.151000", "175747.154000", "175747.156000", "175747.159000", "175747.161000", "175827.121000", "175827.124000", "175827.126000", "175827.129000", "175827.131000", "175827.134000", "175827.136000", "175827.139000", "175827.141000", "175827.144000", "175827.146000", "175827.148000", "175827.151000", "175827.153000", "175827.156000", "175827.158000", "175827.161000", "175827.163000", "175827.166000", "175827.168000", "175827.171000", "175827.173000", "175827.175000", "175827.178000", "175827.180000", "175827.183000", "175907.107000", "175907.110000", "175907.112000", "175907.115000", "175907.117000", "175907.120000", "175907.123000", "175907.126000", "175907.128000", "175907.131000", "175907.133000", "175907.136000", "175907.138000", "175907.141000", "175907.143000", "175907.146000", "175907.148000", "175907.151000", "175907.153000", "175907.156000", "175907.158000", "175907.160000", "175907.163000", "175907.165000", "175907.168000", "175907.170000", "175907.187000", "175911.842000", "175911.845000", "175911.848000", "175911.850000"],
      "InstanceNumber": [1, 2, 3, 4, 5, 6, 7, 8, 9, 10, 11, 12, 13, 14, 15, 16, 17, 18, 19, 20, 21, 22, 23, 24, 25, 26, 27, 28, 29, 30, 31, 32, 33, 34, 35, 36, 37, 38, 39, 40, 41, 42, 43, 44, 45, 46, 47, 48, 49, 50, 51, 52, 53, 54, 55, 56, 57, 58, 59, 60, 61, 62, 63, 64, 65, 66, 67, 68, 69, 70, 71, 72, 73, 74, 75, 76, 77, 78, 79, 80, 81, 82, 83, 84, 85, 86, 87, 88, 89, 90, 91, 92, 93, 94, 95, 96, 97, 98, 99, 100, 101, 102, 103, 104, 105, 106, 107, 108, 109, 110, 111, 112, 113, 114, 115, 116, 117, 118, 119, 120, 121, 122, 123, 124, 125, 126, 127, 128, 129, 130, 131, 132, 133, 134, 135, 136, 137, 138, 139, 140, 141, 142, 143, 144, 145, 146, 147, 148, 149, 150, 151, 152, 153, 154, 155, 156, 157, 158, 159, 160, 161, 162, 163, 164, 165, 166, 167, 168, 169, 170, 171, 172, 173, 174, 175, 176, 177, 178, 179, 180, 181, 182, 183, 184, 185, 186, 187, 188, 189, 190],
      "WindowCenter": [4820.0, 4824.0, 4822.0, 4822.0, 4820.0, 4818.0, 4822.0, 4820.0, 4820.0, 4822.0, 4820.0, 4820.0, 4820.0, 4824.0, 4822.0, 4820.0, 4822.0, 4816.0, 4818.0, 4820.0, 4820.0, 4818.0, 4820.0, 4820.0, 4818.0, 4824.0, 4820.0, 4822.0, 4820.0, 4822.0, 4824.0, 4818.0, 4820.0, 4816.0, 4814.0, 4818.0, 4816.0, 4816.0, 4816.0, 4816.0, 4816.0, 4792.0, 4814.0, 4788.0, 4788.0, 4812.0, 4790.0, 4792.0, 4814.0, 4790.0, 4788.0, 4788.0, 4786.0, 4814.0, 4814.0, 4812.0, 4806.0, 4792.0, 4814.0, 4788.0, 4790.0, 4790.0, 4810.0, 4788.0, 4812.0, 4812.0, 4786.0, 4814.0, 4790.0, 4788.0, 4816.0, 4790.0, 4788.0, 4788.0, 4814.0, 4790.0, 4786.0, 4790.0, 4794.0, 4816.0, 4812.0, 4790.0, 4790.0, 4788.0, 4790.0, 4788.0, 4812.0, 4812.0, 4790.0, 4818.0, 4812.0, 4788.0, 4790.0, 4790.0, 4790.0, 4792.0, 4788.0, 4790.0, 4792.0, 4790.0, 4812.0, 4788.0, 4788.0, 4816.0, 4814.0, 4816.0, 4814.0, 4792.0, 4814.0, 4812.0, 4788.0, 4810.0, 4812.0, 4792.0, 4794.0, 4814.0, 4816.0, 4790.0, 4788.0, 4812.0, 4786.0, 4788.0, 4788.0, 4788.0, 4814.0, 4792.0, 4818.0, 4818.0, 4792.0, 4814.0, 4812.0, 4812.0, 4812.0, 4812.0, 4794.0, 4820.0, 4814.0, 4816.0, 4816.0, 4794.0, 4814.0, 4816.0, 4814.0, 4816.0, 4794.0, 4816.0, 4814.0, 4818.0, 4816.0, 4816.0, 4812.0, 4788.0, 4792.0, 4792.0, 4816.0, 4814.0, 4790.0, 4788.0, 4788.0, 4786.0, 4792.0, 4792.0, 4792.0, 4816.0, 4812.0, 4816.0, 4814.0, 4816.0, 4812.0, 4816.0, 4814.0, 4818.0, 4816.0, 4816.0, 4788.0, 4792.0, 4790.0, 4814.0, 4790.0, 4814.0, 4794.0, 4816.0, 4816.0, 4790.0, 4788.0, 4814.0, 4790.0, 4790.0, 4792.0, 4788.0],
      "WindowWidth": [18584.0, 18582.0, 18582.0, 18592.0, 18578.0, 18584.0, 18586.0, 18578.0, 18582.0, 18586.0, 18584.0, 18578.0, 18582.0, 18584.0, 18586.0, 18580.0, 18584.0, 18580.0, 18582.0, 18586.0, 18582.0, 18580.0, 18584.0, 18584.0, 18580.0, 18586.0, 18580.0, 18582.0, 18586.0, 18584.0, 18586.0, 18580.0, 18588.0, 18586.0, 18582.0, 18584.0, 18590.0, 18592.0, 18586.0, 18586.0, 18592.0, 18556.0, 18588.0, 18558.0, 18558.0, 18586.0, 18564.0, 18562.0, 18592.0, 18564.0, 18560.0, 18556.0, 18562.0, 18594.0, 18590.0, 18592.0, 18592.0, 18560.0, 18590.0, 18566.0, 18560.0, 18562.0, 18592.0, 18564.0, 18594.0, 18594.0, 18564.0, 18594.0, 18564.0, 18562.0, 18594.0, 18564.0, 18562.0, 18566.0, 18596.0, 18562.0, 18556.0, 18566.0, 18568.0, 18600.0, 18596.0, 18556.0, 18558.0, 18564.0, 18560.0, 18554.0, 18588.0, 18590.0, 18556.0, 18594.0, 18590.0, 18562.0, 18560.0, 18558.0, 18556.0, 18564.0, 18564.0, 18558.0, 18560.0, 18558.0, 18596.0, 18560.0, 18568.0, 18592.0, 18590.0, 18592.0, 18592.0, 18560.0, 18588.0, 18596.0, 18562.0, 18594.0, 18592.0, 18560.0, 18558.0, 18590.0, 18588.0, 18560.0, 18566.0, 18594.0, 18560.0, 18564.0, 18568.0, 18562.0, 18598.0, 18564.0, 18592.0, 18590.0, 18560.0, 18588.0, 18586.0, 18584.0, 18592.0, 18590.0, 18552.0, 18590.0, 18588.0, 18584.0, 18586.0, 18558.0, 18584.0, 18592.0, 18588.0, 18588.0, 18556.0, 18588.0, 18592.0, 18586.0, 18590.0, 18594.0, 18590.0, 18564.0, 18560.0, 18558.0, 18590.0, 18590.0, 18560.0, 18562.0, 18562.0, 18562.0, 18564.0, 18562.0, 18560.0, 18592.0, 18592.0, 18590.0, 18590.0, 18586.0, 18590.0, 18586.0, 18590.0, 18592.0, 18590.0, 18588.0, 18558.0, 18564.0, 18562.0, 18592.0, 18558.0, 18588.0, 18560.0, 18590.0, 18596.0, 18560.0, 18560.0, 18592.0, 18562.0, 18564.0, 18566.0, 18558.0]
    },
    "slices": {}
  }
}