{
  "AcquisitionMatrixPE": 104,
  "AcquisitionNumber": 1,
  "AcquisitionTime": "18:07:18.587500",
  "BandwidthPerPixelPhaseEncode": 17.17,
  "BaseResolution": 104,
  "BodyPartExamined": "BRAIN",
  "CoilString": "HC1-7;NC1_2",
  "ConsistencyInfo": "N4_VE11C_LATEST_20160120",
  "ConversionSoftware": "dcm2niix",
  "ConversionSoftwareVersion": "v1.0.20190902",
  "DerivedVendorReportedEchoSpacing": 0.000560011,
  "DeviceSerialNumber": "167006",
  "DwellTime": 2.1e-06,
  "EchoTime": 0.037,
  "EchoTrainLength": 104,
  "EffectiveEchoSpacing": 0.000560011,
  "FlipAngle": 52,
  "ImageComments": "Unaliased_MB4_PE3_LB",
  "ImageOrientationPatientDICOM": [0.997024, 0.0217121, 0.073972, 0.00852682, 0.922576, -0.385721],
  "ImageType": [
    "ORIGINAL",
    "PRIMARY",
    "P",
    "MB",
    "ND",
    "MOSAIC"
],
  "ImagingFrequency": 123.259,
  "InPlanePhaseEncodingDirectionDICOM": "COL",
  "InstitutionAddress": "Chemin_Queen-Mary_4565_Montreal_District_CA_H3W_1W5",
  "InstitutionName": "IUGM",
  "InstitutionalDepartmentName": "Department",
  "MRAcquisitionType": "2D",
  "MagneticFieldStrength": 3,
  "Manufacturer": "Siemens",
  "ManufacturersModelName": "Prisma_fit",
  "Modality": "MR",
  "MultibandAccelerationFactor": 4,
  "PartialFourier": 1,
  "PatientPosition": "HFS",
  "PercentPhaseFOV": 100,
  "PhaseEncodingDirection": "j",
  "PhaseEncodingSteps": 104,
  "PhaseResolution": 1,
  "PixelBandwidth": 2290,
  "ProcedureStepDescription": "memory_things",
  "ProtocolName": "func_task-things_run-6",
  "PulseSequenceDetails": "%CustomerSeq%_cmrr_mbep2d_bold",
  "ReceiveCoilActiveElements": "HC1-7;NC1,2",
  "ReceiveCoilName": "HeadNeck_64",
  "ReconMatrixPE": 104,
  "RepetitionTime": 1.49,
  "SAR": 0.0611485,
  "ScanOptions": "FS",
  "ScanningSequence": "EP",
  "SequenceName": "epfid2d1_104",
  "SequenceVariant": "SK_SS",
  "SeriesDescription": "func_task-things_run-6",
  "SeriesNumber": 26,
  "ShimSetting": [640, -7185, -8815, 611, 91, 39, -61, 15],
  "SliceThickness": 2,
  "SliceTiming": [0, 0.7825, 0.0975, 0.8825, 0.195, 0.98, 0.295, 1.0775, 0.3925, 1.175, 0.49, 1.2725, 0.5875, 1.3725, 0.685, 0, 0.7825, 0.0975, 0.8825, 0.195, 0.98, 0.295, 1.0775, 0.3925, 1.175, 0.49, 1.2725, 0.5875, 1.3725, 0.685, 0, 0.7825, 0.0975, 0.8825, 0.195, 0.98, 0.295, 1.0775, 0.3925, 1.175, 0.49, 1.2725, 0.5875, 1.3725, 0.685, 0, 0.7825, 0.0975, 0.8825, 0.195, 0.98, 0.295, 1.0775, 0.3925, 1.175, 0.49, 1.2725, 0.5875, 1.3725, 0.685],
  "SoftwareVersions": "syngo_MR_E11",
  "SpacingBetweenSlices": 2,
  "StationName": "MRC35049",
  "TaskName": "things",
  "TotalReadoutTime": 0.0576811,
  "TxRefAmp": 296.276,
  "WipMemBlock": "28b1637d-654f-499b-875b-8fd2f3863123||Sequence: R016 ve11c/master r/e634e98; Dec 19 2017 11:00:25 by eja",
  "dcmmeta_affine": [
    [-1.9940478801727295, 0.017053641378879547, 0.1532392054796219, 103.0791244506836],
    [-0.04342421889305115, 1.845152497291565, -0.7704068422317505, -55.896446228027344],
    [0.14794397354125977, 0.7714412212371826, 1.8392908573150635, -68.5754623413086],
    [0.0, 0.0, 0.0, 1.0]
],
  "dcmmeta_reorient_transform": [
    [0.0, -1.0, 0.0, 103.0],
    [1.0, 0.0, 0.0, 0.0],
    [0.0, 0.0, 1.0, 0.0],
    [0.0, 0.0, 0.0, 1.0]
],
  "dcmmeta_shape": [104, 104, 60, 190],
  "dcmmeta_slice_dim": 2,
  "dcmmeta_version": 0.6,
  "global": {
    "const": {
      "AcquisitionMatrix": [104, 0, 0, 104],
      "AngioFlag": "N",
      "BitsAllocated": 16,
      "BitsStored": 16,
      "BodyPartExamined": "BRAIN",
      "Columns": 832,
      "EchoNumbers": 1,
      "EchoTime": 37.0,
      "EchoTrainLength": 104,
      "FlipAngle": 52.0,
      "HighBit": 15,
      "ImageOrientationPatient": [0.99702393623566, 0.02171210874041, 0.0739719873141, 0.00852682084959, 0.92257623280419, -0.3857206087196],
      "ImagePositionPatient": [-836.8766002348, -821.59616905549, 237.83597933691],
      "ImageType": [
        "ORIGINAL",
        "PRIMARY",
        "P",
        "MB",
        "ND",
        "MOSAIC"
],
      "ImagedNucleus": "1H",
      "ImagingFrequency": 123.258934,
      "InPlanePhaseEncodingDirection": "COL",
      "LargestImagePixelValue": 4095,
      "MRAcquisitionType": "2D",
      "MagneticFieldStrength": 3.0,
      "Manufacturer": "SIEMENS",
      "ManufacturerModelName": "Prisma_fit",
      "Modality": "MR",
      "NumberOfAverages": 1.0,
      "NumberOfPhaseEncodingSteps": 104,
      "PercentPhaseFieldOfView": 100.0,
      "PercentSampling": 100.0,
      "PerformedProcedureStepStartTime": "172852.753000",
      "PhotometricInterpretation": "MONOCHROME2",
      "PixelBandwidth": 2290.0,
      "PixelRepresentation": 0,
      "PixelSpacing": [2.0, 2.0],
      "ProtocolName": "func_task-things_run-6",
      "RepetitionTime": 1490.0,
      "RescaleIntercept": -4096.0,
      "RescaleSlope": 2.0,
      "RescaleType": "US",
      "Rows": 832,
      "SAR": 0.06114849773324,
      "SamplesPerPixel": 1,
      "ScanOptions": "FS",
      "ScanningSequence": "EP",
      "SequenceName": "epfid2d1_104",
      "SequenceVariant": [
        "SK",
        "SS"
],
      "SeriesDescription": "func_task-things_run-6",
      "SeriesNumber": 26,
      "SeriesTime": "180831.504000",
      "SliceLocation": -33.635727293889,
      "SliceThickness": 2.0,
      "SmallestImagePixelValue": 0,
      "SoftwareVersions": "syngo MR E11",
      "SpacingBetweenSlices": 1.999999938679,
      "SpecificCharacterSet": "ISO_IR 100",
      "StudyID": "1",
      "StudyTime": "172852.606000",
      "TransmitCoilName": "Body",
      "VariableFlipAngleFlag": "N",
      "WindowCenterWidthExplanation": "Algo1",
      "dBdt": 0.0},
    "slices": {}
  },
  "time": {
    "samples": {
      "AcquisitionNumber": [1, 2, 3, 4, 5, 6, 7, 8, 9, 10, 11, 12, 13, 14, 15, 16, 17, 18, 19, 20, 21, 22, 23, 24, 25, 26, 27, 28, 29, 30, 31, 32, 33, 34, 35, 36, 37, 38, 39, 40, 41, 42, 43, 44, 45, 46, 47, 48, 49, 50, 51, 52, 53, 54, 55, 56, 57, 58, 59, 60, 61, 62, 63, 64, 65, 66, 67, 68, 69, 70, 71, 72, 73, 74, 75, 76, 77, 78, 79, 80, 81, 82, 83, 84, 85, 86, 87, 88, 89, 90, 91, 92, 93, 94, 95, 96, 97, 98, 99, 100, 101, 102, 103, 104, 105, 106, 107, 108, 109, 110, 111, 112, 113, 114, 115, 116, 117, 118, 119, 120, 121, 122, 123, 124, 125, 126, 127, 128, 129, 130, 131, 132, 133, 134, 135, 136, 137, 138, 139, 140, 141, 142, 143, 144, 145, 146, 147, 148, 149, 150, 151, 152, 153, 154, 155, 156, 157, 158, 159, 160, 161, 162, 163, 164, 165, 166, 167, 168, 169, 170, 171, 172, 173, 174, 175, 176, 177, 178, 179, 180, 181, 182, 183, 184, 185, 186, 187, 188, 189, 190],
      "AcquisitionTime": ["180718.587500", "180720.077500", "180721.567500", "180723.057500", "180724.547500", "180726.037500", "180727.527500", "180729.017500", "180730.507500", "180731.997500", "180733.487500", "180734.977500", "180736.467500", "180737.957500", "180739.447500", "180740.937500", "180742.427500", "180743.917500", "180745.407500", "180746.897500", "180748.387500", "180749.877500", "180751.367500", "180752.857500", "180754.347500", "180755.837500", "180757.327500", "180758.817500", "180800.307500", "180801.797500", "180803.287500", "180804.777500", "180806.267500", "180807.757500", "180809.247500", "180810.737500", "180812.227500", "180813.717500", "180815.207500", "180816.697500", "180818.187500", "180819.677500", "180821.167500", "180822.657500", "180824.147500", "180825.637500", "180827.127500", "180828.617500", "180830.107500", "180831.597500", "180833.087500", "180834.577500", "180836.067500", "180837.557500", "180839.047500", "180840.537500", "180842.027500", "180843.517500", "180845.007500", "180846.497500", "180847.987500", "180849.477500", "180850.967500", "180852.457500", "180853.947500", "180855.437500", "180856.927500", "180858.417500", "180859.907500", "180901.397500", "180902.887500", "180904.377500", "180905.867500", "180907.357500", "180908.847500", "180910.337500", "180911.827500", "180913.317500", "180914.807500", "180916.297500", "180917.787500", "180919.277500", "180920.767500", "180922.257500", "180923.747500", "180925.237500", "180926.727500", "180928.217500", "180929.707500", "180931.197500", "180932.687500", "180934.177500", "180935.667500", "180937.157500", "180938.647500", "180940.137500", "180941.627500", "180943.117500", "180944.607500", "180946.097500", "180947.587500", "180949.077500", "180950.567500", "180952.057500", "180953.547500", "180955.037500", "180956.527500", "180958.017500", "180959.507500", "181000.997500", "181002.487500", "181003.977500", "181005.467500", "181006.957500", "181008.447500", "181009.937500", "181011.427500", "181012.917500", "181014.407500", "181015.897500", "181017.387500", "181018.877500", "181020.367500", "181021.857500", "181023.347500", "181024.837500", "181026.327500", "181027.817500", "181029.307500", "181030.797500", "181032.287500", "181033.777500", "181035.267500", "181036.757500", "181038.247500", "181039.737500", "181041.227500", "181042.717500", "181044.207500", "181045.697500", "181047.187500", "181048.677500", "181050.167500", "181051.657500", "181053.147500", "181054.637500", "181056.127500", "181057.617500", "181059.107500", "181100.597500", "181102.087500", "181103.577500", "181105.067500", "181106.557500", "181108.047500", "181109.537500", "181111.027500", "181112.517500", "181114.007500", "181115.497500", "181116.987500", "181118.477500", "181119.967500", "181121.457500", "181122.947500", "181124.437500", "181125.927500", "181127.417500", "181128.907500", "181130.397500", "181131.887500", "181133.377500", "181134.867500", "181136.357500", "181137.847500", "181139.337500", "181140.827500", "181142.317500", "181143.807500", "181145.297500", "181146.787500", "181148.277500", "181149.767500", "181151.257500", "181152.747500", "181154.237500", "181155.727500", "181157.217500", "181158.707500", "181200.197500"],
      "ContentTime": ["180831.506000", "180831.509000", "180831.511000", "180831.514000", "180831.516000", "180831.519000", "180831.521000", "180831.524000", "180831.526000", "180831.529000", "180831.531000", "180831.534000", "180831.536000", "180831.539000", "180831.541000", "180831.543000", "180831.546000", "180831.548000", "180831.551000", "180851.469000", "180851.471000", "180851.474000", "180851.476000", "180851.479000", "180851.481000", "180851.484000", "180851.486000", "180851.489000", "180851.491000", "180851.493000", "180851.496000", "180851.498000", "180851.501000", "180851.503000", "180851.506000", "180851.508000", "180851.511000", "180851.513000", "180851.516000", "180911.491000", "180911.493000", "180911.496000", "180911.498000", "180911.501000", "180911.503000", "180911.506000", "180911.508000", "180911.511000", "180911.513000", "180911.515000", "180911.518000", "180911.520000", "180911.523000", "180911.525000", "180911.528000", "180911.530000", "180911.533000", "180911.535000", "180911.538000", "180911.540000", "180931.467000", "180931.469000", "180931.472000", "180931.474000", "180931.477000", "180931.479000", "180931.482000", "180931.484000", "180931.487000", "180931.489000", "180931.492000", "180931.494000", "180931.497000", "180931.499000", "180931.502000", "180931.504000", "180931.507000", "180931.509000", "180931.512000", "180931.514000", "180951.466000", "180951.469000", "180951.471000", "180951.473000", "180951.476000", "180951.478000", "180951.481000", "180951.483000", "180951.486000", "180951.488000", "180951.491000", "180951.503000", "180951.506000", "180951.508000", "180951.511000", "180951.513000", "180951.516000", "180951.518000", "180951.520000", "180951.523000", "181031.492000", "181031.494000", "181031.497000", "181031.499000", "181031.509000", "181031.511000", "181031.514000", "181031.516000", "181031.519000", "181031.521000", "181031.523000", "181031.526000", "181031.528000", "181031.531000", "181031.533000", "181031.536000", "181031.538000", "181031.541000", "181031.543000", "181031.546000", "181031.548000", "181031.551000", "181031.553000", "181031.556000", "181031.558000", "181031.561000", "181031.563000", "181031.565000", "181031.568000", "181111.510000", "181111.513000", "181111.515000", "181111.518000", "181111.520000", "181111.523000", "181111.525000", "181111.528000", "181111.530000", "181111.532000", "181111.535000", "181111.537000", "181111.540000", "181111.542000", "181111.545000", "181111.547000", "181111.550000", "181111.552000", "181111.555000", "181111.557000", "181111.559000", "181111.562000", "181111.564000", "181111.567000", "181111.570000", "181111.572000", "181151.489000", "181151.492000", "181151.494000", "181151.498000", "181151.500000", "181151.503000", "181151.505000", "181151.508000", "181151.510000", "181151.513000", "181151.515000", "181151.518000", "181151.520000", "181151.523000", "181151.525000", "181151.527000", "181151.530000", "181151.532000", "181151.535000", "181151.537000", "181151.540000", "181151.542000", "181151.545000", "181151.547000", "181151.550000", "181151.552000", "181151.555000", "181202.207000", "181202.209000", "181202.212000", "181202.214000", "181202.217000", "181202.219000", "181202.222000", "181202.224000"],
      "InstanceCreationTime": ["180831.506000", "180831.509000", "180831.511000", "180831.514000", "180831.516000", "180831.519000", "180831.521000", "180831.524000", "180831.526000", "180831.529000", "180831.531000", "180831.534000", "180831.536000", "180831.539000", "180831.541000", "180831.543000", "180831.546000", "180831.548000", "180831.551000", "180851.469000", "180851.471000", "180851.474000", "180851.476000", "180851.479000", "180851.481000", "180851.484000", "180851.486000", "180851.489000", "180851.491000", "180851.493000", "180851.496000", "180851.498000", "180851.501000", "180851.503000", "180851.506000", "180851.508000", "180851.511000", "180851.513000", "180851.516000", "180911.491000", "180911.493000", "180911.496000", "180911.498000", "180911.501000", "180911.503000", "180911.506000", "180911.508000", "180911.511000", "180911.513000", "180911.515000", "180911.518000", "180911.520000", "180911.523000", "180911.525000", "180911.528000", "180911.530000", "180911.533000", "180911.535000", "180911.538000", "180911.540000", "180931.467000", "180931.469000", "180931.472000", "180931.474000", "180931.477000", "180931.479000", "180931.482000", "180931.484000", "180931.487000", "180931.489000", "180931.492000", "180931.494000", "180931.497000", "180931.499000", "180931.502000", "180931.504000", "180931.507000", "180931.509000", "180931.512000", "180931.514000", "180951.466000", "180951.469000", "180951.471000", "180951.473000", "180951.476000", "180951.478000", "180951.481000", "180951.483000", "180951.486000", "180951.488000", "180951.491000", "180951.503000", "180951.506000", "180951.508000", "180951.511000", "180951.513000", "180951.516000", "180951.518000", "180951.520000", "180951.523000", "181031.492000", "181031.494000", "181031.497000", "181031.499000", "181031.509000", "181031.511000", "181031.514000", "181031.516000", "181031.519000", "181031.521000", "181031.523000", "181031.526000", "181031.528000", "181031.531000", "181031.533000", "181031.536000", "181031.538000", "181031.541000", "181031.543000", "181031.546000", "181031.548000", "181031.551000", "181031.553000", "181031.556000", "181031.558000", "181031.561000", "181031.563000", "181031.565000", "181031.568000", "181111.510000", "181111.513000", "181111.515000", "181111.518000", "181111.520000", "181111.523000", "181111.525000", "181111.528000", "181111.530000", "181111.532000", "181111.535000", "181111.537000", "181111.540000", "181111.542000", "181111.545000", "181111.547000", "181111.550000", "181111.552000", "181111.555000", "181111.557000", "181111.559000", "181111.562000", "181111.564000", "181111.567000", "181111.570000", "181111.572000", "181151.489000", "181151.492000", "181151.494000", "181151.498000", "181151.500000", "181151.503000", "181151.505000", "181151.508000", "181151.510000", "181151.513000", "181151.515000", "181151.518000", "181151.520000", "181151.523000", "181151.525000", "181151.527000", "181151.530000", "181151.532000", "181151.535000", "181151.537000", "181151.540000", "181151.542000", "181151.545000", "181151.547000", "181151.550000", "181151.552000", "181151.555000", "181202.207000", "181202.209000", "181202.212000", "181202.214000", "181202.217000", "181202.219000", "181202.222000", "181202.224000"],
      "InstanceNumber": [1, 2, 3, 4, 5, 6, 7, 8, 9, 10, 11, 12, 13, 14, 15, 16, 17, 18, 19, 20, 21, 22, 23, 24, 25, 26, 27, 28, 29, 30, 31, 32, 33, 34, 35, 36, 37, 38, 39, 40, 41, 42, 43, 44, 45, 46, 47, 48, 49, 50, 51, 52, 53, 54, 55, 56, 57, 58, 59, 60, 61, 62, 63, 64, 65, 66, 67, 68, 69, 70, 71, 72, 73, 74, 75, 76, 77, 78, 79, 80, 81, 82, 83, 84, 85, 86, 87, 88, 89, 90, 91, 92, 93, 94, 95, 96, 97, 98, 99, 100, 101, 102, 103, 104, 105, 106, 107, 108, 109, 110, 111, 112, 113, 114, 115, 116, 117, 118, 119, 120, 121, 122, 123, 124, 125, 126, 127, 128, 129, 130, 131, 132, 133, 134, 135, 136, 137, 138, 139, 140, 141, 142, 143, 144, 145, 146, 147, 148, 149, 150, 151, 152, 153, 154, 155, 156, 157, 158, 159, 160, 161, 162, 163, 164, 165, 166, 167, 168, 169, 170, 171, 172, 173, 174, 175, 176, 177, 178, 179, 180, 181, 182, 183, 184, 185, 186, 187, 188, 189, 190],
      "WindowCenter": [4820.0, 4822.0, 4818.0, 4818.0, 4820.0, 4822.0, 4822.0, 4818.0, 4824.0, 4820.0, 4818.0, 4820.0, 4822.0, 4820.0, 4820.0, 4818.0, 4820.0, 4820.0, 4824.0, 4822.0, 4818.0, 4820.0, 4794.0, 4816.0, 4818.0, 4818.0, 4818.0, 4818.0, 4822.0, 4820.0, 4816.0, 4820.0, 4822.0, 4820.0, 4822.0, 4818.0, 4820.0, 4818.0, 4820.0, 4820.0, 4820.0, 4818.0, 4818.0, 4796.0, 4818.0, 4818.0, 4820.0, 4820.0, 4816.0, 4820.0, 4820.0, 4822.0, 4820.0, 4818.0, 4818.0, 4822.0, 4818.0, 4818.0, 4820.0, 4818.0, 4820.0, 4818.0, 4820.0, 4798.0, 4820.0, 4820.0, 4822.0, 4820.0, 4820.0, 4820.0, 4820.0, 4822.0, 4818.0, 4822.0, 4822.0, 4818.0, 4818.0, 4822.0, 4818.0, 4818.0, 4820.0, 4820.0, 4794.0, 4818.0, 4820.0, 4816.0, 4820.0, 4820.0, 4824.0, 4822.0, 4816.0, 4818.0, 4822.0, 4822.0, 4820.0, 4824.0, 4822.0, 4820.0, 4822.0, 4822.0, 4822.0, 4820.0, 4820.0, 4818.0, 4822.0, 4820.0, 4822.0, 4822.0, 4818.0, 4820.0, 4818.0, 4822.0, 4822.0, 4820.0, 4820.0, 4820.0, 4820.0, 4822.0, 4820.0, 4822.0, 4820.0, 4816.0, 4822.0, 4818.0, 4822.0, 4822.0, 4820.0, 4818.0, 4822.0, 4822.0, 4820.0, 4824.0, 4820.0, 4822.0, 4820.0, 4816.0, 4822.0, 4820.0, 4820.0, 4826.0, 4822.0, 4824.0, 4822.0, 4822.0, 4820.0, 4824.0, 4820.0, 4824.0, 4822.0, 4822.0, 4818.0, 4820.0, 4822.0, 4820.0, 4824.0, 4822.0, 4820.0, 4822.0, 4822.0, 4824.0, 4820.0, 4816.0, 4822.0, 4824.0, 4822.0, 4824.0, 4822.0, 4822.0, 4820.0, 4824.0, 4822.0, 4820.0, 4824.0, 4824.0, 4822.0, 4820.0, 4820.0, 4820.0, 4820.0, 4826.0, 4814.0, 4822.0, 4850.0, 4820.0, 4826.0, 4820.0, 4820.0, 4820.0, 4822.0, 4822.0],
      "WindowWidth": [18588.0, 18588.0, 18584.0, 18588.0, 18584.0, 18592.0, 18590.0, 18590.0, 18586.0, 18584.0, 18586.0, 18588.0, 18590.0, 18586.0, 18588.0, 18594.0, 18588.0, 18590.0, 18592.0, 18588.0, 18588.0, 18590.0, 18556.0, 18588.0, 18586.0, 18586.0, 18590.0, 18588.0, 18592.0, 18584.0, 18586.0, 18590.0, 18590.0, 18586.0, 18590.0, 18586.0, 18586.0, 18592.0, 18588.0, 18588.0, 18590.0, 18584.0, 18592.0, 18562.0, 18592.0, 18590.0, 18594.0, 18584.0, 18584.0, 18586.0, 18588.0, 18590.0, 18586.0, 18590.0, 18586.0, 18592.0, 18586.0, 18586.0, 18586.0, 18586.0, 18594.0, 18588.0, 18588.0, 18560.0, 18584.0, 18590.0, 18590.0, 18592.0, 18588.0, 18586.0, 18586.0, 18592.0, 18588.0, 18590.0, 18590.0, 18584.0, 18584.0, 18586.0, 18586.0, 18588.0, 18592.0, 18590.0, 18558.0, 18588.0, 18586.0, 18586.0, 18590.0, 18586.0, 18592.0, 18586.0, 18590.0, 18588.0, 18586.0, 18588.0, 18586.0, 18590.0, 18590.0, 18588.0, 18590.0, 18588.0, 18590.0, 18588.0, 18584.0, 18584.0, 18588.0, 18586.0, 18588.0, 18592.0, 18584.0, 18592.0, 18586.0, 18588.0, 18590.0, 18586.0, 18592.0, 18588.0, 18592.0, 18590.0, 18588.0, 18590.0, 18590.0, 18586.0, 18590.0, 18584.0, 18590.0, 18592.0, 18586.0, 18590.0, 18588.0, 18590.0, 18592.0, 18592.0, 18590.0, 18590.0, 18584.0, 18584.0, 18590.0, 18592.0, 18594.0, 18592.0, 18592.0, 18594.0, 18590.0, 18586.0, 18592.0, 18588.0, 18588.0, 18596.0, 18590.0, 18592.0, 18588.0, 18582.0, 18590.0, 18590.0, 18594.0, 18592.0, 18588.0, 18592.0, 18592.0, 18590.0, 18588.0, 18592.0, 18592.0, 18594.0, 18590.0, 18592.0, 18592.0, 18588.0, 18590.0, 18594.0, 18588.0, 18588.0, 18590.0, 18592.0, 18594.0, 18590.0, 18590.0, 18590.0, 18588.0, 18598.0, 18584.0, 18594.0, 18624.0, 18586.0, 18590.0, 18586.0, 18592.0, 18590.0, 18592.0, 18592.0]
    },
    "slices": {}
  }
}