{
  "AcquisitionMatrixPE": 104,
  "AcquisitionNumber": 1,
  "AcquisitionTime": "17:35:56.662500",
  "BandwidthPerPixelPhaseEncode": 17.17,
  "BaseResolution": 104,
  "BodyPartExamined": "BRAIN",
  "CoilString": "HC1-7;NC1_2",
  "ConsistencyInfo": "N4_VE11C_LATEST_20160120",
  "ConversionSoftware": "dcm2niix",
  "ConversionSoftwareVersion": "v1.0.20190902",
  "DerivedVendorReportedEchoSpacing": 0.000560011,
  "DeviceSerialNumber": "167006",
  "DwellTime": 2.1e-06,
  "EchoTime": 0.037,
  "EchoTrainLength": 104,
  "EffectiveEchoSpacing": 0.000560011,
  "FlipAngle": 52,
  "ImageComments": "Unaliased_MB4_PE3_LB",
  "ImageOrientationPatientDICOM": [0.997024, 0.0217121, 0.073972, 0.00852682, 0.922576, -0.385721],
  "ImageType": [
    "ORIGINAL",
    "PRIMARY",
    "M",
    "MB",
    "ND",
    "MOSAIC"
],
  "ImagingFrequency": 123.259,
  "InPlanePhaseEncodingDirectionDICOM": "COL",
  "InstitutionAddress": "Chemin_Queen-Mary_4565_Montreal_District_CA_H3W_1W5",
  "InstitutionName": "IUGM",
  "InstitutionalDepartmentName": "Department",
  "MRAcquisitionType": "2D",
  "MagneticFieldStrength": 3,
  "Manufacturer": "Siemens",
  "ManufacturersModelName": "Prisma_fit",
  "Modality": "MR",
  "MultibandAccelerationFactor": 4,
  "PartialFourier": 1,
  "PatientPosition": "HFS",
  "PercentPhaseFOV": 100,
  "PhaseEncodingDirection": "j",
  "PhaseEncodingSteps": 104,
  "PhaseResolution": 1,
  "PixelBandwidth": 2290,
  "ProcedureStepDescription": "memory_things",
  "ProtocolName": "func_task-things_run-1",
  "PulseSequenceDetails": "%CustomerSeq%_cmrr_mbep2d_bold",
  "ReceiveCoilActiveElements": "HC1-7;NC1,2",
  "ReceiveCoilName": "HeadNeck_64",
  "ReconMatrixPE": 104,
  "RepetitionTime": 1.49,
  "SAR": 0.0611485,
  "ScanOptions": "FS",
  "ScanningSequence": "EP",
  "SequenceName": "epfid2d1_104",
  "SequenceVariant": "SK_SS",
  "SeriesDescription": "func_task-things_run-1",
  "SeriesNumber": 10,
  "ShimSetting": [640, -7185, -8815, 611, 91, 39, -61, 15],
  "SliceThickness": 2,
  "SliceTiming": [0, 0.785, 0.1, 0.8825, 0.1975, 0.98, 0.295, 1.0775, 0.3925, 1.1775, 0.49, 1.275, 0.5875, 1.3725, 0.6875, 0, 0.785, 0.1, 0.8825, 0.1975, 0.98, 0.295, 1.0775, 0.3925, 1.1775, 0.49, 1.275, 0.5875, 1.3725, 0.6875, 0, 0.785, 0.1, 0.8825, 0.1975, 0.98, 0.295, 1.0775, 0.3925, 1.1775, 0.49, 1.275, 0.5875, 1.3725, 0.6875, 0, 0.785, 0.1, 0.8825, 0.1975, 0.98, 0.295, 1.0775, 0.3925, 1.1775, 0.49, 1.275, 0.5875, 1.3725, 0.6875],
  "SoftwareVersions": "syngo_MR_E11",
  "SpacingBetweenSlices": 2,
  "StationName": "MRC35049",
  "TaskName": "things",
  "TotalReadoutTime": 0.0576811,
  "TxRefAmp": 296.276,
  "WipMemBlock": "bfc901bb-bdbb-4695-bbbe-fdca297961e9||Sequence: R016 ve11c/master r/e634e98; Dec 19 2017 11:00:25 by eja",
  "dcmmeta_affine": [
    [-1.9940478801727295, 0.017053641378879547, 0.1532392054796219, 103.0791244506836],
    [-0.04342421889305115, 1.845152497291565, -0.7704068422317505, -55.896446228027344],
    [0.14794397354125977, 0.7714412212371826, 1.8392908573150635, -68.5754623413086],
    [0.0, 0.0, 0.0, 1.0]
],
  "dcmmeta_reorient_transform": [
    [0.0, -1.0, 0.0, 103.0],
    [1.0, 0.0, 0.0, 0.0],
    [0.0, 0.0, 1.0, 0.0],
    [0.0, 0.0, 0.0, 1.0]
],
  "dcmmeta_shape": [104, 104, 60, 190],
  "dcmmeta_slice_dim": 2,
  "dcmmeta_version": 0.6,
  "global": {
    "const": {
      "AcquisitionMatrix": [104, 0, 0, 104],
      "AngioFlag": "N",
      "BitsAllocated": 16,
      "BitsStored": 16,
      "BodyPartExamined": "BRAIN",
      "Columns": 832,
      "EchoNumbers": 1,
      "EchoTime": 37.0,
      "EchoTrainLength": 104,
      "FlipAngle": 52.0,
      "HighBit": 15,
      "ImageOrientationPatient": [0.99702393623566, 0.02171210874041, 0.0739719873141, 0.00852682084959, 0.92257623280419, -0.3857206087196],
      "ImagePositionPatient": [-836.8766002348, -821.59616905549, 237.83597933691],
      "ImageType": [
        "ORIGINAL",
        "PRIMARY",
        "M",
        "MB",
        "ND",
        "MOSAIC"
],
      "ImagedNucleus": "1H",
      "ImagingFrequency": 123.258919,
      "InPlanePhaseEncodingDirection": "COL",
      "MRAcquisitionType": "2D",
      "MagneticFieldStrength": 3.0,
      "Manufacturer": "SIEMENS",
      "ManufacturerModelName": "Prisma_fit",
      "Modality": "MR",
      "NumberOfAverages": 1.0,
      "NumberOfPhaseEncodingSteps": 104,
      "PercentPhaseFieldOfView": 100.0,
      "PercentSampling": 100.0,
      "PerformedProcedureStepStartTime": "172852.753000",
      "PhotometricInterpretation": "MONOCHROME2",
      "PixelBandwidth": 2290.0,
      "PixelRepresentation": 0,
      "PixelSpacing": [2.0, 2.0],
      "ProtocolName": "func_task-things_run-1",
      "RepetitionTime": 1490.0,
      "Rows": 832,
      "SAR": 0.06114849773324,
      "SamplesPerPixel": 1,
      "ScanOptions": "FS",
      "ScanningSequence": "EP",
      "SequenceName": "epfid2d1_104",
      "SequenceVariant": [
        "SK",
        "SS"
],
      "SeriesDescription": "func_task-things_run-1",
      "SeriesNumber": 10,
      "SeriesTime": "173706.985000",
      "SliceLocation": -33.635727293889,
      "SliceThickness": 2.0,
      "SmallestImagePixelValue": 0,
      "SoftwareVersions": "syngo MR E11",
      "SpacingBetweenSlices": 1.999999938679,
      "SpecificCharacterSet": "ISO_IR 100",
      "StudyID": "1",
      "StudyTime": "172852.606000",
      "TransmitCoilName": "Body",
      "VariableFlipAngleFlag": "N",
      "WindowCenterWidthExplanation": "Algo1",
      "dBdt": 0.0},
    "slices": {}
  },
  "time": {
    "samples": {
      "AcquisitionNumber": [1, 2, 3, 4, 5, 6, 7, 8, 9, 10, 11, 12, 13, 14, 15, 16, 17, 18, 19, 20, 21, 22, 23, 24, 25, 26, 27, 28, 29, 30, 31, 32, 33, 34, 35, 36, 37, 38, 39, 40, 41, 42, 43, 44, 45, 46, 47, 48, 49, 50, 51, 52, 53, 54, 55, 56, 57, 58, 59, 60, 61, 62, 63, 64, 65, 66, 67, 68, 69, 70, 71, 72, 73, 74, 75, 76, 77, 78, 79, 80, 81, 82, 83, 84, 85, 86, 87, 88, 89, 90, 91, 92, 93, 94, 95, 96, 97, 98, 99, 100, 101, 102, 103, 104, 105, 106, 107, 108, 109, 110, 111, 112, 113, 114, 115, 116, 117, 118, 119, 120, 121, 122, 123, 124, 125, 126, 127, 128, 129, 130, 131, 132, 133, 134, 135, 136, 137, 138, 139, 140, 141, 142, 143, 144, 145, 146, 147, 148, 149, 150, 151, 152, 153, 154, 155, 156, 157, 158, 159, 160, 161, 162, 163, 164, 165, 166, 167, 168, 169, 170, 171, 172, 173, 174, 175, 176, 177, 178, 179, 180, 181, 182, 183, 184, 185, 186, 187, 188, 189, 190],
      "AcquisitionTime": ["173556.662500", "173558.152500", "173559.642500", "173601.132500", "173602.622500", "173604.112500", "173605.602500", "173607.092500", "173608.582500", "173610.072500", "173611.562500", "173613.052500", "173614.542500", "173616.032500", "173617.522500", "173619.012500", "173620.502500", "173621.992500", "173623.482500", "173624.972500", "173626.462500", "173627.952500", "173629.442500", "173630.932500", "173632.422500", "173633.912500", "173635.402500", "173636.892500", "173638.382500", "173639.872500", "173641.362500", "173642.852500", "173644.342500", "173645.832500", "173647.322500", "173648.812500", "173650.302500", "173651.792500", "173653.282500", "173654.772500", "173656.262500", "173657.752500", "173659.242500", "173700.732500", "173702.222500", "173703.712500", "173705.202500", "173706.692500", "173708.182500", "173709.672500", "173711.162500", "173712.652500", "173714.142500", "173715.632500", "173717.122500", "173718.612500", "173720.102500", "173721.592500", "173723.082500", "173724.572500", "173726.062500", "173727.552500", "173729.042500", "173730.532500", "173732.022500", "173733.512500", "173735.002500", "173736.492500", "173737.982500", "173739.472500", "173740.962500", "173742.452500", "173743.942500", "173745.432500", "173746.922500", "173748.412500", "173749.902500", "173751.392500", "173752.882500", "173754.372500", "173755.862500", "173757.352500", "173758.842500", "173800.332500", "173801.822500", "173803.312500", "173804.802500", "173806.292500", "173807.782500", "173809.272500", "173810.762500", "173812.252500", "173813.742500", "173815.232500", "173816.722500", "173818.212500", "173819.702500", "173821.192500", "173822.682500", "173824.172500", "173825.662500", "173827.152500", "173828.642500", "173830.132500", "173831.622500", "173833.112500", "173834.602500", "173836.092500", "173837.582500", "173839.072500", "173840.562500", "173842.052500", "173843.542500", "173845.032500", "173846.522500", "173848.012500", "173849.502500", "173850.992500", "173852.482500", "173853.972500", "173855.462500", "173856.952500", "173858.442500", "173859.932500", "173901.422500", "173902.912500", "173904.402500", "173905.892500", "173907.382500", "173908.872500", "173910.362500", "173911.852500", "173913.342500", "173914.832500", "173916.322500", "173917.812500", "173919.302500", "173920.792500", "173922.282500", "173923.772500", "173925.262500", "173926.752500", "173928.242500", "173929.732500", "173931.222500", "173932.712500", "173934.202500", "173935.692500", "173937.182500", "173938.672500", "173940.162500", "173941.652500", "173943.142500", "173944.632500", "173946.122500", "173947.612500", "173949.102500", "173950.592500", "173952.082500", "173953.572500", "173955.062500", "173956.552500", "173958.042500", "173959.532500", "174001.022500", "174002.512500", "174004.002500", "174005.492500", "174006.982500", "174008.472500", "174009.962500", "174011.452500", "174012.942500", "174014.432500", "174015.922500", "174017.412500", "174018.902500", "174020.392500", "174021.882500", "174023.372500", "174024.862500", "174026.352500", "174027.842500", "174029.332500", "174030.822500", "174032.312500", "174033.802500", "174035.292500", "174036.782500", "174038.272500"],
      "ContentTime": ["173706.988000", "173706.992000", "173706.996000", "173707.000000", "173707.003000", "173707.011000", "173707.014000", "173707.017000", "173707.021000", "173707.024000", "173707.027000", "173707.030000", "173707.034000", "173707.037000", "173707.046000", "173707.049000", "173746.952000", "173746.956000", "173746.959000", "173746.963000", "173746.966000", "173746.969000", "173746.972000", "173746.976000", "173746.979000", "173746.982000", "173746.986000", "173746.989000", "173747.003000", "173747.006000", "173747.009000", "173747.013000", "173747.016000", "173747.019000", "173747.022000", "173747.026000", "173747.029000", "173747.032000", "173747.036000", "173747.039000", "173747.042000", "173747.046000", "173747.049000", "173747.052000", "173747.056000", "173747.059000", "173747.062000", "173747.065000", "173747.069000", "173747.072000", "173747.075000", "173747.079000", "173747.082000", "173747.085000", "173747.088000", "173747.092000", "173806.952000", "173806.956000", "173806.959000", "173806.963000", "173806.966000", "173806.969000", "173806.972000", "173806.976000", "173806.979000", "173806.997000", "173807.001000", "173807.004000", "173807.008000", "173807.011000", "173807.014000", "173807.018000", "173807.021000", "173807.024000", "173807.027000", "173807.031000", "173826.953000", "173826.957000", "173826.960000", "173826.964000", "173826.967000", "173826.971000", "173826.974000", "173826.977000", "173826.981000", "173826.984000", "173826.987000", "173826.991000", "173826.994000", "173826.997000", "173827.001000", "173827.005000", "173827.008000", "173827.011000", "173827.015000", "173827.018000", "173906.953000", "173906.957000", "173906.960000", "173906.964000", "173906.967000", "173906.970000", "173906.974000", "173906.977000", "173906.980000", "173906.984000", "173906.987000", "173906.990000", "173906.993000", "173906.997000", "173907.001000", "173907.004000", "173907.008000", "173907.011000", "173907.014000", "173907.018000", "173907.021000", "173907.024000", "173907.028000", "173907.031000", "173907.034000", "173907.038000", "173907.041000", "173907.044000", "173907.048000", "173907.051000", "173907.054000", "173946.952000", "173946.956000", "173946.959000", "173946.963000", "173946.966000", "173946.969000", "173946.973000", "173946.976000", "173946.979000", "173946.983000", "173946.986000", "173946.989000", "173946.992000", "173946.996000", "173947.000000", "173947.003000", "173947.007000", "173947.010000", "173947.013000", "173947.016000", "173947.020000", "173947.023000", "173947.026000", "173947.030000", "173947.033000", "173947.036000", "173947.039000", "174026.952000", "174026.956000", "174026.959000", "174026.962000", "174026.966000", "174026.969000", "174026.972000", "174026.976000", "174026.989000", "174026.992000", "174026.995000", "174026.998000", "174027.003000", "174027.006000", "174027.009000", "174027.013000", "174027.016000", "174027.019000", "174027.022000", "174027.026000", "174027.029000", "174027.032000", "174027.036000", "174027.039000", "174027.042000", "174027.045000", "174027.049000", "174040.211000", "174040.215000", "174040.218000", "174040.222000", "174040.225000", "174040.229000", "174040.233000", "174040.236000", "174040.239000"],
      "InstanceCreationTime": ["173706.988000", "173706.992000", "173706.996000", "173707.000000", "173707.003000", "173707.011000", "173707.014000", "173707.017000", "173707.021000", "173707.024000", "173707.027000", "173707.030000", "173707.034000", "173707.037000", "173707.046000", "173707.049000", "173746.952000", "173746.956000", "173746.959000", "173746.963000", "173746.966000", "173746.969000", "173746.972000", "173746.976000", "173746.979000", "173746.982000", "173746.986000", "173746.989000", "173747.003000", "173747.006000", "173747.009000", "173747.013000", "173747.016000", "173747.019000", "173747.022000", "173747.026000", "173747.029000", "173747.032000", "173747.036000", "173747.039000", "173747.042000", "173747.046000", "173747.049000", "173747.052000", "173747.056000", "173747.059000", "173747.062000", "173747.065000", "173747.069000", "173747.072000", "173747.075000", "173747.079000", "173747.082000", "173747.085000", "173747.088000", "173747.092000", "173806.952000", "173806.956000", "173806.959000", "173806.963000", "173806.966000", "173806.969000", "173806.972000", "173806.976000", "173806.979000", "173806.997000", "173807.001000", "173807.004000", "173807.008000", "173807.011000", "173807.014000", "173807.018000", "173807.021000", "173807.024000", "173807.027000", "173807.031000", "173826.953000", "173826.957000", "173826.960000", "173826.964000", "173826.967000", "173826.971000", "173826.974000", "173826.977000", "173826.981000", "173826.984000", "173826.987000", "173826.991000", "173826.994000", "173826.997000", "173827.001000", "173827.005000", "173827.008000", "173827.011000", "173827.015000", "173827.018000", "173906.953000", "173906.957000", "173906.960000", "173906.964000", "173906.967000", "173906.970000", "173906.974000", "173906.977000", "173906.980000", "173906.984000", "173906.987000", "173906.990000", "173906.993000", "173906.997000", "173907.001000", "173907.004000", "173907.008000", "173907.011000", "173907.014000", "173907.018000", "173907.021000", "173907.024000", "173907.028000", "173907.031000", "173907.034000", "173907.038000", "173907.041000", "173907.044000", "173907.048000", "173907.051000", "173907.054000", "173946.952000", "173946.956000", "173946.959000", "173946.963000", "173946.966000", "173946.969000", "173946.973000", "173946.976000", "173946.979000", "173946.983000", "173946.986000", "173946.989000", "173946.992000", "173946.996000", "173947.000000", "173947.003000", "173947.007000", "173947.010000", "173947.013000", "173947.016000", "173947.020000", "173947.023000", "173947.026000", "173947.030000", "173947.033000", "173947.036000", "173947.039000", "174026.952000", "174026.956000", "174026.959000", "174026.962000", "174026.966000", "174026.969000", "174026.972000", "174026.976000", "174026.989000", "174026.992000", "174026.995000", "174026.998000", "174027.003000", "174027.006000", "174027.009000", "174027.013000", "174027.016000", "174027.019000", "174027.022000", "174027.026000", "174027.029000", "174027.032000", "174027.036000", "174027.039000", "174027.042000", "174027.045000", "174027.049000", "174040.211000", "174040.215000", "174040.218000", "174040.222000", "174040.225000", "174040.229000", "174040.233000", "174040.236000", "174040.239000"],
      "InstanceNumber": [1, 2, 3, 4, 5, 6, 7, 8, 9, 10, 11, 12, 13, 14, 15, 16, 17, 18, 19, 20, 21, 22, 23, 24, 25, 26, 27, 28, 29, 30, 31, 32, 33, 34, 35, 36, 37, 38, 39, 40, 41, 42, 43, 44, 45, 46, 47, 48, 49, 50, 51, 52, 53, 54, 55, 56, 57, 58, 59, 60, 61, 62, 63, 64, 65, 66, 67, 68, 69, 70, 71, 72, 73, 74, 75, 76, 77, 78, 79, 80, 81, 82, 83, 84, 85, 86, 87, 88, 89, 90, 91, 92, 93, 94, 95, 96, 97, 98, 99, 100, 101, 102, 103, 104, 105, 106, 107, 108, 109, 110, 111, 112, 113, 114, 115, 116, 117, 118, 119, 120, 121, 122, 123, 124, 125, 126, 127, 128, 129, 130, 131, 132, 133, 134, 135, 136, 137, 138, 139, 140, 141, 142, 143, 144, 145, 146, 147, 148, 149, 150, 151, 152, 153, 154, 155, 156, 157, 158, 159, 160, 161, 162, 163, 164, 165, 166, 167, 168, 169, 170, 171, 172, 173, 174, 175, 176, 177, 178, 179, 180, 181, 182, 183, 184, 185, 186, 187, 188, 189, 190],
      "LargestImagePixelValue": [42300, 41870, 41300, 40639, 40312, 39963, 40734, 39965, 38797, 39252, 38028, 38433, 38894, 37543, 37987, 39048, 42580, 38335, 39161, 38465, 38398, 38193, 38917, 38625, 38934, 42719, 38923, 44491, 38927, 39105, 38718, 38679, 38843, 38003, 38892, 38998, 38638, 38981, 39375, 38701, 43370, 38889, 40041, 39171, 38675, 38487, 44487, 39166, 41529, 38592, 38320, 40277, 45436, 42962, 40580, 39216, 39252, 39259, 38835, 39082, 37992, 38171, 38574, 39169, 38858, 37401, 47091, 38604, 39434, 38237, 40000, 39232, 38315, 40215, 41659, 42588, 41600, 40644, 39584, 39654, 39284, 42444, 39324, 38507, 39316, 39637, 40311, 39473, 40133, 39862, 42512, 42312, 38502, 38498, 39017, 38237, 39143, 38614, 38235, 38893, 40443, 41755, 39804, 42022, 39798, 41051, 39923, 40485, 39520, 40418, 44364, 40188, 39934, 42222, 40671, 40813, 43856, 41126, 45049, 40695, 40402, 40956, 39954, 39814, 41399, 39773, 39275, 40389, 39477, 40240, 39974, 40563, 41582, 40533, 40719, 40658, 40710, 41265, 39313, 39949, 40865, 40783, 40059, 41157, 41274, 40688, 44271, 40474, 40601, 40384, 40153, 40919, 40341, 40873, 47795, 38245, 37842, 39086, 38695, 39647, 39945, 39172, 39296, 39780, 40495, 41616, 42136, 39573, 39625, 40307, 43233, 40193, 41820, 39731, 40402, 40618, 40245, 39703, 40295, 41597, 39497, 39412, 40246, 40713, 39807, 40488, 40435, 40076, 39808, 40440],
      "WindowCenter": [10575.0, 10525.0, 10490.0, 10466.0, 10472.0, 10488.0, 10499.0, 10508.0, 10487.0, 10477.0, 10463.0, 10462.0, 10482.0, 10473.0, 10470.0, 10480.0, 10518.0, 10473.0, 10480.0, 10482.0, 10492.0, 10479.0, 10506.0, 10501.0, 10498.0, 10546.0, 10509.0, 10562.0, 10519.0, 10519.0, 10513.0, 10504.0, 10494.0, 10481.0, 10491.0, 10514.0, 10506.0, 10507.0, 10514.0, 10499.0, 10552.0, 10508.0, 10520.0, 10515.0, 10520.0, 10511.0, 10575.0, 10517.0, 10527.0, 10495.0, 10492.0, 10509.0, 10545.0, 10533.0, 10502.0, 10488.0, 10501.0, 10525.0, 10509.0, 10444.0, 10457.0, 10506.0, 10514.0, 10519.0, 10495.0, 10470.0, 10529.0, 10432.0, 10431.0, 10434.0, 10478.0, 10483.0, 10462.0, 10461.0, 10453.0, 10434.0, 10438.0, 10433.0, 10431.0, 10442.0, 10452.0, 10497.0, 10462.0, 10439.0, 10448.0, 10463.0, 10476.0, 10470.0, 10473.0, 10462.0, 10504.0, 10491.0, 10438.0, 10454.0, 10486.0, 10492.0, 10513.0, 10495.0, 10471.0, 10472.0, 10483.0, 10462.0, 10476.0, 10522.0, 10520.0, 10523.0, 10493.0, 10486.0, 10465.0, 10486.0, 10535.0, 10494.0, 10488.0, 10482.0, 10461.0, 10480.0, 10516.0, 10514.0, 10541.0, 10510.0, 10502.0, 10505.0, 10485.0, 10462.0, 10470.0, 10451.0, 10453.0, 10464.0, 10462.0, 10472.0, 10461.0, 10438.0, 10455.0, 10468.0, 10476.0, 10471.0, 10473.0, 10458.0, 10403.0, 10420.0, 10433.0, 10468.0, 10487.0, 10497.0, 10489.0, 10440.0, 10465.0, 10422.0, 10425.0, 10441.0, 10463.0, 10487.0, 10478.0, 10445.0, 10387.0, 10414.0, 10409.0, 10454.0, 10456.0, 10452.0, 10447.0, 10407.0, 10404.0, 10439.0, 10471.0, 10472.0, 10449.0, 10412.0, 10411.0, 10433.0, 10486.0, 10464.0, 10461.0, 10396.0, 10391.0, 10386.0, 10411.0, 10429.0, 10454.0, 10455.0, 10393.0, 10371.0, 10370.0, 10383.0, 10396.0, 10439.0, 10448.0, 10422.0, 10372.0, 10373.0],
      "WindowWidth": [22515.0, 22382.0, 22290.0, 22229.0, 22239.0, 22275.0, 22303.0, 22326.0, 22285.0, 22255.0, 22230.0, 22230.0, 22274.0, 22254.0, 22244.0, 22264.0, 22342.0, 22249.0, 22263.0, 22272.0, 22295.0, 22269.0, 22327.0, 22318.0, 22308.0, 22413.0, 22335.0, 22443.0, 22362.0, 22361.0, 22348.0, 22328.0, 22303.0, 22275.0, 22293.0, 22342.0, 22331.0, 22327.0, 22342.0, 22314.0, 22420.0, 22334.0, 22361.0, 22351.0, 22364.0, 22344.0, 22470.0, 22355.0, 22367.0, 22307.0, 22297.0, 22331.0, 22404.0, 22381.0, 22311.0, 22284.0, 22310.0, 22362.0, 22332.0, 22169.0, 22204.0, 22328.0, 22346.0, 22356.0, 22299.0, 22247.0, 22353.0, 22145.0, 22141.0, 22158.0, 22252.0, 22270.0, 22220.0, 22204.0, 22184.0, 22138.0, 22155.0, 22143.0, 22150.0, 22173.0, 22193.0, 22290.0, 22223.0, 22172.0, 22187.0, 22223.0, 22247.0, 22245.0, 22237.0, 22216.0, 22305.0, 22282.0, 22171.0, 22205.0, 22276.0, 22294.0, 22339.0, 22304.0, 22247.0, 22244.0, 22275.0, 22223.0, 22252.0, 22357.0, 22359.0, 22368.0, 22290.0, 22268.0, 22225.0, 22277.0, 22376.0, 22291.0, 22282.0, 22255.0, 22205.0, 22252.0, 22335.0, 22337.0, 22392.0, 22325.0, 22307.0, 22313.0, 22268.0, 22216.0, 22234.0, 22192.0, 22194.0, 22219.0, 22219.0, 22239.0, 22215.0, 22165.0, 22198.0, 22227.0, 22244.0, 22235.0, 22243.0, 22207.0, 22083.0, 22107.0, 22137.0, 22222.0, 22275.0, 22286.0, 22269.0, 22156.0, 22211.0, 22124.0, 22123.0, 22161.0, 22212.0, 22266.0, 22254.0, 22161.0, 22017.0, 22106.0, 22100.0, 22205.0, 22202.0, 22195.0, 22181.0, 22081.0, 22077.0, 22166.0, 22237.0, 22232.0, 22175.0, 22092.0, 22091.0, 22146.0, 22264.0, 22217.0, 22205.0, 22060.0, 22040.0, 22027.0, 22092.0, 22139.0, 22190.0, 22192.0, 22057.0, 22001.0, 21995.0, 22015.0, 22059.0, 22156.0, 22184.0, 22123.0, 22000.0, 22003.0]
    },
    "slices": {}
  }
}