{
  "AcquisitionMatrixPE": 104,
  "AcquisitionNumber": 1,
  "AcquisitionTime": "18:00:12.890000",
  "BandwidthPerPixelPhaseEncode": 17.17,
  "BaseResolution": 104,
  "BodyPartExamined": "BRAIN",
  "CoilString": "HC1-7;NC1_2",
  "ConsistencyInfo": "N4_VE11C_LATEST_20160120",
  "ConversionSoftware": "dcm2niix",
  "ConversionSoftwareVersion": "v1.0.20190902",
  "DerivedVendorReportedEchoSpacing": 0.000560011,
  "DeviceSerialNumber": "167006",
  "DwellTime": 2.1e-06,
  "EchoTime": 0.037,
  "EchoTrainLength": 104,
  "EffectiveEchoSpacing": 0.000560011,
  "FlipAngle": 52,
  "ImageComments": "Unaliased_MB4_PE3_LB",
  "ImageOrientationPatientDICOM": [0.997024, 0.0217121, 0.073972, 0.00852682, 0.922576, -0.385721],
  "ImageType": [
    "ORIGINAL",
    "PRIMARY",
    "P",
    "MB",
    "ND",
    "MOSAIC"
],
  "ImagingFrequency": 123.259,
  "InPlanePhaseEncodingDirectionDICOM": "COL",
  "InstitutionAddress": "Chemin_Queen-Mary_4565_Montreal_District_CA_H3W_1W5",
  "InstitutionName": "IUGM",
  "InstitutionalDepartmentName": "Department",
  "MRAcquisitionType": "2D",
  "MagneticFieldStrength": 3,
  "Manufacturer": "Siemens",
  "ManufacturersModelName": "Prisma_fit",
  "Modality": "MR",
  "MultibandAccelerationFactor": 4,
  "PartialFourier": 1,
  "PatientPosition": "HFS",
  "PercentPhaseFOV": 100,
  "PhaseEncodingDirection": "j",
  "PhaseEncodingSteps": 104,
  "PhaseResolution": 1,
  "PixelBandwidth": 2290,
  "ProcedureStepDescription": "memory_things",
  "ProtocolName": "func_task-things_run-5",
  "PulseSequenceDetails": "%CustomerSeq%_cmrr_mbep2d_bold",
  "ReceiveCoilActiveElements": "HC1-7;NC1,2",
  "ReceiveCoilName": "HeadNeck_64",
  "ReconMatrixPE": 104,
  "RepetitionTime": 1.49,
  "SAR": 0.0611485,
  "ScanOptions": "FS",
  "ScanningSequence": "EP",
  "SequenceName": "epfid2d1_104",
  "SequenceVariant": "SK_SS",
  "SeriesDescription": "func_task-things_run-5",
  "SeriesNumber": 23,
  "ShimSetting": [640, -7185, -8815, 611, 91, 39, -61, 15],
  "SliceThickness": 2,
  "SliceTiming": [0, 0.7825, 0.0975, 0.8825, 0.195, 0.98, 0.2925, 1.0775, 0.3925, 1.175, 0.49, 1.2725, 0.5875, 1.3725, 0.685, 0, 0.7825, 0.0975, 0.8825, 0.195, 0.98, 0.2925, 1.0775, 0.3925, 1.175, 0.49, 1.2725, 0.5875, 1.3725, 0.685, 0, 0.7825, 0.0975, 0.8825, 0.195, 0.98, 0.2925, 1.0775, 0.3925, 1.175, 0.49, 1.2725, 0.5875, 1.3725, 0.685, 0, 0.7825, 0.0975, 0.8825, 0.195, 0.98, 0.2925, 1.0775, 0.3925, 1.175, 0.49, 1.2725, 0.5875, 1.3725, 0.685],
  "SoftwareVersions": "syngo_MR_E11",
  "SpacingBetweenSlices": 2,
  "StationName": "MRC35049",
  "TaskName": "things",
  "TotalReadoutTime": 0.0576811,
  "TxRefAmp": 296.276,
  "WipMemBlock": "845ea00f-c8b6-4ad3-9b9e-81faeff28f4c||Sequence: R016 ve11c/master r/e634e98; Dec 19 2017 11:00:25 by eja",
  "dcmmeta_affine": [
    [-1.9940478801727295, 0.017053641378879547, 0.1532392054796219, 103.0791244506836],
    [-0.04342421889305115, 1.845152497291565, -0.7704068422317505, -55.896446228027344],
    [0.14794397354125977, 0.7714412212371826, 1.8392908573150635, -68.5754623413086],
    [0.0, 0.0, 0.0, 1.0]
],
  "dcmmeta_reorient_transform": [
    [0.0, -1.0, 0.0, 103.0],
    [1.0, 0.0, 0.0, 0.0],
    [0.0, 0.0, 1.0, 0.0],
    [0.0, 0.0, 0.0, 1.0]
],
  "dcmmeta_shape": [104, 104, 60, 190],
  "dcmmeta_slice_dim": 2,
  "dcmmeta_version": 0.6,
  "global": {
    "const": {
      "AcquisitionMatrix": [104, 0, 0, 104],
      "AngioFlag": "N",
      "BitsAllocated": 16,
      "BitsStored": 16,
      "BodyPartExamined": "BRAIN",
      "Columns": 832,
      "EchoNumbers": 1,
      "EchoTime": 37.0,
      "EchoTrainLength": 104,
      "FlipAngle": 52.0,
      "HighBit": 15,
      "ImageOrientationPatient": [0.99702393623566, 0.02171210874041, 0.0739719873141, 0.00852682084959, 0.92257623280419, -0.3857206087196],
      "ImagePositionPatient": [-836.8766002348, -821.59616905549, 237.83597933691],
      "ImageType": [
        "ORIGINAL",
        "PRIMARY",
        "P",
        "MB",
        "ND",
        "MOSAIC"
],
      "ImagedNucleus": "1H",
      "ImagingFrequency": 123.258932,
      "InPlanePhaseEncodingDirection": "COL",
      "LargestImagePixelValue": 4095,
      "MRAcquisitionType": "2D",
      "MagneticFieldStrength": 3.0,
      "Manufacturer": "SIEMENS",
      "ManufacturerModelName": "Prisma_fit",
      "Modality": "MR",
      "NumberOfAverages": 1.0,
      "NumberOfPhaseEncodingSteps": 104,
      "PercentPhaseFieldOfView": 100.0,
      "PercentSampling": 100.0,
      "PerformedProcedureStepStartTime": "172852.753000",
      "PhotometricInterpretation": "MONOCHROME2",
      "PixelBandwidth": 2290.0,
      "PixelRepresentation": 0,
      "PixelSpacing": [2.0, 2.0],
      "ProtocolName": "func_task-things_run-5",
      "RepetitionTime": 1490.0,
      "RescaleIntercept": -4096.0,
      "RescaleSlope": 2.0,
      "RescaleType": "US",
      "Rows": 832,
      "SAR": 0.06114849773324,
      "SamplesPerPixel": 1,
      "ScanOptions": "FS",
      "ScanningSequence": "EP",
      "SequenceName": "epfid2d1_104",
      "SequenceVariant": [
        "SK",
        "SS"
],
      "SeriesDescription": "func_task-things_run-5",
      "SeriesNumber": 23,
      "SeriesTime": "180131.606000",
      "SliceLocation": -33.635727293889,
      "SliceThickness": 2.0,
      "SmallestImagePixelValue": 0,
      "SoftwareVersions": "syngo MR E11",
      "SpacingBetweenSlices": 1.999999938679,
      "SpecificCharacterSet": "ISO_IR 100",
      "StudyID": "1",
      "StudyTime": "172852.606000",
      "TransmitCoilName": "Body",
      "VariableFlipAngleFlag": "N",
      "WindowCenterWidthExplanation": "Algo1",
      "dBdt": 0.0},
    "slices": {}
  },
  "time": {
    "samples": {
      "AcquisitionNumber": [1, 2, 3, 4, 5, 6, 7, 8, 9, 10, 11, 12, 13, 14, 15, 16, 17, 18, 19, 20, 21, 22, 23, 24, 25, 26, 27, 28, 29, 30, 31, 32, 33, 34, 35, 36, 37, 38, 39, 40, 41, 42, 43, 44, 45, 46, 47, 48, 49, 50, 51, 52, 53, 54, 55, 56, 57, 58, 59, 60, 61, 62, 63, 64, 65, 66, 67, 68, 69, 70, 71, 72, 73, 74, 75, 76, 77, 78, 79, 80, 81, 82, 83, 84, 85, 86, 87, 88, 89, 90, 91, 92, 93, 94, 95, 96, 97, 98, 99, 100, 101, 102, 103, 104, 105, 106, 107, 108, 109, 110, 111, 112, 113, 114, 115, 116, 117, 118, 119, 120, 121, 122, 123, 124, 125, 126, 127, 128, 129, 130, 131, 132, 133, 134, 135, 136, 137, 138, 139, 140, 141, 142, 143, 144, 145, 146, 147, 148, 149, 150, 151, 152, 153, 154, 155, 156, 157, 158, 159, 160, 161, 162, 163, 164, 165, 166, 167, 168, 169, 170, 171, 172, 173, 174, 175, 176, 177, 178, 179, 180, 181, 182, 183, 184, 185, 186, 187, 188, 189, 190],
      "AcquisitionTime": ["180012.890000", "180014.380000", "180015.870000", "180017.360000", "180018.850000", "180020.340000", "180021.830000", "180023.320000", "180024.810000", "180026.300000", "180027.790000", "180029.280000", "180030.770000", "180032.260000", "180033.750000", "180035.240000", "180036.730000", "180038.220000", "180039.710000", "180041.200000", "180042.690000", "180044.180000", "180045.670000", "180047.160000", "180048.650000", "180050.140000", "180051.630000", "180053.120000", "180054.610000", "180056.100000", "180057.590000", "180059.080000", "180100.570000", "180102.060000", "180103.550000", "180105.040000", "180106.530000", "180108.020000", "180109.510000", "180111.000000", "180112.490000", "180113.980000", "180115.470000", "180116.960000", "180118.450000", "180119.940000", "180121.430000", "180122.920000", "180124.410000", "180125.900000", "180127.390000", "180128.880000", "180130.370000", "180131.860000", "180133.350000", "180134.840000", "180136.330000", "180137.820000", "180139.310000", "180140.800000", "180142.290000", "180143.780000", "180145.270000", "180146.760000", "180148.250000", "180149.740000", "180151.230000", "180152.720000", "180154.210000", "180155.700000", "180157.190000", "180158.680000", "180200.170000", "180201.660000", "180203.150000", "180204.640000", "180206.130000", "180207.620000", "180209.110000", "180210.600000", "180212.090000", "180213.580000", "180215.070000", "180216.560000", "180218.050000", "180219.540000", "180221.030000", "180222.520000", "180224.010000", "180225.500000", "180226.990000", "180228.480000", "180229.970000", "180231.460000", "180232.950000", "180234.440000", "180235.930000", "180237.420000", "180238.910000", "180240.400000", "180241.890000", "180243.380000", "180244.870000", "180246.360000", "180247.850000", "180249.340000", "180250.830000", "180252.320000", "180253.810000", "180255.300000", "180256.790000", "180258.280000", "180259.770000", "180301.260000", "180302.750000", "180304.240000", "180305.730000", "180307.220000", "180308.710000", "180310.200000", "180311.690000", "180313.180000", "180314.670000", "180316.160000", "180317.650000", "180319.140000", "180320.630000", "180322.120000", "180323.610000", "180325.100000", "180326.590000", "180328.080000", "180329.570000", "180331.060000", "180332.550000", "180334.040000", "180335.530000", "180337.020000", "180338.510000", "180340.000000", "180341.490000", "180342.980000", "180344.470000", "180345.960000", "180347.450000", "180348.940000", "180350.430000", "180351.920000", "180353.410000", "180354.900000", "180356.390000", "180357.880000", "180359.370000", "180400.860000", "180402.350000", "180403.840000", "180405.330000", "180406.820000", "180408.310000", "180409.800000", "180411.290000", "180412.780000", "180414.270000", "180415.760000", "180417.250000", "180418.740000", "180420.230000", "180421.720000", "180423.210000", "180424.700000", "180426.190000", "180427.680000", "180429.170000", "180430.660000", "180432.150000", "180433.640000", "180435.130000", "180436.620000", "180438.110000", "180439.600000", "180441.090000", "180442.580000", "180444.070000", "180445.560000", "180447.050000", "180448.540000", "180450.030000", "180451.520000", "180453.010000", "180454.500000"],
      "ContentTime": ["180131.608000", "180131.610000", "180131.613000", "180131.615000", "180131.618000", "180131.620000", "180131.623000", "180131.625000", "180131.628000", "180131.630000", "180131.632000", "180131.635000", "180131.637000", "180131.640000", "180131.642000", "180131.650000", "180131.652000", "180131.655000", "180131.657000", "180131.660000", "180131.662000", "180131.665000", "180131.667000", "180151.536000", "180151.539000", "180151.541000", "180151.544000", "180151.546000", "180151.549000", "180151.551000", "180151.554000", "180151.556000", "180151.559000", "180151.561000", "180151.563000", "180151.566000", "180151.568000", "180151.571000", "180151.573000", "180151.576000", "180151.578000", "180151.581000", "180151.583000", "180211.558000", "180211.561000", "180211.563000", "180211.566000", "180211.568000", "180211.571000", "180211.573000", "180211.576000", "180211.578000", "180211.581000", "180211.583000", "180211.586000", "180211.588000", "180211.591000", "180211.593000", "180211.595000", "180211.598000", "180211.600000", "180211.603000", "180211.605000", "180231.563000", "180231.566000", "180231.568000", "180231.571000", "180231.573000", "180231.576000", "180231.578000", "180231.580000", "180231.583000", "180231.585000", "180231.588000", "180231.590000", "180231.593000", "180231.595000", "180231.598000", "180231.600000", "180231.603000", "180231.605000", "180231.608000", "180231.610000", "180251.562000", "180251.564000", "180251.567000", "180251.569000", "180251.572000", "180251.575000", "180251.577000", "180251.580000", "180251.582000", "180251.585000", "180251.587000", "180251.590000", "180251.592000", "180251.594000", "180251.597000", "180251.599000", "180251.602000", "180251.604000", "180251.607000", "180251.609000", "180251.612000", "180331.582000", "180331.584000", "180331.587000", "180331.589000", "180331.592000", "180331.595000", "180331.597000", "180331.600000", "180331.602000", "180331.605000", "180331.607000", "180331.610000", "180331.612000", "180331.615000", "180331.617000", "180331.619000", "180331.622000", "180331.624000", "180331.627000", "180331.629000", "180331.632000", "180331.634000", "180331.637000", "180331.639000", "180331.642000", "180331.644000", "180331.647000", "180331.649000", "180411.989000", "180411.991000", "180411.994000", "180411.996000", "180411.999000", "180412.001000", "180412.004000", "180412.006000", "180412.011000", "180412.013000", "180412.016000", "180412.018000", "180412.021000", "180412.023000", "180412.026000", "180412.028000", "180412.031000", "180412.033000", "180412.036000", "180412.038000", "180412.041000", "180412.043000", "180412.046000", "180412.048000", "180412.051000", "180412.053000", "180412.056000", "180451.573000", "180451.575000", "180451.578000", "180451.580000", "180451.583000", "180451.585000", "180451.588000", "180451.590000", "180451.593000", "180451.595000", "180451.598000", "180451.600000", "180451.603000", "180451.605000", "180451.608000", "180451.610000", "180451.612000", "180451.615000", "180451.617000", "180451.620000", "180451.622000", "180451.625000", "180451.627000", "180451.630000", "180451.632000", "180451.635000", "180451.637000", "180457.146000", "180457.149000", "180457.152000", "180457.154000"],
      "InstanceCreationTime": ["180131.608000", "180131.610000", "180131.613000", "180131.615000", "180131.618000", "180131.620000", "180131.623000", "180131.625000", "180131.628000", "180131.630000", "180131.632000", "180131.635000", "180131.637000", "180131.640000", "180131.642000", "180131.650000", "180131.652000", "180131.655000", "180131.657000", "180131.660000", "180131.662000", "180131.665000", "180131.667000", "180151.536000", "180151.539000", "180151.541000", "180151.544000", "180151.546000", "180151.549000", "180151.551000", "180151.554000", "180151.556000", "180151.559000", "180151.561000", "180151.563000", "180151.566000", "180151.568000", "180151.571000", "180151.573000", "180151.576000", "180151.578000", "180151.581000", "180151.583000", "180211.558000", "180211.561000", "180211.563000", "180211.566000", "180211.568000", "180211.571000", "180211.573000", "180211.576000", "180211.578000", "180211.581000", "180211.583000", "180211.586000", "180211.588000", "180211.591000", "180211.593000", "180211.595000", "180211.598000", "180211.600000", "180211.603000", "180211.605000", "180231.563000", "180231.566000", "180231.568000", "180231.571000", "180231.573000", "180231.576000", "180231.578000", "180231.580000", "180231.583000", "180231.585000", "180231.588000", "180231.590000", "180231.593000", "180231.595000", "180231.598000", "180231.600000", "180231.603000", "180231.605000", "180231.608000", "180231.610000", "180251.562000", "180251.564000", "180251.567000", "180251.569000", "180251.572000", "180251.575000", "180251.577000", "180251.580000", "180251.582000", "180251.585000", "180251.587000", "180251.590000", "180251.592000", "180251.594000", "180251.597000", "180251.599000", "180251.602000", "180251.604000", "180251.607000", "180251.609000", "180251.612000", "180331.582000", "180331.584000", "180331.587000", "180331.589000", "180331.592000", "180331.595000", "180331.597000", "180331.600000", "180331.602000", "180331.605000", "180331.607000", "180331.610000", "180331.612000", "180331.615000", "180331.617000", "180331.619000", "180331.622000", "180331.624000", "180331.627000", "180331.629000", "180331.632000", "180331.634000", "180331.637000", "180331.639000", "180331.642000", "180331.644000", "180331.647000", "180331.649000", "180411.989000", "180411.991000", "180411.994000", "180411.996000", "180411.999000", "180412.001000", "180412.004000", "180412.006000", "180412.011000", "180412.013000", "180412.016000", "180412.018000", "180412.021000", "180412.023000", "180412.026000", "180412.028000", "180412.031000", "180412.033000", "180412.036000", "180412.038000", "180412.041000", "180412.043000", "180412.046000", "180412.048000", "180412.051000", "180412.053000", "180412.056000", "180451.573000", "180451.575000", "180451.578000", "180451.580000", "180451.583000", "180451.585000", "180451.588000", "180451.590000", "180451.593000", "180451.595000", "180451.598000", "180451.600000", "180451.603000", "180451.605000", "180451.608000", "180451.610000", "180451.612000", "180451.615000", "180451.617000", "180451.620000", "180451.622000", "180451.625000", "180451.627000", "180451.630000", "180451.632000", "180451.635000", "180451.637000", "180457.146000", "180457.149000", "180457.152000", "180457.154000"],
      "InstanceNumber": [1, 2, 3, 4, 5, 6, 7, 8, 9, 10, 11, 12, 13, 14, 15, 16, 17, 18, 19, 20, 21, 22, 23, 24, 25, 26, 27, 28, 29, 30, 31, 32, 33, 34, 35, 36, 37, 38, 39, 40, 41, 42, 43, 44, 45, 46, 47, 48, 49, 50, 51, 52, 53, 54, 55, 56, 57, 58, 59, 60, 61, 62, 63, 64, 65, 66, 67, 68, 69, 70, 71, 72, 73, 74, 75, 76, 77, 78, 79, 80, 81, 82, 83, 84, 85, 86, 87, 88, 89, 90, 91, 92, 93, 94, 95, 96, 97, 98, 99, 100, 101, 102, 103, 104, 105, 106, 107, 108, 109, 110, 111, 112, 113, 114, 115, 116, 117, 118, 119, 120, 121, 122, 123, 124, 125, 126, 127, 128, 129, 130, 131, 132, 133, 134, 135, 136, 137, 138, 139, 140, 141, 142, 143, 144, 145, 146, 147, 148, 149, 150, 151, 152, 153, 154, 155, 156, 157, 158, 159, 160, 161, 162, 163, 164, 165, 166, 167, 168, 169, 170, 171, 172, 173, 174, 175, 176, 177, 178, 179, 180, 181, 182, 183, 184, 185, 186, 187, 188, 189, 190],
      "WindowCenter": [4822.0, 4822.0, 4824.0, 4824.0, 4822.0, 4822.0, 4824.0, 4822.0, 4822.0, 4822.0, 4818.0, 4820.0, 4824.0, 4822.0, 4824.0, 4822.0, 4826.0, 4824.0, 4822.0, 4822.0, 4820.0, 4822.0, 4818.0, 4820.0, 4822.0, 4822.0, 4822.0, 4820.0, 4822.0, 4824.0, 4822.0, 4822.0, 4822.0, 4820.0, 4822.0, 4818.0, 4820.0, 4824.0, 4822.0, 4820.0, 4820.0, 4822.0, 4822.0, 4822.0, 4824.0, 4824.0, 4822.0, 4822.0, 4822.0, 4820.0, 4824.0, 4822.0, 4820.0, 4822.0, 4820.0, 4824.0, 4822.0, 4824.0, 4820.0, 4818.0, 4820.0, 4826.0, 4822.0, 4822.0, 4820.0, 4824.0, 4822.0, 4824.0, 4818.0, 4818.0, 4822.0, 4822.0, 4820.0, 4826.0, 4822.0, 4820.0, 4820.0, 4822.0, 4824.0, 4822.0, 4824.0, 4822.0, 4824.0, 4818.0, 4820.0, 4824.0, 4824.0, 4822.0, 4826.0, 4822.0, 4824.0, 4820.0, 4824.0, 4820.0, 4820.0, 4818.0, 4822.0, 4822.0, 4820.0, 4822.0, 4820.0, 4818.0, 4818.0, 4818.0, 4818.0, 4820.0, 4818.0, 4820.0, 4820.0, 4820.0, 4818.0, 4818.0, 4818.0, 4820.0, 4818.0, 4818.0, 4820.0, 4818.0, 4820.0, 4818.0, 4820.0, 4818.0, 4818.0, 4818.0, 4818.0, 4818.0, 4824.0, 4820.0, 4826.0, 4820.0, 4818.0, 4822.0, 4822.0, 4818.0, 4820.0, 4820.0, 4820.0, 4796.0, 4820.0, 4820.0, 4822.0, 4820.0, 4822.0, 4818.0, 4818.0, 4822.0, 4820.0, 4822.0, 4818.0, 4794.0, 4820.0, 4818.0, 4820.0, 4818.0, 4820.0, 4796.0, 4816.0, 4820.0, 4820.0, 4820.0, 4820.0, 4820.0, 4792.0, 4818.0, 4822.0, 4816.0, 4820.0, 4822.0, 4818.0, 4820.0, 4816.0, 4796.0, 4796.0, 4818.0, 4818.0, 4818.0, 4818.0, 4820.0, 4820.0, 4822.0, 4820.0, 4820.0, 4818.0, 4818.0, 4818.0, 4820.0, 4822.0, 4818.0, 4824.0, 4814.0],
      "WindowWidth": [18592.0, 18590.0, 18590.0, 18588.0, 18588.0, 18592.0, 18600.0, 18592.0, 18592.0, 18590.0, 18588.0, 18590.0, 18594.0, 18596.0, 18592.0, 18594.0, 18596.0, 18594.0, 18588.0, 18592.0, 18586.0, 18590.0, 18584.0, 18586.0, 18592.0, 18588.0, 18588.0, 18596.0, 18594.0, 18592.0, 18588.0, 18592.0, 18590.0, 18584.0, 18588.0, 18588.0, 18588.0, 18592.0, 18590.0, 18588.0, 18590.0, 18590.0, 18590.0, 18590.0, 18588.0, 18592.0, 18588.0, 18594.0, 18588.0, 18588.0, 18592.0, 18596.0, 18588.0, 18588.0, 18590.0, 18590.0, 18594.0, 18588.0, 18586.0, 18588.0, 18590.0, 18590.0, 18590.0, 18590.0, 18582.0, 18588.0, 18592.0, 18594.0, 18586.0, 18592.0, 18590.0, 18590.0, 18586.0, 18592.0, 18588.0, 18588.0, 18590.0, 18592.0, 18588.0, 18594.0, 18592.0, 18588.0, 18592.0, 18584.0, 18590.0, 18590.0, 18600.0, 18586.0, 18598.0, 18596.0, 18592.0, 18588.0, 18592.0, 18586.0, 18594.0, 18590.0, 18588.0, 18592.0, 18588.0, 18594.0, 18588.0, 18592.0, 18590.0, 18590.0, 18590.0, 18594.0, 18588.0, 18590.0, 18592.0, 18590.0, 18590.0, 18592.0, 18588.0, 18592.0, 18590.0, 18590.0, 18588.0, 18590.0, 18588.0, 18590.0, 18590.0, 18592.0, 18590.0, 18590.0, 18594.0, 18592.0, 18592.0, 18586.0, 18594.0, 18590.0, 18592.0, 18584.0, 18590.0, 18590.0, 18590.0, 18588.0, 18588.0, 18554.0, 18592.0, 18590.0, 18590.0, 18588.0, 18590.0, 18592.0, 18588.0, 18588.0, 18592.0, 18592.0, 18584.0, 18558.0, 18592.0, 18588.0, 18590.0, 18592.0, 18592.0, 18564.0, 18588.0, 18592.0, 18586.0, 18588.0, 18592.0, 18592.0, 18558.0, 18588.0, 18592.0, 18586.0, 18590.0, 18590.0, 18590.0, 18588.0, 18588.0, 18560.0, 18562.0, 18586.0, 18596.0, 18588.0, 18586.0, 18588.0, 18588.0, 18588.0, 18592.0, 18588.0, 18592.0, 18594.0, 18590.0, 18594.0, 18592.0, 18586.0, 18592.0, 18588.0]
    },
    "slices": {}
  }
}