{
  "AcquisitionMatrixPE": 104,
  "AcquisitionNumber": 1,
  "AcquisitionTime": "18:07:18.587500",
  "BandwidthPerPixelPhaseEncode": 17.17,
  "BaseResolution": 104,
  "BodyPartExamined": "BRAIN",
  "CoilString": "HC1-7;NC1_2",
  "ConsistencyInfo": "N4_VE11C_LATEST_20160120",
  "ConversionSoftware": "dcm2niix",
  "ConversionSoftwareVersion": "v1.0.20190902",
  "DerivedVendorReportedEchoSpacing": 0.000560011,
  "DeviceSerialNumber": "167006",
  "DwellTime": 2.1e-06,
  "EchoTime": 0.037,
  "EchoTrainLength": 104,
  "EffectiveEchoSpacing": 0.000560011,
  "FlipAngle": 52,
  "ImageComments": "Unaliased_MB4_PE3_LB",
  "ImageOrientationPatientDICOM": [0.997024, 0.0217121, 0.073972, 0.00852682, 0.922576, -0.385721],
  "ImageType": [
    "ORIGINAL",
    "PRIMARY",
    "M",
    "MB",
    "ND",
    "MOSAIC"
],
  "ImagingFrequency": 123.259,
  "InPlanePhaseEncodingDirectionDICOM": "COL",
  "InstitutionAddress": "Chemin_Queen-Mary_4565_Montreal_District_CA_H3W_1W5",
  "InstitutionName": "IUGM",
  "InstitutionalDepartmentName": "Department",
  "MRAcquisitionType": "2D",
  "MagneticFieldStrength": 3,
  "Manufacturer": "Siemens",
  "ManufacturersModelName": "Prisma_fit",
  "Modality": "MR",
  "MultibandAccelerationFactor": 4,
  "PartialFourier": 1,
  "PatientPosition": "HFS",
  "PercentPhaseFOV": 100,
  "PhaseEncodingDirection": "j",
  "PhaseEncodingSteps": 104,
  "PhaseResolution": 1,
  "PixelBandwidth": 2290,
  "ProcedureStepDescription": "memory_things",
  "ProtocolName": "func_task-things_run-6",
  "PulseSequenceDetails": "%CustomerSeq%_cmrr_mbep2d_bold",
  "ReceiveCoilActiveElements": "HC1-7;NC1,2",
  "ReceiveCoilName": "HeadNeck_64",
  "ReconMatrixPE": 104,
  "RepetitionTime": 1.49,
  "SAR": 0.0611485,
  "ScanOptions": "FS",
  "ScanningSequence": "EP",
  "SequenceName": "epfid2d1_104",
  "SequenceVariant": "SK_SS",
  "SeriesDescription": "func_task-things_run-6",
  "SeriesNumber": 25,
  "ShimSetting": [640, -7185, -8815, 611, 91, 39, -61, 15],
  "SliceThickness": 2,
  "SliceTiming": [0, 0.7825, 0.0975, 0.8825, 0.195, 0.98, 0.295, 1.0775, 0.3925, 1.175, 0.49, 1.2725, 0.5875, 1.3725, 0.685, 0, 0.7825, 0.0975, 0.8825, 0.195, 0.98, 0.295, 1.0775, 0.3925, 1.175, 0.49, 1.2725, 0.5875, 1.3725, 0.685, 0, 0.7825, 0.0975, 0.8825, 0.195, 0.98, 0.295, 1.0775, 0.3925, 1.175, 0.49, 1.2725, 0.5875, 1.3725, 0.685, 0, 0.7825, 0.0975, 0.8825, 0.195, 0.98, 0.295, 1.0775, 0.3925, 1.175, 0.49, 1.2725, 0.5875, 1.3725, 0.685],
  "SoftwareVersions": "syngo_MR_E11",
  "SpacingBetweenSlices": 2,
  "StationName": "MRC35049",
  "TaskName": "things",
  "TotalReadoutTime": 0.0576811,
  "TxRefAmp": 296.276,
  "WipMemBlock": "28b1637d-654f-499b-875b-8fd2f3863123||Sequence: R016 ve11c/master r/e634e98; Dec 19 2017 11:00:25 by eja",
  "dcmmeta_affine": [
    [-1.9940478801727295, 0.017053641378879547, 0.1532392054796219, 103.0791244506836],
    [-0.04342421889305115, 1.845152497291565, -0.7704068422317505, -55.896446228027344],
    [0.14794397354125977, 0.7714412212371826, 1.8392908573150635, -68.5754623413086],
    [0.0, 0.0, 0.0, 1.0]
],
  "dcmmeta_reorient_transform": [
    [0.0, -1.0, 0.0, 103.0],
    [1.0, 0.0, 0.0, 0.0],
    [0.0, 0.0, 1.0, 0.0],
    [0.0, 0.0, 0.0, 1.0]
],
  "dcmmeta_shape": [104, 104, 60, 190],
  "dcmmeta_slice_dim": 2,
  "dcmmeta_version": 0.6,
  "global": {
    "const": {
      "AcquisitionMatrix": [104, 0, 0, 104],
      "AngioFlag": "N",
      "BitsAllocated": 16,
      "BitsStored": 16,
      "BodyPartExamined": "BRAIN",
      "Columns": 832,
      "EchoNumbers": 1,
      "EchoTime": 37.0,
      "EchoTrainLength": 104,
      "FlipAngle": 52.0,
      "HighBit": 15,
      "ImageOrientationPatient": [0.99702393623566, 0.02171210874041, 0.0739719873141, 0.00852682084959, 0.92257623280419, -0.3857206087196],
      "ImagePositionPatient": [-836.8766002348, -821.59616905549, 237.83597933691],
      "ImageType": [
        "ORIGINAL",
        "PRIMARY",
        "M",
        "MB",
        "ND",
        "MOSAIC"
],
      "ImagedNucleus": "1H",
      "ImagingFrequency": 123.258934,
      "InPlanePhaseEncodingDirection": "COL",
      "MRAcquisitionType": "2D",
      "MagneticFieldStrength": 3.0,
      "Manufacturer": "SIEMENS",
      "ManufacturerModelName": "Prisma_fit",
      "Modality": "MR",
      "NumberOfAverages": 1.0,
      "NumberOfPhaseEncodingSteps": 104,
      "PercentPhaseFieldOfView": 100.0,
      "PercentSampling": 100.0,
      "PerformedProcedureStepStartTime": "172852.753000",
      "PhotometricInterpretation": "MONOCHROME2",
      "PixelBandwidth": 2290.0,
      "PixelRepresentation": 0,
      "PixelSpacing": [2.0, 2.0],
      "ProtocolName": "func_task-things_run-6",
      "RepetitionTime": 1490.0,
      "Rows": 832,
      "SAR": 0.06114849773324,
      "SamplesPerPixel": 1,
      "ScanOptions": "FS",
      "ScanningSequence": "EP",
      "SequenceName": "epfid2d1_104",
      "SequenceVariant": [
        "SK",
        "SS"
],
      "SeriesDescription": "func_task-things_run-6",
      "SeriesNumber": 25,
      "SeriesTime": "180831.398000",
      "SliceLocation": -33.635727293889,
      "SliceThickness": 2.0,
      "SmallestImagePixelValue": 0,
      "SoftwareVersions": "syngo MR E11",
      "SpacingBetweenSlices": 1.999999938679,
      "SpecificCharacterSet": "ISO_IR 100",
      "StudyID": "1",
      "StudyTime": "172852.606000",
      "TransmitCoilName": "Body",
      "VariableFlipAngleFlag": "N",
      "WindowCenterWidthExplanation": "Algo1",
      "dBdt": 0.0},
    "slices": {}
  },
  "time": {
    "samples": {
      "AcquisitionNumber": [1, 2, 3, 4, 5, 6, 7, 8, 9, 10, 11, 12, 13, 14, 15, 16, 17, 18, 19, 20, 21, 22, 23, 24, 25, 26, 27, 28, 29, 30, 31, 32, 33, 34, 35, 36, 37, 38, 39, 40, 41, 42, 43, 44, 45, 46, 47, 48, 49, 50, 51, 52, 53, 54, 55, 56, 57, 58, 59, 60, 61, 62, 63, 64, 65, 66, 67, 68, 69, 70, 71, 72, 73, 74, 75, 76, 77, 78, 79, 80, 81, 82, 83, 84, 85, 86, 87, 88, 89, 90, 91, 92, 93, 94, 95, 96, 97, 98, 99, 100, 101, 102, 103, 104, 105, 106, 107, 108, 109, 110, 111, 112, 113, 114, 115, 116, 117, 118, 119, 120, 121, 122, 123, 124, 125, 126, 127, 128, 129, 130, 131, 132, 133, 134, 135, 136, 137, 138, 139, 140, 141, 142, 143, 144, 145, 146, 147, 148, 149, 150, 151, 152, 153, 154, 155, 156, 157, 158, 159, 160, 161, 162, 163, 164, 165, 166, 167, 168, 169, 170, 171, 172, 173, 174, 175, 176, 177, 178, 179, 180, 181, 182, 183, 184, 185, 186, 187, 188, 189, 190],
      "AcquisitionTime": ["180718.587500", "180720.077500", "180721.567500", "180723.057500", "180724.547500", "180726.037500", "180727.527500", "180729.017500", "180730.507500", "180731.997500", "180733.487500", "180734.977500", "180736.467500", "180737.957500", "180739.447500", "180740.937500", "180742.427500", "180743.917500", "180745.407500", "180746.897500", "180748.387500", "180749.877500", "180751.367500", "180752.857500", "180754.347500", "180755.837500", "180757.327500", "180758.817500", "180800.307500", "180801.797500", "180803.287500", "180804.777500", "180806.267500", "180807.757500", "180809.247500", "180810.737500", "180812.227500", "180813.717500", "180815.207500", "180816.697500", "180818.187500", "180819.677500", "180821.167500", "180822.657500", "180824.147500", "180825.637500", "180827.127500", "180828.617500", "180830.107500", "180831.597500", "180833.087500", "180834.577500", "180836.067500", "180837.557500", "180839.047500", "180840.537500", "180842.027500", "180843.517500", "180845.007500", "180846.497500", "180847.987500", "180849.477500", "180850.967500", "180852.457500", "180853.947500", "180855.437500", "180856.927500", "180858.417500", "180859.907500", "180901.397500", "180902.887500", "180904.377500", "180905.867500", "180907.357500", "180908.847500", "180910.337500", "180911.827500", "180913.317500", "180914.807500", "180916.297500", "180917.787500", "180919.277500", "180920.767500", "180922.257500", "180923.747500", "180925.237500", "180926.727500", "180928.217500", "180929.707500", "180931.197500", "180932.687500", "180934.177500", "180935.667500", "180937.157500", "180938.647500", "180940.137500", "180941.627500", "180943.117500", "180944.607500", "180946.097500", "180947.587500", "180949.077500", "180950.567500", "180952.057500", "180953.547500", "180955.037500", "180956.527500", "180958.017500", "180959.507500", "181000.997500", "181002.487500", "181003.977500", "181005.467500", "181006.957500", "181008.447500", "181009.937500", "181011.427500", "181012.917500", "181014.407500", "181015.897500", "181017.387500", "181018.877500", "181020.367500", "181021.857500", "181023.347500", "181024.837500", "181026.327500", "181027.817500", "181029.307500", "181030.797500", "181032.287500", "181033.777500", "181035.267500", "181036.757500", "181038.247500", "181039.737500", "181041.227500", "181042.717500", "181044.207500", "181045.697500", "181047.187500", "181048.677500", "181050.167500", "181051.657500", "181053.147500", "181054.637500", "181056.127500", "181057.617500", "181059.107500", "181100.597500", "181102.087500", "181103.577500", "181105.067500", "181106.557500", "181108.047500", "181109.537500", "181111.027500", "181112.517500", "181114.007500", "181115.497500", "181116.987500", "181118.477500", "181119.967500", "181121.457500", "181122.947500", "181124.437500", "181125.927500", "181127.417500", "181128.907500", "181130.397500", "181131.887500", "181133.377500", "181134.867500", "181136.357500", "181137.847500", "181139.337500", "181140.827500", "181142.317500", "181143.807500", "181145.297500", "181146.787500", "181148.277500", "181149.767500", "181151.257500", "181152.747500", "181154.237500", "181155.727500", "181157.217500", "181158.707500", "181200.197500"],
      "ContentTime": ["180831.402000", "180831.406000", "180831.409000", "180831.412000", "180831.415000", "180831.419000", "180831.422000", "180831.425000", "180831.429000", "180831.432000", "180831.440000", "180831.444000", "180831.447000", "180831.450000", "180831.453000", "180831.457000", "180831.460000", "180831.463000", "180831.466000", "180851.357000", "180851.361000", "180851.364000", "180851.367000", "180851.370000", "180851.374000", "180851.377000", "180851.380000", "180851.384000", "180851.387000", "180851.390000", "180851.393000", "180851.397000", "180851.400000", "180851.403000", "180851.406000", "180851.409000", "180851.413000", "180851.416000", "180851.419000", "180911.357000", "180911.360000", "180911.370000", "180911.374000", "180911.377000", "180911.380000", "180911.383000", "180911.387000", "180911.390000", "180911.393000", "180911.396000", "180911.400000", "180911.403000", "180911.406000", "180911.409000", "180911.413000", "180911.416000", "180911.419000", "180911.422000", "180911.426000", "180911.429000", "180931.357000", "180931.361000", "180931.364000", "180931.367000", "180931.370000", "180931.374000", "180931.377000", "180931.380000", "180931.383000", "180931.387000", "180931.390000", "180931.393000", "180931.397000", "180931.400000", "180931.403000", "180931.406000", "180931.410000", "180931.413000", "180931.416000", "180931.419000", "180951.357000", "180951.361000", "180951.364000", "180951.367000", "180951.370000", "180951.374000", "180951.377000", "180951.380000", "180951.384000", "180951.387000", "180951.390000", "180951.393000", "180951.397000", "180951.400000", "180951.403000", "180951.406000", "180951.410000", "180951.413000", "180951.416000", "180951.420000", "181031.357000", "181031.361000", "181031.364000", "181031.367000", "181031.371000", "181031.374000", "181031.377000", "181031.380000", "181031.384000", "181031.387000", "181031.390000", "181031.394000", "181031.397000", "181031.400000", "181031.403000", "181031.407000", "181031.410000", "181031.413000", "181031.416000", "181031.420000", "181031.423000", "181031.426000", "181031.430000", "181031.433000", "181031.436000", "181031.439000", "181031.443000", "181031.446000", "181031.449000", "181111.357000", "181111.361000", "181111.364000", "181111.367000", "181111.371000", "181111.374000", "181111.377000", "181111.381000", "181111.384000", "181111.387000", "181111.390000", "181111.394000", "181111.397000", "181111.400000", "181111.404000", "181111.407000", "181111.410000", "181111.414000", "181111.417000", "181111.420000", "181111.424000", "181111.427000", "181111.430000", "181111.433000", "181111.437000", "181111.440000", "181151.357000", "181151.361000", "181151.364000", "181151.368000", "181151.371000", "181151.374000", "181151.378000", "181151.381000", "181151.384000", "181151.387000", "181151.391000", "181151.394000", "181151.397000", "181151.401000", "181151.404000", "181151.407000", "181151.410000", "181151.414000", "181151.417000", "181151.420000", "181151.423000", "181151.427000", "181151.430000", "181151.433000", "181151.436000", "181151.440000", "181151.443000", "181202.126000", "181202.130000", "181202.133000", "181202.136000", "181202.139000", "181202.143000", "181202.146000", "181202.149000"],
      "InstanceCreationTime": ["180831.402000", "180831.406000", "180831.409000", "180831.412000", "180831.415000", "180831.419000", "180831.422000", "180831.425000", "180831.429000", "180831.432000", "180831.440000", "180831.444000", "180831.447000", "180831.450000", "180831.453000", "180831.457000", "180831.460000", "180831.463000", "180831.466000", "180851.357000", "180851.361000", "180851.364000", "180851.367000", "180851.370000", "180851.374000", "180851.377000", "180851.380000", "180851.384000", "180851.387000", "180851.390000", "180851.393000", "180851.397000", "180851.400000", "180851.403000", "180851.406000", "180851.409000", "180851.413000", "180851.416000", "180851.419000", "180911.357000", "180911.360000", "180911.370000", "180911.374000", "180911.377000", "180911.380000", "180911.383000", "180911.387000", "180911.390000", "180911.393000", "180911.396000", "180911.400000", "180911.403000", "180911.406000", "180911.409000", "180911.413000", "180911.416000", "180911.419000", "180911.422000", "180911.426000", "180911.429000", "180931.357000", "180931.361000", "180931.364000", "180931.367000", "180931.370000", "180931.374000", "180931.377000", "180931.380000", "180931.383000", "180931.387000", "180931.390000", "180931.393000", "180931.397000", "180931.400000", "180931.403000", "180931.406000", "180931.410000", "180931.413000", "180931.416000", "180931.419000", "180951.357000", "180951.361000", "180951.364000", "180951.367000", "180951.370000", "180951.374000", "180951.377000", "180951.380000", "180951.384000", "180951.387000", "180951.390000", "180951.393000", "180951.397000", "180951.400000", "180951.403000", "180951.406000", "180951.410000", "180951.413000", "180951.416000", "180951.420000", "181031.357000", "181031.361000", "181031.364000", "181031.367000", "181031.371000", "181031.374000", "181031.377000", "181031.380000", "181031.384000", "181031.387000", "181031.390000", "181031.394000", "181031.397000", "181031.400000", "181031.403000", "181031.407000", "181031.410000", "181031.413000", "181031.416000", "181031.420000", "181031.423000", "181031.426000", "181031.430000", "181031.433000", "181031.436000", "181031.439000", "181031.443000", "181031.446000", "181031.449000", "181111.357000", "181111.361000", "181111.364000", "181111.367000", "181111.371000", "181111.374000", "181111.377000", "181111.381000", "181111.384000", "181111.387000", "181111.390000", "181111.394000", "181111.397000", "181111.400000", "181111.404000", "181111.407000", "181111.410000", "181111.414000", "181111.417000", "181111.420000", "181111.424000", "181111.427000", "181111.430000", "181111.433000", "181111.437000", "181111.440000", "181151.357000", "181151.361000", "181151.364000", "181151.368000", "181151.371000", "181151.374000", "181151.378000", "181151.381000", "181151.384000", "181151.387000", "181151.391000", "181151.394000", "181151.397000", "181151.401000", "181151.404000", "181151.407000", "181151.410000", "181151.414000", "181151.417000", "181151.420000", "181151.423000", "181151.427000", "181151.430000", "181151.433000", "181151.436000", "181151.440000", "181151.443000", "181202.126000", "181202.130000", "181202.133000", "181202.136000", "181202.139000", "181202.143000", "181202.146000", "181202.149000"],
      "InstanceNumber": [1, 2, 3, 4, 5, 6, 7, 8, 9, 10, 11, 12, 13, 14, 15, 16, 17, 18, 19, 20, 21, 22, 23, 24, 25, 26, 27, 28, 29, 30, 31, 32, 33, 34, 35, 36, 37, 38, 39, 40, 41, 42, 43, 44, 45, 46, 47, 48, 49, 50, 51, 52, 53, 54, 55, 56, 57, 58, 59, 60, 61, 62, 63, 64, 65, 66, 67, 68, 69, 70, 71, 72, 73, 74, 75, 76, 77, 78, 79, 80, 81, 82, 83, 84, 85, 86, 87, 88, 89, 90, 91, 92, 93, 94, 95, 96, 97, 98, 99, 100, 101, 102, 103, 104, 105, 106, 107, 108, 109, 110, 111, 112, 113, 114, 115, 116, 117, 118, 119, 120, 121, 122, 123, 124, 125, 126, 127, 128, 129, 130, 131, 132, 133, 134, 135, 136, 137, 138, 139, 140, 141, 142, 143, 144, 145, 146, 147, 148, 149, 150, 151, 152, 153, 154, 155, 156, 157, 158, 159, 160, 161, 162, 163, 164, 165, 166, 167, 168, 169, 170, 171, 172, 173, 174, 175, 176, 177, 178, 179, 180, 181, 182, 183, 184, 185, 186, 187, 188, 189, 190],
      "LargestImagePixelValue": [42016, 40175, 40079, 39595, 39516, 38984, 39437, 39405, 39379, 39513, 39273, 39646, 39347, 39216, 39142, 39769, 39427, 39429, 39185, 39066, 39689, 38958, 38863, 39014, 38925, 39438, 39424, 39741, 39636, 39572, 38720, 38964, 39514, 39012, 38735, 39317, 39367, 39196, 39242, 39638, 39312, 39282, 39040, 38124, 38238, 38839, 38612, 39009, 39086, 39263, 38710, 38819, 38385, 38258, 38522, 38985, 39098, 38973, 39128, 38939, 38962, 41232, 38430, 38268, 38366, 38439, 38263, 39112, 38948, 39477, 38879, 39372, 39379, 39193, 39740, 39097, 42904, 38910, 38929, 42375, 37807, 38189, 39182, 41557, 40783, 37948, 37205, 37822, 38285, 38215, 39053, 38439, 38406, 38453, 38922, 38642, 38809, 39027, 38610, 38973, 39259, 38517, 38849, 38844, 38222, 38953, 38823, 38618, 39126, 38868, 39366, 39361, 39092, 39230, 39264, 39510, 39097, 38700, 38862, 38918, 39109, 40357, 39221, 38499, 42423, 39317, 38771, 42606, 39374, 38644, 38032, 38152, 38603, 40279, 38592, 38235, 38561, 38367, 38575, 39100, 39155, 51329, 38347, 39108, 38870, 39906, 38848, 38469, 38559, 38322, 39098, 39043, 39024, 38927, 37784, 38130, 42961, 38634, 39242, 39769, 39355, 41411, 41112, 38505, 37958, 38671, 38467, 39311, 45688, 38518, 38415, 38083, 38695, 37907, 37860, 38903, 45356, 39095, 39608, 39264, 39201, 38345, 38772, 38563, 38655, 38670, 43439, 40232, 39382, 38590],
      "WindowCenter": [10441.0, 10389.0, 10361.0, 10355.0, 10351.0, 10346.0, 10363.0, 10385.0, 10391.0, 10409.0, 10396.0, 10396.0, 10398.0, 10382.0, 10383.0, 10383.0, 10366.0, 10362.0, 10366.0, 10373.0, 10400.0, 10388.0, 10368.0, 10355.0, 10373.0, 10406.0, 10410.0, 10420.0, 10382.0, 10365.0, 10348.0, 10363.0, 10364.0, 10375.0, 10377.0, 10381.0, 10379.0, 10374.0, 10375.0, 10361.0, 10360.0, 10363.0, 10363.0, 10352.0, 10342.0, 10371.0, 10399.0, 10408.0, 10405.0, 10378.0, 10342.0, 10326.0, 10327.0, 10338.0, 10366.0, 10398.0, 10389.0, 10374.0, 10354.0, 10345.0, 10348.0, 10378.0, 10323.0, 10319.0, 10337.0, 10347.0, 10374.0, 10408.0, 10401.0, 10396.0, 10372.0, 10353.0, 10349.0, 10342.0, 10349.0, 10351.0, 10375.0, 10334.0, 10337.0, 10376.0, 10343.0, 10355.0, 10364.0, 10390.0, 10383.0, 10368.0, 10374.0, 10417.0, 10433.0, 10413.0, 10438.0, 10398.0, 10372.0, 10370.0, 10376.0, 10364.0, 10357.0, 10365.0, 10349.0, 10348.0, 10352.0, 10329.0, 10329.0, 10322.0, 10316.0, 10335.0, 10329.0, 10327.0, 10342.0, 10337.0, 10351.0, 10351.0, 10356.0, 10377.0, 10373.0, 10390.0, 10391.0, 10385.0, 10385.0, 10375.0, 10385.0, 10412.0, 10382.0, 10378.0, 10414.0, 10381.0, 10389.0, 10428.0, 10396.0, 10405.0, 10390.0, 10383.0, 10395.0, 10409.0, 10369.0, 10354.0, 10356.0, 10350.0, 10345.0, 10364.0, 10355.0, 10502.0, 10386.0, 10406.0, 10391.0, 10403.0, 10399.0, 10386.0, 10391.0, 10393.0, 10407.0, 10400.0, 10382.0, 10381.0, 10359.0, 10374.0, 10451.0, 10422.0, 10425.0, 10396.0, 10362.0, 10375.0, 10382.0, 10365.0, 10382.0, 10409.0, 10406.0, 10409.0, 10432.0, 10357.0, 10363.0, 10364.0, 10384.0, 10382.0, 10378.0, 10380.0, 10411.0, 10363.0, 10372.0, 10376.0, 10379.0, 10366.0, 10389.0, 10389.0, 10393.0, 10392.0, 10412.0, 10368.0, 10348.0, 10353.0],
      "WindowWidth": [22161.0, 22022.0, 21951.0, 21943.0, 21923.0, 21911.0, 21951.0, 22001.0, 22015.0, 22059.0, 22026.0, 22023.0, 22032.0, 21997.0, 22001.0, 22004.0, 21965.0, 21949.0, 21963.0, 21977.0, 22039.0, 22018.0, 21965.0, 21931.0, 21974.0, 22053.0, 22059.0, 22089.0, 21992.0, 21954.0, 21921.0, 21954.0, 21956.0, 21982.0, 21985.0, 21990.0, 21982.0, 21975.0, 21985.0, 21944.0, 21945.0, 21960.0, 21958.0, 21933.0, 21906.0, 21968.0, 22035.0, 22054.0, 22052.0, 21992.0, 21908.0, 21870.0, 21874.0, 21904.0, 21971.0, 22036.0, 22013.0, 21979.0, 21932.0, 21910.0, 21928.0, 21985.0, 21868.0, 21856.0, 21897.0, 21921.0, 21982.0, 22058.0, 22040.0, 22033.0, 21976.0, 21929.0, 21918.0, 21903.0, 21923.0, 21932.0, 21971.0, 21891.0, 21902.0, 21970.0, 21917.0, 21947.0, 21960.0, 22002.0, 21996.0, 21966.0, 21988.0, 22086.0, 22120.0, 22072.0, 22130.0, 22037.0, 21973.0, 21972.0, 21985.0, 21954.0, 21934.0, 21955.0, 21916.0, 21915.0, 21921.0, 21872.0, 21873.0, 21861.0, 21848.0, 21888.0, 21876.0, 21867.0, 21900.0, 21893.0, 21922.0, 21923.0, 21940.0, 21989.0, 21977.0, 22018.0, 22019.0, 22002.0, 22007.0, 21981.0, 22004.0, 22070.0, 21998.0, 21994.0, 22067.0, 21999.0, 22025.0, 22098.0, 22034.0, 22060.0, 22025.0, 22008.0, 22030.0, 22060.0, 21969.0, 21941.0, 21938.0, 21932.0, 21913.0, 21956.0, 21941.0, 22244.0, 22015.0, 22060.0, 22027.0, 22049.0, 22043.0, 22014.0, 22023.0, 22028.0, 22058.0, 22043.0, 22002.0, 21996.0, 21952.0, 21984.0, 22149.0, 22099.0, 22104.0, 22026.0, 21953.0, 21976.0, 21991.0, 21964.0, 22005.0, 22066.0, 22062.0, 22065.0, 22089.0, 21942.0, 21959.0, 21962.0, 22009.0, 22008.0, 21991.0, 21994.0, 22049.0, 21956.0, 21973.0, 21989.0, 21996.0, 21965.0, 22020.0, 22016.0, 22033.0, 22029.0, 22057.0, 21964.0, 21921.0, 21933.0]
    },
    "slices": {}
  }
}