{
  "AcquisitionMatrixPE": 104,
  "AcquisitionNumber": 1,
  "AcquisitionTime": "17:47:58.442500",
  "BandwidthPerPixelPhaseEncode": 17.17,
  "BaseResolution": 104,
  "BodyPartExamined": "BRAIN",
  "CoilString": "HC1-7;NC1_2",
  "ConsistencyInfo": "N4_VE11C_LATEST_20160120",
  "ConversionSoftware": "dcm2niix",
  "ConversionSoftwareVersion": "v1.0.20190902",
  "DerivedVendorReportedEchoSpacing": 0.000560011,
  "DeviceSerialNumber": "167006",
  "DwellTime": 2.1e-06,
  "EchoTime": 0.037,
  "EchoTrainLength": 104,
  "EffectiveEchoSpacing": 0.000560011,
  "FlipAngle": 52,
  "ImageComments": "Unaliased_MB4_PE3_LB",
  "ImageOrientationPatientDICOM": [0.997024, 0.0217121, 0.073972, 0.00852682, 0.922576, -0.385721],
  "ImageType": [
    "ORIGINAL",
    "PRIMARY",
    "P",
    "MB",
    "ND",
    "MOSAIC"
],
  "ImagingFrequency": 123.259,
  "InPlanePhaseEncodingDirectionDICOM": "COL",
  "InstitutionAddress": "Chemin_Queen-Mary_4565_Montreal_District_CA_H3W_1W5",
  "InstitutionName": "IUGM",
  "InstitutionalDepartmentName": "Department",
  "MRAcquisitionType": "2D",
  "MagneticFieldStrength": 3,
  "Manufacturer": "Siemens",
  "ManufacturersModelName": "Prisma_fit",
  "Modality": "MR",
  "MultibandAccelerationFactor": 4,
  "PartialFourier": 1,
  "PatientPosition": "HFS",
  "PercentPhaseFOV": 100,
  "PhaseEncodingDirection": "j",
  "PhaseEncodingSteps": 104,
  "PhaseResolution": 1,
  "PixelBandwidth": 2290,
  "ProcedureStepDescription": "memory_things",
  "ProtocolName": "func_task-things_run-3",
  "PulseSequenceDetails": "%CustomerSeq%_cmrr_mbep2d_bold",
  "ReceiveCoilActiveElements": "HC1-7;NC1,2",
  "ReceiveCoilName": "HeadNeck_64",
  "ReconMatrixPE": 104,
  "RepetitionTime": 1.49,
  "SAR": 0.0611485,
  "ScanOptions": "FS",
  "ScanningSequence": "EP",
  "SequenceName": "epfid2d1_104",
  "SequenceVariant": "SK_SS",
  "SeriesDescription": "func_task-things_run-3",
  "SeriesNumber": 17,
  "ShimSetting": [640, -7185, -8815, 611, 91, 39, -61, 15],
  "SliceThickness": 2,
  "SliceTiming": [0, 0.785, 0.0975, 0.8825, 0.1975, 0.98, 0.295, 1.0775, 0.3925, 1.1775, 0.49, 1.275, 0.5875, 1.3725, 0.6875, 0, 0.785, 0.0975, 0.8825, 0.1975, 0.98, 0.295, 1.0775, 0.3925, 1.1775, 0.49, 1.275, 0.5875, 1.3725, 0.6875, 0, 0.785, 0.0975, 0.8825, 0.1975, 0.98, 0.295, 1.0775, 0.3925, 1.1775, 0.49, 1.275, 0.5875, 1.3725, 0.6875, 0, 0.785, 0.0975, 0.8825, 0.1975, 0.98, 0.295, 1.0775, 0.3925, 1.1775, 0.49, 1.275, 0.5875, 1.3725, 0.6875],
  "SoftwareVersions": "syngo_MR_E11",
  "SpacingBetweenSlices": 2,
  "StationName": "MRC35049",
  "TaskName": "things",
  "TotalReadoutTime": 0.0576811,
  "TxRefAmp": 296.276,
  "WipMemBlock": "3f348e40-8494-4fd2-923a-1fbec940c21f||Sequence: R016 ve11c/master r/e634e98; Dec 19 2017 11:00:25 by eja",
  "dcmmeta_affine": [
    [-1.9940478801727295, 0.017053641378879547, 0.1532392054796219, 103.0791244506836],
    [-0.04342421889305115, 1.845152497291565, -0.7704068422317505, -55.896446228027344],
    [0.14794397354125977, 0.7714412212371826, 1.8392908573150635, -68.5754623413086],
    [0.0, 0.0, 0.0, 1.0]
],
  "dcmmeta_reorient_transform": [
    [0.0, -1.0, 0.0, 103.0],
    [1.0, 0.0, 0.0, 0.0],
    [0.0, 0.0, 1.0, 0.0],
    [0.0, 0.0, 0.0, 1.0]
],
  "dcmmeta_shape": [104, 104, 60, 190],
  "dcmmeta_slice_dim": 2,
  "dcmmeta_version": 0.6,
  "global": {
    "const": {
      "AcquisitionMatrix": [104, 0, 0, 104],
      "AngioFlag": "N",
      "BitsAllocated": 16,
      "BitsStored": 16,
      "BodyPartExamined": "BRAIN",
      "Columns": 832,
      "EchoNumbers": 1,
      "EchoTime": 37.0,
      "EchoTrainLength": 104,
      "FlipAngle": 52.0,
      "HighBit": 15,
      "ImageOrientationPatient": [0.99702393623566, 0.02171210874041, 0.0739719873141, 0.00852682084959, 0.92257623280419, -0.3857206087196],
      "ImagePositionPatient": [-836.8766002348, -821.59616905549, 237.83597933691],
      "ImageType": [
        "ORIGINAL",
        "PRIMARY",
        "P",
        "MB",
        "ND",
        "MOSAIC"
],
      "ImagedNucleus": "1H",
      "ImagingFrequency": 123.258928,
      "InPlanePhaseEncodingDirection": "COL",
      "LargestImagePixelValue": 4095,
      "MRAcquisitionType": "2D",
      "MagneticFieldStrength": 3.0,
      "Manufacturer": "SIEMENS",
      "ManufacturerModelName": "Prisma_fit",
      "Modality": "MR",
      "NumberOfAverages": 1.0,
      "NumberOfPhaseEncodingSteps": 104,
      "PercentPhaseFieldOfView": 100.0,
      "PercentSampling": 100.0,
      "PerformedProcedureStepStartTime": "172852.753000",
      "PhotometricInterpretation": "MONOCHROME2",
      "PixelBandwidth": 2290.0,
      "PixelRepresentation": 0,
      "PixelSpacing": [2.0, 2.0],
      "ProtocolName": "func_task-things_run-3",
      "RepetitionTime": 1490.0,
      "RescaleIntercept": -4096.0,
      "RescaleSlope": 2.0,
      "RescaleType": "US",
      "Rows": 832,
      "SAR": 0.06114849773324,
      "SamplesPerPixel": 1,
      "ScanOptions": "FS",
      "ScanningSequence": "EP",
      "SequenceName": "epfid2d1_104",
      "SequenceVariant": [
        "SK",
        "SS"
],
      "SeriesDescription": "func_task-things_run-3",
      "SeriesNumber": 17,
      "SeriesTime": "174931.568000",
      "SliceLocation": -33.635727293889,
      "SliceThickness": 2.0,
      "SmallestImagePixelValue": 0,
      "SoftwareVersions": "syngo MR E11",
      "SpacingBetweenSlices": 1.999999938679,
      "SpecificCharacterSet": "ISO_IR 100",
      "StudyID": "1",
      "StudyTime": "172852.606000",
      "TransmitCoilName": "Body",
      "VariableFlipAngleFlag": "N",
      "WindowCenterWidthExplanation": "Algo1",
      "dBdt": 0.0},
    "slices": {}
  },
  "time": {
    "samples": {
      "AcquisitionNumber": [1, 2, 3, 4, 5, 6, 7, 8, 9, 10, 11, 12, 13, 14, 15, 16, 17, 18, 19, 20, 21, 22, 23, 24, 25, 26, 27, 28, 29, 30, 31, 32, 33, 34, 35, 36, 37, 38, 39, 40, 41, 42, 43, 44, 45, 46, 47, 48, 49, 50, 51, 52, 53, 54, 55, 56, 57, 58, 59, 60, 61, 62, 63, 64, 65, 66, 67, 68, 69, 70, 71, 72, 73, 74, 75, 76, 77, 78, 79, 80, 81, 82, 83, 84, 85, 86, 87, 88, 89, 90, 91, 92, 93, 94, 95, 96, 97, 98, 99, 100, 101, 102, 103, 104, 105, 106, 107, 108, 109, 110, 111, 112, 113, 114, 115, 116, 117, 118, 119, 120, 121, 122, 123, 124, 125, 126, 127, 128, 129, 130, 131, 132, 133, 134, 135, 136, 137, 138, 139, 140, 141, 142, 143, 144, 145, 146, 147, 148, 149, 150, 151, 152, 153, 154, 155, 156, 157, 158, 159, 160, 161, 162, 163, 164, 165, 166, 167, 168, 169, 170, 171, 172, 173, 174, 175, 176, 177, 178, 179, 180, 181, 182, 183, 184, 185, 186, 187, 188, 189, 190],
      "AcquisitionTime": ["174758.442500", "174759.932500", "174801.422500", "174802.912500", "174804.402500", "174805.892500", "174807.382500", "174808.872500", "174810.362500", "174811.852500", "174813.342500", "174814.832500", "174816.322500", "174817.812500", "174819.302500", "174820.792500", "174822.282500", "174823.772500", "174825.262500", "174826.752500", "174828.242500", "174829.732500", "174831.222500", "174832.712500", "174834.202500", "174835.692500", "174837.182500", "174838.672500", "174840.162500", "174841.652500", "174843.142500", "174844.632500", "174846.122500", "174847.612500", "174849.102500", "174850.592500", "174852.082500", "174853.572500", "174855.062500", "174856.552500", "174858.042500", "174859.532500", "174901.022500", "174902.512500", "174904.002500", "174905.492500", "174906.982500", "174908.472500", "174909.962500", "174911.452500", "174912.942500", "174914.432500", "174915.922500", "174917.412500", "174918.902500", "174920.392500", "174921.882500", "174923.372500", "174924.862500", "174926.352500", "174927.842500", "174929.332500", "174930.822500", "174932.312500", "174933.802500", "174935.292500", "174936.782500", "174938.272500", "174939.762500", "174941.252500", "174942.742500", "174944.232500", "174945.722500", "174947.212500", "174948.702500", "174950.192500", "174951.682500", "174953.172500", "174954.662500", "174956.152500", "174957.642500", "174959.132500", "175000.622500", "175002.112500", "175003.602500", "175005.092500", "175006.582500", "175008.072500", "175009.562500", "175011.052500", "175012.542500", "175014.032500", "175015.522500", "175017.012500", "175018.502500", "175019.992500", "175021.482500", "175022.972500", "175024.462500", "175025.952500", "175027.442500", "175028.932500", "175030.422500", "175031.912500", "175033.402500", "175034.892500", "175036.382500", "175037.872500", "175039.362500", "175040.852500", "175042.342500", "175043.832500", "175045.322500", "175046.812500", "175048.302500", "175049.792500", "175051.282500", "175052.772500", "175054.262500", "175055.752500", "175057.242500", "175058.732500", "175100.222500", "175101.712500", "175103.202500", "175104.692500", "175106.182500", "175107.672500", "175109.162500", "175110.652500", "175112.142500", "175113.632500", "175115.122500", "175116.612500", "175118.102500", "175119.592500", "175121.082500", "175122.572500", "175124.062500", "175125.552500", "175127.042500", "175128.532500", "175130.022500", "175131.512500", "175133.002500", "175134.492500", "175135.982500", "175137.472500", "175138.962500", "175140.452500", "175141.942500", "175143.432500", "175144.922500", "175146.412500", "175147.902500", "175149.392500", "175150.882500", "175152.372500", "175153.862500", "175155.352500", "175156.842500", "175158.332500", "175159.822500", "175201.312500", "175202.802500", "175204.292500", "175205.782500", "175207.272500", "175208.762500", "175210.252500", "175211.742500", "175213.232500", "175214.722500", "175216.212500", "175217.702500", "175219.192500", "175220.682500", "175222.172500", "175223.662500", "175225.152500", "175226.642500", "175228.132500", "175229.622500", "175231.112500", "175232.602500", "175234.092500", "175235.582500", "175237.072500", "175238.562500", "175240.052500"],
      "ContentTime": ["174931.570000", "174931.573000", "174931.575000", "174931.578000", "174931.580000", "174931.583000", "174931.585000", "174931.588000", "174931.590000", "174931.593000", "174931.595000", "174931.597000", "174931.600000", "174931.602000", "174931.605000", "174931.607000", "174931.610000", "174931.612000", "174931.615000", "174931.617000", "174931.620000", "174931.622000", "174931.625000", "174931.627000", "174931.629000", "174931.632000", "174931.634000", "174931.637000", "174931.639000", "174931.642000", "174931.644000", "174931.647000", "174931.649000", "174931.656000", "174931.659000", "174931.661000", "174931.663000", "174951.464000", "174951.467000", "174951.469000", "174951.472000", "174951.475000", "174951.477000", "174951.479000", "174951.482000", "174951.484000", "174951.487000", "174951.489000", "174951.492000", "174951.494000", "174951.497000", "174951.499000", "174951.502000", "174951.504000", "174951.507000", "174951.509000", "174951.511000", "175011.959000", "175011.962000", "175011.964000", "175011.966000", "175011.969000", "175011.971000", "175011.974000", "175011.976000", "175011.979000", "175011.981000", "175011.984000", "175011.986000", "175011.989000", "175011.991000", "175011.994000", "175011.996000", "175011.998000", "175012.002000", "175012.004000", "175012.007000", "175031.478000", "175031.481000", "175031.483000", "175031.486000", "175031.488000", "175031.490000", "175031.493000", "175031.495000", "175031.498000", "175031.501000", "175031.503000", "175031.506000", "175031.508000", "175031.511000", "175031.513000", "175031.516000", "175031.518000", "175031.521000", "175031.523000", "175031.526000", "175111.521000", "175111.523000", "175111.526000", "175111.528000", "175111.531000", "175111.533000", "175111.536000", "175111.538000", "175111.541000", "175111.543000", "175111.546000", "175111.548000", "175111.551000", "175111.553000", "175111.555000", "175111.558000", "175111.560000", "175111.563000", "175111.565000", "175111.568000", "175111.570000", "175111.573000", "175111.575000", "175111.578000", "175111.580000", "175111.583000", "175111.585000", "175111.597000", "175111.600000", "175111.602000", "175111.605000", "175111.607000", "175151.529000", "175151.532000", "175151.534000", "175151.537000", "175151.539000", "175151.542000", "175151.544000", "175151.547000", "175151.549000", "175151.552000", "175151.554000", "175151.557000", "175151.559000", "175151.562000", "175151.564000", "175151.566000", "175151.569000", "175151.572000", "175151.574000", "175151.576000", "175151.579000", "175151.581000", "175151.584000", "175151.586000", "175151.589000", "175151.591000", "175231.492000", "175231.495000", "175231.497000", "175231.500000", "175231.502000", "175231.505000", "175231.507000", "175231.510000", "175231.512000", "175231.515000", "175231.517000", "175231.520000", "175231.522000", "175231.525000", "175231.527000", "175231.530000", "175231.532000", "175231.535000", "175231.537000", "175231.540000", "175231.542000", "175231.545000", "175231.547000", "175231.550000", "175231.552000", "175231.555000", "175231.557000", "175242.175000", "175242.178000", "175242.181000", "175242.183000", "175242.186000", "175242.188000", "175242.191000", "175242.193000"],
      "InstanceCreationTime": ["174931.570000", "174931.573000", "174931.575000", "174931.578000", "174931.580000", "174931.583000", "174931.585000", "174931.588000", "174931.590000", "174931.593000", "174931.595000", "174931.597000", "174931.600000", "174931.602000", "174931.605000", "174931.607000", "174931.610000", "174931.612000", "174931.615000", "174931.617000", "174931.620000", "174931.622000", "174931.625000", "174931.627000", "174931.629000", "174931.632000", "174931.634000", "174931.637000", "174931.639000", "174931.642000", "174931.644000", "174931.647000", "174931.649000", "174931.656000", "174931.659000", "174931.661000", "174931.663000", "174951.464000", "174951.467000", "174951.469000", "174951.472000", "174951.475000", "174951.477000", "174951.479000", "174951.482000", "174951.484000", "174951.487000", "174951.489000", "174951.492000", "174951.494000", "174951.497000", "174951.499000", "174951.502000", "174951.504000", "174951.507000", "174951.509000", "174951.511000", "175011.959000", "175011.962000", "175011.964000", "175011.966000", "175011.969000", "175011.971000", "175011.974000", "175011.976000", "175011.979000", "175011.981000", "175011.984000", "175011.986000", "175011.989000", "175011.991000", "175011.994000", "175011.996000", "175011.998000", "175012.002000", "175012.004000", "175012.007000", "175031.478000", "175031.481000", "175031.483000", "175031.486000", "175031.488000", "175031.490000", "175031.493000", "175031.495000", "175031.498000", "175031.501000", "175031.503000", "175031.506000", "175031.508000", "175031.511000", "175031.513000", "175031.516000", "175031.518000", "175031.521000", "175031.523000", "175031.526000", "175111.521000", "175111.523000", "175111.526000", "175111.528000", "175111.531000", "175111.533000", "175111.536000", "175111.538000", "175111.541000", "175111.543000", "175111.546000", "175111.548000", "175111.551000", "175111.553000", "175111.555000", "175111.558000", "175111.560000", "175111.563000", "175111.565000", "175111.568000", "175111.570000", "175111.573000", "175111.575000", "175111.578000", "175111.580000", "175111.583000", "175111.585000", "175111.597000", "175111.600000", "175111.602000", "175111.605000", "175111.607000", "175151.529000", "175151.532000", "175151.534000", "175151.537000", "175151.539000", "175151.542000", "175151.544000", "175151.547000", "175151.549000", "175151.552000", "175151.554000", "175151.557000", "175151.559000", "175151.562000", "175151.564000", "175151.566000", "175151.569000", "175151.572000", "175151.574000", "175151.576000", "175151.579000", "175151.581000", "175151.584000", "175151.586000", "175151.589000", "175151.591000", "175231.492000", "175231.495000", "175231.497000", "175231.500000", "175231.502000", "175231.505000", "175231.507000", "175231.510000", "175231.512000", "175231.515000", "175231.517000", "175231.520000", "175231.522000", "175231.525000", "175231.527000", "175231.530000", "175231.532000", "175231.535000", "175231.537000", "175231.540000", "175231.542000", "175231.545000", "175231.547000", "175231.550000", "175231.552000", "175231.555000", "175231.557000", "175242.175000", "175242.178000", "175242.181000", "175242.183000", "175242.186000", "175242.188000", "175242.191000", "175242.193000"],
      "InstanceNumber": [1, 2, 3, 4, 5, 6, 7, 8, 9, 10, 11, 12, 13, 14, 15, 16, 17, 18, 19, 20, 21, 22, 23, 24, 25, 26, 27, 28, 29, 30, 31, 32, 33, 34, 35, 36, 37, 38, 39, 40, 41, 42, 43, 44, 45, 46, 47, 48, 49, 50, 51, 52, 53, 54, 55, 56, 57, 58, 59, 60, 61, 62, 63, 64, 65, 66, 67, 68, 69, 70, 71, 72, 73, 74, 75, 76, 77, 78, 79, 80, 81, 82, 83, 84, 85, 86, 87, 88, 89, 90, 91, 92, 93, 94, 95, 96, 97, 98, 99, 100, 101, 102, 103, 104, 105, 106, 107, 108, 109, 110, 111, 112, 113, 114, 115, 116, 117, 118, 119, 120, 121, 122, 123, 124, 125, 126, 127, 128, 129, 130, 131, 132, 133, 134, 135, 136, 137, 138, 139, 140, 141, 142, 143, 144, 145, 146, 147, 148, 149, 150, 151, 152, 153, 154, 155, 156, 157, 158, 159, 160, 161, 162, 163, 164, 165, 166, 167, 168, 169, 170, 171, 172, 173, 174, 175, 176, 177, 178, 179, 180, 181, 182, 183, 184, 185, 186, 187, 188, 189, 190],
      "WindowCenter": [4820.0, 4824.0, 4846.0, 4820.0, 4822.0, 4818.0, 4822.0, 4818.0, 4820.0, 4822.0, 4824.0, 4824.0, 4820.0, 4822.0, 4824.0, 4818.0, 4820.0, 4818.0, 4818.0, 4818.0, 4822.0, 4824.0, 4820.0, 4826.0, 4822.0, 4824.0, 4820.0, 4820.0, 4818.0, 4820.0, 4818.0, 4822.0, 4820.0, 4822.0, 4822.0, 4818.0, 4822.0, 4822.0, 4820.0, 4822.0, 4818.0, 4822.0, 4820.0, 4820.0, 4822.0, 4824.0, 4824.0, 4820.0, 4826.0, 4822.0, 4818.0, 4822.0, 4818.0, 4820.0, 4824.0, 4822.0, 4818.0, 4822.0, 4818.0, 4818.0, 4820.0, 4818.0, 4822.0, 4820.0, 4820.0, 4820.0, 4818.0, 4818.0, 4824.0, 4794.0, 4824.0, 4822.0, 4824.0, 4822.0, 4824.0, 4820.0, 4820.0, 4820.0, 4822.0, 4824.0, 4820.0, 4822.0, 4822.0, 4822.0, 4818.0, 4824.0, 4822.0, 4822.0, 4818.0, 4820.0, 4822.0, 4818.0, 4820.0, 4816.0, 4818.0, 4818.0, 4818.0, 4820.0, 4826.0, 4826.0, 4822.0, 4820.0, 4822.0, 4820.0, 4816.0, 4794.0, 4794.0, 4820.0, 4820.0, 4824.0, 4844.0, 4822.0, 4822.0, 4818.0, 4822.0, 4844.0, 4846.0, 4824.0, 4822.0, 4818.0, 4794.0, 4822.0, 4820.0, 4820.0, 4822.0, 4824.0, 4822.0, 4820.0, 4822.0, 4818.0, 4822.0, 4818.0, 4816.0, 4818.0, 4820.0, 4820.0, 4822.0, 4822.0, 4820.0, 4820.0, 4824.0, 4818.0, 4820.0, 4822.0, 4820.0, 4818.0, 4820.0, 4822.0, 4844.0, 4824.0, 4846.0, 4824.0, 4822.0, 4820.0, 4820.0, 4822.0, 4822.0, 4818.0, 4848.0, 4850.0, 4822.0, 4824.0, 4820.0, 4818.0, 4820.0, 4818.0, 4822.0, 4824.0, 4820.0, 4824.0, 4824.0, 4824.0, 4844.0, 4820.0, 4846.0, 4848.0, 4824.0, 4848.0, 4822.0, 4820.0, 4820.0, 4824.0, 4822.0, 4846.0, 4848.0, 4846.0, 4846.0, 4820.0, 4848.0, 4844.0],
      "WindowWidth": [18584.0, 18586.0, 18622.0, 18582.0, 18584.0, 18582.0, 18586.0, 18586.0, 18590.0, 18592.0, 18588.0, 18594.0, 18584.0, 18592.0, 18586.0, 18582.0, 18586.0, 18582.0, 18582.0, 18584.0, 18590.0, 18592.0, 18582.0, 18590.0, 18582.0, 18584.0, 18580.0, 18584.0, 18584.0, 18586.0, 18584.0, 18590.0, 18590.0, 18592.0, 18590.0, 18588.0, 18592.0, 18590.0, 18584.0, 18590.0, 18586.0, 18588.0, 18590.0, 18584.0, 18588.0, 18588.0, 18590.0, 18584.0, 18592.0, 18586.0, 18584.0, 18588.0, 18580.0, 18586.0, 18592.0, 18590.0, 18588.0, 18592.0, 18584.0, 18586.0, 18586.0, 18590.0, 18588.0, 18590.0, 18586.0, 18582.0, 18584.0, 18584.0, 18590.0, 18554.0, 18590.0, 18586.0, 18586.0, 18592.0, 18584.0, 18584.0, 18586.0, 18582.0, 18588.0, 18586.0, 18586.0, 18588.0, 18586.0, 18588.0, 18584.0, 18592.0, 18590.0, 18588.0, 18588.0, 18588.0, 18588.0, 18584.0, 18588.0, 18582.0, 18582.0, 18584.0, 18584.0, 18586.0, 18596.0, 18594.0, 18592.0, 18592.0, 18588.0, 18592.0, 18588.0, 18554.0, 18556.0, 18592.0, 18594.0, 18604.0, 18626.0, 18592.0, 18598.0, 18592.0, 18588.0, 18622.0, 18626.0, 18590.0, 18590.0, 18586.0, 18552.0, 18596.0, 18592.0, 18590.0, 18598.0, 18598.0, 18592.0, 18596.0, 18588.0, 18582.0, 18590.0, 18586.0, 18584.0, 18588.0, 18588.0, 18592.0, 18594.0, 18594.0, 18596.0, 18588.0, 18592.0, 18588.0, 18582.0, 18586.0, 18594.0, 18584.0, 18590.0, 18590.0, 18624.0, 18596.0, 18628.0, 18596.0, 18592.0, 18590.0, 18592.0, 18592.0, 18590.0, 18588.0, 18624.0, 18622.0, 18594.0, 18594.0, 18592.0, 18588.0, 18584.0, 18586.0, 18590.0, 18592.0, 18590.0, 18594.0, 18594.0, 18592.0, 18626.0, 18592.0, 18624.0, 18626.0, 18594.0, 18626.0, 18588.0, 18590.0, 18588.0, 18590.0, 18592.0, 18626.0, 18628.0, 18628.0, 18628.0, 18594.0, 18626.0, 18624.0]
    },
    "slices": {}
  }
}