{
  "AcquisitionMatrixPE": 104,
  "AcquisitionNumber": 1,
  "AcquisitionTime": "17:54:28.285000",
  "BandwidthPerPixelPhaseEncode": 17.17,
  "BaseResolution": 104,
  "BodyPartExamined": "BRAIN",
  "CoilString": "HC1-7;NC1_2",
  "ConsistencyInfo": "N4_VE11C_LATEST_20160120",
  "ConversionSoftware": "dcm2niix",
  "ConversionSoftwareVersion": "v1.0.20190902",
  "DerivedVendorReportedEchoSpacing": 0.000560011,
  "DeviceSerialNumber": "167006",
  "DwellTime": 2.1e-06,
  "EchoTime": 0.037,
  "EchoTrainLength": 104,
  "EffectiveEchoSpacing": 0.000560011,
  "FlipAngle": 52,
  "ImageComments": "Unaliased_MB4_PE3_LB",
  "ImageOrientationPatientDICOM": [0.997024, 0.0217121, 0.073972, 0.00852682, 0.922576, -0.385721],
  "ImageType": [
    "ORIGINAL",
    "PRIMARY",
    "M",
    "MB",
    "ND",
    "MOSAIC"
],
  "ImagingFrequency": 123.259,
  "InPlanePhaseEncodingDirectionDICOM": "COL",
  "InstitutionAddress": "Chemin_Queen-Mary_4565_Montreal_District_CA_H3W_1W5",
  "InstitutionName": "IUGM",
  "InstitutionalDepartmentName": "Department",
  "MRAcquisitionType": "2D",
  "MagneticFieldStrength": 3,
  "Manufacturer": "Siemens",
  "ManufacturersModelName": "Prisma_fit",
  "Modality": "MR",
  "MultibandAccelerationFactor": 4,
  "PartialFourier": 1,
  "PatientPosition": "HFS",
  "PercentPhaseFOV": 100,
  "PhaseEncodingDirection": "j",
  "PhaseEncodingSteps": 104,
  "PhaseResolution": 1,
  "PixelBandwidth": 2290,
  "ProcedureStepDescription": "memory_things",
  "ProtocolName": "func_task-things_run-4",
  "PulseSequenceDetails": "%CustomerSeq%_cmrr_mbep2d_bold",
  "ReceiveCoilActiveElements": "HC1-7;NC1,2",
  "ReceiveCoilName": "HeadNeck_64",
  "ReconMatrixPE": 104,
  "RepetitionTime": 1.49,
  "SAR": 0.0611485,
  "ScanOptions": "FS",
  "ScanningSequence": "EP",
  "SequenceName": "epfid2d1_104",
  "SequenceVariant": "SK_SS",
  "SeriesDescription": "func_task-things_run-4",
  "SeriesNumber": 19,
  "ShimSetting": [640, -7185, -8815, 611, 91, 39, -61, 15],
  "SliceThickness": 2,
  "SliceTiming": [0, 0.7825, 0.0975, 0.8825, 0.195, 0.98, 0.2925, 1.0775, 0.3925, 1.175, 0.49, 1.2725, 0.5875, 1.3725, 0.685, 0, 0.7825, 0.0975, 0.8825, 0.195, 0.98, 0.2925, 1.0775, 0.3925, 1.175, 0.49, 1.2725, 0.5875, 1.3725, 0.685, 0, 0.7825, 0.0975, 0.8825, 0.195, 0.98, 0.2925, 1.0775, 0.3925, 1.175, 0.49, 1.2725, 0.5875, 1.3725, 0.685, 0, 0.7825, 0.0975, 0.8825, 0.195, 0.98, 0.2925, 1.0775, 0.3925, 1.175, 0.49, 1.2725, 0.5875, 1.3725, 0.685],
  "SoftwareVersions": "syngo_MR_E11",
  "SpacingBetweenSlices": 2,
  "StationName": "MRC35049",
  "TaskName": "things",
  "TotalReadoutTime": 0.0576811,
  "TxRefAmp": 296.276,
  "WipMemBlock": "5088d4ff-8873-4c14-8fd4-1db9456b485b||Sequence: R016 ve11c/master r/e634e98; Dec 19 2017 11:00:25 by eja",
  "dcmmeta_affine": [
    [-1.9940478801727295, 0.017053641378879547, 0.1532392054796219, 103.0791244506836],
    [-0.04342421889305115, 1.845152497291565, -0.7704068422317505, -55.896446228027344],
    [0.14794397354125977, 0.7714412212371826, 1.8392908573150635, -68.5754623413086],
    [0.0, 0.0, 0.0, 1.0]
],
  "dcmmeta_reorient_transform": [
    [0.0, -1.0, 0.0, 103.0],
    [1.0, 0.0, 0.0, 0.0],
    [0.0, 0.0, 1.0, 0.0],
    [0.0, 0.0, 0.0, 1.0]
],
  "dcmmeta_shape": [104, 104, 60, 190],
  "dcmmeta_slice_dim": 2,
  "dcmmeta_version": 0.6,
  "global": {
    "const": {
      "AcquisitionMatrix": [104, 0, 0, 104],
      "AngioFlag": "N",
      "BitsAllocated": 16,
      "BitsStored": 16,
      "BodyPartExamined": "BRAIN",
      "Columns": 832,
      "EchoNumbers": 1,
      "EchoTime": 37.0,
      "EchoTrainLength": 104,
      "FlipAngle": 52.0,
      "HighBit": 15,
      "ImageOrientationPatient": [0.99702393623566, 0.02171210874041, 0.0739719873141, 0.00852682084959, 0.92257623280419, -0.3857206087196],
      "ImagePositionPatient": [-836.8766002348, -821.59616905549, 237.83597933691],
      "ImageType": [
        "ORIGINAL",
        "PRIMARY",
        "M",
        "MB",
        "ND",
        "MOSAIC"
],
      "ImagedNucleus": "1H",
      "ImagingFrequency": 123.258932,
      "InPlanePhaseEncodingDirection": "COL",
      "MRAcquisitionType": "2D",
      "MagneticFieldStrength": 3.0,
      "Manufacturer": "SIEMENS",
      "ManufacturerModelName": "Prisma_fit",
      "Modality": "MR",
      "NumberOfAverages": 1.0,
      "NumberOfPhaseEncodingSteps": 104,
      "PercentPhaseFieldOfView": 100.0,
      "PercentSampling": 100.0,
      "PerformedProcedureStepStartTime": "172852.753000",
      "PhotometricInterpretation": "MONOCHROME2",
      "PixelBandwidth": 2290.0,
      "PixelRepresentation": 0,
      "PixelSpacing": [2.0, 2.0],
      "ProtocolName": "func_task-things_run-4",
      "RepetitionTime": 1490.0,
      "Rows": 832,
      "SAR": 0.06114849773324,
      "SamplesPerPixel": 1,
      "ScanOptions": "FS",
      "ScanningSequence": "EP",
      "SequenceName": "epfid2d1_104",
      "SequenceVariant": [
        "SK",
        "SS"
],
      "SeriesDescription": "func_task-things_run-4",
      "SeriesNumber": 19,
      "SeriesTime": "175546.997000",
      "SliceLocation": -33.635727293889,
      "SliceThickness": 2.0,
      "SmallestImagePixelValue": 0,
      "SoftwareVersions": "syngo MR E11",
      "SpacingBetweenSlices": 1.999999938679,
      "SpecificCharacterSet": "ISO_IR 100",
      "StudyID": "1",
      "StudyTime": "172852.606000",
      "TransmitCoilName": "Body",
      "VariableFlipAngleFlag": "N",
      "WindowCenterWidthExplanation": "Algo1",
      "dBdt": 0.0},
    "slices": {}
  },
  "time": {
    "samples": {
      "AcquisitionNumber": [1, 2, 3, 4, 5, 6, 7, 8, 9, 10, 11, 12, 13, 14, 15, 16, 17, 18, 19, 20, 21, 22, 23, 24, 25, 26, 27, 28, 29, 30, 31, 32, 33, 34, 35, 36, 37, 38, 39, 40, 41, 42, 43, 44, 45, 46, 47, 48, 49, 50, 51, 52, 53, 54, 55, 56, 57, 58, 59, 60, 61, 62, 63, 64, 65, 66, 67, 68, 69, 70, 71, 72, 73, 74, 75, 76, 77, 78, 79, 80, 81, 82, 83, 84, 85, 86, 87, 88, 89, 90, 91, 92, 93, 94, 95, 96, 97, 98, 99, 100, 101, 102, 103, 104, 105, 106, 107, 108, 109, 110, 111, 112, 113, 114, 115, 116, 117, 118, 119, 120, 121, 122, 123, 124, 125, 126, 127, 128, 129, 130, 131, 132, 133, 134, 135, 136, 137, 138, 139, 140, 141, 142, 143, 144, 145, 146, 147, 148, 149, 150, 151, 152, 153, 154, 155, 156, 157, 158, 159, 160, 161, 162, 163, 164, 165, 166, 167, 168, 169, 170, 171, 172, 173, 174, 175, 176, 177, 178, 179, 180, 181, 182, 183, 184, 185, 186, 187, 188, 189, 190],
      "AcquisitionTime": ["175428.285000", "175429.775000", "175431.265000", "175432.755000", "175434.245000", "175435.735000", "175437.225000", "175438.715000", "175440.205000", "175441.695000", "175443.185000", "175444.675000", "175446.165000", "175447.655000", "175449.145000", "175450.635000", "175452.125000", "175453.615000", "175455.105000", "175456.595000", "175458.085000", "175459.575000", "175501.065000", "175502.555000", "175504.045000", "175505.535000", "175507.025000", "175508.515000", "175510.005000", "175511.495000", "175512.985000", "175514.475000", "175515.965000", "175517.455000", "175518.945000", "175520.435000", "175521.925000", "175523.415000", "175524.905000", "175526.395000", "175527.885000", "175529.375000", "175530.865000", "175532.355000", "175533.845000", "175535.335000", "175536.825000", "175538.315000", "175539.805000", "175541.295000", "175542.785000", "175544.275000", "175545.765000", "175547.255000", "175548.745000", "175550.235000", "175551.725000", "175553.215000", "175554.705000", "175556.195000", "175557.685000", "175559.175000", "175600.665000", "175602.155000", "175603.645000", "175605.135000", "175606.625000", "175608.115000", "175609.605000", "175611.095000", "175612.585000", "175614.075000", "175615.565000", "175617.055000", "175618.545000", "175620.035000", "175621.525000", "175623.015000", "175624.505000", "175625.995000", "175627.485000", "175628.975000", "175630.465000", "175631.955000", "175633.445000", "175634.935000", "175636.425000", "175637.915000", "175639.405000", "175640.895000", "175642.385000", "175643.875000", "175645.365000", "175646.855000", "175648.345000", "175649.835000", "175651.325000", "175652.815000", "175654.305000", "175655.795000", "175657.285000", "175658.775000", "175700.265000", "175701.755000", "175703.245000", "175704.735000", "175706.225000", "175707.715000", "175709.205000", "175710.695000", "175712.185000", "175713.675000", "175715.165000", "175716.655000", "175718.145000", "175719.635000", "175721.125000", "175722.615000", "175724.105000", "175725.595000", "175727.085000", "175728.575000", "175730.065000", "175731.555000", "175733.045000", "175734.535000", "175736.025000", "175737.515000", "175739.005000", "175740.495000", "175741.985000", "175743.475000", "175744.965000", "175746.455000", "175747.945000", "175749.435000", "175750.925000", "175752.415000", "175753.905000", "175755.395000", "175756.885000", "175758.375000", "175759.865000", "175801.355000", "175802.845000", "175804.335000", "175805.825000", "175807.315000", "175808.805000", "175810.295000", "175811.785000", "175813.275000", "175814.765000", "175816.255000", "175817.745000", "175819.235000", "175820.725000", "175822.215000", "175823.705000", "175825.195000", "175826.685000", "175828.175000", "175829.665000", "175831.155000", "175832.645000", "175834.135000", "175835.625000", "175837.115000", "175838.605000", "175840.095000", "175841.585000", "175843.075000", "175844.565000", "175846.055000", "175847.545000", "175849.035000", "175850.525000", "175852.015000", "175853.505000", "175854.995000", "175856.485000", "175857.975000", "175859.465000", "175900.955000", "175902.445000", "175903.935000", "175905.425000", "175906.915000", "175908.405000", "175909.895000"],
      "ContentTime": ["175547.002000", "175547.006000", "175547.009000", "175547.012000", "175547.015000", "175547.019000", "175547.022000", "175547.025000", "175547.029000", "175547.032000", "175547.036000", "175547.039000", "175547.042000", "175547.045000", "175547.049000", "175547.052000", "175547.055000", "175547.059000", "175547.062000", "175547.065000", "175547.068000", "175547.072000", "175547.075000", "175547.078000", "175547.081000", "175547.085000", "175606.952000", "175606.956000", "175606.959000", "175606.962000", "175606.965000", "175606.972000", "175606.975000", "175606.978000", "175606.981000", "175606.985000", "175606.988000", "175606.991000", "175606.994000", "175606.998000", "175607.002000", "175607.005000", "175607.008000", "175607.012000", "175607.015000", "175607.018000", "175626.952000", "175626.956000", "175626.959000", "175626.962000", "175626.965000", "175626.969000", "175626.972000", "175626.975000", "175626.978000", "175626.982000", "175626.985000", "175626.988000", "175626.991000", "175626.995000", "175626.998000", "175627.002000", "175627.005000", "175627.009000", "175627.012000", "175627.015000", "175646.953000", "175646.957000", "175646.960000", "175646.963000", "175646.967000", "175646.970000", "175646.973000", "175646.976000", "175646.980000", "175646.983000", "175646.986000", "175646.989000", "175646.993000", "175646.996000", "175646.999000", "175647.003000", "175647.006000", "175647.009000", "175647.012000", "175647.016000", "175706.953000", "175706.957000", "175706.960000", "175706.963000", "175706.966000", "175706.970000", "175706.973000", "175706.976000", "175706.980000", "175706.983000", "175706.986000", "175706.989000", "175706.993000", "175706.996000", "175707.000000", "175707.004000", "175707.007000", "175707.010000", "175707.013000", "175707.016000", "175746.953000", "175746.957000", "175746.960000", "175746.968000", "175746.971000", "175746.974000", "175746.978000", "175746.981000", "175746.985000", "175746.988000", "175746.991000", "175746.994000", "175746.998000", "175747.002000", "175747.005000", "175747.009000", "175747.012000", "175747.015000", "175747.018000", "175747.022000", "175747.025000", "175747.028000", "175747.031000", "175747.035000", "175747.038000", "175747.041000", "175747.044000", "175826.952000", "175826.956000", "175826.959000", "175826.962000", "175826.966000", "175826.969000", "175826.972000", "175826.975000", "175826.979000", "175826.982000", "175826.985000", "175826.988000", "175826.992000", "175826.995000", "175826.998000", "175827.002000", "175827.006000", "175827.009000", "175827.012000", "175827.015000", "175827.020000", "175827.025000", "175827.029000", "175827.033000", "175827.036000", "175827.039000", "175906.953000", "175906.957000", "175906.960000", "175906.963000", "175906.967000", "175906.970000", "175906.973000", "175906.977000", "175906.980000", "175906.983000", "175906.986000", "175906.990000", "175906.993000", "175906.996000", "175907.000000", "175907.003000", "175907.006000", "175907.010000", "175907.013000", "175907.016000", "175907.019000", "175907.022000", "175907.026000", "175907.029000", "175907.032000", "175907.036000", "175907.039000", "175911.795000", "175911.799000", "175911.802000", "175911.805000"],
      "InstanceCreationTime": ["175547.002000", "175547.006000", "175547.009000", "175547.012000", "175547.015000", "175547.019000", "175547.022000", "175547.025000", "175547.029000", "175547.032000", "175547.036000", "175547.039000", "175547.042000", "175547.045000", "175547.049000", "175547.052000", "175547.055000", "175547.059000", "175547.062000", "175547.065000", "175547.068000", "175547.072000", "175547.075000", "175547.078000", "175547.081000", "175547.085000", "175606.952000", "175606.956000", "175606.959000", "175606.962000", "175606.965000", "175606.972000", "175606.975000", "175606.978000", "175606.981000", "175606.985000", "175606.988000", "175606.991000", "175606.994000", "175606.998000", "175607.002000", "175607.005000", "175607.008000", "175607.012000", "175607.015000", "175607.018000", "175626.952000", "175626.956000", "175626.959000", "175626.962000", "175626.965000", "175626.969000", "175626.972000", "175626.975000", "175626.978000", "175626.982000", "175626.985000", "175626.988000", "175626.991000", "175626.995000", "175626.998000", "175627.002000", "175627.005000", "175627.009000", "175627.012000", "175627.015000", "175646.953000", "175646.957000", "175646.960000", "175646.963000", "175646.967000", "175646.970000", "175646.973000", "175646.976000", "175646.980000", "175646.983000", "175646.986000", "175646.989000", "175646.993000", "175646.996000", "175646.999000", "175647.003000", "175647.006000", "175647.009000", "175647.012000", "175647.016000", "175706.953000", "175706.957000", "175706.960000", "175706.963000", "175706.966000", "175706.970000", "175706.973000", "175706.976000", "175706.980000", "175706.983000", "175706.986000", "175706.989000", "175706.993000", "175706.996000", "175707.000000", "175707.004000", "175707.007000", "175707.010000", "175707.013000", "175707.016000", "175746.953000", "175746.957000", "175746.960000", "175746.968000", "175746.971000", "175746.974000", "175746.978000", "175746.981000", "175746.985000", "175746.988000", "175746.991000", "175746.994000", "175746.998000", "175747.002000", "175747.005000", "175747.009000", "175747.012000", "175747.015000", "175747.018000", "175747.022000", "175747.025000", "175747.028000", "175747.031000", "175747.035000", "175747.038000", "175747.041000", "175747.044000", "175826.952000", "175826.956000", "175826.959000", "175826.962000", "175826.966000", "175826.969000", "175826.972000", "175826.975000", "175826.979000", "175826.982000", "175826.985000", "175826.988000", "175826.992000", "175826.995000", "175826.998000", "175827.002000", "175827.006000", "175827.009000", "175827.012000", "175827.015000", "175827.020000", "175827.025000", "175827.029000", "175827.033000", "175827.036000", "175827.039000", "175906.953000", "175906.957000", "175906.960000", "175906.963000", "175906.967000", "175906.970000", "175906.973000", "175906.977000", "175906.980000", "175906.983000", "175906.986000", "175906.990000", "175906.993000", "175906.996000", "175907.000000", "175907.003000", "175907.006000", "175907.010000", "175907.013000", "175907.016000", "175907.019000", "175907.022000", "175907.026000", "175907.029000", "175907.032000", "175907.036000", "175907.039000", "175911.795000", "175911.799000", "175911.802000", "175911.805000"],
      "InstanceNumber": [1, 2, 3, 4, 5, 6, 7, 8, 9, 10, 11, 12, 13, 14, 15, 16, 17, 18, 19, 20, 21, 22, 23, 24, 25, 26, 27, 28, 29, 30, 31, 32, 33, 34, 35, 36, 37, 38, 39, 40, 41, 42, 43, 44, 45, 46, 47, 48, 49, 50, 51, 52, 53, 54, 55, 56, 57, 58, 59, 60, 61, 62, 63, 64, 65, 66, 67, 68, 69, 70, 71, 72, 73, 74, 75, 76, 77, 78, 79, 80, 81, 82, 83, 84, 85, 86, 87, 88, 89, 90, 91, 92, 93, 94, 95, 96, 97, 98, 99, 100, 101, 102, 103, 104, 105, 106, 107, 108, 109, 110, 111, 112, 113, 114, 115, 116, 117, 118, 119, 120, 121, 122, 123, 124, 125, 126, 127, 128, 129, 130, 131, 132, 133, 134, 135, 136, 137, 138, 139, 140, 141, 142, 143, 144, 145, 146, 147, 148, 149, 150, 151, 152, 153, 154, 155, 156, 157, 158, 159, 160, 161, 162, 163, 164, 165, 166, 167, 168, 169, 170, 171, 172, 173, 174, 175, 176, 177, 178, 179, 180, 181, 182, 183, 184, 185, 186, 187, 188, 189, 190],
      "LargestImagePixelValue": [41856, 40332, 39443, 39015, 38768, 38597, 38835, 39093, 38370, 39165, 39757, 38602, 39209, 39382, 39047, 38823, 42741, 38478, 44613, 39710, 42380, 39561, 39896, 41241, 39773, 40034, 42712, 39229, 41570, 43833, 39923, 41012, 40193, 41508, 38751, 37476, 38660, 40923, 41236, 41290, 41887, 42682, 42516, 41491, 38574, 38154, 39122, 38172, 37997, 38258, 37952, 37647, 38949, 38325, 38303, 38872, 38495, 38374, 38353, 38301, 38729, 38611, 38646, 38603, 39321, 38872, 38146, 38830, 39753, 39429, 38540, 37396, 38087, 38183, 38186, 37932, 37788, 37420, 36680, 38942, 38497, 40626, 37888, 38171, 38616, 38900, 38623, 38939, 38827, 38869, 39119, 39513, 38709, 38659, 38782, 38805, 39239, 39399, 37974, 38785, 39789, 39374, 39504, 36547, 36801, 39291, 38028, 37940, 38385, 38668, 40199, 39189, 38757, 37642, 37260, 37784, 38936, 39622, 40328, 39578, 39962, 38949, 39369, 38986, 38291, 37381, 39050, 39809, 39191, 38836, 39129, 39017, 38601, 38403, 38559, 38753, 39302, 39472, 39264, 39533, 39199, 38736, 40514, 38955, 38896, 38832, 39887, 38890, 39221, 40128, 38887, 38670, 37979, 38167, 38672, 38682, 39418, 39490, 37427, 37126, 36113, 39030, 38502, 39266, 38765, 37997, 38251, 38873, 48497, 38981, 38881, 38556, 39102, 39144, 38444, 39416, 39774, 38363, 38897, 38139, 37946, 38713, 39203, 38763, 39749, 38576, 37763, 37992, 37756, 37298],
      "WindowCenter": [10502.0, 10434.0, 10372.0, 10356.0, 10375.0, 10368.0, 10345.0, 10324.0, 10329.0, 10340.0, 10336.0, 10334.0, 10350.0, 10352.0, 10349.0, 10353.0, 10400.0, 10348.0, 10396.0, 10368.0, 10405.0, 10379.0, 10376.0, 10387.0, 10388.0, 10388.0, 10426.0, 10393.0, 10411.0, 10426.0, 10404.0, 10426.0, 10408.0, 10413.0, 10360.0, 10331.0, 10363.0, 10412.0, 10441.0, 10440.0, 10429.0, 10425.0, 10440.0, 10424.0, 10386.0, 10392.0, 10420.0, 10394.0, 10387.0, 10402.0, 10393.0, 10391.0, 10431.0, 10416.0, 10394.0, 10407.0, 10387.0, 10365.0, 10365.0, 10367.0, 10362.0, 10346.0, 10361.0, 10355.0, 10348.0, 10332.0, 10333.0, 10340.0, 10351.0, 10323.0, 10265.0, 10233.0, 10252.0, 10262.0, 10272.0, 10300.0, 10326.0, 10320.0, 10317.0, 10342.0, 10331.0, 10365.0, 10357.0, 10338.0, 10334.0, 10341.0, 10317.0, 10322.0, 10300.0, 10289.0, 10295.0, 10295.0, 10286.0, 10305.0, 10322.0, 10336.0, 10351.0, 10343.0, 10328.0, 10338.0, 10335.0, 10326.0, 10326.0, 10312.0, 10320.0, 10384.0, 10387.0, 10370.0, 10360.0, 10326.0, 10307.0, 10287.0, 10279.0, 10291.0, 10296.0, 10338.0, 10360.0, 10368.0, 10348.0, 10313.0, 10306.0, 10297.0, 10321.0, 10332.0, 10232.0, 10393.0, 10424.0, 10436.0, 10453.0, 10397.0, 10385.0, 10380.0, 10368.0, 10368.0, 10358.0, 10365.0, 10379.0, 10352.0, 10343.0, 10346.0, 10325.0, 10321.0, 10349.0, 10324.0, 10323.0, 10316.0, 10337.0, 10332.0, 10348.0, 10358.0, 10355.0, 10337.0, 10339.0, 10339.0, 10374.0, 10394.0, 10391.0, 10360.0, 10312.0, 10293.0, 10289.0, 10357.0, 10379.0, 10417.0, 10405.0, 10361.0, 10340.0, 10303.0, 10422.0, 10332.0, 10351.0, 10346.0, 10363.0, 10363.0, 10342.0, 10335.0, 10339.0, 10314.0, 10332.0, 10347.0, 10368.0, 10401.0, 10420.0, 10364.0, 10326.0, 10288.0, 10271.0, 10294.0, 10306.0, 10309.0],
      "WindowWidth": [22310.0, 22144.0, 21987.0, 21945.0, 21990.0, 21974.0, 21920.0, 21865.0, 21883.0, 21906.0, 21893.0, 21896.0, 21933.0, 21932.0, 21929.0, 21943.0, 22048.0, 21939.0, 22024.0, 21973.0, 22055.0, 22002.0, 21985.0, 22013.0, 22021.0, 22023.0, 22103.0, 22042.0, 22070.0, 22093.0, 22056.0, 22107.0, 22070.0, 22063.0, 21950.0, 21887.0, 21956.0, 22061.0, 22130.0, 22126.0, 22096.0, 22083.0, 22122.0, 22090.0, 22012.0, 22027.0, 22086.0, 22032.0, 22015.0, 22046.0, 22029.0, 22028.0, 22113.0, 22084.0, 22027.0, 22051.0, 22007.0, 21955.0, 21956.0, 21962.0, 21949.0, 21913.0, 21948.0, 21935.0, 21911.0, 21876.0, 21889.0, 21904.0, 21919.0, 21849.0, 21718.0, 21652.0, 21694.0, 21719.0, 21741.0, 21805.0, 21868.0, 21855.0, 21847.0, 21893.0, 21872.0, 21948.0, 21941.0, 21893.0, 21879.0, 21896.0, 21843.0, 21852.0, 21805.0, 21775.0, 21796.0, 21793.0, 21771.0, 21816.0, 21857.0, 21891.0, 21921.0, 21903.0, 21875.0, 21900.0, 21888.0, 21863.0, 21864.0, 21845.0, 21862.0, 22002.0, 22016.0, 21965.0, 21942.0, 21871.0, 21811.0, 21771.0, 21755.0, 21788.0, 21802.0, 21897.0, 21944.0, 21962.0, 21910.0, 21830.0, 21811.0, 21801.0, 21855.0, 21881.0, 21658.0, 22035.0, 22097.0, 22119.0, 22163.0, 22034.0, 22002.0, 21988.0, 21967.0, 21963.0, 21939.0, 21953.0, 21986.0, 21921.0, 21902.0, 21907.0, 21864.0, 21856.0, 21918.0, 21859.0, 21858.0, 21845.0, 21891.0, 21884.0, 21924.0, 21950.0, 21941.0, 21894.0, 21902.0, 21904.0, 21986.0, 22034.0, 22023.0, 21948.0, 21838.0, 21796.0, 21795.0, 21939.0, 21994.0, 22079.0, 22053.0, 21948.0, 21897.0, 21822.0, 22073.0, 21878.0, 21929.0, 21922.0, 21958.0, 21959.0, 21912.0, 21886.0, 21891.0, 21844.0, 21878.0, 21919.0, 21970.0, 22046.0, 22093.0, 21959.0, 21860.0, 21779.0, 21742.0, 21794.0, 21826.0, 21833.0]
    },
    "slices": {}
  }
}