{
  "AcquisitionMatrixPE": 104,
  "AcquisitionNumber": 1,
  "AcquisitionTime": "13:41:58.327500",
  "BandwidthPerPixelPhaseEncode": 17.17,
  "BaseResolution": 104,
  "BodyPartExamined": "BRAIN",
  "CoilString": "HC1-7;NC1_2",
  "ConsistencyInfo": "N4_VE11C_LATEST_20160120",
  "ConversionSoftware": "dcm2niix",
  "ConversionSoftwareVersion": "v1.0.20190902",
  "DerivedVendorReportedEchoSpacing": 0.000560011,
  "DeviceSerialNumber": "167006",
  "DwellTime": 2.1e-06,
  "EchoTime": 0.037,
  "EchoTrainLength": 104,
  "EffectiveEchoSpacing": 0.000560011,
  "FlipAngle": 52,
  "ImageComments": "Unaliased_MB4_PE3_LB",
  "ImageOrientationPatientDICOM": [0.999574, -0.00310716, 0.0290068, 0.00976996, 0.972548, -0.232495],
  "ImageType": [
    "ORIGINAL",
    "PRIMARY",
    "M",
    "MB",
    "ND",
    "MOSAIC"
],
  "ImagingFrequency": 123.259,
  "InPlanePhaseEncodingDirectionDICOM": "COL",
  "InstitutionAddress": "Chemin_Queen-Mary_4565_Montreal_District_CA_H3W_1W5",
  "InstitutionName": "IUGM",
  "InstitutionalDepartmentName": "Department",
  "MRAcquisitionType": "2D",
  "MagneticFieldStrength": 3,
  "Manufacturer": "Siemens",
  "ManufacturersModelName": "Prisma_fit",
  "Modality": "MR",
  "MultibandAccelerationFactor": 4,
  "PartialFourier": 1,
  "PatientPosition": "HFS",
  "PercentPhaseFOV": 100,
  "PhaseEncodingDirection": "j",
  "PhaseEncodingSteps": 104,
  "PhaseResolution": 1,
  "PixelBandwidth": 2290,
  "ProcedureStepDescription": "memory_things",
  "ProtocolName": "func_task-things_run-2",
  "PulseSequenceDetails": "%CustomerSeq%_cmrr_mbep2d_bold",
  "ReceiveCoilActiveElements": "HC1-7;NC1,2",
  "ReceiveCoilName": "HeadNeck_64",
  "ReconMatrixPE": 104,
  "RepetitionTime": 1.49,
  "SAR": 0.0353979,
  "ScanOptions": "FS",
  "ScanningSequence": "EP",
  "SequenceName": "epfid2d1_104",
  "SequenceVariant": "SK_SS",
  "SeriesDescription": "func_task-things_run-2",
  "SeriesNumber": 13,
  "ShimSetting": [634, -7218, -8791, 733, 46, -10, 73, 7],
  "SliceThickness": 2,
  "SliceTiming": [0, 0.7825, 0.0975, 0.88, 0.195, 0.9775, 0.2925, 1.0775, 0.39, 1.175, 0.49, 1.2725, 0.5875, 1.37, 0.685, 0, 0.7825, 0.0975, 0.88, 0.195, 0.9775, 0.2925, 1.0775, 0.39, 1.175, 0.49, 1.2725, 0.5875, 1.37, 0.685, 0, 0.7825, 0.0975, 0.88, 0.195, 0.9775, 0.2925, 1.0775, 0.39, 1.175, 0.49, 1.2725, 0.5875, 1.37, 0.685, 0, 0.7825, 0.0975, 0.88, 0.195, 0.9775, 0.2925, 1.0775, 0.39, 1.175, 0.49, 1.2725, 0.5875, 1.37, 0.685],
  "SoftwareVersions": "syngo_MR_E11",
  "SpacingBetweenSlices": 2,
  "StationName": "MRC35049",
  "TaskName": "things",
  "TotalReadoutTime": 0.0576811,
  "TxRefAmp": 216.774,
  "WipMemBlock": "e9c9df73-033e-469d-a28c-abe07878da46||Sequence: R016 ve11c/master r/e634e98; Dec 19 2017 11:00:25 by eja",
  "dcmmeta_affine": [
    [-1.9991487264633179, 0.01953992433845997, 0.054976243525743484, 106.58506774902344],
    [0.006214312743395567, 1.9450969696044922, -0.4653593599796295, -76.6046371459961],
    [0.05801360309123993, 0.464990496635437, 1.9443297386169434, -63.433231353759766],
    [0.0, 0.0, 0.0, 1.0]
],
  "dcmmeta_reorient_transform": [
    [0.0, -1.0, 0.0, 103.0],
    [1.0, 0.0, 0.0, 0.0],
    [0.0, 0.0, 1.0, 0.0],
    [0.0, 0.0, 0.0, 1.0]
],
  "dcmmeta_shape": [104, 104, 60, 190],
  "dcmmeta_slice_dim": 2,
  "dcmmeta_version": 0.6,
  "global": {
    "const": {
      "AcquisitionMatrix": [104, 0, 0, 104],
      "AngioFlag": "N",
      "BitsAllocated": 16,
      "BitsStored": 16,
      "BodyPartExamined": "BRAIN",
      "Columns": 832,
      "EchoNumbers": 1,
      "EchoTime": 37.0,
      "EchoTrainLength": 104,
      "FlipAngle": 52.0,
      "HighBit": 15,
      "ImageOrientationPatient": [0.99957438493022, -0.0031071563014, 0.02900680215206, 0.00976996182736, 0.9725484615218, -0.2324952426126],
      "ImagePositionPatient": [-843.4003664917, -829.49361534524, 132.60037516943],
      "ImageType": [
        "ORIGINAL",
        "PRIMARY",
        "M",
        "MB",
        "ND",
        "MOSAIC"
],
      "ImagedNucleus": "1H",
      "ImagingFrequency": 123.258935,
      "InPlanePhaseEncodingDirection": "COL",
      "MRAcquisitionType": "2D",
      "MagneticFieldStrength": 3.0,
      "Manufacturer": "SIEMENS",
      "ManufacturerModelName": "Prisma_fit",
      "Modality": "MR",
      "NumberOfAverages": 1.0,
      "NumberOfPhaseEncodingSteps": 104,
      "PercentPhaseFieldOfView": 100.0,
      "PercentSampling": 100.0,
      "PerformedProcedureStepStartTime": "131441.465000",
      "PhotometricInterpretation": "MONOCHROME2",
      "PixelBandwidth": 2290.0,
      "PixelRepresentation": 0,
      "PixelSpacing": [2.0, 2.0],
      "ProtocolName": "func_task-things_run-2",
      "RepetitionTime": 1490.0,
      "Rows": 832,
      "SAR": 0.03539793385248,
      "SamplesPerPixel": 1,
      "ScanOptions": "FS",
      "ScanningSequence": "EP",
      "SequenceName": "epfid2d1_104",
      "SequenceVariant": [
        "SK",
        "SS"
],
      "SeriesDescription": "func_task-things_run-2",
      "SeriesNumber": 13,
      "SeriesTime": "134317.370000",
      "SliceLocation": -40.913391994743,
      "SliceThickness": 2.0,
      "SmallestImagePixelValue": 0,
      "SoftwareVersions": "syngo MR E11",
      "SpacingBetweenSlices": 2.0000000246223,
      "SpecificCharacterSet": "ISO_IR 100",
      "StudyID": "1",
      "StudyTime": "131441.234000",
      "TransmitCoilName": "Body",
      "VariableFlipAngleFlag": "N",
      "WindowCenterWidthExplanation": "Algo1",
      "dBdt": 0.0},
    "slices": {}
  },
  "time": {
    "samples": {
      "AcquisitionNumber": [1, 2, 3, 4, 5, 6, 7, 8, 9, 10, 11, 12, 13, 14, 15, 16, 17, 18, 19, 20, 21, 22, 23, 24, 25, 26, 27, 28, 29, 30, 31, 32, 33, 34, 35, 36, 37, 38, 39, 40, 41, 42, 43, 44, 45, 46, 47, 48, 49, 50, 51, 52, 53, 54, 55, 56, 57, 58, 59, 60, 61, 62, 63, 64, 65, 66, 67, 68, 69, 70, 71, 72, 73, 74, 75, 76, 77, 78, 79, 80, 81, 82, 83, 84, 85, 86, 87, 88, 89, 90, 91, 92, 93, 94, 95, 96, 97, 98, 99, 100, 101, 102, 103, 104, 105, 106, 107, 108, 109, 110, 111, 112, 113, 114, 115, 116, 117, 118, 119, 120, 121, 122, 123, 124, 125, 126, 127, 128, 129, 130, 131, 132, 133, 134, 135, 136, 137, 138, 139, 140, 141, 142, 143, 144, 145, 146, 147, 148, 149, 150, 151, 152, 153, 154, 155, 156, 157, 158, 159, 160, 161, 162, 163, 164, 165, 166, 167, 168, 169, 170, 171, 172, 173, 174, 175, 176, 177, 178, 179, 180, 181, 182, 183, 184, 185, 186, 187, 188, 189, 190],
      "AcquisitionTime": ["134158.327500", "134159.817500", "134201.307500", "134202.797500", "134204.287500", "134205.777500", "134207.267500", "134208.757500", "134210.247500", "134211.737500", "134213.227500", "134214.717500", "134216.207500", "134217.697500", "134219.187500", "134220.677500", "134222.167500", "134223.657500", "134225.147500", "134226.637500", "134228.127500", "134229.617500", "134231.107500", "134232.597500", "134234.087500", "134235.577500", "134237.067500", "134238.557500", "134240.047500", "134241.537500", "134243.027500", "134244.517500", "134246.007500", "134247.497500", "134248.987500", "134250.477500", "134251.967500", "134253.457500", "134254.947500", "134256.437500", "134257.927500", "134259.417500", "134300.907500", "134302.397500", "134303.887500", "134305.377500", "134306.867500", "134308.357500", "134309.847500", "134311.337500", "134312.827500", "134314.317500", "134315.807500", "134317.297500", "134318.787500", "134320.277500", "134321.767500", "134323.257500", "134324.747500", "134326.237500", "134327.727500", "134329.217500", "134330.707500", "134332.197500", "134333.687500", "134335.177500", "134336.667500", "134338.157500", "134339.647500", "134341.137500", "134342.627500", "134344.117500", "134345.607500", "134347.097500", "134348.587500", "134350.077500", "134351.567500", "134353.057500", "134354.547500", "134356.037500", "134357.527500", "134359.017500", "134400.507500", "134401.997500", "134403.487500", "134404.977500", "134406.467500", "134407.957500", "134409.447500", "134410.937500", "134412.427500", "134413.917500", "134415.407500", "134416.897500", "134418.387500", "134419.877500", "134421.367500", "134422.857500", "134424.347500", "134425.837500", "134427.327500", "134428.817500", "134430.307500", "134431.797500", "134433.287500", "134434.777500", "134436.267500", "134437.757500", "134439.247500", "134440.737500", "134442.227500", "134443.717500", "134445.207500", "134446.697500", "134448.187500", "134449.677500", "134451.167500", "134452.657500", "134454.147500", "134455.637500", "134457.127500", "134458.617500", "134500.107500", "134501.597500", "134503.087500", "134504.577500", "134506.067500", "134507.557500", "134509.047500", "134510.537500", "134512.027500", "134513.517500", "134515.007500", "134516.497500", "134517.987500", "134519.477500", "134520.967500", "134522.457500", "134523.947500", "134525.437500", "134526.927500", "134528.417500", "134529.907500", "134531.397500", "134532.887500", "134534.377500", "134535.867500", "134537.357500", "134538.847500", "134540.337500", "134541.827500", "134543.317500", "134544.807500", "134546.297500", "134547.787500", "134549.277500", "134550.767500", "134552.257500", "134553.747500", "134555.237500", "134556.727500", "134558.217500", "134559.707500", "134601.197500", "134602.687500", "134604.177500", "134605.667500", "134607.157500", "134608.647500", "134610.137500", "134611.627500", "134613.117500", "134614.607500", "134616.097500", "134617.587500", "134619.077500", "134620.567500", "134622.057500", "134623.547500", "134625.037500", "134626.527500", "134628.017500", "134629.507500", "134630.997500", "134632.487500", "134633.977500", "134635.467500", "134636.957500", "134638.447500", "134639.937500"],
      "ContentTime": ["134317.373000", "134317.377000", "134317.381000", "134317.384000", "134317.387000", "134317.391000", "134317.394000", "134317.398000", "134317.401000", "134317.405000", "134317.408000", "134317.411000", "134317.415000", "134317.418000", "134317.422000", "134317.425000", "134317.428000", "134317.432000", "134317.435000", "134317.439000", "134317.442000", "134317.445000", "134317.449000", "134317.452000", "134317.456000", "134317.459000", "134337.341000", "134337.345000", "134337.348000", "134337.352000", "134337.355000", "134337.359000", "134337.362000", "134337.365000", "134337.369000", "134337.372000", "134337.376000", "134337.379000", "134337.382000", "134337.386000", "134337.389000", "134337.392000", "134337.396000", "134337.399000", "134337.403000", "134337.406000", "134357.341000", "134357.345000", "134357.348000", "134357.352000", "134357.355000", "134357.358000", "134357.362000", "134357.365000", "134357.369000", "134357.372000", "134357.375000", "134357.379000", "134357.382000", "134357.387000", "134357.392000", "134357.396000", "134357.406000", "134357.410000", "134357.414000", "134357.417000", "134417.340000", "134417.344000", "134417.347000", "134417.351000", "134417.354000", "134417.357000", "134417.361000", "134417.364000", "134417.368000", "134417.371000", "134417.374000", "134417.378000", "134417.381000", "134417.385000", "134417.388000", "134417.391000", "134417.395000", "134417.398000", "134417.407000", "134417.410000", "134417.414000", "134457.340000", "134457.362000", "134457.370000", "134457.373000", "134457.377000", "134457.380000", "134457.384000", "134457.387000", "134457.391000", "134457.394000", "134457.398000", "134457.401000", "134457.404000", "134457.408000", "134457.411000", "134457.415000", "134457.418000", "134457.422000", "134457.425000", "134457.429000", "134457.432000", "134457.435000", "134457.439000", "134457.442000", "134457.446000", "134457.449000", "134457.453000", "134457.456000", "134457.459000", "134457.463000", "134457.466000", "134457.470000", "134537.341000", "134537.345000", "134537.349000", "134537.352000", "134537.355000", "134537.359000", "134537.362000", "134537.366000", "134537.369000", "134537.373000", "134537.376000", "134537.392000", "134537.395000", "134537.399000", "134537.402000", "134537.406000", "134537.409000", "134537.412000", "134537.416000", "134537.420000", "134537.423000", "134537.426000", "134537.430000", "134537.433000", "134537.437000", "134537.440000", "134537.444000", "134617.341000", "134617.345000", "134617.349000", "134617.352000", "134617.356000", "134617.359000", "134617.362000", "134617.366000", "134617.369000", "134617.373000", "134617.376000", "134617.379000", "134617.383000", "134617.386000", "134617.390000", "134617.393000", "134617.397000", "134617.400000", "134617.403000", "134617.407000", "134617.410000", "134617.414000", "134617.417000", "134617.420000", "134617.424000", "134617.427000", "134617.431000", "134642.222000", "134642.226000", "134642.230000", "134642.233000", "134642.237000", "134642.240000", "134642.244000", "134642.247000", "134642.251000", "134642.254000", "134642.258000", "134642.261000", "134642.265000", "134642.268000", "134642.272000", "134642.275000", "134642.278000"],
      "InstanceCreationTime": ["134317.373000", "134317.377000", "134317.381000", "134317.384000", "134317.387000", "134317.391000", "134317.394000", "134317.398000", "134317.401000", "134317.405000", "134317.408000", "134317.411000", "134317.415000", "134317.418000", "134317.422000", "134317.425000", "134317.428000", "134317.432000", "134317.435000", "134317.439000", "134317.442000", "134317.445000", "134317.449000", "134317.452000", "134317.456000", "134317.459000", "134337.341000", "134337.345000", "134337.348000", "134337.352000", "134337.355000", "134337.359000", "134337.362000", "134337.365000", "134337.369000", "134337.372000", "134337.376000", "134337.379000", "134337.382000", "134337.386000", "134337.389000", "134337.392000", "134337.396000", "134337.399000", "134337.403000", "134337.406000", "134357.341000", "134357.345000", "134357.348000", "134357.352000", "134357.355000", "134357.358000", "134357.362000", "134357.365000", "134357.369000", "134357.372000", "134357.375000", "134357.379000", "134357.382000", "134357.387000", "134357.392000", "134357.396000", "134357.406000", "134357.410000", "134357.414000", "134357.417000", "134417.340000", "134417.344000", "134417.347000", "134417.351000", "134417.354000", "134417.357000", "134417.361000", "134417.364000", "134417.368000", "134417.371000", "134417.374000", "134417.378000", "134417.381000", "134417.385000", "134417.388000", "134417.391000", "134417.395000", "134417.398000", "134417.407000", "134417.410000", "134417.414000", "134457.340000", "134457.362000", "134457.370000", "134457.373000", "134457.377000", "134457.380000", "134457.384000", "134457.387000", "134457.391000", "134457.394000", "134457.398000", "134457.401000", "134457.404000", "134457.408000", "134457.411000", "134457.415000", "134457.418000", "134457.422000", "134457.425000", "134457.429000", "134457.432000", "134457.435000", "134457.439000", "134457.442000", "134457.446000", "134457.449000", "134457.453000", "134457.456000", "134457.459000", "134457.463000", "134457.466000", "134457.470000", "134537.341000", "134537.345000", "134537.349000", "134537.352000", "134537.355000", "134537.359000", "134537.362000", "134537.366000", "134537.369000", "134537.373000", "134537.376000", "134537.392000", "134537.395000", "134537.399000", "134537.402000", "134537.406000", "134537.409000", "134537.412000", "134537.416000", "134537.420000", "134537.423000", "134537.426000", "134537.430000", "134537.433000", "134537.437000", "134537.440000", "134537.444000", "134617.341000", "134617.345000", "134617.349000", "134617.352000", "134617.356000", "134617.359000", "134617.362000", "134617.366000", "134617.369000", "134617.373000", "134617.376000", "134617.379000", "134617.383000", "134617.386000", "134617.390000", "134617.393000", "134617.397000", "134617.400000", "134617.403000", "134617.407000", "134617.410000", "134617.414000", "134617.417000", "134617.420000", "134617.424000", "134617.427000", "134617.431000", "134642.222000", "134642.226000", "134642.230000", "134642.233000", "134642.237000", "134642.240000", "134642.244000", "134642.247000", "134642.251000", "134642.254000", "134642.258000", "134642.261000", "134642.265000", "134642.268000", "134642.272000", "134642.275000", "134642.278000"],
      "InstanceNumber": [1, 2, 3, 4, 5, 6, 7, 8, 9, 10, 11, 12, 13, 14, 15, 16, 17, 18, 19, 20, 21, 22, 23, 24, 25, 26, 27, 28, 29, 30, 31, 32, 33, 34, 35, 36, 37, 38, 39, 40, 41, 42, 43, 44, 45, 46, 47, 48, 49, 50, 51, 52, 53, 54, 55, 56, 57, 58, 59, 60, 61, 62, 63, 64, 65, 66, 67, 68, 69, 70, 71, 72, 73, 74, 75, 76, 77, 78, 79, 80, 81, 82, 83, 84, 85, 86, 87, 88, 89, 90, 91, 92, 93, 94, 95, 96, 97, 98, 99, 100, 101, 102, 103, 104, 105, 106, 107, 108, 109, 110, 111, 112, 113, 114, 115, 116, 117, 118, 119, 120, 121, 122, 123, 124, 125, 126, 127, 128, 129, 130, 131, 132, 133, 134, 135, 136, 137, 138, 139, 140, 141, 142, 143, 144, 145, 146, 147, 148, 149, 150, 151, 152, 153, 154, 155, 156, 157, 158, 159, 160, 161, 162, 163, 164, 165, 166, 167, 168, 169, 170, 171, 172, 173, 174, 175, 176, 177, 178, 179, 180, 181, 182, 183, 184, 185, 186, 187, 188, 189, 190],
      "LargestImagePixelValue": [40509, 39802, 38596, 38091, 38019, 37696, 37477, 37748, 37941, 37915, 37977, 38384, 38252, 37576, 37329, 37380, 37963, 37709, 37994, 37676, 37931, 37854, 37903, 38035, 37715, 37623, 38364, 37537, 37716, 38165, 37772, 38251, 37951, 37833, 38053, 37981, 37965, 37732, 37818, 37789, 37620, 38303, 37997, 38028, 37921, 38088, 37834, 37974, 37767, 38097, 38019, 38013, 37891, 37799, 37734, 37798, 37969, 37651, 37837, 37793, 38366, 37765, 37696, 38070, 38009, 37835, 37984, 37832, 37897, 37969, 37968, 37686, 37537, 37141, 37416, 37714, 37865, 37491, 37347, 37536, 37780, 37781, 37639, 37617, 37391, 37742, 37492, 37801, 37529, 37359, 37436, 37849, 37807, 38212, 37811, 37691, 37645, 37683, 37590, 37829, 37509, 37881, 37630, 37743, 37383, 37407, 37070, 37545, 37678, 37449, 37731, 37775, 37779, 37597, 37448, 37469, 37341, 37414, 37854, 37121, 37367, 37347, 37322, 37665, 37518, 37747, 37469, 37309, 37492, 37483, 37243, 37662, 37342, 37743, 37513, 37404, 37728, 37418, 37485, 37101, 37256, 37217, 37097, 37576, 37398, 37821, 37367, 37466, 37432, 37327, 37451, 37615, 37325, 37885, 37441, 37541, 37098, 37649, 37298, 37442, 37002, 37150, 37144, 37291, 37613, 37422, 37167, 37316, 37391, 37727, 37959, 37230, 36973, 37246, 37439, 37324, 37345, 37852, 37170, 37557, 37363, 37691, 37360, 37315, 37682, 37533, 37075, 37693, 37734, 37775],
      "WindowCenter": [10132.0, 10100.0, 10115.0, 10127.0, 10134.0, 10120.0, 10105.0, 10088.0, 10090.0, 10090.0, 10107.0, 10130.0, 10134.0, 10131.0, 10128.0, 10121.0, 10117.0, 10108.0, 10107.0, 10116.0, 10109.0, 10101.0, 10093.0, 10100.0, 10108.0, 10127.0, 10140.0, 10114.0, 10092.0, 10066.0, 10057.0, 10068.0, 10078.0, 10090.0, 10115.0, 10124.0, 10117.0, 10100.0, 10091.0, 10089.0, 10089.0, 10101.0, 10098.0, 10091.0, 10097.0, 10091.0, 10101.0, 10099.0, 10094.0, 10097.0, 10106.0, 10108.0, 10110.0, 10100.0, 10092.0, 10089.0, 10098.0, 10106.0, 10110.0, 10110.0, 10116.0, 10109.0, 10119.0, 10118.0, 10103.0, 10084.0, 10074.0, 10073.0, 10081.0, 10100.0, 10109.0, 10111.0, 10102.0, 10102.0, 10099.0, 10101.0, 10099.0, 10095.0, 10100.0, 10108.0, 10106.0, 10111.0, 10126.0, 10127.0, 10111.0, 10102.0, 10101.0, 10114.0, 10102.0, 10093.0, 10083.0, 10083.0, 10091.0, 10098.0, 10101.0, 10102.0, 10101.0, 10106.0, 10109.0, 10107.0, 10088.0, 10084.0, 10089.0, 10084.0, 10084.0, 10077.0, 10077.0, 10083.0, 10093.0, 10093.0, 10094.0, 10092.0, 10106.0, 10104.0, 10103.0, 10095.0, 10085.0, 10075.0, 10089.0, 10093.0, 10091.0, 10071.0, 10059.0, 10065.0, 10072.0, 10083.0, 10090.0, 10092.0, 10087.0, 10091.0, 10101.0, 10115.0, 10112.0, 10102.0, 10086.0, 10078.0, 10092.0, 10103.0, 10112.0, 10098.0, 10081.0, 10069.0, 10057.0, 10057.0, 10057.0, 10072.0, 10074.0, 10082.0, 10084.0, 10085.0, 10085.0, 10091.0, 10091.0, 10091.0, 10093.0, 10100.0, 10095.0, 10109.0, 10129.0, 10123.0, 10099.0, 10064.0, 10043.0, 10032.0, 10054.0, 10067.0, 10077.0, 10071.0, 10084.0, 10084.0, 10099.0, 10089.0, 10086.0, 10084.0, 10086.0, 10078.0, 10077.0, 10074.0, 10079.0, 10093.0, 10093.0, 10078.0, 10068.0, 10058.0, 10065.0, 10075.0, 10068.0, 10051.0, 10047.0, 10038.0],
      "WindowWidth": [21593.0, 21497.0, 21523.0, 21546.0, 21557.0, 21523.0, 21488.0, 21450.0, 21450.0, 21451.0, 21490.0, 21539.0, 21552.0, 21549.0, 21540.0, 21524.0, 21510.0, 21489.0, 21486.0, 21505.0, 21490.0, 21473.0, 21458.0, 21474.0, 21492.0, 21535.0, 21560.0, 21503.0, 21450.0, 21392.0, 21371.0, 21393.0, 21418.0, 21448.0, 21506.0, 21527.0, 21511.0, 21468.0, 21447.0, 21440.0, 21445.0, 21467.0, 21464.0, 21450.0, 21462.0, 21450.0, 21472.0, 21467.0, 21457.0, 21463.0, 21484.0, 21488.0, 21494.0, 21470.0, 21451.0, 21444.0, 21465.0, 21483.0, 21495.0, 21494.0, 21506.0, 21493.0, 21515.0, 21512.0, 21474.0, 21433.0, 21408.0, 21406.0, 21427.0, 21470.0, 21491.0, 21497.0, 21478.0, 21476.0, 21469.0, 21474.0, 21466.0, 21460.0, 21471.0, 21487.0, 21482.0, 21497.0, 21529.0, 21534.0, 21498.0, 21477.0, 21472.0, 21502.0, 21478.0, 21455.0, 21433.0, 21432.0, 21453.0, 21467.0, 21477.0, 21479.0, 21473.0, 21481.0, 21491.0, 21485.0, 21446.0, 21435.0, 21443.0, 21437.0, 21436.0, 21422.0, 21422.0, 21435.0, 21460.0, 21457.0, 21459.0, 21455.0, 21484.0, 21484.0, 21480.0, 21462.0, 21437.0, 21415.0, 21443.0, 21458.0, 21449.0, 21405.0, 21378.0, 21389.0, 21404.0, 21432.0, 21448.0, 21453.0, 21444.0, 21450.0, 21474.0, 21507.0, 21502.0, 21475.0, 21439.0, 21422.0, 21453.0, 21481.0, 21500.0, 21470.0, 21432.0, 21400.0, 21372.0, 21371.0, 21375.0, 21406.0, 21413.0, 21431.0, 21436.0, 21438.0, 21437.0, 21449.0, 21451.0, 21450.0, 21456.0, 21470.0, 21459.0, 21490.0, 21537.0, 21523.0, 21469.0, 21389.0, 21338.0, 21315.0, 21364.0, 21395.0, 21419.0, 21407.0, 21432.0, 21435.0, 21469.0, 21450.0, 21440.0, 21433.0, 21439.0, 21422.0, 21418.0, 21411.0, 21424.0, 21452.0, 21452.0, 21418.0, 21395.0, 21374.0, 21390.0, 21411.0, 21396.0, 21355.0, 21345.0, 21327.0]
    },
    "slices": {}
  }
}