{
  "AcquisitionMatrixPE": 104,
  "AcquisitionNumber": 1,
  "AcquisitionTime": "13:35:49.400000",
  "BandwidthPerPixelPhaseEncode": 17.17,
  "BaseResolution": 104,
  "BodyPartExamined": "BRAIN",
  "CoilString": "HC1-7;NC1_2",
  "ConsistencyInfo": "N4_VE11C_LATEST_20160120",
  "ConversionSoftware": "dcm2niix",
  "ConversionSoftwareVersion": "v1.0.20190902",
  "DerivedVendorReportedEchoSpacing": 0.000560011,
  "DeviceSerialNumber": "167006",
  "DwellTime": 2.1e-06,
  "EchoTime": 0.037,
  "EchoTrainLength": 104,
  "EffectiveEchoSpacing": 0.000560011,
  "FlipAngle": 52,
  "ImageComments": "Unaliased_MB4_PE3_LB",
  "ImageOrientationPatientDICOM": [0.999574, -0.00310716, 0.0290068, 0.00976996, 0.972548, -0.232495],
  "ImageType": [
    "ORIGINAL",
    "PRIMARY",
    "P",
    "MB",
    "ND",
    "MOSAIC"
],
  "ImagingFrequency": 123.259,
  "InPlanePhaseEncodingDirectionDICOM": "COL",
  "InstitutionAddress": "Chemin_Queen-Mary_4565_Montreal_District_CA_H3W_1W5",
  "InstitutionName": "IUGM",
  "InstitutionalDepartmentName": "Department",
  "MRAcquisitionType": "2D",
  "MagneticFieldStrength": 3,
  "Manufacturer": "Siemens",
  "ManufacturersModelName": "Prisma_fit",
  "Modality": "MR",
  "MultibandAccelerationFactor": 4,
  "PartialFourier": 1,
  "PatientPosition": "HFS",
  "PercentPhaseFOV": 100,
  "PhaseEncodingDirection": "j",
  "PhaseEncodingSteps": 104,
  "PhaseResolution": 1,
  "PixelBandwidth": 2290,
  "ProcedureStepDescription": "memory_things",
  "ProtocolName": "func_task-things_run-1",
  "PulseSequenceDetails": "%CustomerSeq%_cmrr_mbep2d_bold",
  "ReceiveCoilActiveElements": "HC1-7;NC1,2",
  "ReceiveCoilName": "HeadNeck_64",
  "ReconMatrixPE": 104,
  "RepetitionTime": 1.49,
  "SAR": 0.0353979,
  "ScanOptions": "FS",
  "ScanningSequence": "EP",
  "SequenceName": "epfid2d1_104",
  "SequenceVariant": "SK_SS",
  "SeriesDescription": "func_task-things_run-1",
  "SeriesNumber": 11,
  "ShimSetting": [634, -7218, -8791, 733, 46, -10, 73, 7],
  "SliceThickness": 2,
  "SliceTiming": [0, 0.785, 0.0975, 0.8825, 0.195, 0.98, 0.295, 1.0775, 0.3925, 1.175, 0.49, 1.275, 0.5875, 1.3725, 0.685, 0, 0.785, 0.0975, 0.8825, 0.195, 0.98, 0.295, 1.0775, 0.3925, 1.175, 0.49, 1.275, 0.5875, 1.3725, 0.685, 0, 0.785, 0.0975, 0.8825, 0.195, 0.98, 0.295, 1.0775, 0.3925, 1.175, 0.49, 1.275, 0.5875, 1.3725, 0.685, 0, 0.785, 0.0975, 0.8825, 0.195, 0.98, 0.295, 1.0775, 0.3925, 1.175, 0.49, 1.275, 0.5875, 1.3725, 0.685],
  "SoftwareVersions": "syngo_MR_E11",
  "SpacingBetweenSlices": 2,
  "StationName": "MRC35049",
  "TaskName": "things",
  "TotalReadoutTime": 0.0576811,
  "TxRefAmp": 216.774,
  "WipMemBlock": "c826301a-8944-4e2d-8a90-e9e5bf6dfcaf||Sequence: R016 ve11c/master r/e634e98; Dec 19 2017 11:00:25 by eja",
  "dcmmeta_affine": [
    [-1.9991487264633179, 0.01953992433845997, 0.054976243525743484, 106.58506774902344],
    [0.006214312743395567, 1.9450969696044922, -0.4653593599796295, -76.6046371459961],
    [0.05801360309123993, 0.464990496635437, 1.9443297386169434, -63.433231353759766],
    [0.0, 0.0, 0.0, 1.0]
],
  "dcmmeta_reorient_transform": [
    [0.0, -1.0, 0.0, 103.0],
    [1.0, 0.0, 0.0, 0.0],
    [0.0, 0.0, 1.0, 0.0],
    [0.0, 0.0, 0.0, 1.0]
],
  "dcmmeta_shape": [104, 104, 60, 190],
  "dcmmeta_slice_dim": 2,
  "dcmmeta_version": 0.6,
  "global": {
    "const": {
      "AcquisitionMatrix": [104, 0, 0, 104],
      "AngioFlag": "N",
      "BitsAllocated": 16,
      "BitsStored": 16,
      "BodyPartExamined": "BRAIN",
      "Columns": 832,
      "EchoNumbers": 1,
      "EchoTime": 37.0,
      "EchoTrainLength": 104,
      "FlipAngle": 52.0,
      "HighBit": 15,
      "ImageOrientationPatient": [0.99957438493022, -0.0031071563014, 0.02900680215206, 0.00976996182736, 0.9725484615218, -0.2324952426126],
      "ImagePositionPatient": [-843.4003664917, -829.49361534524, 132.60037516943],
      "ImageType": [
        "ORIGINAL",
        "PRIMARY",
        "P",
        "MB",
        "ND",
        "MOSAIC"
],
      "ImagedNucleus": "1H",
      "ImagingFrequency": 123.258929,
      "InPlanePhaseEncodingDirection": "COL",
      "LargestImagePixelValue": 4095,
      "MRAcquisitionType": "2D",
      "MagneticFieldStrength": 3.0,
      "Manufacturer": "SIEMENS",
      "ManufacturerModelName": "Prisma_fit",
      "Modality": "MR",
      "NumberOfAverages": 1.0,
      "NumberOfPhaseEncodingSteps": 104,
      "PercentPhaseFieldOfView": 100.0,
      "PercentSampling": 100.0,
      "PerformedProcedureStepStartTime": "131441.465000",
      "PhotometricInterpretation": "MONOCHROME2",
      "PixelBandwidth": 2290.0,
      "PixelRepresentation": 0,
      "PixelSpacing": [2.0, 2.0],
      "ProtocolName": "func_task-things_run-1",
      "RepetitionTime": 1490.0,
      "RescaleIntercept": -4096.0,
      "RescaleSlope": 2.0,
      "RescaleType": "US",
      "Rows": 832,
      "SAR": 0.03539793385248,
      "SamplesPerPixel": 1,
      "ScanOptions": "FS",
      "ScanningSequence": "EP",
      "SequenceName": "epfid2d1_104",
      "SequenceVariant": [
        "SK",
        "SS"
],
      "SeriesDescription": "func_task-things_run-1",
      "SeriesNumber": 11,
      "SeriesTime": "133714.045000",
      "SliceLocation": -40.913391994743,
      "SliceThickness": 2.0,
      "SmallestImagePixelValue": 0,
      "SoftwareVersions": "syngo MR E11",
      "SpacingBetweenSlices": 2.0000000246223,
      "SpecificCharacterSet": "ISO_IR 100",
      "StudyID": "1",
      "StudyTime": "131441.234000",
      "TransmitCoilName": "Body",
      "VariableFlipAngleFlag": "N",
      "WindowCenterWidthExplanation": "Algo1",
      "dBdt": 0.0},
    "slices": {}
  },
  "time": {
    "samples": {
      "AcquisitionNumber": [1, 2, 3, 4, 5, 6, 7, 8, 9, 10, 11, 12, 13, 14, 15, 16, 17, 18, 19, 20, 21, 22, 23, 24, 25, 26, 27, 28, 29, 30, 31, 32, 33, 34, 35, 36, 37, 38, 39, 40, 41, 42, 43, 44, 45, 46, 47, 48, 49, 50, 51, 52, 53, 54, 55, 56, 57, 58, 59, 60, 61, 62, 63, 64, 65, 66, 67, 68, 69, 70, 71, 72, 73, 74, 75, 76, 77, 78, 79, 80, 81, 82, 83, 84, 85, 86, 87, 88, 89, 90, 91, 92, 93, 94, 95, 96, 97, 98, 99, 100, 101, 102, 103, 104, 105, 106, 107, 108, 109, 110, 111, 112, 113, 114, 115, 116, 117, 118, 119, 120, 121, 122, 123, 124, 125, 126, 127, 128, 129, 130, 131, 132, 133, 134, 135, 136, 137, 138, 139, 140, 141, 142, 143, 144, 145, 146, 147, 148, 149, 150, 151, 152, 153, 154, 155, 156, 157, 158, 159, 160, 161, 162, 163, 164, 165, 166, 167, 168, 169, 170, 171, 172, 173, 174, 175, 176, 177, 178, 179, 180, 181, 182, 183, 184, 185, 186, 187, 188, 189, 190],
      "AcquisitionTime": ["133549.400000", "133550.890000", "133552.380000", "133553.870000", "133555.360000", "133556.850000", "133558.340000", "133559.830000", "133601.320000", "133602.810000", "133604.300000", "133605.790000", "133607.280000", "133608.770000", "133610.260000", "133611.750000", "133613.240000", "133614.730000", "133616.220000", "133617.710000", "133619.200000", "133620.690000", "133622.180000", "133623.670000", "133625.160000", "133626.650000", "133628.140000", "133629.630000", "133631.120000", "133632.610000", "133634.100000", "133635.590000", "133637.080000", "133638.570000", "133640.060000", "133641.550000", "133643.040000", "133644.530000", "133646.020000", "133647.510000", "133649.000000", "133650.490000", "133651.980000", "133653.470000", "133654.960000", "133656.450000", "133657.940000", "133659.430000", "133700.920000", "133702.410000", "133703.900000", "133705.390000", "133706.880000", "133708.370000", "133709.860000", "133711.350000", "133712.840000", "133714.330000", "133715.820000", "133717.310000", "133718.800000", "133720.290000", "133721.780000", "133723.270000", "133724.760000", "133726.250000", "133727.740000", "133729.230000", "133730.720000", "133732.210000", "133733.700000", "133735.190000", "133736.680000", "133738.170000", "133739.660000", "133741.150000", "133742.640000", "133744.130000", "133745.620000", "133747.110000", "133748.600000", "133750.090000", "133751.580000", "133753.070000", "133754.560000", "133756.050000", "133757.540000", "133759.030000", "133800.520000", "133802.010000", "133803.500000", "133804.990000", "133806.480000", "133807.970000", "133809.460000", "133810.950000", "133812.440000", "133813.930000", "133815.420000", "133816.910000", "133818.400000", "133819.890000", "133821.380000", "133822.870000", "133824.360000", "133825.850000", "133827.340000", "133828.830000", "133830.320000", "133831.810000", "133833.300000", "133834.790000", "133836.280000", "133837.770000", "133839.260000", "133840.750000", "133842.240000", "133843.730000", "133845.220000", "133846.710000", "133848.200000", "133849.690000", "133851.180000", "133852.670000", "133854.160000", "133855.650000", "133857.140000", "133858.630000", "133900.120000", "133901.610000", "133903.100000", "133904.590000", "133906.080000", "133907.570000", "133909.060000", "133910.550000", "133912.040000", "133913.530000", "133915.020000", "133916.510000", "133918.000000", "133919.490000", "133920.980000", "133922.470000", "133923.960000", "133925.450000", "133926.940000", "133928.430000", "133929.920000", "133931.410000", "133932.900000", "133934.390000", "133935.880000", "133937.370000", "133938.860000", "133940.350000", "133941.840000", "133943.330000", "133944.820000", "133946.310000", "133947.800000", "133949.290000", "133950.780000", "133952.270000", "133953.760000", "133955.250000", "133956.740000", "133958.230000", "133959.720000", "134001.210000", "134002.700000", "134004.190000", "134005.680000", "134007.170000", "134008.660000", "134010.150000", "134011.640000", "134013.130000", "134014.620000", "134016.110000", "134017.600000", "134019.090000", "134020.580000", "134022.070000", "134023.560000", "134025.050000", "134026.540000", "134028.030000", "134029.520000", "134031.010000"],
      "ContentTime": ["133714.047000", "133714.050000", "133714.053000", "133714.055000", "133714.058000", "133714.060000", "133714.063000", "133714.065000", "133714.068000", "133714.071000", "133714.073000", "133714.076000", "133714.078000", "133714.081000", "133714.083000", "133714.086000", "133714.088000", "133714.091000", "133714.094000", "133714.096000", "133714.099000", "133714.101000", "133714.104000", "133714.106000", "133714.109000", "133714.111000", "133714.114000", "133714.117000", "133714.119000", "133733.953000", "133733.956000", "133733.959000", "133733.961000", "133733.964000", "133733.966000", "133733.969000", "133733.971000", "133733.974000", "133733.976000", "133733.979000", "133733.982000", "133733.984000", "133733.987000", "133733.989000", "133733.992000", "133733.994000", "133733.997000", "133734.000000", "133734.003000", "133734.005000", "133753.941000", "133753.944000", "133753.946000", "133753.949000", "133753.952000", "133753.954000", "133753.957000", "133753.959000", "133753.962000", "133753.964000", "133753.967000", "133753.969000", "133753.972000", "133753.974000", "133753.977000", "133753.980000", "133753.982000", "133753.985000", "133753.987000", "133753.990000", "133813.940000", "133813.943000", "133813.946000", "133813.949000", "133813.951000", "133813.954000", "133813.956000", "133813.959000", "133813.962000", "133813.964000", "133813.967000", "133813.969000", "133813.972000", "133813.974000", "133813.977000", "133813.979000", "133813.982000", "133813.985000", "133813.987000", "133813.990000", "133833.933000", "133833.936000", "133833.938000", "133833.941000", "133833.944000", "133833.946000", "133833.949000", "133833.951000", "133833.954000", "133833.956000", "133833.959000", "133833.961000", "133833.964000", "133833.966000", "133833.969000", "133833.971000", "133833.974000", "133833.977000", "133833.979000", "133833.982000", "133913.987000", "133913.990000", "133913.993000", "133913.995000", "133913.998000", "133914.001000", "133914.004000", "133914.006000", "133914.009000", "133914.012000", "133914.014000", "133914.017000", "133914.019000", "133914.022000", "133914.024000", "133914.027000", "133914.030000", "133914.032000", "133914.035000", "133914.037000", "133914.040000", "133914.042000", "133914.045000", "133914.047000", "133914.050000", "133914.052000", "133914.055000", "133953.995000", "133953.997000", "133954.001000", "133954.003000", "133954.006000", "133954.009000", "133954.011000", "133954.014000", "133954.016000", "133954.019000", "133954.021000", "133954.024000", "133954.026000", "133954.029000", "133954.032000", "133954.034000", "133954.037000", "133954.039000", "133954.042000", "133954.044000", "133954.047000", "133954.050000", "133954.052000", "133954.055000", "133954.057000", "133954.060000", "134032.851000", "134032.853000", "134032.856000", "134032.859000", "134032.861000", "134032.864000", "134032.867000", "134032.869000", "134032.872000", "134032.875000", "134032.877000", "134032.880000", "134032.883000", "134032.886000", "134032.889000", "134032.892000", "134032.894000", "134032.897000", "134032.900000", "134032.903000", "134032.906000", "134032.909000", "134032.912000", "134032.914000", "134032.917000", "134032.920000", "134032.922000"],
      "InstanceCreationTime": ["133714.047000", "133714.050000", "133714.053000", "133714.055000", "133714.058000", "133714.060000", "133714.063000", "133714.065000", "133714.068000", "133714.071000", "133714.073000", "133714.076000", "133714.078000", "133714.081000", "133714.083000", "133714.086000", "133714.088000", "133714.091000", "133714.094000", "133714.096000", "133714.099000", "133714.101000", "133714.104000", "133714.106000", "133714.109000", "133714.111000", "133714.114000", "133714.117000", "133714.119000", "133733.953000", "133733.956000", "133733.959000", "133733.961000", "133733.964000", "133733.966000", "133733.969000", "133733.971000", "133733.974000", "133733.976000", "133733.979000", "133733.982000", "133733.984000", "133733.987000", "133733.989000", "133733.992000", "133733.994000", "133733.997000", "133734.000000", "133734.003000", "133734.005000", "133753.941000", "133753.944000", "133753.946000", "133753.949000", "133753.952000", "133753.954000", "133753.957000", "133753.959000", "133753.962000", "133753.964000", "133753.967000", "133753.969000", "133753.972000", "133753.974000", "133753.977000", "133753.980000", "133753.982000", "133753.985000", "133753.987000", "133753.990000", "133813.940000", "133813.943000", "133813.946000", "133813.949000", "133813.951000", "133813.954000", "133813.956000", "133813.959000", "133813.962000", "133813.964000", "133813.967000", "133813.969000", "133813.972000", "133813.974000", "133813.977000", "133813.979000", "133813.982000", "133813.985000", "133813.987000", "133813.990000", "133833.933000", "133833.936000", "133833.938000", "133833.941000", "133833.944000", "133833.946000", "133833.949000", "133833.951000", "133833.954000", "133833.956000", "133833.959000", "133833.961000", "133833.964000", "133833.966000", "133833.969000", "133833.971000", "133833.974000", "133833.977000", "133833.979000", "133833.982000", "133913.987000", "133913.990000", "133913.993000", "133913.995000", "133913.998000", "133914.001000", "133914.004000", "133914.006000", "133914.009000", "133914.012000", "133914.014000", "133914.017000", "133914.019000", "133914.022000", "133914.024000", "133914.027000", "133914.030000", "133914.032000", "133914.035000", "133914.037000", "133914.040000", "133914.042000", "133914.045000", "133914.047000", "133914.050000", "133914.052000", "133914.055000", "133953.995000", "133953.997000", "133954.001000", "133954.003000", "133954.006000", "133954.009000", "133954.011000", "133954.014000", "133954.016000", "133954.019000", "133954.021000", "133954.024000", "133954.026000", "133954.029000", "133954.032000", "133954.034000", "133954.037000", "133954.039000", "133954.042000", "133954.044000", "133954.047000", "133954.050000", "133954.052000", "133954.055000", "133954.057000", "133954.060000", "134032.851000", "134032.853000", "134032.856000", "134032.859000", "134032.861000", "134032.864000", "134032.867000", "134032.869000", "134032.872000", "134032.875000", "134032.877000", "134032.880000", "134032.883000", "134032.886000", "134032.889000", "134032.892000", "134032.894000", "134032.897000", "134032.900000", "134032.903000", "134032.906000", "134032.909000", "134032.912000", "134032.914000", "134032.917000", "134032.920000", "134032.922000"],
      "InstanceNumber": [1, 2, 3, 4, 5, 6, 7, 8, 9, 10, 11, 12, 13, 14, 15, 16, 17, 18, 19, 20, 21, 22, 23, 24, 25, 26, 27, 28, 29, 30, 31, 32, 33, 34, 35, 36, 37, 38, 39, 40, 41, 42, 43, 44, 45, 46, 47, 48, 49, 50, 51, 52, 53, 54, 55, 56, 57, 58, 59, 60, 61, 62, 63, 64, 65, 66, 67, 68, 69, 70, 71, 72, 73, 74, 75, 76, 77, 78, 79, 80, 81, 82, 83, 84, 85, 86, 87, 88, 89, 90, 91, 92, 93, 94, 95, 96, 97, 98, 99, 100, 101, 102, 103, 104, 105, 106, 107, 108, 109, 110, 111, 112, 113, 114, 115, 116, 117, 118, 119, 120, 121, 122, 123, 124, 125, 126, 127, 128, 129, 130, 131, 132, 133, 134, 135, 136, 137, 138, 139, 140, 141, 142, 143, 144, 145, 146, 147, 148, 149, 150, 151, 152, 153, 154, 155, 156, 157, 158, 159, 160, 161, 162, 163, 164, 165, 166, 167, 168, 169, 170, 171, 172, 173, 174, 175, 176, 177, 178, 179, 180, 181, 182, 183, 184, 185, 186, 187, 188, 189, 190],
      "WindowCenter": [4824.0, 4822.0, 4824.0, 4820.0, 4820.0, 4820.0, 4822.0, 4814.0, 4824.0, 4824.0, 4826.0, 4822.0, 4822.0, 4818.0, 4818.0, 4814.0, 4824.0, 4820.0, 4822.0, 4820.0, 4822.0, 4818.0, 4824.0, 4820.0, 4822.0, 4818.0, 4820.0, 4820.0, 4818.0, 4822.0, 4820.0, 4816.0, 4820.0, 4820.0, 4820.0, 4820.0, 4824.0, 4822.0, 4820.0, 4820.0, 4820.0, 4794.0, 4818.0, 4818.0, 4818.0, 4820.0, 4822.0, 4820.0, 4820.0, 4822.0, 4820.0, 4818.0, 4818.0, 4818.0, 4818.0, 4794.0, 4820.0, 4820.0, 4818.0, 4820.0, 4820.0, 4822.0, 4822.0, 4822.0, 4796.0, 4820.0, 4816.0, 4818.0, 4818.0, 4796.0, 4818.0, 4796.0, 4816.0, 4822.0, 4818.0, 4820.0, 4818.0, 4820.0, 4818.0, 4826.0, 4818.0, 4822.0, 4822.0, 4820.0, 4818.0, 4794.0, 4820.0, 4818.0, 4816.0, 4792.0, 4820.0, 4798.0, 4822.0, 4820.0, 4822.0, 4820.0, 4820.0, 4792.0, 4794.0, 4816.0, 4818.0, 4792.0, 4794.0, 4798.0, 4818.0, 4818.0, 4822.0, 4820.0, 4794.0, 4820.0, 4820.0, 4820.0, 4818.0, 4820.0, 4820.0, 4820.0, 4820.0, 4818.0, 4818.0, 4818.0, 4822.0, 4794.0, 4796.0, 4818.0, 4818.0, 4818.0, 4822.0, 4820.0, 4796.0, 4818.0, 4794.0, 4796.0, 4796.0, 4796.0, 4820.0, 4818.0, 4822.0, 4816.0, 4818.0, 4798.0, 4796.0, 4796.0, 4794.0, 4796.0, 4798.0, 4794.0, 4796.0, 4794.0, 4822.0, 4790.0, 4792.0, 4788.0, 4822.0, 4796.0, 4816.0, 4818.0, 4816.0, 4792.0, 4788.0, 4820.0, 4794.0, 4794.0, 4796.0, 4794.0, 4822.0, 4796.0, 4816.0, 4818.0, 4818.0, 4796.0, 4792.0, 4792.0, 4820.0, 4818.0, 4796.0, 4820.0, 4794.0, 4792.0, 4796.0, 4794.0, 4796.0, 4794.0, 4818.0, 4816.0, 4796.0, 4820.0, 4794.0, 4796.0, 4794.0, 4796.0],
      "WindowWidth": [18660.0, 18654.0, 18652.0, 18650.0, 18654.0, 18650.0, 18658.0, 18650.0, 18660.0, 18654.0, 18660.0, 18656.0, 18656.0, 18654.0, 18654.0, 18648.0, 18658.0, 18654.0, 18658.0, 18654.0, 18652.0, 18658.0, 18656.0, 18658.0, 18658.0, 18654.0, 18656.0, 18656.0, 18658.0, 18658.0, 18656.0, 18654.0, 18654.0, 18654.0, 18652.0, 18658.0, 18662.0, 18656.0, 18650.0, 18654.0, 18654.0, 18622.0, 18650.0, 18652.0, 18654.0, 18660.0, 18658.0, 18654.0, 18650.0, 18658.0, 18660.0, 18652.0, 18654.0, 18656.0, 18654.0, 18622.0, 18654.0, 18656.0, 18654.0, 18656.0, 18660.0, 18656.0, 18656.0, 18658.0, 18618.0, 18654.0, 18654.0, 18654.0, 18652.0, 18620.0, 18658.0, 18620.0, 18652.0, 18658.0, 18648.0, 18654.0, 18648.0, 18652.0, 18656.0, 18658.0, 18652.0, 18654.0, 18656.0, 18656.0, 18656.0, 18616.0, 18656.0, 18650.0, 18652.0, 18620.0, 18650.0, 18622.0, 18656.0, 18656.0, 18658.0, 18654.0, 18656.0, 18618.0, 18624.0, 18650.0, 18650.0, 18616.0, 18622.0, 18622.0, 18650.0, 18652.0, 18654.0, 18652.0, 18620.0, 18652.0, 18652.0, 18648.0, 18648.0, 18650.0, 18650.0, 18652.0, 18652.0, 18650.0, 18650.0, 18650.0, 18654.0, 18620.0, 18622.0, 18652.0, 18652.0, 18652.0, 18652.0, 18652.0, 18620.0, 18652.0, 18620.0, 18622.0, 18620.0, 18622.0, 18650.0, 18654.0, 18656.0, 18650.0, 18646.0, 18620.0, 18622.0, 18620.0, 18620.0, 18624.0, 18622.0, 18622.0, 18622.0, 18618.0, 18654.0, 18616.0, 18620.0, 18616.0, 18652.0, 18624.0, 18652.0, 18650.0, 18650.0, 18624.0, 18620.0, 18654.0, 18618.0, 18622.0, 18622.0, 18620.0, 18654.0, 18620.0, 18648.0, 18652.0, 18652.0, 18620.0, 18618.0, 18622.0, 18648.0, 18652.0, 18618.0, 18654.0, 18618.0, 18620.0, 18616.0, 18622.0, 18620.0, 18622.0, 18654.0, 18652.0, 18620.0, 18650.0, 18620.0, 18622.0, 18620.0, 18624.0]
    },
    "slices": {}
  }
}