{
  "AcquisitionMatrixPE": 104,
  "AcquisitionNumber": 1,
  "AcquisitionTime": "14:06:21.452500",
  "BandwidthPerPixelPhaseEncode": 17.17,
  "BaseResolution": 104,
  "BodyPartExamined": "BRAIN",
  "CoilString": "HC1-7;NC1_2",
  "ConsistencyInfo": "N4_VE11C_LATEST_20160120",
  "ConversionSoftware": "dcm2niix",
  "ConversionSoftwareVersion": "v1.0.20190902",
  "DerivedVendorReportedEchoSpacing": 0.000560011,
  "DeviceSerialNumber": "167006",
  "DwellTime": 2.1e-06,
  "EchoTime": 0.037,
  "EchoTrainLength": 104,
  "EffectiveEchoSpacing": 0.000560011,
  "FlipAngle": 52,
  "ImageComments": "Unaliased_MB4_PE3_LB",
  "ImageOrientationPatientDICOM": [0.999574, -0.00310716, 0.0290068, 0.00976996, 0.972548, -0.232495],
  "ImageType": [
    "ORIGINAL",
    "PRIMARY",
    "M",
    "MB",
    "ND",
    "MOSAIC"
],
  "ImagingFrequency": 123.259,
  "InPlanePhaseEncodingDirectionDICOM": "COL",
  "InstitutionAddress": "Chemin_Queen-Mary_4565_Montreal_District_CA_H3W_1W5",
  "InstitutionName": "IUGM",
  "InstitutionalDepartmentName": "Department",
  "MRAcquisitionType": "2D",
  "MagneticFieldStrength": 3,
  "Manufacturer": "Siemens",
  "ManufacturersModelName": "Prisma_fit",
  "Modality": "MR",
  "MultibandAccelerationFactor": 4,
  "PartialFourier": 1,
  "PatientPosition": "HFS",
  "PercentPhaseFOV": 100,
  "PhaseEncodingDirection": "j",
  "PhaseEncodingSteps": 104,
  "PhaseResolution": 1,
  "PixelBandwidth": 2290,
  "ProcedureStepDescription": "memory_things",
  "ProtocolName": "func_task-things_run-6",
  "PulseSequenceDetails": "%CustomerSeq%_cmrr_mbep2d_bold",
  "ReceiveCoilActiveElements": "HC1-7;NC1,2",
  "ReceiveCoilName": "HeadNeck_64",
  "ReconMatrixPE": 104,
  "RepetitionTime": 1.49,
  "SAR": 0.0353979,
  "ScanOptions": "FS",
  "ScanningSequence": "EP",
  "SequenceName": "epfid2d1_104",
  "SequenceVariant": "SK_SS",
  "SeriesDescription": "func_task-things_run-6",
  "SeriesNumber": 25,
  "ShimSetting": [634, -7218, -8791, 733, 46, -10, 73, 7],
  "SliceThickness": 2,
  "SliceTiming": [0, 0.7825, 0.0975, 0.8825, 0.195, 0.98, 0.2925, 1.0775, 0.3925, 1.175, 0.49, 1.2725, 0.5875, 1.3725, 0.685, 0, 0.7825, 0.0975, 0.8825, 0.195, 0.98, 0.2925, 1.0775, 0.3925, 1.175, 0.49, 1.2725, 0.5875, 1.3725, 0.685, 0, 0.7825, 0.0975, 0.8825, 0.195, 0.98, 0.2925, 1.0775, 0.3925, 1.175, 0.49, 1.2725, 0.5875, 1.3725, 0.685, 0, 0.7825, 0.0975, 0.8825, 0.195, 0.98, 0.2925, 1.0775, 0.3925, 1.175, 0.49, 1.2725, 0.5875, 1.3725, 0.685],
  "SoftwareVersions": "syngo_MR_E11",
  "SpacingBetweenSlices": 2,
  "StationName": "MRC35049",
  "TaskName": "things",
  "TotalReadoutTime": 0.0576811,
  "TxRefAmp": 216.774,
  "WipMemBlock": "49acee92-f8eb-4abc-8cc4-9aa10846c6ed||Sequence: R016 ve11c/master r/e634e98; Dec 19 2017 11:00:25 by eja",
  "dcmmeta_affine": [
    [-1.9991487264633179, 0.01953992433845997, 0.054976243525743484, 106.58506774902344],
    [0.006214312743395567, 1.9450969696044922, -0.4653593599796295, -76.6046371459961],
    [0.05801360309123993, 0.464990496635437, 1.9443297386169434, -63.433231353759766],
    [0.0, 0.0, 0.0, 1.0]
],
  "dcmmeta_reorient_transform": [
    [0.0, -1.0, 0.0, 103.0],
    [1.0, 0.0, 0.0, 0.0],
    [0.0, 0.0, 1.0, 0.0],
    [0.0, 0.0, 0.0, 1.0]
],
  "dcmmeta_shape": [104, 104, 60, 190],
  "dcmmeta_slice_dim": 2,
  "dcmmeta_version": 0.6,
  "global": {
    "const": {
      "AcquisitionMatrix": [104, 0, 0, 104],
      "AngioFlag": "N",
      "BitsAllocated": 16,
      "BitsStored": 16,
      "BodyPartExamined": "BRAIN",
      "Columns": 832,
      "EchoNumbers": 1,
      "EchoTime": 37.0,
      "EchoTrainLength": 104,
      "FlipAngle": 52.0,
      "HighBit": 15,
      "ImageOrientationPatient": [0.99957438493022, -0.0031071563014, 0.02900680215206, 0.00976996182736, 0.9725484615218, -0.2324952426126],
      "ImagePositionPatient": [-843.4003664917, -829.49361534524, 132.60037516943],
      "ImageType": [
        "ORIGINAL",
        "PRIMARY",
        "M",
        "MB",
        "ND",
        "MOSAIC"
],
      "ImagedNucleus": "1H",
      "ImagingFrequency": 123.258948,
      "InPlanePhaseEncodingDirection": "COL",
      "MRAcquisitionType": "2D",
      "MagneticFieldStrength": 3.0,
      "Manufacturer": "SIEMENS",
      "ManufacturerModelName": "Prisma_fit",
      "Modality": "MR",
      "NumberOfAverages": 1.0,
      "NumberOfPhaseEncodingSteps": 104,
      "PercentPhaseFieldOfView": 100.0,
      "PercentSampling": 100.0,
      "PerformedProcedureStepStartTime": "131441.465000",
      "PhotometricInterpretation": "MONOCHROME2",
      "PixelBandwidth": 2290.0,
      "PixelRepresentation": 0,
      "PixelSpacing": [2.0, 2.0],
      "ProtocolName": "func_task-things_run-6",
      "RepetitionTime": 1490.0,
      "Rows": 832,
      "SAR": 0.03539793385248,
      "SamplesPerPixel": 1,
      "ScanOptions": "FS",
      "ScanningSequence": "EP",
      "SequenceName": "epfid2d1_104",
      "SequenceVariant": [
        "SK",
        "SS"
],
      "SeriesDescription": "func_task-things_run-6",
      "SeriesNumber": 25,
      "SeriesTime": "140740.710000",
      "SliceLocation": -40.913391994743,
      "SliceThickness": 2.0,
      "SmallestImagePixelValue": 0,
      "SoftwareVersions": "syngo MR E11",
      "SpacingBetweenSlices": 2.0000000246223,
      "SpecificCharacterSet": "ISO_IR 100",
      "StudyID": "1",
      "StudyTime": "131441.234000",
      "TransmitCoilName": "Body",
      "VariableFlipAngleFlag": "N",
      "WindowCenterWidthExplanation": "Algo1",
      "dBdt": 0.0},
    "slices": {}
  },
  "time": {
    "samples": {
      "AcquisitionNumber": [1, 2, 3, 4, 5, 6, 7, 8, 9, 10, 11, 12, 13, 14, 15, 16, 17, 18, 19, 20, 21, 22, 23, 24, 25, 26, 27, 28, 29, 30, 31, 32, 33, 34, 35, 36, 37, 38, 39, 40, 41, 42, 43, 44, 45, 46, 47, 48, 49, 50, 51, 52, 53, 54, 55, 56, 57, 58, 59, 60, 61, 62, 63, 64, 65, 66, 67, 68, 69, 70, 71, 72, 73, 74, 75, 76, 77, 78, 79, 80, 81, 82, 83, 84, 85, 86, 87, 88, 89, 90, 91, 92, 93, 94, 95, 96, 97, 98, 99, 100, 101, 102, 103, 104, 105, 106, 107, 108, 109, 110, 111, 112, 113, 114, 115, 116, 117, 118, 119, 120, 121, 122, 123, 124, 125, 126, 127, 128, 129, 130, 131, 132, 133, 134, 135, 136, 137, 138, 139, 140, 141, 142, 143, 144, 145, 146, 147, 148, 149, 150, 151, 152, 153, 154, 155, 156, 157, 158, 159, 160, 161, 162, 163, 164, 165, 166, 167, 168, 169, 170, 171, 172, 173, 174, 175, 176, 177, 178, 179, 180, 181, 182, 183, 184, 185, 186, 187, 188, 189, 190],
      "AcquisitionTime": ["140621.452500", "140622.942500", "140624.432500", "140625.922500", "140627.412500", "140628.902500", "140630.392500", "140631.882500", "140633.372500", "140634.862500", "140636.352500", "140637.842500", "140639.332500", "140640.822500", "140642.312500", "140643.802500", "140645.292500", "140646.782500", "140648.272500", "140649.762500", "140651.252500", "140652.742500", "140654.232500", "140655.722500", "140657.212500", "140658.702500", "140700.192500", "140701.682500", "140703.172500", "140704.662500", "140706.152500", "140707.642500", "140709.132500", "140710.622500", "140712.112500", "140713.602500", "140715.092500", "140716.582500", "140718.072500", "140719.562500", "140721.052500", "140722.542500", "140724.032500", "140725.522500", "140727.012500", "140728.502500", "140729.992500", "140731.482500", "140732.972500", "140734.462500", "140735.952500", "140737.442500", "140738.932500", "140740.422500", "140741.912500", "140743.402500", "140744.892500", "140746.382500", "140747.872500", "140749.362500", "140750.852500", "140752.342500", "140753.832500", "140755.322500", "140756.812500", "140758.302500", "140759.792500", "140801.282500", "140802.772500", "140804.262500", "140805.752500", "140807.242500", "140808.732500", "140810.222500", "140811.712500", "140813.202500", "140814.692500", "140816.182500", "140817.672500", "140819.162500", "140820.652500", "140822.142500", "140823.632500", "140825.122500", "140826.612500", "140828.102500", "140829.592500", "140831.082500", "140832.572500", "140834.062500", "140835.552500", "140837.042500", "140838.532500", "140840.022500", "140841.512500", "140843.002500", "140844.492500", "140845.982500", "140847.472500", "140848.962500", "140850.452500", "140851.942500", "140853.432500", "140854.922500", "140856.412500", "140857.902500", "140859.392500", "140900.882500", "140902.372500", "140903.862500", "140905.352500", "140906.842500", "140908.332500", "140909.822500", "140911.312500", "140912.802500", "140914.292500", "140915.782500", "140917.272500", "140918.762500", "140920.252500", "140921.742500", "140923.232500", "140924.722500", "140926.212500", "140927.702500", "140929.192500", "140930.682500", "140932.172500", "140933.662500", "140935.152500", "140936.642500", "140938.132500", "140939.622500", "140941.112500", "140942.602500", "140944.092500", "140945.582500", "140947.072500", "140948.562500", "140950.052500", "140951.542500", "140953.032500", "140954.522500", "140956.012500", "140957.502500", "140958.992500", "141000.482500", "141001.972500", "141003.462500", "141004.952500", "141006.442500", "141007.932500", "141009.422500", "141010.912500", "141012.402500", "141013.892500", "141015.382500", "141016.872500", "141018.362500", "141019.852500", "141021.342500", "141022.832500", "141024.322500", "141025.812500", "141027.302500", "141028.792500", "141030.282500", "141031.772500", "141033.262500", "141034.752500", "141036.242500", "141037.732500", "141039.222500", "141040.712500", "141042.202500", "141043.692500", "141045.182500", "141046.672500", "141048.162500", "141049.652500", "141051.142500", "141052.632500", "141054.122500", "141055.612500", "141057.102500", "141058.592500", "141100.082500", "141101.572500", "141103.062500"],
      "ContentTime": ["140740.713000", "140740.717000", "140740.721000", "140740.731000", "140740.735000", "140740.738000", "140740.741000", "140740.745000", "140740.748000", "140740.752000", "140740.755000", "140740.758000", "140740.762000", "140740.765000", "140740.768000", "140740.772000", "140740.775000", "140740.784000", "140740.787000", "140740.791000", "140740.794000", "140740.797000", "140740.801000", "140740.804000", "140740.808000", "140800.672000", "140800.676000", "140800.679000", "140800.683000", "140800.686000", "140800.689000", "140800.693000", "140800.696000", "140800.700000", "140800.703000", "140800.706000", "140800.710000", "140800.713000", "140800.717000", "140800.720000", "140800.724000", "140800.727000", "140800.730000", "140800.734000", "140800.737000", "140820.672000", "140820.676000", "140820.679000", "140820.683000", "140820.686000", "140820.690000", "140820.693000", "140820.696000", "140820.700000", "140820.703000", "140820.707000", "140820.710000", "140820.713000", "140820.718000", "140820.721000", "140820.725000", "140820.728000", "140820.732000", "140820.735000", "140820.738000", "140840.673000", "140840.677000", "140840.681000", "140840.684000", "140840.687000", "140840.691000", "140840.694000", "140840.698000", "140840.701000", "140840.704000", "140840.708000", "140840.711000", "140840.714000", "140840.718000", "140840.721000", "140840.725000", "140840.728000", "140840.732000", "140840.735000", "140840.738000", "140840.742000", "140900.673000", "140900.677000", "140900.680000", "140900.684000", "140900.687000", "140900.691000", "140900.694000", "140900.697000", "140900.701000", "140900.704000", "140900.708000", "140900.711000", "140900.714000", "140900.718000", "140900.721000", "140900.725000", "140900.728000", "140900.731000", "140900.735000", "140900.739000", "140940.673000", "140940.677000", "140940.681000", "140940.684000", "140940.687000", "140940.691000", "140940.694000", "140940.698000", "140940.701000", "140940.704000", "140940.708000", "140940.711000", "140940.715000", "140940.718000", "140940.722000", "140940.725000", "140940.729000", "140940.732000", "140940.736000", "140940.739000", "140940.743000", "140940.746000", "140940.749000", "140940.753000", "140940.756000", "140940.760000", "140940.780000", "141020.672000", "141020.676000", "141020.679000", "141020.683000", "141020.686000", "141020.690000", "141020.693000", "141020.697000", "141020.700000", "141020.703000", "141020.707000", "141020.710000", "141020.714000", "141020.717000", "141020.720000", "141020.724000", "141020.727000", "141020.731000", "141020.734000", "141020.738000", "141020.741000", "141020.745000", "141020.748000", "141020.751000", "141020.755000", "141020.758000", "141020.762000", "141100.673000", "141100.677000", "141100.680000", "141100.684000", "141100.687000", "141100.691000", "141100.694000", "141100.698000", "141100.701000", "141100.705000", "141100.708000", "141100.711000", "141100.715000", "141100.718000", "141100.722000", "141100.725000", "141100.728000", "141100.732000", "141100.735000", "141100.739000", "141100.742000", "141100.745000", "141100.749000", "141100.752000", "141100.756000", "141100.759000", "141100.763000", "141104.812000", "141104.816000", "141104.820000"],
      "InstanceCreationTime": ["140740.713000", "140740.717000", "140740.721000", "140740.731000", "140740.735000", "140740.738000", "140740.741000", "140740.745000", "140740.748000", "140740.752000", "140740.755000", "140740.758000", "140740.762000", "140740.765000", "140740.768000", "140740.772000", "140740.775000", "140740.784000", "140740.787000", "140740.791000", "140740.794000", "140740.797000", "140740.801000", "140740.804000", "140740.808000", "140800.672000", "140800.676000", "140800.679000", "140800.683000", "140800.686000", "140800.689000", "140800.693000", "140800.696000", "140800.700000", "140800.703000", "140800.706000", "140800.710000", "140800.713000", "140800.717000", "140800.720000", "140800.724000", "140800.727000", "140800.730000", "140800.734000", "140800.737000", "140820.672000", "140820.676000", "140820.679000", "140820.683000", "140820.686000", "140820.690000", "140820.693000", "140820.696000", "140820.700000", "140820.703000", "140820.707000", "140820.710000", "140820.713000", "140820.718000", "140820.721000", "140820.725000", "140820.728000", "140820.732000", "140820.735000", "140820.738000", "140840.673000", "140840.677000", "140840.681000", "140840.684000", "140840.687000", "140840.691000", "140840.694000", "140840.698000", "140840.701000", "140840.704000", "140840.708000", "140840.711000", "140840.714000", "140840.718000", "140840.721000", "140840.725000", "140840.728000", "140840.732000", "140840.735000", "140840.738000", "140840.742000", "140900.673000", "140900.677000", "140900.680000", "140900.684000", "140900.687000", "140900.691000", "140900.694000", "140900.697000", "140900.701000", "140900.704000", "140900.708000", "140900.711000", "140900.714000", "140900.718000", "140900.721000", "140900.725000", "140900.728000", "140900.731000", "140900.735000", "140900.739000", "140940.673000", "140940.677000", "140940.681000", "140940.684000", "140940.687000", "140940.691000", "140940.694000", "140940.698000", "140940.701000", "140940.704000", "140940.708000", "140940.711000", "140940.715000", "140940.718000", "140940.722000", "140940.725000", "140940.729000", "140940.732000", "140940.736000", "140940.739000", "140940.743000", "140940.746000", "140940.749000", "140940.753000", "140940.756000", "140940.760000", "140940.780000", "141020.672000", "141020.676000", "141020.679000", "141020.683000", "141020.686000", "141020.690000", "141020.693000", "141020.697000", "141020.700000", "141020.703000", "141020.707000", "141020.710000", "141020.714000", "141020.717000", "141020.720000", "141020.724000", "141020.727000", "141020.731000", "141020.734000", "141020.738000", "141020.741000", "141020.745000", "141020.748000", "141020.751000", "141020.755000", "141020.758000", "141020.762000", "141100.673000", "141100.677000", "141100.680000", "141100.684000", "141100.687000", "141100.691000", "141100.694000", "141100.698000", "141100.701000", "141100.705000", "141100.708000", "141100.711000", "141100.715000", "141100.718000", "141100.722000", "141100.725000", "141100.728000", "141100.732000", "141100.735000", "141100.739000", "141100.742000", "141100.745000", "141100.749000", "141100.752000", "141100.756000", "141100.759000", "141100.763000", "141104.812000", "141104.816000", "141104.820000"],
      "InstanceNumber": [1, 2, 3, 4, 5, 6, 7, 8, 9, 10, 11, 12, 13, 14, 15, 16, 17, 18, 19, 20, 21, 22, 23, 24, 25, 26, 27, 28, 29, 30, 31, 32, 33, 34, 35, 36, 37, 38, 39, 40, 41, 42, 43, 44, 45, 46, 47, 48, 49, 50, 51, 52, 53, 54, 55, 56, 57, 58, 59, 60, 61, 62, 63, 64, 65, 66, 67, 68, 69, 70, 71, 72, 73, 74, 75, 76, 77, 78, 79, 80, 81, 82, 83, 84, 85, 86, 87, 88, 89, 90, 91, 92, 93, 94, 95, 96, 97, 98, 99, 100, 101, 102, 103, 104, 105, 106, 107, 108, 109, 110, 111, 112, 113, 114, 115, 116, 117, 118, 119, 120, 121, 122, 123, 124, 125, 126, 127, 128, 129, 130, 131, 132, 133, 134, 135, 136, 137, 138, 139, 140, 141, 142, 143, 144, 145, 146, 147, 148, 149, 150, 151, 152, 153, 154, 155, 156, 157, 158, 159, 160, 161, 162, 163, 164, 165, 166, 167, 168, 169, 170, 171, 172, 173, 174, 175, 176, 177, 178, 179, 180, 181, 182, 183, 184, 185, 186, 187, 188, 189, 190],
      "LargestImagePixelValue": [40575, 39625, 38946, 39148, 38436, 38402, 38178, 38287, 37727, 38052, 37889, 38432, 37917, 38369, 37859, 38002, 37764, 38310, 37734, 37819, 37643, 38389, 38539, 37996, 37629, 38057, 38036, 38203, 37774, 38472, 37941, 37999, 38062, 39005, 38725, 38111, 37895, 38172, 38699, 38428, 38291, 38187, 38339, 38210, 38588, 38424, 38384, 38348, 38782, 38402, 38524, 38448, 38443, 38496, 38118, 39043, 38365, 38951, 38309, 38476, 38513, 38463, 38342, 38592, 38584, 38411, 38056, 38319, 38541, 38355, 38257, 38067, 37872, 38158, 38268, 38224, 38517, 38988, 39188, 38101, 38501, 38592, 38181, 38328, 38554, 38837, 38463, 38638, 38605, 38453, 38432, 38425, 38909, 38922, 38459, 38269, 38552, 38562, 38343, 38351, 38910, 38661, 38638, 38362, 38468, 38825, 39089, 38426, 38920, 38814, 38558, 38345, 38590, 39039, 39160, 38896, 38191, 38808, 38947, 39094, 38833, 39056, 38949, 39258, 38778, 38605, 38910, 39023, 39511, 38908, 38934, 38719, 38642, 38684, 38720, 39104, 39132, 38615, 38805, 38946, 39208, 39022, 39096, 38817, 38517, 38981, 39028, 39446, 38661, 39055, 38535, 38817, 38841, 38992, 38941, 38947, 38545, 38654, 38777, 38877, 38615, 38438, 38565, 38593, 38954, 38637, 38806, 38889, 39312, 38743, 38443, 38582, 38682, 39101, 38878, 39367, 38515, 39486, 39130, 39073, 38819, 39147, 39111, 38676, 38849, 38848, 39258, 38955, 38531, 38577],
      "WindowCenter": [10110.0, 10072.0, 10061.0, 10066.0, 10068.0, 10070.0, 10078.0, 10085.0, 10083.0, 10089.0, 10097.0, 10104.0, 10091.0, 10086.0, 10087.0, 10103.0, 10101.0, 10103.0, 10089.0, 10087.0, 10096.0, 10095.0, 10094.0, 10086.0, 10087.0, 10094.0, 10096.0, 10094.0, 10088.0, 10093.0, 10079.0, 10060.0, 10059.0, 10079.0, 10097.0, 10101.0, 10090.0, 10079.0, 10083.0, 10084.0, 10084.0, 10092.0, 10109.0, 10113.0, 10118.0, 10111.0, 10093.0, 10076.0, 10071.0, 10065.0, 10073.0, 10083.0, 10091.0, 10084.0, 10069.0, 10062.0, 10055.0, 10053.0, 10057.0, 10065.0, 10057.0, 10056.0, 10072.0, 10089.0, 10100.0, 10086.0, 10070.0, 10072.0, 10083.0, 10098.0, 10100.0, 10084.0, 10069.0, 10065.0, 10065.0, 10065.0, 10058.0, 10071.0, 10079.0, 10075.0, 10075.0, 10089.0, 10084.0, 10068.0, 10040.0, 10026.0, 10028.0, 10043.0, 10055.0, 10063.0, 10056.0, 10062.0, 10088.0, 10098.0, 10085.0, 10068.0, 10057.0, 10055.0, 10064.0, 10081.0, 10105.0, 10109.0, 10098.0, 10066.0, 10042.0, 10045.0, 10065.0, 10079.0, 10096.0, 10107.0, 10099.0, 10091.0, 10087.0, 10095.0, 10103.0, 10099.0, 10091.0, 10081.0, 10062.0, 10034.0, 10018.0, 10031.0, 10043.0, 10050.0, 10045.0, 10034.0, 10017.0, 10015.0, 10038.0, 10066.0, 10070.0, 10064.0, 10053.0, 10060.0, 10077.0, 10095.0, 10089.0, 10096.0, 10098.0, 10105.0, 10097.0, 10073.0, 10047.0, 10045.0, 10058.0, 10078.0, 10095.0, 10095.0, 10080.0, 10062.0, 10053.0, 10052.0, 10068.0, 10086.0, 10103.0, 10104.0, 10085.0, 10073.0, 10071.0, 10086.0, 10114.0, 10119.0, 10100.0, 10072.0, 10054.0, 10058.0, 10053.0, 10067.0, 10083.0, 10098.0, 10108.0, 10106.0, 10083.0, 10071.0, 10070.0, 10076.0, 10073.0, 10076.0, 10070.0, 10079.0, 10088.0, 10080.0, 10064.0, 10045.0, 10035.0, 10034.0, 10065.0, 10091.0, 10090.0, 10080.0],
      "WindowWidth": [21532.0, 21426.0, 21391.0, 21396.0, 21399.0, 21402.0, 21418.0, 21430.0, 21431.0, 21443.0, 21464.0, 21478.0, 21452.0, 21434.0, 21438.0, 21472.0, 21473.0, 21473.0, 21443.0, 21438.0, 21457.0, 21454.0, 21448.0, 21432.0, 21436.0, 21452.0, 21457.0, 21451.0, 21439.0, 21447.0, 21417.0, 21373.0, 21369.0, 21412.0, 21456.0, 21468.0, 21445.0, 21419.0, 21425.0, 21427.0, 21428.0, 21446.0, 21487.0, 21496.0, 21504.0, 21489.0, 21448.0, 21409.0, 21396.0, 21383.0, 21401.0, 21424.0, 21444.0, 21429.0, 21395.0, 21374.0, 21358.0, 21354.0, 21365.0, 21384.0, 21367.0, 21364.0, 21400.0, 21437.0, 21464.0, 21435.0, 21397.0, 21399.0, 21427.0, 21462.0, 21464.0, 21429.0, 21395.0, 21384.0, 21384.0, 21383.0, 21368.0, 21396.0, 21414.0, 21408.0, 21407.0, 21435.0, 21426.0, 21389.0, 21323.0, 21290.0, 21298.0, 21331.0, 21362.0, 21379.0, 21365.0, 21377.0, 21438.0, 21463.0, 21432.0, 21392.0, 21364.0, 21359.0, 21381.0, 21420.0, 21473.0, 21486.0, 21455.0, 21385.0, 21331.0, 21337.0, 21381.0, 21418.0, 21455.0, 21483.0, 21465.0, 21444.0, 21434.0, 21452.0, 21469.0, 21460.0, 21442.0, 21417.0, 21371.0, 21307.0, 21273.0, 21301.0, 21331.0, 21347.0, 21335.0, 21308.0, 21270.0, 21264.0, 21317.0, 21381.0, 21395.0, 21382.0, 21355.0, 21368.0, 21411.0, 21452.0, 21440.0, 21452.0, 21458.0, 21473.0, 21452.0, 21399.0, 21341.0, 21334.0, 21366.0, 21412.0, 21451.0, 21448.0, 21414.0, 21373.0, 21353.0, 21352.0, 21391.0, 21431.0, 21468.0, 21472.0, 21429.0, 21400.0, 21396.0, 21431.0, 21495.0, 21508.0, 21463.0, 21394.0, 21354.0, 21360.0, 21354.0, 21383.0, 21420.0, 21457.0, 21483.0, 21475.0, 21423.0, 21394.0, 21390.0, 21405.0, 21403.0, 21403.0, 21391.0, 21411.0, 21431.0, 21411.0, 21375.0, 21330.0, 21308.0, 21308.0, 21379.0, 21438.0, 21438.0, 21413.0]
    },
    "slices": {}
  }
}