{
  "AcquisitionMatrixPE": 104,
  "AcquisitionNumber": 1,
  "AcquisitionTime": "13:54:16.222500",
  "BandwidthPerPixelPhaseEncode": 17.17,
  "BaseResolution": 104,
  "BodyPartExamined": "BRAIN",
  "CoilString": "HC1-7;NC1_2",
  "ConsistencyInfo": "N4_VE11C_LATEST_20160120",
  "ConversionSoftware": "dcm2niix",
  "ConversionSoftwareVersion": "v1.0.20190902",
  "DerivedVendorReportedEchoSpacing": 0.000560011,
  "DeviceSerialNumber": "167006",
  "DwellTime": 2.1e-06,
  "EchoTime": 0.037,
  "EchoTrainLength": 104,
  "EffectiveEchoSpacing": 0.000560011,
  "FlipAngle": 52,
  "ImageComments": "Unaliased_MB4_PE3_LB",
  "ImageOrientationPatientDICOM": [0.999574, -0.00310716, 0.0290068, 0.00976996, 0.972548, -0.232495],
  "ImageType": [
    "ORIGINAL",
    "PRIMARY",
    "M",
    "MB",
    "ND",
    "MOSAIC"
],
  "ImagingFrequency": 123.259,
  "InPlanePhaseEncodingDirectionDICOM": "COL",
  "InstitutionAddress": "Chemin_Queen-Mary_4565_Montreal_District_CA_H3W_1W5",
  "InstitutionName": "IUGM",
  "InstitutionalDepartmentName": "Department",
  "MRAcquisitionType": "2D",
  "MagneticFieldStrength": 3,
  "Manufacturer": "Siemens",
  "ManufacturersModelName": "Prisma_fit",
  "Modality": "MR",
  "MultibandAccelerationFactor": 4,
  "PartialFourier": 1,
  "PatientPosition": "HFS",
  "PercentPhaseFOV": 100,
  "PhaseEncodingDirection": "j",
  "PhaseEncodingSteps": 104,
  "PhaseResolution": 1,
  "PixelBandwidth": 2290,
  "ProcedureStepDescription": "memory_things",
  "ProtocolName": "func_task-things_run-4",
  "PulseSequenceDetails": "%CustomerSeq%_cmrr_mbep2d_bold",
  "ReceiveCoilActiveElements": "HC1-7;NC1,2",
  "ReceiveCoilName": "HeadNeck_64",
  "ReconMatrixPE": 104,
  "RepetitionTime": 1.49,
  "SAR": 0.0353979,
  "ScanOptions": "FS",
  "ScanningSequence": "EP",
  "SequenceName": "epfid2d1_104",
  "SequenceVariant": "SK_SS",
  "SeriesDescription": "func_task-things_run-4",
  "SeriesNumber": 19,
  "ShimSetting": [634, -7218, -8791, 733, 46, -10, 73, 7],
  "SliceThickness": 2,
  "SliceTiming": [0, 0.7825, 0.0975, 0.88, 0.195, 0.98, 0.2925, 1.0775, 0.39, 1.175, 0.49, 1.2725, 0.5875, 1.37, 0.685, 0, 0.7825, 0.0975, 0.88, 0.195, 0.98, 0.2925, 1.0775, 0.39, 1.175, 0.49, 1.2725, 0.5875, 1.37, 0.685, 0, 0.7825, 0.0975, 0.88, 0.195, 0.98, 0.2925, 1.0775, 0.39, 1.175, 0.49, 1.2725, 0.5875, 1.37, 0.685, 0, 0.7825, 0.0975, 0.88, 0.195, 0.98, 0.2925, 1.0775, 0.39, 1.175, 0.49, 1.2725, 0.5875, 1.37, 0.685],
  "SoftwareVersions": "syngo_MR_E11",
  "SpacingBetweenSlices": 2,
  "StationName": "MRC35049",
  "TaskName": "things",
  "TotalReadoutTime": 0.0576811,
  "TxRefAmp": 216.774,
  "WipMemBlock": "cec19a91-d0eb-49d1-b99c-cdc4b4fcdf11||Sequence: R016 ve11c/master r/e634e98; Dec 19 2017 11:00:25 by eja",
  "dcmmeta_affine": [
    [-1.9991487264633179, 0.01953992433845997, 0.054976243525743484, 106.58506774902344],
    [0.006214312743395567, 1.9450969696044922, -0.4653593599796295, -76.6046371459961],
    [0.05801360309123993, 0.464990496635437, 1.9443297386169434, -63.433231353759766],
    [0.0, 0.0, 0.0, 1.0]
],
  "dcmmeta_reorient_transform": [
    [0.0, -1.0, 0.0, 103.0],
    [1.0, 0.0, 0.0, 0.0],
    [0.0, 0.0, 1.0, 0.0],
    [0.0, 0.0, 0.0, 1.0]
],
  "dcmmeta_shape": [104, 104, 60, 190],
  "dcmmeta_slice_dim": 2,
  "dcmmeta_version": 0.6,
  "global": {
    "const": {
      "AcquisitionMatrix": [104, 0, 0, 104],
      "AngioFlag": "N",
      "BitsAllocated": 16,
      "BitsStored": 16,
      "BodyPartExamined": "BRAIN",
      "Columns": 832,
      "EchoNumbers": 1,
      "EchoTime": 37.0,
      "EchoTrainLength": 104,
      "FlipAngle": 52.0,
      "HighBit": 15,
      "ImageOrientationPatient": [0.99957438493022, -0.0031071563014, 0.02900680215206, 0.00976996182736, 0.9725484615218, -0.2324952426126],
      "ImagePositionPatient": [-843.4003664917, -829.49361534524, 132.60037516943],
      "ImageType": [
        "ORIGINAL",
        "PRIMARY",
        "M",
        "MB",
        "ND",
        "MOSAIC"
],
      "ImagedNucleus": "1H",
      "ImagingFrequency": 123.258942,
      "InPlanePhaseEncodingDirection": "COL",
      "MRAcquisitionType": "2D",
      "MagneticFieldStrength": 3.0,
      "Manufacturer": "SIEMENS",
      "ManufacturerModelName": "Prisma_fit",
      "Modality": "MR",
      "NumberOfAverages": 1.0,
      "NumberOfPhaseEncodingSteps": 104,
      "PercentPhaseFieldOfView": 100.0,
      "PercentSampling": 100.0,
      "PerformedProcedureStepStartTime": "131441.465000",
      "PhotometricInterpretation": "MONOCHROME2",
      "PixelBandwidth": 2290.0,
      "PixelRepresentation": 0,
      "PixelSpacing": [2.0, 2.0],
      "ProtocolName": "func_task-things_run-4",
      "RepetitionTime": 1490.0,
      "Rows": 832,
      "SAR": 0.03539793385248,
      "SamplesPerPixel": 1,
      "ScanOptions": "FS",
      "ScanningSequence": "EP",
      "SequenceName": "epfid2d1_104",
      "SequenceVariant": [
        "SK",
        "SS"
],
      "SeriesDescription": "func_task-things_run-4",
      "SeriesNumber": 19,
      "SeriesTime": "135513.857000",
      "SliceLocation": -40.913391994743,
      "SliceThickness": 2.0,
      "SmallestImagePixelValue": 0,
      "SoftwareVersions": "syngo MR E11",
      "SpacingBetweenSlices": 2.0000000246223,
      "SpecificCharacterSet": "ISO_IR 100",
      "StudyID": "1",
      "StudyTime": "131441.234000",
      "TransmitCoilName": "Body",
      "VariableFlipAngleFlag": "N",
      "WindowCenterWidthExplanation": "Algo1",
      "dBdt": 0.0},
    "slices": {}
  },
  "time": {
    "samples": {
      "AcquisitionNumber": [1, 2, 3, 4, 5, 6, 7, 8, 9, 10, 11, 12, 13, 14, 15, 16, 17, 18, 19, 20, 21, 22, 23, 24, 25, 26, 27, 28, 29, 30, 31, 32, 33, 34, 35, 36, 37, 38, 39, 40, 41, 42, 43, 44, 45, 46, 47, 48, 49, 50, 51, 52, 53, 54, 55, 56, 57, 58, 59, 60, 61, 62, 63, 64, 65, 66, 67, 68, 69, 70, 71, 72, 73, 74, 75, 76, 77, 78, 79, 80, 81, 82, 83, 84, 85, 86, 87, 88, 89, 90, 91, 92, 93, 94, 95, 96, 97, 98, 99, 100, 101, 102, 103, 104, 105, 106, 107, 108, 109, 110, 111, 112, 113, 114, 115, 116, 117, 118, 119, 120, 121, 122, 123, 124, 125, 126, 127, 128, 129, 130, 131, 132, 133, 134, 135, 136, 137, 138, 139, 140, 141, 142, 143, 144, 145, 146, 147, 148, 149, 150, 151, 152, 153, 154, 155, 156, 157, 158, 159, 160, 161, 162, 163, 164, 165, 166, 167, 168, 169, 170, 171, 172, 173, 174, 175, 176, 177, 178, 179, 180, 181, 182, 183, 184, 185, 186, 187, 188, 189, 190],
      "AcquisitionTime": ["135416.222500", "135417.712500", "135419.202500", "135420.692500", "135422.182500", "135423.672500", "135425.162500", "135426.652500", "135428.142500", "135429.632500", "135431.122500", "135432.612500", "135434.102500", "135435.592500", "135437.082500", "135438.572500", "135440.062500", "135441.552500", "135443.042500", "135444.532500", "135446.022500", "135447.512500", "135449.002500", "135450.492500", "135451.982500", "135453.472500", "135454.962500", "135456.452500", "135457.942500", "135459.432500", "135500.922500", "135502.412500", "135503.902500", "135505.392500", "135506.882500", "135508.372500", "135509.862500", "135511.352500", "135512.842500", "135514.332500", "135515.822500", "135517.312500", "135518.802500", "135520.292500", "135521.782500", "135523.272500", "135524.762500", "135526.252500", "135527.742500", "135529.232500", "135530.722500", "135532.212500", "135533.702500", "135535.192500", "135536.682500", "135538.172500", "135539.662500", "135541.152500", "135542.642500", "135544.132500", "135545.622500", "135547.112500", "135548.602500", "135550.092500", "135551.582500", "135553.072500", "135554.562500", "135556.052500", "135557.542500", "135559.032500", "135600.522500", "135602.012500", "135603.502500", "135604.992500", "135606.482500", "135607.972500", "135609.462500", "135610.952500", "135612.442500", "135613.932500", "135615.422500", "135616.912500", "135618.402500", "135619.892500", "135621.382500", "135622.872500", "135624.362500", "135625.852500", "135627.342500", "135628.832500", "135630.322500", "135631.812500", "135633.302500", "135634.792500", "135636.282500", "135637.772500", "135639.262500", "135640.752500", "135642.242500", "135643.732500", "135645.222500", "135646.712500", "135648.202500", "135649.692500", "135651.182500", "135652.672500", "135654.162500", "135655.652500", "135657.142500", "135658.632500", "135700.122500", "135701.612500", "135703.102500", "135704.592500", "135706.082500", "135707.572500", "135709.062500", "135710.552500", "135712.042500", "135713.532500", "135715.022500", "135716.512500", "135718.002500", "135719.492500", "135720.982500", "135722.472500", "135723.962500", "135725.452500", "135726.942500", "135728.432500", "135729.922500", "135731.412500", "135732.902500", "135734.392500", "135735.882500", "135737.372500", "135738.862500", "135740.352500", "135741.842500", "135743.332500", "135744.822500", "135746.312500", "135747.802500", "135749.292500", "135750.782500", "135752.272500", "135753.762500", "135755.252500", "135756.742500", "135758.232500", "135759.722500", "135801.212500", "135802.702500", "135804.192500", "135805.682500", "135807.172500", "135808.662500", "135810.152500", "135811.642500", "135813.132500", "135814.622500", "135816.112500", "135817.602500", "135819.092500", "135820.582500", "135822.072500", "135823.562500", "135825.052500", "135826.542500", "135828.032500", "135829.522500", "135831.012500", "135832.502500", "135833.992500", "135835.482500", "135836.972500", "135838.462500", "135839.952500", "135841.442500", "135842.932500", "135844.422500", "135845.912500", "135847.402500", "135848.892500", "135850.382500", "135851.872500", "135853.362500", "135854.852500", "135856.342500", "135857.832500"],
      "ContentTime": ["135513.860000", "135513.864000", "135513.868000", "135533.830000", "135533.836000", "135533.840000", "135533.843000", "135533.847000", "135533.851000", "135533.855000", "135533.858000", "135533.861000", "135533.865000", "135533.868000", "135533.872000", "135533.875000", "135533.878000", "135533.882000", "135533.885000", "135533.889000", "135533.903000", "135533.915000", "135533.918000", "135553.829000", "135553.833000", "135553.836000", "135553.840000", "135553.843000", "135553.846000", "135553.850000", "135553.853000", "135553.857000", "135553.860000", "135553.864000", "135553.867000", "135553.870000", "135553.874000", "135553.877000", "135553.880000", "135553.884000", "135553.887000", "135553.891000", "135553.894000", "135553.905000", "135613.829000", "135613.833000", "135613.836000", "135613.840000", "135613.843000", "135613.846000", "135613.850000", "135613.853000", "135613.857000", "135613.860000", "135613.863000", "135613.867000", "135613.870000", "135613.873000", "135613.877000", "135613.880000", "135613.884000", "135613.887000", "135613.890000", "135613.894000", "135633.828000", "135633.832000", "135633.835000", "135633.839000", "135633.842000", "135633.846000", "135633.849000", "135633.853000", "135633.856000", "135633.860000", "135633.863000", "135633.867000", "135633.871000", "135633.875000", "135633.878000", "135633.882000", "135633.885000", "135633.888000", "135633.892000", "135633.895000", "135653.828000", "135653.832000", "135653.835000", "135653.839000", "135653.842000", "135653.845000", "135653.849000", "135653.853000", "135653.856000", "135653.859000", "135653.863000", "135653.866000", "135653.870000", "135653.873000", "135653.876000", "135653.880000", "135653.883000", "135653.887000", "135653.890000", "135653.893000", "135653.897000", "135733.828000", "135733.832000", "135733.835000", "135733.839000", "135733.842000", "135733.846000", "135733.849000", "135733.852000", "135733.856000", "135733.859000", "135733.863000", "135733.867000", "135733.870000", "135733.874000", "135733.877000", "135733.880000", "135733.884000", "135733.887000", "135733.891000", "135733.894000", "135733.914000", "135733.918000", "135733.921000", "135733.925000", "135733.928000", "135733.932000", "135733.935000", "135813.829000", "135813.834000", "135813.848000", "135813.852000", "135813.856000", "135813.860000", "135813.863000", "135813.867000", "135813.870000", "135813.874000", "135813.877000", "135813.881000", "135813.884000", "135813.887000", "135813.891000", "135813.894000", "135813.898000", "135813.901000", "135813.904000", "135813.908000", "135813.911000", "135813.915000", "135813.918000", "135813.921000", "135813.925000", "135813.928000", "135853.828000", "135853.832000", "135853.836000", "135853.839000", "135853.843000", "135853.846000", "135853.850000", "135853.853000", "135853.856000", "135853.860000", "135853.863000", "135853.867000", "135853.870000", "135853.874000", "135853.877000", "135853.880000", "135853.884000", "135853.887000", "135853.891000", "135853.894000", "135853.898000", "135853.901000", "135853.905000", "135853.908000", "135853.911000", "135853.915000", "135853.918000", "135900.099000", "135900.103000", "135900.107000", "135900.111000", "135900.114000"],
      "InstanceCreationTime": ["135513.860000", "135513.864000", "135513.868000", "135533.830000", "135533.836000", "135533.840000", "135533.843000", "135533.847000", "135533.851000", "135533.855000", "135533.858000", "135533.861000", "135533.865000", "135533.868000", "135533.872000", "135533.875000", "135533.878000", "135533.882000", "135533.885000", "135533.889000", "135533.903000", "135533.915000", "135533.918000", "135553.829000", "135553.833000", "135553.836000", "135553.840000", "135553.843000", "135553.846000", "135553.850000", "135553.853000", "135553.857000", "135553.860000", "135553.864000", "135553.867000", "135553.870000", "135553.874000", "135553.877000", "135553.880000", "135553.884000", "135553.887000", "135553.891000", "135553.894000", "135553.905000", "135613.829000", "135613.833000", "135613.836000", "135613.840000", "135613.843000", "135613.846000", "135613.850000", "135613.853000", "135613.857000", "135613.860000", "135613.863000", "135613.867000", "135613.870000", "135613.873000", "135613.877000", "135613.880000", "135613.884000", "135613.887000", "135613.890000", "135613.894000", "135633.828000", "135633.832000", "135633.835000", "135633.839000", "135633.842000", "135633.846000", "135633.849000", "135633.853000", "135633.856000", "135633.860000", "135633.863000", "135633.867000", "135633.871000", "135633.875000", "135633.878000", "135633.882000", "135633.885000", "135633.888000", "135633.892000", "135633.895000", "135653.828000", "135653.832000", "135653.835000", "135653.839000", "135653.842000", "135653.845000", "135653.849000", "135653.853000", "135653.856000", "135653.859000", "135653.863000", "135653.866000", "135653.870000", "135653.873000", "135653.876000", "135653.880000", "135653.883000", "135653.887000", "135653.890000", "135653.893000", "135653.897000", "135733.828000", "135733.832000", "135733.835000", "135733.839000", "135733.842000", "135733.846000", "135733.849000", "135733.852000", "135733.856000", "135733.859000", "135733.863000", "135733.867000", "135733.870000", "135733.874000", "135733.877000", "135733.880000", "135733.884000", "135733.887000", "135733.891000", "135733.894000", "135733.914000", "135733.918000", "135733.921000", "135733.925000", "135733.928000", "135733.932000", "135733.935000", "135813.829000", "135813.834000", "135813.848000", "135813.852000", "135813.856000", "135813.860000", "135813.863000", "135813.867000", "135813.870000", "135813.874000", "135813.877000", "135813.881000", "135813.884000", "135813.887000", "135813.891000", "135813.894000", "135813.898000", "135813.901000", "135813.904000", "135813.908000", "135813.911000", "135813.915000", "135813.918000", "135813.921000", "135813.925000", "135813.928000", "135853.828000", "135853.832000", "135853.836000", "135853.839000", "135853.843000", "135853.846000", "135853.850000", "135853.853000", "135853.856000", "135853.860000", "135853.863000", "135853.867000", "135853.870000", "135853.874000", "135853.877000", "135853.880000", "135853.884000", "135853.887000", "135853.891000", "135853.894000", "135853.898000", "135853.901000", "135853.905000", "135853.908000", "135853.911000", "135853.915000", "135853.918000", "135900.099000", "135900.103000", "135900.107000", "135900.111000", "135900.114000"],
      "InstanceNumber": [1, 2, 3, 4, 5, 6, 7, 8, 9, 10, 11, 12, 13, 14, 15, 16, 17, 18, 19, 20, 21, 22, 23, 24, 25, 26, 27, 28, 29, 30, 31, 32, 33, 34, 35, 36, 37, 38, 39, 40, 41, 42, 43, 44, 45, 46, 47, 48, 49, 50, 51, 52, 53, 54, 55, 56, 57, 58, 59, 60, 61, 62, 63, 64, 65, 66, 67, 68, 69, 70, 71, 72, 73, 74, 75, 76, 77, 78, 79, 80, 81, 82, 83, 84, 85, 86, 87, 88, 89, 90, 91, 92, 93, 94, 95, 96, 97, 98, 99, 100, 101, 102, 103, 104, 105, 106, 107, 108, 109, 110, 111, 112, 113, 114, 115, 116, 117, 118, 119, 120, 121, 122, 123, 124, 125, 126, 127, 128, 129, 130, 131, 132, 133, 134, 135, 136, 137, 138, 139, 140, 141, 142, 143, 144, 145, 146, 147, 148, 149, 150, 151, 152, 153, 154, 155, 156, 157, 158, 159, 160, 161, 162, 163, 164, 165, 166, 167, 168, 169, 170, 171, 172, 173, 174, 175, 176, 177, 178, 179, 180, 181, 182, 183, 184, 185, 186, 187, 188, 189, 190],
      "LargestImagePixelValue": [39780, 38799, 38160, 37442, 37377, 37628, 37543, 37120, 37395, 37287, 37337, 37191, 37328, 37127, 37587, 37764, 37206, 37123, 37684, 36955, 37316, 37080, 37434, 37315, 36918, 37264, 37084, 37477, 37608, 37037, 37133, 37496, 37494, 37141, 37024, 37243, 37314, 37631, 37519, 36950, 37458, 37471, 37373, 37199, 37404, 37133, 37157, 37303, 37363, 37083, 36971, 36928, 37185, 37470, 37243, 37660, 37244, 37527, 36971, 37438, 36951, 36856, 37757, 37489, 37204, 37202, 37320, 37565, 37448, 37480, 37129, 37287, 37340, 37631, 37123, 37051, 37431, 37159, 37437, 37218, 37214, 37152, 37450, 37378, 37224, 37086, 37472, 37313, 37305, 37277, 37480, 37561, 37600, 37218, 37362, 37558, 37175, 37220, 37494, 37300, 37303, 37521, 37659, 37625, 37601, 37467, 37094, 37129, 37130, 37388, 37260, 37269, 37621, 37203, 37390, 37259, 37460, 37364, 37489, 37574, 37416, 37175, 37464, 37294, 37326, 37382, 37727, 37929, 37662, 37759, 37571, 37573, 37445, 37400, 37649, 37689, 37245, 37275, 37301, 37109, 37225, 37339, 37248, 37550, 37450, 37248, 37551, 37145, 37260, 37482, 37846, 37590, 37522, 37351, 37048, 37190, 37381, 37419, 37161, 37051, 37542, 37357, 37003, 37031, 38007, 37685, 37415, 37291, 37405, 38082, 37732, 37396, 37579, 37540, 37631, 37553, 37563, 37215, 37560, 37316, 37212, 37342, 37312, 37347, 37656, 37372, 37522, 37216, 37520, 37665],
      "WindowCenter": [10108.0, 10076.0, 10065.0, 10056.0, 10063.0, 10071.0, 10072.0, 10059.0, 10069.0, 10073.0, 10082.0, 10076.0, 10075.0, 10067.0, 10074.0, 10080.0, 10084.0, 10091.0, 10104.0, 10094.0, 10100.0, 10092.0, 10098.0, 10105.0, 10101.0, 10106.0, 10103.0, 10107.0, 10104.0, 10085.0, 10073.0, 10063.0, 10063.0, 10064.0, 10078.0, 10081.0, 10095.0, 10107.0, 10101.0, 10079.0, 10064.0, 10038.0, 10027.0, 10029.0, 10060.0, 10079.0, 10098.0, 10105.0, 10091.0, 10081.0, 10076.0, 10075.0, 10082.0, 10088.0, 10091.0, 10098.0, 10091.0, 10097.0, 10092.0, 10105.0, 10093.0, 10092.0, 10096.0, 10089.0, 10084.0, 10090.0, 10090.0, 10090.0, 10100.0, 10115.0, 10102.0, 10092.0, 10080.0, 10073.0, 10066.0, 10067.0, 10078.0, 10093.0, 10100.0, 10085.0, 10059.0, 10047.0, 10044.0, 10054.0, 10057.0, 10080.0, 10097.0, 10108.0, 10101.0, 10085.0, 10063.0, 10053.0, 10059.0, 10081.0, 10097.0, 10109.0, 10109.0, 10095.0, 10085.0, 10081.0, 10080.0, 10089.0, 10091.0, 10089.0, 10074.0, 10057.0, 10058.0, 10065.0, 10082.0, 10098.0, 10109.0, 10103.0, 10108.0, 10093.0, 10091.0, 10099.0, 10116.0, 10109.0, 10095.0, 10092.0, 10093.0, 10105.0, 10117.0, 10109.0, 10106.0, 10109.0, 10116.0, 10106.0, 10082.0, 10065.0, 10054.0, 10055.0, 10067.0, 10071.0, 10072.0, 10078.0, 10064.0, 10056.0, 10055.0, 10063.0, 10071.0, 10073.0, 10073.0, 10071.0, 10070.0, 10056.0, 10062.0, 10080.0, 10108.0, 10116.0, 10092.0, 10065.0, 10038.0, 10035.0, 10048.0, 10062.0, 10073.0, 10090.0, 10092.0, 10083.0, 10073.0, 10073.0, 10073.0, 10074.0, 10087.0, 10080.0, 10071.0, 10073.0, 10091.0, 10104.0, 10106.0, 10100.0, 10111.0, 10118.0, 10108.0, 10084.0, 10067.0, 10057.0, 10063.0, 10072.0, 10085.0, 10092.0, 10094.0, 10092.0, 10089.0, 10075.0, 10073.0, 10074.0, 10088.0, 10105.0],
      "WindowWidth": [21536.0, 21444.0, 21409.0, 21381.0, 21391.0, 21406.0, 21409.0, 21380.0, 21400.0, 21410.0, 21432.0, 21420.0, 21416.0, 21398.0, 21414.0, 21426.0, 21438.0, 21455.0, 21479.0, 21462.0, 21473.0, 21456.0, 21467.0, 21484.0, 21475.0, 21487.0, 21481.0, 21485.0, 21477.0, 21438.0, 21409.0, 21388.0, 21387.0, 21390.0, 21419.0, 21430.0, 21459.0, 21486.0, 21475.0, 21427.0, 21387.0, 21330.0, 21304.0, 21311.0, 21379.0, 21427.0, 21469.0, 21483.0, 21453.0, 21429.0, 21421.0, 21419.0, 21432.0, 21444.0, 21455.0, 21467.0, 21454.0, 21464.0, 21456.0, 21482.0, 21460.0, 21456.0, 21461.0, 21448.0, 21438.0, 21450.0, 21447.0, 21448.0, 21472.0, 21505.0, 21476.0, 21449.0, 21420.0, 21405.0, 21394.0, 21394.0, 21417.0, 21453.0, 21469.0, 21436.0, 21376.0, 21344.0, 21337.0, 21360.0, 21372.0, 21422.0, 21462.0, 21488.0, 21474.0, 21435.0, 21381.0, 21356.0, 21374.0, 21426.0, 21463.0, 21490.0, 21490.0, 21460.0, 21436.0, 21425.0, 21422.0, 21442.0, 21448.0, 21441.0, 21410.0, 21372.0, 21373.0, 21391.0, 21430.0, 21467.0, 21493.0, 21484.0, 21491.0, 21456.0, 21450.0, 21468.0, 21507.0, 21492.0, 21459.0, 21449.0, 21456.0, 21485.0, 21509.0, 21490.0, 21482.0, 21492.0, 21504.0, 21477.0, 21425.0, 21386.0, 21363.0, 21368.0, 21391.0, 21403.0, 21409.0, 21419.0, 21390.0, 21372.0, 21368.0, 21386.0, 21406.0, 21409.0, 21407.0, 21400.0, 21397.0, 21370.0, 21383.0, 21427.0, 21491.0, 21507.0, 21450.0, 21387.0, 21326.0, 21320.0, 21348.0, 21385.0, 21411.0, 21450.0, 21456.0, 21433.0, 21409.0, 21409.0, 21410.0, 21414.0, 21440.0, 21423.0, 21402.0, 21410.0, 21448.0, 21475.0, 21480.0, 21469.0, 21495.0, 21510.0, 21485.0, 21428.0, 21392.0, 21369.0, 21382.0, 21405.0, 21437.0, 21453.0, 21457.0, 21451.0, 21441.0, 21407.0, 21403.0, 21406.0, 21437.0, 21475.0]
    },
    "slices": {}
  }
}