{
  "AcquisitionMatrixPE": 104,
  "AcquisitionNumber": 1,
  "AcquisitionTime": "13:54:16.222500",
  "BandwidthPerPixelPhaseEncode": 17.17,
  "BaseResolution": 104,
  "BodyPartExamined": "BRAIN",
  "CoilString": "HC1-7;NC1_2",
  "ConsistencyInfo": "N4_VE11C_LATEST_20160120",
  "ConversionSoftware": "dcm2niix",
  "ConversionSoftwareVersion": "v1.0.20190902",
  "DerivedVendorReportedEchoSpacing": 0.000560011,
  "DeviceSerialNumber": "167006",
  "DwellTime": 2.1e-06,
  "EchoTime": 0.037,
  "EchoTrainLength": 104,
  "EffectiveEchoSpacing": 0.000560011,
  "FlipAngle": 52,
  "ImageComments": "Unaliased_MB4_PE3_LB",
  "ImageOrientationPatientDICOM": [0.999574, -0.00310716, 0.0290068, 0.00976996, 0.972548, -0.232495],
  "ImageType": [
    "ORIGINAL",
    "PRIMARY",
    "P",
    "MB",
    "ND",
    "MOSAIC"
],
  "ImagingFrequency": 123.259,
  "InPlanePhaseEncodingDirectionDICOM": "COL",
  "InstitutionAddress": "Chemin_Queen-Mary_4565_Montreal_District_CA_H3W_1W5",
  "InstitutionName": "IUGM",
  "InstitutionalDepartmentName": "Department",
  "MRAcquisitionType": "2D",
  "MagneticFieldStrength": 3,
  "Manufacturer": "Siemens",
  "ManufacturersModelName": "Prisma_fit",
  "Modality": "MR",
  "MultibandAccelerationFactor": 4,
  "PartialFourier": 1,
  "PatientPosition": "HFS",
  "PercentPhaseFOV": 100,
  "PhaseEncodingDirection": "j",
  "PhaseEncodingSteps": 104,
  "PhaseResolution": 1,
  "PixelBandwidth": 2290,
  "ProcedureStepDescription": "memory_things",
  "ProtocolName": "func_task-things_run-4",
  "PulseSequenceDetails": "%CustomerSeq%_cmrr_mbep2d_bold",
  "ReceiveCoilActiveElements": "HC1-7;NC1,2",
  "ReceiveCoilName": "HeadNeck_64",
  "ReconMatrixPE": 104,
  "RepetitionTime": 1.49,
  "SAR": 0.0353979,
  "ScanOptions": "FS",
  "ScanningSequence": "EP",
  "SequenceName": "epfid2d1_104",
  "SequenceVariant": "SK_SS",
  "SeriesDescription": "func_task-things_run-4",
  "SeriesNumber": 20,
  "ShimSetting": [634, -7218, -8791, 733, 46, -10, 73, 7],
  "SliceThickness": 2,
  "SliceTiming": [0, 0.7825, 0.0975, 0.88, 0.195, 0.98, 0.2925, 1.0775, 0.39, 1.175, 0.49, 1.2725, 0.5875, 1.37, 0.685, 0, 0.7825, 0.0975, 0.88, 0.195, 0.98, 0.2925, 1.0775, 0.39, 1.175, 0.49, 1.2725, 0.5875, 1.37, 0.685, 0, 0.7825, 0.0975, 0.88, 0.195, 0.98, 0.2925, 1.0775, 0.39, 1.175, 0.49, 1.2725, 0.5875, 1.37, 0.685, 0, 0.7825, 0.0975, 0.88, 0.195, 0.98, 0.2925, 1.0775, 0.39, 1.175, 0.49, 1.2725, 0.5875, 1.37, 0.685],
  "SoftwareVersions": "syngo_MR_E11",
  "SpacingBetweenSlices": 2,
  "StationName": "MRC35049",
  "TaskName": "things",
  "TotalReadoutTime": 0.0576811,
  "TxRefAmp": 216.774,
  "WipMemBlock": "cec19a91-d0eb-49d1-b99c-cdc4b4fcdf11||Sequence: R016 ve11c/master r/e634e98; Dec 19 2017 11:00:25 by eja",
  "dcmmeta_affine": [
    [-1.9991487264633179, 0.01953992433845997, 0.054976243525743484, 106.58506774902344],
    [0.006214312743395567, 1.9450969696044922, -0.4653593599796295, -76.6046371459961],
    [0.05801360309123993, 0.464990496635437, 1.9443297386169434, -63.433231353759766],
    [0.0, 0.0, 0.0, 1.0]
],
  "dcmmeta_reorient_transform": [
    [0.0, -1.0, 0.0, 103.0],
    [1.0, 0.0, 0.0, 0.0],
    [0.0, 0.0, 1.0, 0.0],
    [0.0, 0.0, 0.0, 1.0]
],
  "dcmmeta_shape": [104, 104, 60, 190],
  "dcmmeta_slice_dim": 2,
  "dcmmeta_version": 0.6,
  "global": {
    "const": {
      "AcquisitionMatrix": [104, 0, 0, 104],
      "AngioFlag": "N",
      "BitsAllocated": 16,
      "BitsStored": 16,
      "BodyPartExamined": "BRAIN",
      "Columns": 832,
      "EchoNumbers": 1,
      "EchoTime": 37.0,
      "EchoTrainLength": 104,
      "FlipAngle": 52.0,
      "HighBit": 15,
      "ImageOrientationPatient": [0.99957438493022, -0.0031071563014, 0.02900680215206, 0.00976996182736, 0.9725484615218, -0.2324952426126],
      "ImagePositionPatient": [-843.4003664917, -829.49361534524, 132.60037516943],
      "ImageType": [
        "ORIGINAL",
        "PRIMARY",
        "P",
        "MB",
        "ND",
        "MOSAIC"
],
      "ImagedNucleus": "1H",
      "ImagingFrequency": 123.258942,
      "InPlanePhaseEncodingDirection": "COL",
      "LargestImagePixelValue": 4095,
      "MRAcquisitionType": "2D",
      "MagneticFieldStrength": 3.0,
      "Manufacturer": "SIEMENS",
      "ManufacturerModelName": "Prisma_fit",
      "Modality": "MR",
      "NumberOfAverages": 1.0,
      "NumberOfPhaseEncodingSteps": 104,
      "PercentPhaseFieldOfView": 100.0,
      "PercentSampling": 100.0,
      "PerformedProcedureStepStartTime": "131441.465000",
      "PhotometricInterpretation": "MONOCHROME2",
      "PixelBandwidth": 2290.0,
      "PixelRepresentation": 0,
      "PixelSpacing": [2.0, 2.0],
      "ProtocolName": "func_task-things_run-4",
      "RepetitionTime": 1490.0,
      "RescaleIntercept": -4096.0,
      "RescaleSlope": 2.0,
      "RescaleType": "US",
      "Rows": 832,
      "SAR": 0.03539793385248,
      "SamplesPerPixel": 1,
      "ScanOptions": "FS",
      "ScanningSequence": "EP",
      "SequenceName": "epfid2d1_104",
      "SequenceVariant": [
        "SK",
        "SS"
],
      "SeriesDescription": "func_task-things_run-4",
      "SeriesNumber": 20,
      "SeriesTime": "135513.894000",
      "SliceLocation": -40.913391994743,
      "SliceThickness": 2.0,
      "SmallestImagePixelValue": 0,
      "SoftwareVersions": "syngo MR E11",
      "SpacingBetweenSlices": 2.0000000246223,
      "SpecificCharacterSet": "ISO_IR 100",
      "StudyID": "1",
      "StudyTime": "131441.234000",
      "TransmitCoilName": "Body",
      "VariableFlipAngleFlag": "N",
      "WindowCenterWidthExplanation": "Algo1",
      "dBdt": 0.0},
    "slices": {}
  },
  "time": {
    "samples": {
      "AcquisitionNumber": [1, 2, 3, 4, 5, 6, 7, 8, 9, 10, 11, 12, 13, 14, 15, 16, 17, 18, 19, 20, 21, 22, 23, 24, 25, 26, 27, 28, 29, 30, 31, 32, 33, 34, 35, 36, 37, 38, 39, 40, 41, 42, 43, 44, 45, 46, 47, 48, 49, 50, 51, 52, 53, 54, 55, 56, 57, 58, 59, 60, 61, 62, 63, 64, 65, 66, 67, 68, 69, 70, 71, 72, 73, 74, 75, 76, 77, 78, 79, 80, 81, 82, 83, 84, 85, 86, 87, 88, 89, 90, 91, 92, 93, 94, 95, 96, 97, 98, 99, 100, 101, 102, 103, 104, 105, 106, 107, 108, 109, 110, 111, 112, 113, 114, 115, 116, 117, 118, 119, 120, 121, 122, 123, 124, 125, 126, 127, 128, 129, 130, 131, 132, 133, 134, 135, 136, 137, 138, 139, 140, 141, 142, 143, 144, 145, 146, 147, 148, 149, 150, 151, 152, 153, 154, 155, 156, 157, 158, 159, 160, 161, 162, 163, 164, 165, 166, 167, 168, 169, 170, 171, 172, 173, 174, 175, 176, 177, 178, 179, 180, 181, 182, 183, 184, 185, 186, 187, 188, 189, 190],
      "AcquisitionTime": ["135416.222500", "135417.712500", "135419.202500", "135420.692500", "135422.182500", "135423.672500", "135425.162500", "135426.652500", "135428.142500", "135429.632500", "135431.122500", "135432.612500", "135434.102500", "135435.592500", "135437.082500", "135438.572500", "135440.062500", "135441.552500", "135443.042500", "135444.532500", "135446.022500", "135447.512500", "135449.002500", "135450.492500", "135451.982500", "135453.472500", "135454.962500", "135456.452500", "135457.942500", "135459.432500", "135500.922500", "135502.412500", "135503.902500", "135505.392500", "135506.882500", "135508.372500", "135509.862500", "135511.352500", "135512.842500", "135514.332500", "135515.822500", "135517.312500", "135518.802500", "135520.292500", "135521.782500", "135523.272500", "135524.762500", "135526.252500", "135527.742500", "135529.232500", "135530.722500", "135532.212500", "135533.702500", "135535.192500", "135536.682500", "135538.172500", "135539.662500", "135541.152500", "135542.642500", "135544.132500", "135545.622500", "135547.112500", "135548.602500", "135550.092500", "135551.582500", "135553.072500", "135554.562500", "135556.052500", "135557.542500", "135559.032500", "135600.522500", "135602.012500", "135603.502500", "135604.992500", "135606.482500", "135607.972500", "135609.462500", "135610.952500", "135612.442500", "135613.932500", "135615.422500", "135616.912500", "135618.402500", "135619.892500", "135621.382500", "135622.872500", "135624.362500", "135625.852500", "135627.342500", "135628.832500", "135630.322500", "135631.812500", "135633.302500", "135634.792500", "135636.282500", "135637.772500", "135639.262500", "135640.752500", "135642.242500", "135643.732500", "135645.222500", "135646.712500", "135648.202500", "135649.692500", "135651.182500", "135652.672500", "135654.162500", "135655.652500", "135657.142500", "135658.632500", "135700.122500", "135701.612500", "135703.102500", "135704.592500", "135706.082500", "135707.572500", "135709.062500", "135710.552500", "135712.042500", "135713.532500", "135715.022500", "135716.512500", "135718.002500", "135719.492500", "135720.982500", "135722.472500", "135723.962500", "135725.452500", "135726.942500", "135728.432500", "135729.922500", "135731.412500", "135732.902500", "135734.392500", "135735.882500", "135737.372500", "135738.862500", "135740.352500", "135741.842500", "135743.332500", "135744.822500", "135746.312500", "135747.802500", "135749.292500", "135750.782500", "135752.272500", "135753.762500", "135755.252500", "135756.742500", "135758.232500", "135759.722500", "135801.212500", "135802.702500", "135804.192500", "135805.682500", "135807.172500", "135808.662500", "135810.152500", "135811.642500", "135813.132500", "135814.622500", "135816.112500", "135817.602500", "135819.092500", "135820.582500", "135822.072500", "135823.562500", "135825.052500", "135826.542500", "135828.032500", "135829.522500", "135831.012500", "135832.502500", "135833.992500", "135835.482500", "135836.972500", "135838.462500", "135839.952500", "135841.442500", "135842.932500", "135844.422500", "135845.912500", "135847.402500", "135848.892500", "135850.382500", "135851.872500", "135853.362500", "135854.852500", "135856.342500", "135857.832500"],
      "ContentTime": ["135513.896000", "135513.906000", "135513.908000", "135533.955000", "135533.957000", "135533.960000", "135533.963000", "135533.965000", "135533.968000", "135533.970000", "135533.973000", "135533.975000", "135533.978000", "135533.980000", "135533.983000", "135533.985000", "135533.988000", "135533.990000", "135533.993000", "135533.996000", "135533.998000", "135534.002000", "135534.004000", "135553.960000", "135553.962000", "135553.965000", "135553.967000", "135553.970000", "135553.972000", "135553.975000", "135553.978000", "135553.980000", "135553.983000", "135553.985000", "135553.988000", "135553.990000", "135553.993000", "135553.995000", "135553.998000", "135554.002000", "135554.004000", "135554.007000", "135554.009000", "135554.012000", "135613.935000", "135613.938000", "135613.941000", "135613.943000", "135613.946000", "135613.948000", "135613.951000", "135613.954000", "135613.956000", "135613.959000", "135613.961000", "135613.973000", "135613.976000", "135613.978000", "135613.981000", "135613.983000", "135613.986000", "135613.988000", "135613.991000", "135613.993000", "135633.940000", "135633.943000", "135633.946000", "135633.949000", "135633.951000", "135633.954000", "135633.956000", "135633.959000", "135633.972000", "135633.974000", "135633.978000", "135633.981000", "135633.985000", "135633.988000", "135633.991000", "135633.994000", "135633.997000", "135634.000000", "135634.003000", "135634.006000", "135653.939000", "135653.942000", "135653.945000", "135653.947000", "135653.950000", "135653.952000", "135653.955000", "135653.957000", "135653.960000", "135653.963000", "135653.965000", "135653.968000", "135653.970000", "135653.973000", "135653.975000", "135653.978000", "135653.980000", "135653.983000", "135653.985000", "135653.988000", "135653.990000", "135733.994000", "135733.996000", "135733.999000", "135734.002000", "135734.004000", "135734.007000", "135734.009000", "135734.021000", "135734.024000", "135734.026000", "135734.029000", "135734.032000", "135734.034000", "135734.037000", "135734.039000", "135734.042000", "135734.044000", "135734.047000", "135734.049000", "135734.052000", "135734.055000", "135734.057000", "135734.060000", "135734.062000", "135734.065000", "135734.067000", "135734.070000", "135814.007000", "135814.009000", "135814.012000", "135814.015000", "135814.017000", "135814.020000", "135814.022000", "135814.025000", "135814.028000", "135814.030000", "135814.033000", "135814.035000", "135814.038000", "135814.040000", "135814.043000", "135814.045000", "135814.048000", "135814.051000", "135814.053000", "135814.056000", "135814.058000", "135814.061000", "135814.063000", "135814.066000", "135814.068000", "135814.071000", "135853.968000", "135853.971000", "135853.974000", "135853.976000", "135853.979000", "135853.982000", "135853.984000", "135853.987000", "135853.990000", "135853.992000", "135853.995000", "135853.997000", "135854.001000", "135854.003000", "135854.006000", "135854.009000", "135854.011000", "135854.014000", "135854.016000", "135854.019000", "135854.021000", "135854.024000", "135854.027000", "135854.029000", "135854.032000", "135854.035000", "135854.037000", "135900.159000", "135900.162000", "135900.165000", "135900.167000", "135900.170000"],
      "InstanceCreationTime": ["135513.896000", "135513.906000", "135513.908000", "135533.955000", "135533.957000", "135533.960000", "135533.963000", "135533.965000", "135533.968000", "135533.970000", "135533.973000", "135533.975000", "135533.978000", "135533.980000", "135533.983000", "135533.985000", "135533.988000", "135533.990000", "135533.993000", "135533.996000", "135533.998000", "135534.002000", "135534.004000", "135553.960000", "135553.962000", "135553.965000", "135553.967000", "135553.970000", "135553.972000", "135553.975000", "135553.978000", "135553.980000", "135553.983000", "135553.985000", "135553.988000", "135553.990000", "135553.993000", "135553.995000", "135553.998000", "135554.002000", "135554.004000", "135554.007000", "135554.009000", "135554.012000", "135613.935000", "135613.938000", "135613.941000", "135613.943000", "135613.946000", "135613.948000", "135613.951000", "135613.954000", "135613.956000", "135613.959000", "135613.961000", "135613.973000", "135613.976000", "135613.978000", "135613.981000", "135613.983000", "135613.986000", "135613.988000", "135613.991000", "135613.993000", "135633.940000", "135633.943000", "135633.946000", "135633.949000", "135633.951000", "135633.954000", "135633.956000", "135633.959000", "135633.972000", "135633.974000", "135633.978000", "135633.981000", "135633.985000", "135633.988000", "135633.991000", "135633.994000", "135633.997000", "135634.000000", "135634.003000", "135634.006000", "135653.939000", "135653.942000", "135653.945000", "135653.947000", "135653.950000", "135653.952000", "135653.955000", "135653.957000", "135653.960000", "135653.963000", "135653.965000", "135653.968000", "135653.970000", "135653.973000", "135653.975000", "135653.978000", "135653.980000", "135653.983000", "135653.985000", "135653.988000", "135653.990000", "135733.994000", "135733.996000", "135733.999000", "135734.002000", "135734.004000", "135734.007000", "135734.009000", "135734.021000", "135734.024000", "135734.026000", "135734.029000", "135734.032000", "135734.034000", "135734.037000", "135734.039000", "135734.042000", "135734.044000", "135734.047000", "135734.049000", "135734.052000", "135734.055000", "135734.057000", "135734.060000", "135734.062000", "135734.065000", "135734.067000", "135734.070000", "135814.007000", "135814.009000", "135814.012000", "135814.015000", "135814.017000", "135814.020000", "135814.022000", "135814.025000", "135814.028000", "135814.030000", "135814.033000", "135814.035000", "135814.038000", "135814.040000", "135814.043000", "135814.045000", "135814.048000", "135814.051000", "135814.053000", "135814.056000", "135814.058000", "135814.061000", "135814.063000", "135814.066000", "135814.068000", "135814.071000", "135853.968000", "135853.971000", "135853.974000", "135853.976000", "135853.979000", "135853.982000", "135853.984000", "135853.987000", "135853.990000", "135853.992000", "135853.995000", "135853.997000", "135854.001000", "135854.003000", "135854.006000", "135854.009000", "135854.011000", "135854.014000", "135854.016000", "135854.019000", "135854.021000", "135854.024000", "135854.027000", "135854.029000", "135854.032000", "135854.035000", "135854.037000", "135900.159000", "135900.162000", "135900.165000", "135900.167000", "135900.170000"],
      "InstanceNumber": [1, 2, 3, 4, 5, 6, 7, 8, 9, 10, 11, 12, 13, 14, 15, 16, 17, 18, 19, 20, 21, 22, 23, 24, 25, 26, 27, 28, 29, 30, 31, 32, 33, 34, 35, 36, 37, 38, 39, 40, 41, 42, 43, 44, 45, 46, 47, 48, 49, 50, 51, 52, 53, 54, 55, 56, 57, 58, 59, 60, 61, 62, 63, 64, 65, 66, 67, 68, 69, 70, 71, 72, 73, 74, 75, 76, 77, 78, 79, 80, 81, 82, 83, 84, 85, 86, 87, 88, 89, 90, 91, 92, 93, 94, 95, 96, 97, 98, 99, 100, 101, 102, 103, 104, 105, 106, 107, 108, 109, 110, 111, 112, 113, 114, 115, 116, 117, 118, 119, 120, 121, 122, 123, 124, 125, 126, 127, 128, 129, 130, 131, 132, 133, 134, 135, 136, 137, 138, 139, 140, 141, 142, 143, 144, 145, 146, 147, 148, 149, 150, 151, 152, 153, 154, 155, 156, 157, 158, 159, 160, 161, 162, 163, 164, 165, 166, 167, 168, 169, 170, 171, 172, 173, 174, 175, 176, 177, 178, 179, 180, 181, 182, 183, 184, 185, 186, 187, 188, 189, 190],
      "WindowCenter": [4862.0, 4886.0, 4860.0, 4884.0, 4858.0, 4864.0, 4858.0, 4866.0, 4860.0, 4864.0, 4860.0, 4864.0, 4860.0, 4886.0, 4856.0, 4860.0, 4856.0, 4862.0, 4860.0, 4860.0, 4864.0, 4860.0, 4860.0, 4862.0, 4864.0, 4862.0, 4862.0, 4862.0, 4862.0, 4860.0, 4864.0, 4860.0, 4860.0, 4864.0, 4862.0, 4862.0, 4860.0, 4858.0, 4864.0, 4864.0, 4862.0, 4862.0, 4862.0, 4860.0, 4856.0, 4862.0, 4856.0, 4862.0, 4860.0, 4860.0, 4858.0, 4860.0, 4858.0, 4862.0, 4864.0, 4862.0, 4862.0, 4862.0, 4856.0, 4862.0, 4860.0, 4860.0, 4858.0, 4860.0, 4856.0, 4860.0, 4862.0, 4866.0, 4864.0, 4866.0, 4862.0, 4864.0, 4860.0, 4862.0, 4860.0, 4856.0, 4862.0, 4858.0, 4864.0, 4866.0, 4888.0, 4862.0, 4864.0, 4860.0, 4864.0, 4858.0, 4858.0, 4858.0, 4860.0, 4862.0, 4862.0, 4862.0, 4860.0, 4862.0, 4858.0, 4862.0, 4858.0, 4856.0, 4856.0, 4860.0, 4860.0, 4864.0, 4862.0, 4866.0, 4860.0, 4866.0, 4856.0, 4860.0, 4852.0, 4860.0, 4854.0, 4858.0, 4858.0, 4864.0, 4860.0, 4862.0, 4858.0, 4860.0, 4856.0, 4858.0, 4856.0, 4856.0, 4854.0, 4864.0, 4858.0, 4866.0, 4862.0, 4864.0, 4858.0, 4852.0, 4862.0, 4856.0, 4858.0, 4854.0, 4856.0, 4856.0, 4858.0, 4862.0, 4860.0, 4860.0, 4856.0, 4854.0, 4858.0, 4858.0, 4860.0, 4858.0, 4860.0, 4856.0, 4862.0, 4856.0, 4864.0, 4856.0, 4860.0, 4858.0, 4860.0, 4854.0, 4856.0, 4850.0, 4856.0, 4852.0, 4858.0, 4856.0, 4858.0, 4856.0, 4860.0, 4860.0, 4858.0, 4856.0, 4854.0, 4854.0, 4860.0, 4860.0, 4856.0, 4862.0, 4858.0, 4858.0, 4856.0, 4858.0, 4856.0, 4860.0, 4854.0, 4862.0, 4852.0, 4862.0, 4858.0, 4860.0, 4858.0, 4862.0, 4856.0, 4862.0],
      "WindowWidth": [18696.0, 18730.0, 18702.0, 18730.0, 18696.0, 18702.0, 18700.0, 18702.0, 18692.0, 18702.0, 18696.0, 18698.0, 18696.0, 18728.0, 18702.0, 18698.0, 18694.0, 18698.0, 18696.0, 18698.0, 18694.0, 18696.0, 18692.0, 18702.0, 18704.0, 18698.0, 18700.0, 18698.0, 18700.0, 18698.0, 18696.0, 18702.0, 18692.0, 18696.0, 18700.0, 18696.0, 18696.0, 18696.0, 18702.0, 18698.0, 18696.0, 18702.0, 18700.0, 18696.0, 18694.0, 18694.0, 18696.0, 18698.0, 18700.0, 18698.0, 18694.0, 18694.0, 18702.0, 18700.0, 18700.0, 18698.0, 18700.0, 18700.0, 18698.0, 18700.0, 18698.0, 18696.0, 18696.0, 18696.0, 18690.0, 18698.0, 18700.0, 18694.0, 18700.0, 18700.0, 18696.0, 18696.0, 18696.0, 18700.0, 18690.0, 18694.0, 18698.0, 18698.0, 18702.0, 18700.0, 18726.0, 18694.0, 18700.0, 18696.0, 18700.0, 18692.0, 18698.0, 18696.0, 18696.0, 18696.0, 18696.0, 18698.0, 18698.0, 18698.0, 18696.0, 18696.0, 18692.0, 18694.0, 18690.0, 18694.0, 18694.0, 18696.0, 18702.0, 18700.0, 18696.0, 18698.0, 18690.0, 18698.0, 18692.0, 18694.0, 18692.0, 18698.0, 18694.0, 18700.0, 18696.0, 18696.0, 18694.0, 18694.0, 18688.0, 18700.0, 18694.0, 18698.0, 18690.0, 18698.0, 18696.0, 18698.0, 18698.0, 18694.0, 18694.0, 18690.0, 18700.0, 18690.0, 18694.0, 18690.0, 18694.0, 18690.0, 18698.0, 18702.0, 18698.0, 18692.0, 18694.0, 18694.0, 18698.0, 18696.0, 18698.0, 18690.0, 18702.0, 18694.0, 18698.0, 18694.0, 18702.0, 18694.0, 18694.0, 18696.0, 18698.0, 18694.0, 18696.0, 18688.0, 18690.0, 18690.0, 18694.0, 18694.0, 18696.0, 18696.0, 18696.0, 18696.0, 18698.0, 18692.0, 18692.0, 18692.0, 18698.0, 18698.0, 18696.0, 18700.0, 18696.0, 18692.0, 18692.0, 18696.0, 18690.0, 18696.0, 18690.0, 18700.0, 18694.0, 18696.0, 18694.0, 18700.0, 18696.0, 18696.0, 18690.0, 18700.0]
    },
    "slices": {}
  }
}