{
  "AcquisitionMatrixPE": 104,
  "AcquisitionNumber": 1,
  "AcquisitionTime": "14:00:20.097500",
  "BandwidthPerPixelPhaseEncode": 17.17,
  "BaseResolution": 104,
  "BodyPartExamined": "BRAIN",
  "CoilString": "HC1-7;NC1_2",
  "ConsistencyInfo": "N4_VE11C_LATEST_20160120",
  "ConversionSoftware": "dcm2niix",
  "ConversionSoftwareVersion": "v1.0.20190902",
  "DerivedVendorReportedEchoSpacing": 0.000560011,
  "DeviceSerialNumber": "167006",
  "DwellTime": 2.1e-06,
  "EchoTime": 0.037,
  "EchoTrainLength": 104,
  "EffectiveEchoSpacing": 0.000560011,
  "FlipAngle": 52,
  "ImageComments": "Unaliased_MB4_PE3_LB",
  "ImageOrientationPatientDICOM": [0.999574, -0.00310716, 0.0290068, 0.00976996, 0.972548, -0.232495],
  "ImageType": [
    "ORIGINAL",
    "PRIMARY",
    "P",
    "MB",
    "ND",
    "MOSAIC"
],
  "ImagingFrequency": 123.259,
  "InPlanePhaseEncodingDirectionDICOM": "COL",
  "InstitutionAddress": "Chemin_Queen-Mary_4565_Montreal_District_CA_H3W_1W5",
  "InstitutionName": "IUGM",
  "InstitutionalDepartmentName": "Department",
  "MRAcquisitionType": "2D",
  "MagneticFieldStrength": 3,
  "Manufacturer": "Siemens",
  "ManufacturersModelName": "Prisma_fit",
  "Modality": "MR",
  "MultibandAccelerationFactor": 4,
  "PartialFourier": 1,
  "PatientPosition": "HFS",
  "PercentPhaseFOV": 100,
  "PhaseEncodingDirection": "j",
  "PhaseEncodingSteps": 104,
  "PhaseResolution": 1,
  "PixelBandwidth": 2290,
  "ProcedureStepDescription": "memory_things",
  "ProtocolName": "func_task-things_run-5",
  "PulseSequenceDetails": "%CustomerSeq%_cmrr_mbep2d_bold",
  "ReceiveCoilActiveElements": "HC1-7;NC1,2",
  "ReceiveCoilName": "HeadNeck_64",
  "ReconMatrixPE": 104,
  "RepetitionTime": 1.49,
  "SAR": 0.0353979,
  "ScanOptions": "FS",
  "ScanningSequence": "EP",
  "SequenceName": "epfid2d1_104",
  "SequenceVariant": "SK_SS",
  "SeriesDescription": "func_task-things_run-5",
  "SeriesNumber": 23,
  "ShimSetting": [634, -7218, -8791, 733, 46, -10, 73, 7],
  "SliceThickness": 2,
  "SliceTiming": [0, 0.785, 0.0975, 0.8825, 0.195, 0.98, 0.295, 1.0775, 0.3925, 1.175, 0.49, 1.275, 0.5875, 1.3725, 0.685, 0, 0.785, 0.0975, 0.8825, 0.195, 0.98, 0.295, 1.0775, 0.3925, 1.175, 0.49, 1.275, 0.5875, 1.3725, 0.685, 0, 0.785, 0.0975, 0.8825, 0.195, 0.98, 0.295, 1.0775, 0.3925, 1.175, 0.49, 1.275, 0.5875, 1.3725, 0.685, 0, 0.785, 0.0975, 0.8825, 0.195, 0.98, 0.295, 1.0775, 0.3925, 1.175, 0.49, 1.275, 0.5875, 1.3725, 0.685],
  "SoftwareVersions": "syngo_MR_E11",
  "SpacingBetweenSlices": 2,
  "StationName": "MRC35049",
  "TaskName": "things",
  "TotalReadoutTime": 0.0576811,
  "TxRefAmp": 216.774,
  "WipMemBlock": "36f5f43f-4d08-4923-b39b-fdeca9d16deb||Sequence: R016 ve11c/master r/e634e98; Dec 19 2017 11:00:25 by eja",
  "dcmmeta_affine": [
    [-1.9991487264633179, 0.01953992433845997, 0.054976243525743484, 106.58506774902344],
    [0.006214312743395567, 1.9450969696044922, -0.4653593599796295, -76.6046371459961],
    [0.05801360309123993, 0.464990496635437, 1.9443297386169434, -63.433231353759766],
    [0.0, 0.0, 0.0, 1.0]
],
  "dcmmeta_reorient_transform": [
    [0.0, -1.0, 0.0, 103.0],
    [1.0, 0.0, 0.0, 0.0],
    [0.0, 0.0, 1.0, 0.0],
    [0.0, 0.0, 0.0, 1.0]
],
  "dcmmeta_shape": [104, 104, 60, 190],
  "dcmmeta_slice_dim": 2,
  "dcmmeta_version": 0.6,
  "global": {
    "const": {
      "AcquisitionMatrix": [104, 0, 0, 104],
      "AngioFlag": "N",
      "BitsAllocated": 16,
      "BitsStored": 16,
      "BodyPartExamined": "BRAIN",
      "Columns": 832,
      "EchoNumbers": 1,
      "EchoTime": 37.0,
      "EchoTrainLength": 104,
      "FlipAngle": 52.0,
      "HighBit": 15,
      "ImageOrientationPatient": [0.99957438493022, -0.0031071563014, 0.02900680215206, 0.00976996182736, 0.9725484615218, -0.2324952426126],
      "ImagePositionPatient": [-843.4003664917, -829.49361534524, 132.60037516943],
      "ImageType": [
        "ORIGINAL",
        "PRIMARY",
        "P",
        "MB",
        "ND",
        "MOSAIC"
],
      "ImagedNucleus": "1H",
      "ImagingFrequency": 123.258945,
      "InPlanePhaseEncodingDirection": "COL",
      "LargestImagePixelValue": 4095,
      "MRAcquisitionType": "2D",
      "MagneticFieldStrength": 3.0,
      "Manufacturer": "SIEMENS",
      "ManufacturerModelName": "Prisma_fit",
      "Modality": "MR",
      "NumberOfAverages": 1.0,
      "NumberOfPhaseEncodingSteps": 104,
      "PercentPhaseFieldOfView": 100.0,
      "PercentSampling": 100.0,
      "PerformedProcedureStepStartTime": "131441.465000",
      "PhotometricInterpretation": "MONOCHROME2",
      "PixelBandwidth": 2290.0,
      "PixelRepresentation": 0,
      "PixelSpacing": [2.0, 2.0],
      "ProtocolName": "func_task-things_run-5",
      "RepetitionTime": 1490.0,
      "RescaleIntercept": -4096.0,
      "RescaleSlope": 2.0,
      "RescaleType": "US",
      "Rows": 832,
      "SAR": 0.03539793385248,
      "SamplesPerPixel": 1,
      "ScanOptions": "FS",
      "ScanningSequence": "EP",
      "SequenceName": "epfid2d1_104",
      "SequenceVariant": [
        "SK",
        "SS"
],
      "SeriesDescription": "func_task-things_run-5",
      "SeriesNumber": 23,
      "SeriesTime": "140137.978000",
      "SliceLocation": -40.913391994743,
      "SliceThickness": 2.0,
      "SmallestImagePixelValue": 0,
      "SoftwareVersions": "syngo MR E11",
      "SpacingBetweenSlices": 2.0000000246223,
      "SpecificCharacterSet": "ISO_IR 100",
      "StudyID": "1",
      "StudyTime": "131441.234000",
      "TransmitCoilName": "Body",
      "VariableFlipAngleFlag": "N",
      "WindowCenterWidthExplanation": "Algo1",
      "dBdt": 0.0},
    "slices": {}
  },
  "time": {
    "samples": {
      "AcquisitionNumber": [1, 2, 3, 4, 5, 6, 7, 8, 9, 10, 11, 12, 13, 14, 15, 16, 17, 18, 19, 20, 21, 22, 23, 24, 25, 26, 27, 28, 29, 30, 31, 32, 33, 34, 35, 36, 37, 38, 39, 40, 41, 42, 43, 44, 45, 46, 47, 48, 49, 50, 51, 52, 53, 54, 55, 56, 57, 58, 59, 60, 61, 62, 63, 64, 65, 66, 67, 68, 69, 70, 71, 72, 73, 74, 75, 76, 77, 78, 79, 80, 81, 82, 83, 84, 85, 86, 87, 88, 89, 90, 91, 92, 93, 94, 95, 96, 97, 98, 99, 100, 101, 102, 103, 104, 105, 106, 107, 108, 109, 110, 111, 112, 113, 114, 115, 116, 117, 118, 119, 120, 121, 122, 123, 124, 125, 126, 127, 128, 129, 130, 131, 132, 133, 134, 135, 136, 137, 138, 139, 140, 141, 142, 143, 144, 145, 146, 147, 148, 149, 150, 151, 152, 153, 154, 155, 156, 157, 158, 159, 160, 161, 162, 163, 164, 165, 166, 167, 168, 169, 170, 171, 172, 173, 174, 175, 176, 177, 178, 179, 180, 181, 182, 183, 184, 185, 186, 187, 188, 189, 190],
      "AcquisitionTime": ["140020.097500", "140021.587500", "140023.077500", "140024.567500", "140026.057500", "140027.547500", "140029.037500", "140030.527500", "140032.017500", "140033.507500", "140034.997500", "140036.487500", "140037.977500", "140039.467500", "140040.957500", "140042.447500", "140043.937500", "140045.427500", "140046.917500", "140048.407500", "140049.897500", "140051.387500", "140052.877500", "140054.367500", "140055.857500", "140057.347500", "140058.837500", "140100.327500", "140101.817500", "140103.307500", "140104.797500", "140106.287500", "140107.777500", "140109.267500", "140110.757500", "140112.247500", "140113.737500", "140115.227500", "140116.717500", "140118.207500", "140119.697500", "140121.187500", "140122.677500", "140124.167500", "140125.657500", "140127.147500", "140128.637500", "140130.127500", "140131.617500", "140133.107500", "140134.597500", "140136.087500", "140137.577500", "140139.067500", "140140.557500", "140142.047500", "140143.537500", "140145.027500", "140146.517500", "140148.007500", "140149.497500", "140150.987500", "140152.477500", "140153.967500", "140155.457500", "140156.947500", "140158.437500", "140159.927500", "140201.417500", "140202.907500", "140204.397500", "140205.887500", "140207.377500", "140208.867500", "140210.357500", "140211.847500", "140213.337500", "140214.827500", "140216.317500", "140217.807500", "140219.297500", "140220.787500", "140222.277500", "140223.767500", "140225.257500", "140226.747500", "140228.237500", "140229.727500", "140231.217500", "140232.707500", "140234.197500", "140235.687500", "140237.177500", "140238.667500", "140240.157500", "140241.647500", "140243.137500", "140244.627500", "140246.117500", "140247.607500", "140249.097500", "140250.587500", "140252.077500", "140253.567500", "140255.057500", "140256.547500", "140258.037500", "140259.527500", "140301.017500", "140302.507500", "140303.997500", "140305.487500", "140306.977500", "140308.467500", "140309.957500", "140311.447500", "140312.937500", "140314.427500", "140315.917500", "140317.407500", "140318.897500", "140320.387500", "140321.877500", "140323.367500", "140324.857500", "140326.347500", "140327.837500", "140329.327500", "140330.817500", "140332.307500", "140333.797500", "140335.287500", "140336.777500", "140338.267500", "140339.757500", "140341.247500", "140342.737500", "140344.227500", "140345.717500", "140347.207500", "140348.697500", "140350.187500", "140351.677500", "140353.167500", "140354.657500", "140356.147500", "140357.637500", "140359.127500", "140400.617500", "140402.107500", "140403.597500", "140405.087500", "140406.577500", "140408.067500", "140409.557500", "140411.047500", "140412.537500", "140414.027500", "140415.517500", "140417.007500", "140418.497500", "140419.987500", "140421.477500", "140422.967500", "140424.457500", "140425.947500", "140427.437500", "140428.927500", "140430.417500", "140431.907500", "140433.397500", "140434.887500", "140436.377500", "140437.867500", "140439.357500", "140440.847500", "140442.337500", "140443.827500", "140445.317500", "140446.807500", "140448.297500", "140449.787500", "140451.277500", "140452.767500", "140454.257500", "140455.747500", "140457.237500", "140458.727500", "140500.217500", "140501.707500"],
      "ContentTime": ["140137.980000", "140137.983000", "140137.986000", "140137.988000", "140137.991000", "140137.993000", "140137.996000", "140137.998000", "140138.002000", "140138.005000", "140138.007000", "140138.010000", "140138.012000", "140138.015000", "140138.017000", "140138.020000", "140138.022000", "140138.025000", "140138.036000", "140138.039000", "140138.041000", "140138.044000", "140157.454000", "140157.457000", "140157.459000", "140157.462000", "140157.464000", "140157.467000", "140157.469000", "140157.478000", "140157.480000", "140157.483000", "140157.485000", "140157.488000", "140157.490000", "140157.493000", "140157.496000", "140157.498000", "140157.501000", "140157.503000", "140157.506000", "140157.508000", "140217.481000", "140217.484000", "140217.487000", "140217.489000", "140217.492000", "140217.494000", "140217.497000", "140217.499000", "140217.502000", "140217.505000", "140217.507000", "140217.510000", "140217.512000", "140217.515000", "140217.517000", "140217.520000", "140217.522000", "140217.525000", "140217.527000", "140217.530000", "140217.532000", "140237.446000", "140237.449000", "140237.452000", "140237.454000", "140237.457000", "140237.459000", "140237.462000", "140237.464000", "140237.467000", "140237.470000", "140237.472000", "140237.475000", "140237.477000", "140237.480000", "140237.482000", "140237.485000", "140237.487000", "140237.490000", "140237.492000", "140237.495000", "140257.474000", "140257.477000", "140257.479000", "140257.482000", "140257.485000", "140257.487000", "140257.490000", "140257.492000", "140257.495000", "140257.498000", "140257.500000", "140257.503000", "140257.505000", "140257.508000", "140257.510000", "140257.513000", "140257.515000", "140257.518000", "140257.520000", "140257.523000", "140337.499000", "140337.507000", "140337.510000", "140337.513000", "140337.515000", "140337.518000", "140337.520000", "140337.523000", "140337.525000", "140337.528000", "140337.531000", "140337.533000", "140337.536000", "140337.538000", "140337.541000", "140337.543000", "140337.546000", "140337.548000", "140337.551000", "140337.554000", "140337.556000", "140337.559000", "140337.561000", "140337.564000", "140337.566000", "140337.569000", "140337.572000", "140337.574000", "140417.483000", "140417.486000", "140417.489000", "140417.491000", "140417.494000", "140417.496000", "140417.499000", "140417.501000", "140417.504000", "140417.507000", "140417.509000", "140417.512000", "140417.514000", "140417.517000", "140417.520000", "140417.522000", "140417.525000", "140417.527000", "140417.530000", "140417.532000", "140417.535000", "140417.537000", "140417.540000", "140417.543000", "140417.545000", "140417.548000", "140417.550000", "140457.485000", "140457.488000", "140457.490000", "140457.493000", "140457.495000", "140457.498000", "140457.501000", "140457.503000", "140457.506000", "140457.508000", "140457.511000", "140457.513000", "140457.516000", "140457.518000", "140457.521000", "140457.524000", "140457.526000", "140457.529000", "140457.531000", "140457.534000", "140457.536000", "140457.539000", "140457.541000", "140457.544000", "140457.547000", "140457.549000", "140457.552000", "140504.346000", "140504.349000", "140504.352000", "140504.354000", "140504.357000"],
      "InstanceCreationTime": ["140137.980000", "140137.983000", "140137.986000", "140137.988000", "140137.991000", "140137.993000", "140137.996000", "140137.998000", "140138.002000", "140138.005000", "140138.007000", "140138.010000", "140138.012000", "140138.015000", "140138.017000", "140138.020000", "140138.022000", "140138.025000", "140138.036000", "140138.039000", "140138.041000", "140138.044000", "140157.454000", "140157.457000", "140157.459000", "140157.462000", "140157.464000", "140157.467000", "140157.469000", "140157.478000", "140157.480000", "140157.483000", "140157.485000", "140157.488000", "140157.490000", "140157.493000", "140157.496000", "140157.498000", "140157.501000", "140157.503000", "140157.506000", "140157.508000", "140217.481000", "140217.484000", "140217.487000", "140217.489000", "140217.492000", "140217.494000", "140217.497000", "140217.499000", "140217.502000", "140217.505000", "140217.507000", "140217.510000", "140217.512000", "140217.515000", "140217.517000", "140217.520000", "140217.522000", "140217.525000", "140217.527000", "140217.530000", "140217.532000", "140237.446000", "140237.449000", "140237.452000", "140237.454000", "140237.457000", "140237.459000", "140237.462000", "140237.464000", "140237.467000", "140237.470000", "140237.472000", "140237.475000", "140237.477000", "140237.480000", "140237.482000", "140237.485000", "140237.487000", "140237.490000", "140237.492000", "140237.495000", "140257.474000", "140257.477000", "140257.479000", "140257.482000", "140257.485000", "140257.487000", "140257.490000", "140257.492000", "140257.495000", "140257.498000", "140257.500000", "140257.503000", "140257.505000", "140257.508000", "140257.510000", "140257.513000", "140257.515000", "140257.518000", "140257.520000", "140257.523000", "140337.499000", "140337.507000", "140337.510000", "140337.513000", "140337.515000", "140337.518000", "140337.520000", "140337.523000", "140337.525000", "140337.528000", "140337.531000", "140337.533000", "140337.536000", "140337.538000", "140337.541000", "140337.543000", "140337.546000", "140337.548000", "140337.551000", "140337.554000", "140337.556000", "140337.559000", "140337.561000", "140337.564000", "140337.566000", "140337.569000", "140337.572000", "140337.574000", "140417.483000", "140417.486000", "140417.489000", "140417.491000", "140417.494000", "140417.496000", "140417.499000", "140417.501000", "140417.504000", "140417.507000", "140417.509000", "140417.512000", "140417.514000", "140417.517000", "140417.520000", "140417.522000", "140417.525000", "140417.527000", "140417.530000", "140417.532000", "140417.535000", "140417.537000", "140417.540000", "140417.543000", "140417.545000", "140417.548000", "140417.550000", "140457.485000", "140457.488000", "140457.490000", "140457.493000", "140457.495000", "140457.498000", "140457.501000", "140457.503000", "140457.506000", "140457.508000", "140457.511000", "140457.513000", "140457.516000", "140457.518000", "140457.521000", "140457.524000", "140457.526000", "140457.529000", "140457.531000", "140457.534000", "140457.536000", "140457.539000", "140457.541000", "140457.544000", "140457.547000", "140457.549000", "140457.552000", "140504.346000", "140504.349000", "140504.352000", "140504.354000", "140504.357000"],
      "InstanceNumber": [1, 2, 3, 4, 5, 6, 7, 8, 9, 10, 11, 12, 13, 14, 15, 16, 17, 18, 19, 20, 21, 22, 23, 24, 25, 26, 27, 28, 29, 30, 31, 32, 33, 34, 35, 36, 37, 38, 39, 40, 41, 42, 43, 44, 45, 46, 47, 48, 49, 50, 51, 52, 53, 54, 55, 56, 57, 58, 59, 60, 61, 62, 63, 64, 65, 66, 67, 68, 69, 70, 71, 72, 73, 74, 75, 76, 77, 78, 79, 80, 81, 82, 83, 84, 85, 86, 87, 88, 89, 90, 91, 92, 93, 94, 95, 96, 97, 98, 99, 100, 101, 102, 103, 104, 105, 106, 107, 108, 109, 110, 111, 112, 113, 114, 115, 116, 117, 118, 119, 120, 121, 122, 123, 124, 125, 126, 127, 128, 129, 130, 131, 132, 133, 134, 135, 136, 137, 138, 139, 140, 141, 142, 143, 144, 145, 146, 147, 148, 149, 150, 151, 152, 153, 154, 155, 156, 157, 158, 159, 160, 161, 162, 163, 164, 165, 166, 167, 168, 169, 170, 171, 172, 173, 174, 175, 176, 177, 178, 179, 180, 181, 182, 183, 184, 185, 186, 187, 188, 189, 190],
      "WindowCenter": [4860.0, 4890.0, 4862.0, 4866.0, 4862.0, 4862.0, 4858.0, 4866.0, 4862.0, 4866.0, 4862.0, 4866.0, 4860.0, 4868.0, 4862.0, 4868.0, 4860.0, 4864.0, 4886.0, 4862.0, 4862.0, 4868.0, 4892.0, 4888.0, 4862.0, 4864.0, 4866.0, 4862.0, 4862.0, 4864.0, 4862.0, 4864.0, 4860.0, 4888.0, 4862.0, 4866.0, 4860.0, 4862.0, 4864.0, 4864.0, 4862.0, 4888.0, 4868.0, 4866.0, 4862.0, 4866.0, 4864.0, 4866.0, 4864.0, 4864.0, 4862.0, 4888.0, 4862.0, 4888.0, 4862.0, 4866.0, 4862.0, 4888.0, 4866.0, 4862.0, 4864.0, 4862.0, 4864.0, 4862.0, 4864.0, 4862.0, 4864.0, 4884.0, 4862.0, 4864.0, 4860.0, 4866.0, 4864.0, 4862.0, 4888.0, 4860.0, 4862.0, 4860.0, 4864.0, 4864.0, 4866.0, 4862.0, 4888.0, 4864.0, 4866.0, 4864.0, 4864.0, 4866.0, 4864.0, 4862.0, 4888.0, 4866.0, 4886.0, 4864.0, 4866.0, 4862.0, 4864.0, 4886.0, 4892.0, 4864.0, 4886.0, 4860.0, 4886.0, 4864.0, 4888.0, 4862.0, 4888.0, 4866.0, 4886.0, 4862.0, 4860.0, 4864.0, 4862.0, 4886.0, 4860.0, 4886.0, 4864.0, 4888.0, 4862.0, 4862.0, 4864.0, 4862.0, 4866.0, 4862.0, 4864.0, 4860.0, 4864.0, 4860.0, 4864.0, 4862.0, 4862.0, 4862.0, 4868.0, 4862.0, 4864.0, 4860.0, 4888.0, 4862.0, 4864.0, 4862.0, 4886.0, 4862.0, 4890.0, 4864.0, 4864.0, 4862.0, 4864.0, 4860.0, 4864.0, 4862.0, 4888.0, 4886.0, 4864.0, 4866.0, 4864.0, 4820.0, 4854.0, 4888.0, 4890.0, 4890.0, 4894.0, 4888.0, 4858.0, 4860.0, 4828.0, 4856.0, 4854.0, 4862.0, 4864.0, 4890.0, 4886.0, 4890.0, 4860.0, 4888.0, 4856.0, 4856.0, 4858.0, 4862.0, 4858.0, 4864.0, 4860.0, 4884.0, 4862.0, 4890.0, 4858.0, 4864.0, 4860.0, 4864.0, 4860.0, 4862.0],
      "WindowWidth": [18694.0, 18732.0, 18694.0, 18696.0, 18696.0, 18698.0, 18696.0, 18700.0, 18696.0, 18698.0, 18702.0, 18700.0, 18696.0, 18700.0, 18700.0, 18702.0, 18696.0, 18700.0, 18730.0, 18698.0, 18700.0, 18700.0, 18734.0, 18730.0, 18698.0, 18700.0, 18706.0, 18702.0, 18696.0, 18702.0, 18698.0, 18704.0, 18700.0, 18736.0, 18698.0, 18702.0, 18696.0, 18698.0, 18698.0, 18698.0, 18702.0, 18730.0, 18702.0, 18698.0, 18698.0, 18702.0, 18698.0, 18702.0, 18702.0, 18704.0, 18700.0, 18730.0, 18696.0, 18732.0, 18704.0, 18702.0, 18696.0, 18732.0, 18702.0, 18698.0, 18696.0, 18702.0, 18698.0, 18698.0, 18704.0, 18698.0, 18702.0, 18726.0, 18704.0, 18700.0, 18702.0, 18706.0, 18700.0, 18696.0, 18738.0, 18696.0, 18698.0, 18696.0, 18696.0, 18698.0, 18702.0, 18698.0, 18732.0, 18704.0, 18702.0, 18700.0, 18700.0, 18700.0, 18700.0, 18702.0, 18732.0, 18706.0, 18732.0, 18700.0, 18704.0, 18698.0, 18704.0, 18734.0, 18738.0, 18706.0, 18730.0, 18698.0, 18736.0, 18704.0, 18732.0, 18698.0, 18730.0, 18700.0, 18730.0, 18700.0, 18694.0, 18702.0, 18698.0, 18734.0, 18700.0, 18730.0, 18700.0, 18734.0, 18696.0, 18696.0, 18700.0, 18698.0, 18704.0, 18696.0, 18698.0, 18696.0, 18700.0, 18698.0, 18702.0, 18702.0, 18698.0, 18700.0, 18702.0, 18700.0, 18702.0, 18698.0, 18734.0, 18702.0, 18700.0, 18698.0, 18732.0, 18700.0, 18734.0, 18700.0, 18698.0, 18702.0, 18700.0, 18702.0, 18702.0, 18702.0, 18732.0, 18736.0, 18700.0, 18700.0, 18702.0, 18654.0, 18696.0, 18730.0, 18730.0, 18728.0, 18728.0, 18734.0, 18696.0, 18702.0, 18658.0, 18694.0, 18696.0, 18700.0, 18696.0, 18732.0, 18730.0, 18730.0, 18696.0, 18734.0, 18692.0, 18694.0, 18696.0, 18702.0, 18698.0, 18704.0, 18694.0, 18732.0, 18696.0, 18730.0, 18696.0, 18698.0, 18698.0, 18706.0, 18698.0, 18700.0]
    },
    "slices": {}
  }
}