{
  "AcquisitionMatrixPE": 104,
  "AcquisitionNumber": 1,
  "AcquisitionTime": "13:35:49.400000",
  "BandwidthPerPixelPhaseEncode": 17.17,
  "BaseResolution": 104,
  "BodyPartExamined": "BRAIN",
  "CoilString": "HC1-7;NC1_2",
  "ConsistencyInfo": "N4_VE11C_LATEST_20160120",
  "ConversionSoftware": "dcm2niix",
  "ConversionSoftwareVersion": "v1.0.20190902",
  "DerivedVendorReportedEchoSpacing": 0.000560011,
  "DeviceSerialNumber": "167006",
  "DwellTime": 2.1e-06,
  "EchoTime": 0.037,
  "EchoTrainLength": 104,
  "EffectiveEchoSpacing": 0.000560011,
  "FlipAngle": 52,
  "ImageComments": "Unaliased_MB4_PE3_LB",
  "ImageOrientationPatientDICOM": [0.999574, -0.00310716, 0.0290068, 0.00976996, 0.972548, -0.232495],
  "ImageType": [
    "ORIGINAL",
    "PRIMARY",
    "M",
    "MB",
    "ND",
    "MOSAIC"
],
  "ImagingFrequency": 123.259,
  "InPlanePhaseEncodingDirectionDICOM": "COL",
  "InstitutionAddress": "Chemin_Queen-Mary_4565_Montreal_District_CA_H3W_1W5",
  "InstitutionName": "IUGM",
  "InstitutionalDepartmentName": "Department",
  "MRAcquisitionType": "2D",
  "MagneticFieldStrength": 3,
  "Manufacturer": "Siemens",
  "ManufacturersModelName": "Prisma_fit",
  "Modality": "MR",
  "MultibandAccelerationFactor": 4,
  "PartialFourier": 1,
  "PatientPosition": "HFS",
  "PercentPhaseFOV": 100,
  "PhaseEncodingDirection": "j",
  "PhaseEncodingSteps": 104,
  "PhaseResolution": 1,
  "PixelBandwidth": 2290,
  "ProcedureStepDescription": "memory_things",
  "ProtocolName": "func_task-things_run-1",
  "PulseSequenceDetails": "%CustomerSeq%_cmrr_mbep2d_bold",
  "ReceiveCoilActiveElements": "HC1-7;NC1,2",
  "ReceiveCoilName": "HeadNeck_64",
  "ReconMatrixPE": 104,
  "RepetitionTime": 1.49,
  "SAR": 0.0353979,
  "ScanOptions": "FS",
  "ScanningSequence": "EP",
  "SequenceName": "epfid2d1_104",
  "SequenceVariant": "SK_SS",
  "SeriesDescription": "func_task-things_run-1",
  "SeriesNumber": 10,
  "ShimSetting": [634, -7218, -8791, 733, 46, -10, 73, 7],
  "SliceThickness": 2,
  "SliceTiming": [0, 0.785, 0.0975, 0.8825, 0.195, 0.98, 0.295, 1.0775, 0.3925, 1.175, 0.49, 1.275, 0.5875, 1.3725, 0.685, 0, 0.785, 0.0975, 0.8825, 0.195, 0.98, 0.295, 1.0775, 0.3925, 1.175, 0.49, 1.275, 0.5875, 1.3725, 0.685, 0, 0.785, 0.0975, 0.8825, 0.195, 0.98, 0.295, 1.0775, 0.3925, 1.175, 0.49, 1.275, 0.5875, 1.3725, 0.685, 0, 0.785, 0.0975, 0.8825, 0.195, 0.98, 0.295, 1.0775, 0.3925, 1.175, 0.49, 1.275, 0.5875, 1.3725, 0.685],
  "SoftwareVersions": "syngo_MR_E11",
  "SpacingBetweenSlices": 2,
  "StationName": "MRC35049",
  "TaskName": "things",
  "TotalReadoutTime": 0.0576811,
  "TxRefAmp": 216.774,
  "WipMemBlock": "c826301a-8944-4e2d-8a90-e9e5bf6dfcaf||Sequence: R016 ve11c/master r/e634e98; Dec 19 2017 11:00:25 by eja",
  "dcmmeta_affine": [
    [-1.9991487264633179, 0.01953992433845997, 0.054976243525743484, 106.58506774902344],
    [0.006214312743395567, 1.9450969696044922, -0.4653593599796295, -76.6046371459961],
    [0.05801360309123993, 0.464990496635437, 1.9443297386169434, -63.433231353759766],
    [0.0, 0.0, 0.0, 1.0]
],
  "dcmmeta_reorient_transform": [
    [0.0, -1.0, 0.0, 103.0],
    [1.0, 0.0, 0.0, 0.0],
    [0.0, 0.0, 1.0, 0.0],
    [0.0, 0.0, 0.0, 1.0]
],
  "dcmmeta_shape": [104, 104, 60, 190],
  "dcmmeta_slice_dim": 2,
  "dcmmeta_version": 0.6,
  "global": {
    "const": {
      "AcquisitionMatrix": [104, 0, 0, 104],
      "AngioFlag": "N",
      "BitsAllocated": 16,
      "BitsStored": 16,
      "BodyPartExamined": "BRAIN",
      "Columns": 832,
      "EchoNumbers": 1,
      "EchoTime": 37.0,
      "EchoTrainLength": 104,
      "FlipAngle": 52.0,
      "HighBit": 15,
      "ImageOrientationPatient": [0.99957438493022, -0.0031071563014, 0.02900680215206, 0.00976996182736, 0.9725484615218, -0.2324952426126],
      "ImagePositionPatient": [-843.4003664917, -829.49361534524, 132.60037516943],
      "ImageType": [
        "ORIGINAL",
        "PRIMARY",
        "M",
        "MB",
        "ND",
        "MOSAIC"
],
      "ImagedNucleus": "1H",
      "ImagingFrequency": 123.258929,
      "InPlanePhaseEncodingDirection": "COL",
      "MRAcquisitionType": "2D",
      "MagneticFieldStrength": 3.0,
      "Manufacturer": "SIEMENS",
      "ManufacturerModelName": "Prisma_fit",
      "Modality": "MR",
      "NumberOfAverages": 1.0,
      "NumberOfPhaseEncodingSteps": 104,
      "PercentPhaseFieldOfView": 100.0,
      "PercentSampling": 100.0,
      "PerformedProcedureStepStartTime": "131441.465000",
      "PhotometricInterpretation": "MONOCHROME2",
      "PixelBandwidth": 2290.0,
      "PixelRepresentation": 0,
      "PixelSpacing": [2.0, 2.0],
      "ProtocolName": "func_task-things_run-1",
      "RepetitionTime": 1490.0,
      "Rows": 832,
      "SAR": 0.03539793385248,
      "SamplesPerPixel": 1,
      "ScanOptions": "FS",
      "ScanningSequence": "EP",
      "SequenceName": "epfid2d1_104",
      "SequenceVariant": [
        "SK",
        "SS"
],
      "SeriesDescription": "func_task-things_run-1",
      "SeriesNumber": 10,
      "SeriesTime": "133713.871000",
      "SliceLocation": -40.913391994743,
      "SliceThickness": 2.0,
      "SmallestImagePixelValue": 0,
      "SoftwareVersions": "syngo MR E11",
      "SpacingBetweenSlices": 2.0000000246223,
      "SpecificCharacterSet": "ISO_IR 100",
      "StudyID": "1",
      "StudyTime": "131441.234000",
      "TransmitCoilName": "Body",
      "VariableFlipAngleFlag": "N",
      "WindowCenterWidthExplanation": "Algo1",
      "dBdt": 0.0},
    "slices": {}
  },
  "time": {
    "samples": {
      "AcquisitionNumber": [1, 2, 3, 4, 5, 6, 7, 8, 9, 10, 11, 12, 13, 14, 15, 16, 17, 18, 19, 20, 21, 22, 23, 24, 25, 26, 27, 28, 29, 30, 31, 32, 33, 34, 35, 36, 37, 38, 39, 40, 41, 42, 43, 44, 45, 46, 47, 48, 49, 50, 51, 52, 53, 54, 55, 56, 57, 58, 59, 60, 61, 62, 63, 64, 65, 66, 67, 68, 69, 70, 71, 72, 73, 74, 75, 76, 77, 78, 79, 80, 81, 82, 83, 84, 85, 86, 87, 88, 89, 90, 91, 92, 93, 94, 95, 96, 97, 98, 99, 100, 101, 102, 103, 104, 105, 106, 107, 108, 109, 110, 111, 112, 113, 114, 115, 116, 117, 118, 119, 120, 121, 122, 123, 124, 125, 126, 127, 128, 129, 130, 131, 132, 133, 134, 135, 136, 137, 138, 139, 140, 141, 142, 143, 144, 145, 146, 147, 148, 149, 150, 151, 152, 153, 154, 155, 156, 157, 158, 159, 160, 161, 162, 163, 164, 165, 166, 167, 168, 169, 170, 171, 172, 173, 174, 175, 176, 177, 178, 179, 180, 181, 182, 183, 184, 185, 186, 187, 188, 189, 190],
      "AcquisitionTime": ["133549.400000", "133550.890000", "133552.380000", "133553.870000", "133555.360000", "133556.850000", "133558.340000", "133559.830000", "133601.320000", "133602.810000", "133604.300000", "133605.790000", "133607.280000", "133608.770000", "133610.260000", "133611.750000", "133613.240000", "133614.730000", "133616.220000", "133617.710000", "133619.200000", "133620.690000", "133622.180000", "133623.670000", "133625.160000", "133626.650000", "133628.140000", "133629.630000", "133631.120000", "133632.610000", "133634.100000", "133635.590000", "133637.080000", "133638.570000", "133640.060000", "133641.550000", "133643.040000", "133644.530000", "133646.020000", "133647.510000", "133649.000000", "133650.490000", "133651.980000", "133653.470000", "133654.960000", "133656.450000", "133657.940000", "133659.430000", "133700.920000", "133702.410000", "133703.900000", "133705.390000", "133706.880000", "133708.370000", "133709.860000", "133711.350000", "133712.840000", "133714.330000", "133715.820000", "133717.310000", "133718.800000", "133720.290000", "133721.780000", "133723.270000", "133724.760000", "133726.250000", "133727.740000", "133729.230000", "133730.720000", "133732.210000", "133733.700000", "133735.190000", "133736.680000", "133738.170000", "133739.660000", "133741.150000", "133742.640000", "133744.130000", "133745.620000", "133747.110000", "133748.600000", "133750.090000", "133751.580000", "133753.070000", "133754.560000", "133756.050000", "133757.540000", "133759.030000", "133800.520000", "133802.010000", "133803.500000", "133804.990000", "133806.480000", "133807.970000", "133809.460000", "133810.950000", "133812.440000", "133813.930000", "133815.420000", "133816.910000", "133818.400000", "133819.890000", "133821.380000", "133822.870000", "133824.360000", "133825.850000", "133827.340000", "133828.830000", "133830.320000", "133831.810000", "133833.300000", "133834.790000", "133836.280000", "133837.770000", "133839.260000", "133840.750000", "133842.240000", "133843.730000", "133845.220000", "133846.710000", "133848.200000", "133849.690000", "133851.180000", "133852.670000", "133854.160000", "133855.650000", "133857.140000", "133858.630000", "133900.120000", "133901.610000", "133903.100000", "133904.590000", "133906.080000", "133907.570000", "133909.060000", "133910.550000", "133912.040000", "133913.530000", "133915.020000", "133916.510000", "133918.000000", "133919.490000", "133920.980000", "133922.470000", "133923.960000", "133925.450000", "133926.940000", "133928.430000", "133929.920000", "133931.410000", "133932.900000", "133934.390000", "133935.880000", "133937.370000", "133938.860000", "133940.350000", "133941.840000", "133943.330000", "133944.820000", "133946.310000", "133947.800000", "133949.290000", "133950.780000", "133952.270000", "133953.760000", "133955.250000", "133956.740000", "133958.230000", "133959.720000", "134001.210000", "134002.700000", "134004.190000", "134005.680000", "134007.170000", "134008.660000", "134010.150000", "134011.640000", "134013.130000", "134014.620000", "134016.110000", "134017.600000", "134019.090000", "134020.580000", "134022.070000", "134023.560000", "134025.050000", "134026.540000", "134028.030000", "134029.520000", "134031.010000"],
      "ContentTime": ["133713.875000", "133713.879000", "133713.882000", "133713.885000", "133713.889000", "133713.892000", "133713.896000", "133713.899000", "133713.902000", "133713.906000", "133713.910000", "133713.913000", "133713.916000", "133713.920000", "133713.923000", "133713.927000", "133713.930000", "133713.934000", "133713.937000", "133713.941000", "133713.945000", "133713.953000", "133713.956000", "133713.960000", "133713.980000", "133713.983000", "133713.986000", "133713.990000", "133713.993000", "133733.829000", "133733.833000", "133733.837000", "133733.840000", "133733.843000", "133733.847000", "133733.850000", "133733.854000", "133733.857000", "133733.860000", "133733.864000", "133733.867000", "133733.870000", "133733.874000", "133733.877000", "133733.881000", "133733.884000", "133733.887000", "133733.891000", "133733.894000", "133733.898000", "133753.828000", "133753.832000", "133753.835000", "133753.839000", "133753.842000", "133753.845000", "133753.849000", "133753.852000", "133753.855000", "133753.859000", "133753.862000", "133753.866000", "133753.869000", "133753.873000", "133753.876000", "133753.879000", "133753.883000", "133753.886000", "133753.890000", "133753.893000", "133813.828000", "133813.832000", "133813.835000", "133813.839000", "133813.842000", "133813.845000", "133813.849000", "133813.852000", "133813.856000", "133813.859000", "133813.863000", "133813.866000", "133813.869000", "133813.873000", "133813.876000", "133813.879000", "133813.883000", "133813.886000", "133813.890000", "133813.899000", "133833.828000", "133833.832000", "133833.835000", "133833.839000", "133833.842000", "133833.846000", "133833.849000", "133833.853000", "133833.856000", "133833.859000", "133833.863000", "133833.866000", "133833.870000", "133833.873000", "133833.877000", "133833.880000", "133833.884000", "133833.887000", "133833.891000", "133833.894000", "133913.829000", "133913.833000", "133913.845000", "133913.848000", "133913.851000", "133913.855000", "133913.858000", "133913.862000", "133913.865000", "133913.868000", "133913.872000", "133913.875000", "133913.879000", "133913.882000", "133913.895000", "133913.898000", "133913.901000", "133913.905000", "133913.908000", "133913.912000", "133913.915000", "133913.918000", "133913.922000", "133913.925000", "133913.928000", "133913.932000", "133913.935000", "133953.829000", "133953.833000", "133953.836000", "133953.840000", "133953.843000", "133953.847000", "133953.851000", "133953.854000", "133953.857000", "133953.861000", "133953.864000", "133953.868000", "133953.871000", "133953.875000", "133953.878000", "133953.881000", "133953.885000", "133953.888000", "133953.892000", "133953.896000", "133953.901000", "133953.905000", "133953.908000", "133953.912000", "133953.915000", "133953.920000", "134032.709000", "134032.713000", "134032.716000", "134032.719000", "134032.723000", "134032.727000", "134032.730000", "134032.733000", "134032.737000", "134032.740000", "134032.744000", "134032.748000", "134032.751000", "134032.755000", "134032.759000", "134032.762000", "134032.766000", "134032.769000", "134032.773000", "134032.776000", "134032.780000", "134032.784000", "134032.788000", "134032.791000", "134032.795000", "134032.798000", "134032.802000"],
      "InstanceCreationTime": ["133713.875000", "133713.879000", "133713.882000", "133713.885000", "133713.889000", "133713.892000", "133713.896000", "133713.899000", "133713.902000", "133713.906000", "133713.910000", "133713.913000", "133713.916000", "133713.920000", "133713.923000", "133713.927000", "133713.930000", "133713.934000", "133713.937000", "133713.941000", "133713.945000", "133713.953000", "133713.956000", "133713.960000", "133713.980000", "133713.983000", "133713.986000", "133713.990000", "133713.993000", "133733.829000", "133733.833000", "133733.837000", "133733.840000", "133733.843000", "133733.847000", "133733.850000", "133733.854000", "133733.857000", "133733.860000", "133733.864000", "133733.867000", "133733.870000", "133733.874000", "133733.877000", "133733.881000", "133733.884000", "133733.887000", "133733.891000", "133733.894000", "133733.898000", "133753.828000", "133753.832000", "133753.835000", "133753.839000", "133753.842000", "133753.845000", "133753.849000", "133753.852000", "133753.855000", "133753.859000", "133753.862000", "133753.866000", "133753.869000", "133753.873000", "133753.876000", "133753.879000", "133753.883000", "133753.886000", "133753.890000", "133753.893000", "133813.828000", "133813.832000", "133813.835000", "133813.839000", "133813.842000", "133813.845000", "133813.849000", "133813.852000", "133813.856000", "133813.859000", "133813.863000", "133813.866000", "133813.869000", "133813.873000", "133813.876000", "133813.879000", "133813.883000", "133813.886000", "133813.890000", "133813.899000", "133833.828000", "133833.832000", "133833.835000", "133833.839000", "133833.842000", "133833.846000", "133833.849000", "133833.853000", "133833.856000", "133833.859000", "133833.863000", "133833.866000", "133833.870000", "133833.873000", "133833.877000", "133833.880000", "133833.884000", "133833.887000", "133833.891000", "133833.894000", "133913.829000", "133913.833000", "133913.845000", "133913.848000", "133913.851000", "133913.855000", "133913.858000", "133913.862000", "133913.865000", "133913.868000", "133913.872000", "133913.875000", "133913.879000", "133913.882000", "133913.895000", "133913.898000", "133913.901000", "133913.905000", "133913.908000", "133913.912000", "133913.915000", "133913.918000", "133913.922000", "133913.925000", "133913.928000", "133913.932000", "133913.935000", "133953.829000", "133953.833000", "133953.836000", "133953.840000", "133953.843000", "133953.847000", "133953.851000", "133953.854000", "133953.857000", "133953.861000", "133953.864000", "133953.868000", "133953.871000", "133953.875000", "133953.878000", "133953.881000", "133953.885000", "133953.888000", "133953.892000", "133953.896000", "133953.901000", "133953.905000", "133953.908000", "133953.912000", "133953.915000", "133953.920000", "134032.709000", "134032.713000", "134032.716000", "134032.719000", "134032.723000", "134032.727000", "134032.730000", "134032.733000", "134032.737000", "134032.740000", "134032.744000", "134032.748000", "134032.751000", "134032.755000", "134032.759000", "134032.762000", "134032.766000", "134032.769000", "134032.773000", "134032.776000", "134032.780000", "134032.784000", "134032.788000", "134032.791000", "134032.795000", "134032.798000", "134032.802000"],
      "InstanceNumber": [1, 2, 3, 4, 5, 6, 7, 8, 9, 10, 11, 12, 13, 14, 15, 16, 17, 18, 19, 20, 21, 22, 23, 24, 25, 26, 27, 28, 29, 30, 31, 32, 33, 34, 35, 36, 37, 38, 39, 40, 41, 42, 43, 44, 45, 46, 47, 48, 49, 50, 51, 52, 53, 54, 55, 56, 57, 58, 59, 60, 61, 62, 63, 64, 65, 66, 67, 68, 69, 70, 71, 72, 73, 74, 75, 76, 77, 78, 79, 80, 81, 82, 83, 84, 85, 86, 87, 88, 89, 90, 91, 92, 93, 94, 95, 96, 97, 98, 99, 100, 101, 102, 103, 104, 105, 106, 107, 108, 109, 110, 111, 112, 113, 114, 115, 116, 117, 118, 119, 120, 121, 122, 123, 124, 125, 126, 127, 128, 129, 130, 131, 132, 133, 134, 135, 136, 137, 138, 139, 140, 141, 142, 143, 144, 145, 146, 147, 148, 149, 150, 151, 152, 153, 154, 155, 156, 157, 158, 159, 160, 161, 162, 163, 164, 165, 166, 167, 168, 169, 170, 171, 172, 173, 174, 175, 176, 177, 178, 179, 180, 181, 182, 183, 184, 185, 186, 187, 188, 189, 190],
      "LargestImagePixelValue": [39949, 38956, 38427, 38283, 37786, 38128, 37908, 37926, 37414, 37463, 37634, 37555, 38068, 37961, 37502, 37585, 37211, 37612, 37416, 37752, 37776, 37755, 37929, 37805, 37244, 37735, 37178, 37197, 37772, 37078, 37410, 37067, 37095, 37267, 38024, 37393, 37151, 36963, 37170, 37121, 37664, 37084, 37111, 37244, 37056, 37329, 37349, 36838, 37253, 37311, 37140, 37638, 37183, 37434, 37138, 37246, 37379, 37179, 37802, 37731, 37374, 37243, 37056, 37155, 37261, 37318, 37526, 37380, 36952, 37139, 37077, 37355, 37544, 37147, 37021, 37176, 37237, 37032, 36814, 37094, 37470, 37502, 37383, 37085, 36812, 37048, 36967, 37583, 37262, 37107, 37224, 37157, 36876, 37209, 37131, 36935, 37124, 37325, 37343, 37637, 37372, 37385, 37299, 37190, 37296, 37255, 36909, 36850, 37023, 36498, 37217, 37111, 37385, 37270, 37193, 37808, 37337, 37272, 36913, 37052, 37280, 37038, 37342, 36671, 37083, 36787, 36949, 37506, 37160, 36868, 37005, 37363, 37304, 37140, 37383, 37519, 37117, 37652, 37177, 37861, 36977, 37565, 37247, 37185, 37656, 37506, 37454, 37365, 37834, 37844, 37492, 37491, 37569, 37619, 38660, 37930, 37865, 37805, 38905, 38530, 38272, 38315, 37879, 38465, 37885, 38446, 38371, 38388, 38081, 38462, 38092, 38620, 37910, 38389, 38054, 38419, 37927, 38546, 38515, 38856, 38479, 38246, 38151, 37784, 38173, 38674, 37742, 38070, 38189, 38621],
      "WindowCenter": [10228.0, 10183.0, 10163.0, 10143.0, 10128.0, 10126.0, 10133.0, 10133.0, 10143.0, 10146.0, 10153.0, 10146.0, 10151.0, 10144.0, 10137.0, 10136.0, 10136.0, 10132.0, 10110.0, 10108.0, 10107.0, 10115.0, 10129.0, 10133.0, 10127.0, 10137.0, 10138.0, 10144.0, 10135.0, 10128.0, 10118.0, 10120.0, 10129.0, 10146.0, 10151.0, 10146.0, 10147.0, 10155.0, 10156.0, 10155.0, 10152.0, 10148.0, 10148.0, 10156.0, 10155.0, 10153.0, 10138.0, 10131.0, 10135.0, 10137.0, 10136.0, 10135.0, 10129.0, 10134.0, 10129.0, 10123.0, 10128.0, 10119.0, 10124.0, 10118.0, 10127.0, 10138.0, 10140.0, 10132.0, 10121.0, 10118.0, 10126.0, 10136.0, 10131.0, 10138.0, 10140.0, 10156.0, 10167.0, 10165.0, 10151.0, 10135.0, 10139.0, 10132.0, 10125.0, 10130.0, 10129.0, 10136.0, 10144.0, 10139.0, 10123.0, 10114.0, 10109.0, 10110.0, 10111.0, 10111.0, 10104.0, 10110.0, 10111.0, 10135.0, 10154.0, 10144.0, 10118.0, 10104.0, 10093.0, 10099.0, 10110.0, 10126.0, 10136.0, 10131.0, 10137.0, 10136.0, 10142.0, 10143.0, 10134.0, 10111.0, 10112.0, 10112.0, 10116.0, 10121.0, 10130.0, 10145.0, 10144.0, 10140.0, 10125.0, 10124.0, 10129.0, 10137.0, 10148.0, 10150.0, 10149.0, 10127.0, 10131.0, 10142.0, 10140.0, 10125.0, 10109.0, 10109.0, 10110.0, 10112.0, 10125.0, 10128.0, 10129.0, 10137.0, 10137.0, 10155.0, 10142.0, 10129.0, 10097.0, 10085.0, 10081.0, 10083.0, 10091.0, 10108.0, 10075.0, 10127.0, 10103.0, 10103.0, 10102.0, 10100.0, 10105.0, 10097.0, 10097.0, 10097.0, 10117.0, 10112.0, 10119.0, 10107.0, 10089.0, 10094.0, 10081.0, 10096.0, 10112.0, 10122.0, 10115.0, 10114.0, 10113.0, 10121.0, 10110.0, 10115.0, 10106.0, 10106.0, 10114.0, 10126.0, 10133.0, 10133.0, 10123.0, 10125.0, 10126.0, 10120.0, 10109.0, 10111.0, 10091.0, 10082.0, 10077.0, 10077.0],
      "WindowWidth": [21818.0, 21696.0, 21638.0, 21582.0, 21546.0, 21540.0, 21554.0, 21554.0, 21576.0, 21584.0, 21599.0, 21584.0, 21594.0, 21579.0, 21564.0, 21560.0, 21560.0, 21547.0, 21498.0, 21490.0, 21491.0, 21509.0, 21538.0, 21551.0, 21541.0, 21563.0, 21565.0, 21579.0, 21557.0, 21543.0, 21519.0, 21525.0, 21549.0, 21585.0, 21593.0, 21584.0, 21588.0, 21607.0, 21609.0, 21606.0, 21596.0, 21590.0, 21590.0, 21609.0, 21606.0, 21598.0, 21563.0, 21548.0, 21556.0, 21564.0, 21560.0, 21555.0, 21542.0, 21551.0, 21544.0, 21530.0, 21541.0, 21519.0, 21525.0, 21517.0, 21539.0, 21566.0, 21572.0, 21554.0, 21524.0, 21519.0, 21536.0, 21562.0, 21553.0, 21567.0, 21575.0, 21611.0, 21636.0, 21630.0, 21599.0, 21563.0, 21570.0, 21555.0, 21541.0, 21548.0, 21547.0, 21561.0, 21578.0, 21569.0, 21531.0, 21511.0, 21497.0, 21497.0, 21498.0, 21503.0, 21488.0, 21502.0, 21505.0, 21558.0, 21601.0, 21580.0, 21519.0, 21482.0, 21459.0, 21471.0, 21498.0, 21535.0, 21559.0, 21550.0, 21562.0, 21561.0, 21579.0, 21582.0, 21558.0, 21507.0, 21503.0, 21504.0, 21513.0, 21528.0, 21548.0, 21581.0, 21580.0, 21572.0, 21540.0, 21537.0, 21545.0, 21565.0, 21589.0, 21594.0, 21592.0, 21546.0, 21550.0, 21574.0, 21573.0, 21538.0, 21504.0, 21497.0, 21499.0, 21506.0, 21533.0, 21543.0, 21544.0, 21562.0, 21563.0, 21603.0, 21575.0, 21542.0, 21469.0, 21442.0, 21429.0, 21438.0, 21456.0, 21496.0, 21417.0, 21542.0, 21483.0, 21483.0, 21479.0, 21474.0, 21480.0, 21466.0, 21466.0, 21469.0, 21509.0, 21500.0, 21515.0, 21490.0, 21449.0, 21454.0, 21433.0, 21465.0, 21498.0, 21522.0, 21506.0, 21505.0, 21500.0, 21520.0, 21501.0, 21507.0, 21483.0, 21483.0, 21501.0, 21533.0, 21548.0, 21547.0, 21522.0, 21528.0, 21532.0, 21518.0, 21491.0, 21489.0, 21447.0, 21430.0, 21417.0, 21415.0]
    },
    "slices": {}
  }
}