{
  "AcquisitionMatrixPE": 104,
  "AcquisitionNumber": 1,
  "AcquisitionTime": "14:00:20.097500",
  "BandwidthPerPixelPhaseEncode": 17.17,
  "BaseResolution": 104,
  "BodyPartExamined": "BRAIN",
  "CoilString": "HC1-7;NC1_2",
  "ConsistencyInfo": "N4_VE11C_LATEST_20160120",
  "ConversionSoftware": "dcm2niix",
  "ConversionSoftwareVersion": "v1.0.20190902",
  "DerivedVendorReportedEchoSpacing": 0.000560011,
  "DeviceSerialNumber": "167006",
  "DwellTime": 2.1e-06,
  "EchoTime": 0.037,
  "EchoTrainLength": 104,
  "EffectiveEchoSpacing": 0.000560011,
  "FlipAngle": 52,
  "ImageComments": "Unaliased_MB4_PE3_LB",
  "ImageOrientationPatientDICOM": [0.999574, -0.00310716, 0.0290068, 0.00976996, 0.972548, -0.232495],
  "ImageType": [
    "ORIGINAL",
    "PRIMARY",
    "M",
    "MB",
    "ND",
    "MOSAIC"
],
  "ImagingFrequency": 123.259,
  "InPlanePhaseEncodingDirectionDICOM": "COL",
  "InstitutionAddress": "Chemin_Queen-Mary_4565_Montreal_District_CA_H3W_1W5",
  "InstitutionName": "IUGM",
  "InstitutionalDepartmentName": "Department",
  "MRAcquisitionType": "2D",
  "MagneticFieldStrength": 3,
  "Manufacturer": "Siemens",
  "ManufacturersModelName": "Prisma_fit",
  "Modality": "MR",
  "MultibandAccelerationFactor": 4,
  "PartialFourier": 1,
  "PatientPosition": "HFS",
  "PercentPhaseFOV": 100,
  "PhaseEncodingDirection": "j",
  "PhaseEncodingSteps": 104,
  "PhaseResolution": 1,
  "PixelBandwidth": 2290,
  "ProcedureStepDescription": "memory_things",
  "ProtocolName": "func_task-things_run-5",
  "PulseSequenceDetails": "%CustomerSeq%_cmrr_mbep2d_bold",
  "ReceiveCoilActiveElements": "HC1-7;NC1,2",
  "ReceiveCoilName": "HeadNeck_64",
  "ReconMatrixPE": 104,
  "RepetitionTime": 1.49,
  "SAR": 0.0353979,
  "ScanOptions": "FS",
  "ScanningSequence": "EP",
  "SequenceName": "epfid2d1_104",
  "SequenceVariant": "SK_SS",
  "SeriesDescription": "func_task-things_run-5",
  "SeriesNumber": 22,
  "ShimSetting": [634, -7218, -8791, 733, 46, -10, 73, 7],
  "SliceThickness": 2,
  "SliceTiming": [0, 0.785, 0.0975, 0.8825, 0.195, 0.98, 0.295, 1.0775, 0.3925, 1.175, 0.49, 1.275, 0.5875, 1.3725, 0.685, 0, 0.785, 0.0975, 0.8825, 0.195, 0.98, 0.295, 1.0775, 0.3925, 1.175, 0.49, 1.275, 0.5875, 1.3725, 0.685, 0, 0.785, 0.0975, 0.8825, 0.195, 0.98, 0.295, 1.0775, 0.3925, 1.175, 0.49, 1.275, 0.5875, 1.3725, 0.685, 0, 0.785, 0.0975, 0.8825, 0.195, 0.98, 0.295, 1.0775, 0.3925, 1.175, 0.49, 1.275, 0.5875, 1.3725, 0.685],
  "SoftwareVersions": "syngo_MR_E11",
  "SpacingBetweenSlices": 2,
  "StationName": "MRC35049",
  "TaskName": "things",
  "TotalReadoutTime": 0.0576811,
  "TxRefAmp": 216.774,
  "WipMemBlock": "36f5f43f-4d08-4923-b39b-fdeca9d16deb||Sequence: R016 ve11c/master r/e634e98; Dec 19 2017 11:00:25 by eja",
  "dcmmeta_affine": [
    [-1.9991487264633179, 0.01953992433845997, 0.054976243525743484, 106.58506774902344],
    [0.006214312743395567, 1.9450969696044922, -0.4653593599796295, -76.6046371459961],
    [0.05801360309123993, 0.464990496635437, 1.9443297386169434, -63.433231353759766],
    [0.0, 0.0, 0.0, 1.0]
],
  "dcmmeta_reorient_transform": [
    [0.0, -1.0, 0.0, 103.0],
    [1.0, 0.0, 0.0, 0.0],
    [0.0, 0.0, 1.0, 0.0],
    [0.0, 0.0, 0.0, 1.0]
],
  "dcmmeta_shape": [104, 104, 60, 190],
  "dcmmeta_slice_dim": 2,
  "dcmmeta_version": 0.6,
  "global": {
    "const": {
      "AcquisitionMatrix": [104, 0, 0, 104],
      "AngioFlag": "N",
      "BitsAllocated": 16,
      "BitsStored": 16,
      "BodyPartExamined": "BRAIN",
      "Columns": 832,
      "EchoNumbers": 1,
      "EchoTime": 37.0,
      "EchoTrainLength": 104,
      "FlipAngle": 52.0,
      "HighBit": 15,
      "ImageOrientationPatient": [0.99957438493022, -0.0031071563014, 0.02900680215206, 0.00976996182736, 0.9725484615218, -0.2324952426126],
      "ImagePositionPatient": [-843.4003664917, -829.49361534524, 132.60037516943],
      "ImageType": [
        "ORIGINAL",
        "PRIMARY",
        "M",
        "MB",
        "ND",
        "MOSAIC"
],
      "ImagedNucleus": "1H",
      "ImagingFrequency": 123.258945,
      "InPlanePhaseEncodingDirection": "COL",
      "MRAcquisitionType": "2D",
      "MagneticFieldStrength": 3.0,
      "Manufacturer": "SIEMENS",
      "ManufacturerModelName": "Prisma_fit",
      "Modality": "MR",
      "NumberOfAverages": 1.0,
      "NumberOfPhaseEncodingSteps": 104,
      "PercentPhaseFieldOfView": 100.0,
      "PercentSampling": 100.0,
      "PerformedProcedureStepStartTime": "131441.465000",
      "PhotometricInterpretation": "MONOCHROME2",
      "PixelBandwidth": 2290.0,
      "PixelRepresentation": 0,
      "PixelSpacing": [2.0, 2.0],
      "ProtocolName": "func_task-things_run-5",
      "RepetitionTime": 1490.0,
      "Rows": 832,
      "SAR": 0.03539793385248,
      "SamplesPerPixel": 1,
      "ScanOptions": "FS",
      "ScanningSequence": "EP",
      "SequenceName": "epfid2d1_104",
      "SequenceVariant": [
        "SK",
        "SS"
],
      "SeriesDescription": "func_task-things_run-5",
      "SeriesNumber": 22,
      "SeriesTime": "140137.371000",
      "SliceLocation": -40.913391994743,
      "SliceThickness": 2.0,
      "SmallestImagePixelValue": 0,
      "SoftwareVersions": "syngo MR E11",
      "SpacingBetweenSlices": 2.0000000246223,
      "SpecificCharacterSet": "ISO_IR 100",
      "StudyID": "1",
      "StudyTime": "131441.234000",
      "TransmitCoilName": "Body",
      "VariableFlipAngleFlag": "N",
      "WindowCenterWidthExplanation": "Algo1",
      "dBdt": 0.0},
    "slices": {}
  },
  "time": {
    "samples": {
      "AcquisitionNumber": [1, 2, 3, 4, 5, 6, 7, 8, 9, 10, 11, 12, 13, 14, 15, 16, 17, 18, 19, 20, 21, 22, 23, 24, 25, 26, 27, 28, 29, 30, 31, 32, 33, 34, 35, 36, 37, 38, 39, 40, 41, 42, 43, 44, 45, 46, 47, 48, 49, 50, 51, 52, 53, 54, 55, 56, 57, 58, 59, 60, 61, 62, 63, 64, 65, 66, 67, 68, 69, 70, 71, 72, 73, 74, 75, 76, 77, 78, 79, 80, 81, 82, 83, 84, 85, 86, 87, 88, 89, 90, 91, 92, 93, 94, 95, 96, 97, 98, 99, 100, 101, 102, 103, 104, 105, 106, 107, 108, 109, 110, 111, 112, 113, 114, 115, 116, 117, 118, 119, 120, 121, 122, 123, 124, 125, 126, 127, 128, 129, 130, 131, 132, 133, 134, 135, 136, 137, 138, 139, 140, 141, 142, 143, 144, 145, 146, 147, 148, 149, 150, 151, 152, 153, 154, 155, 156, 157, 158, 159, 160, 161, 162, 163, 164, 165, 166, 167, 168, 169, 170, 171, 172, 173, 174, 175, 176, 177, 178, 179, 180, 181, 182, 183, 184, 185, 186, 187, 188, 189, 190],
      "AcquisitionTime": ["140020.097500", "140021.587500", "140023.077500", "140024.567500", "140026.057500", "140027.547500", "140029.037500", "140030.527500", "140032.017500", "140033.507500", "140034.997500", "140036.487500", "140037.977500", "140039.467500", "140040.957500", "140042.447500", "140043.937500", "140045.427500", "140046.917500", "140048.407500", "140049.897500", "140051.387500", "140052.877500", "140054.367500", "140055.857500", "140057.347500", "140058.837500", "140100.327500", "140101.817500", "140103.307500", "140104.797500", "140106.287500", "140107.777500", "140109.267500", "140110.757500", "140112.247500", "140113.737500", "140115.227500", "140116.717500", "140118.207500", "140119.697500", "140121.187500", "140122.677500", "140124.167500", "140125.657500", "140127.147500", "140128.637500", "140130.127500", "140131.617500", "140133.107500", "140134.597500", "140136.087500", "140137.577500", "140139.067500", "140140.557500", "140142.047500", "140143.537500", "140145.027500", "140146.517500", "140148.007500", "140149.497500", "140150.987500", "140152.477500", "140153.967500", "140155.457500", "140156.947500", "140158.437500", "140159.927500", "140201.417500", "140202.907500", "140204.397500", "140205.887500", "140207.377500", "140208.867500", "140210.357500", "140211.847500", "140213.337500", "140214.827500", "140216.317500", "140217.807500", "140219.297500", "140220.787500", "140222.277500", "140223.767500", "140225.257500", "140226.747500", "140228.237500", "140229.727500", "140231.217500", "140232.707500", "140234.197500", "140235.687500", "140237.177500", "140238.667500", "140240.157500", "140241.647500", "140243.137500", "140244.627500", "140246.117500", "140247.607500", "140249.097500", "140250.587500", "140252.077500", "140253.567500", "140255.057500", "140256.547500", "140258.037500", "140259.527500", "140301.017500", "140302.507500", "140303.997500", "140305.487500", "140306.977500", "140308.467500", "140309.957500", "140311.447500", "140312.937500", "140314.427500", "140315.917500", "140317.407500", "140318.897500", "140320.387500", "140321.877500", "140323.367500", "140324.857500", "140326.347500", "140327.837500", "140329.327500", "140330.817500", "140332.307500", "140333.797500", "140335.287500", "140336.777500", "140338.267500", "140339.757500", "140341.247500", "140342.737500", "140344.227500", "140345.717500", "140347.207500", "140348.697500", "140350.187500", "140351.677500", "140353.167500", "140354.657500", "140356.147500", "140357.637500", "140359.127500", "140400.617500", "140402.107500", "140403.597500", "140405.087500", "140406.577500", "140408.067500", "140409.557500", "140411.047500", "140412.537500", "140414.027500", "140415.517500", "140417.007500", "140418.497500", "140419.987500", "140421.477500", "140422.967500", "140424.457500", "140425.947500", "140427.437500", "140428.927500", "140430.417500", "140431.907500", "140433.397500", "140434.887500", "140436.377500", "140437.867500", "140439.357500", "140440.847500", "140442.337500", "140443.827500", "140445.317500", "140446.807500", "140448.297500", "140449.787500", "140451.277500", "140452.767500", "140454.257500", "140455.747500", "140457.237500", "140458.727500", "140500.217500", "140501.707500"],
      "ContentTime": ["140137.374000", "140137.378000", "140137.381000", "140137.384000", "140137.388000", "140137.391000", "140137.395000", "140137.398000", "140137.401000", "140137.405000", "140137.408000", "140137.412000", "140137.415000", "140137.424000", "140137.427000", "140137.431000", "140137.434000", "140137.438000", "140137.441000", "140137.444000", "140137.448000", "140137.451000", "140157.341000", "140157.345000", "140157.348000", "140157.357000", "140157.360000", "140157.363000", "140157.367000", "140157.370000", "140157.373000", "140157.377000", "140157.380000", "140157.384000", "140157.387000", "140157.390000", "140157.394000", "140157.397000", "140157.401000", "140157.404000", "140157.408000", "140157.411000", "140217.341000", "140217.345000", "140217.348000", "140217.352000", "140217.355000", "140217.359000", "140217.362000", "140217.365000", "140217.369000", "140217.372000", "140217.376000", "140217.379000", "140217.382000", "140217.386000", "140217.389000", "140217.392000", "140217.396000", "140217.399000", "140217.403000", "140217.406000", "140217.409000", "140237.340000", "140237.344000", "140237.347000", "140237.351000", "140237.354000", "140237.357000", "140237.361000", "140237.364000", "140237.368000", "140237.371000", "140237.374000", "140237.378000", "140237.381000", "140237.385000", "140237.388000", "140237.391000", "140237.395000", "140237.398000", "140237.401000", "140237.405000", "140257.340000", "140257.344000", "140257.347000", "140257.351000", "140257.354000", "140257.358000", "140257.361000", "140257.365000", "140257.368000", "140257.371000", "140257.375000", "140257.378000", "140257.381000", "140257.385000", "140257.388000", "140257.392000", "140257.395000", "140257.399000", "140257.402000", "140257.405000", "140337.341000", "140337.344000", "140337.348000", "140337.351000", "140337.354000", "140337.358000", "140337.361000", "140337.365000", "140337.368000", "140337.372000", "140337.375000", "140337.378000", "140337.382000", "140337.385000", "140337.389000", "140337.392000", "140337.395000", "140337.399000", "140337.402000", "140337.406000", "140337.409000", "140337.412000", "140337.434000", "140337.438000", "140337.441000", "140337.444000", "140337.448000", "140337.451000", "140417.341000", "140417.345000", "140417.348000", "140417.352000", "140417.355000", "140417.359000", "140417.362000", "140417.366000", "140417.369000", "140417.372000", "140417.376000", "140417.379000", "140417.383000", "140417.386000", "140417.389000", "140417.393000", "140417.396000", "140417.400000", "140417.403000", "140417.407000", "140417.410000", "140417.413000", "140417.417000", "140417.420000", "140417.424000", "140417.427000", "140417.430000", "140457.340000", "140457.344000", "140457.347000", "140457.351000", "140457.354000", "140457.358000", "140457.361000", "140457.365000", "140457.368000", "140457.371000", "140457.375000", "140457.378000", "140457.382000", "140457.385000", "140457.388000", "140457.392000", "140457.395000", "140457.399000", "140457.402000", "140457.405000", "140457.409000", "140457.412000", "140457.416000", "140457.419000", "140457.422000", "140457.426000", "140457.429000", "140504.289000", "140504.292000", "140504.296000", "140504.299000", "140504.303000"],
      "InstanceCreationTime": ["140137.374000", "140137.378000", "140137.381000", "140137.384000", "140137.388000", "140137.391000", "140137.395000", "140137.398000", "140137.401000", "140137.405000", "140137.408000", "140137.412000", "140137.415000", "140137.424000", "140137.427000", "140137.431000", "140137.434000", "140137.438000", "140137.441000", "140137.444000", "140137.448000", "140137.451000", "140157.341000", "140157.345000", "140157.348000", "140157.357000", "140157.360000", "140157.363000", "140157.367000", "140157.370000", "140157.373000", "140157.377000", "140157.380000", "140157.384000", "140157.387000", "140157.390000", "140157.394000", "140157.397000", "140157.401000", "140157.404000", "140157.408000", "140157.411000", "140217.341000", "140217.345000", "140217.348000", "140217.352000", "140217.355000", "140217.359000", "140217.362000", "140217.365000", "140217.369000", "140217.372000", "140217.376000", "140217.379000", "140217.382000", "140217.386000", "140217.389000", "140217.392000", "140217.396000", "140217.399000", "140217.403000", "140217.406000", "140217.409000", "140237.340000", "140237.344000", "140237.347000", "140237.351000", "140237.354000", "140237.357000", "140237.361000", "140237.364000", "140237.368000", "140237.371000", "140237.374000", "140237.378000", "140237.381000", "140237.385000", "140237.388000", "140237.391000", "140237.395000", "140237.398000", "140237.401000", "140237.405000", "140257.340000", "140257.344000", "140257.347000", "140257.351000", "140257.354000", "140257.358000", "140257.361000", "140257.365000", "140257.368000", "140257.371000", "140257.375000", "140257.378000", "140257.381000", "140257.385000", "140257.388000", "140257.392000", "140257.395000", "140257.399000", "140257.402000", "140257.405000", "140337.341000", "140337.344000", "140337.348000", "140337.351000", "140337.354000", "140337.358000", "140337.361000", "140337.365000", "140337.368000", "140337.372000", "140337.375000", "140337.378000", "140337.382000", "140337.385000", "140337.389000", "140337.392000", "140337.395000", "140337.399000", "140337.402000", "140337.406000", "140337.409000", "140337.412000", "140337.434000", "140337.438000", "140337.441000", "140337.444000", "140337.448000", "140337.451000", "140417.341000", "140417.345000", "140417.348000", "140417.352000", "140417.355000", "140417.359000", "140417.362000", "140417.366000", "140417.369000", "140417.372000", "140417.376000", "140417.379000", "140417.383000", "140417.386000", "140417.389000", "140417.393000", "140417.396000", "140417.400000", "140417.403000", "140417.407000", "140417.410000", "140417.413000", "140417.417000", "140417.420000", "140417.424000", "140417.427000", "140417.430000", "140457.340000", "140457.344000", "140457.347000", "140457.351000", "140457.354000", "140457.358000", "140457.361000", "140457.365000", "140457.368000", "140457.371000", "140457.375000", "140457.378000", "140457.382000", "140457.385000", "140457.388000", "140457.392000", "140457.395000", "140457.399000", "140457.402000", "140457.405000", "140457.409000", "140457.412000", "140457.416000", "140457.419000", "140457.422000", "140457.426000", "140457.429000", "140504.289000", "140504.292000", "140504.296000", "140504.299000", "140504.303000"],
      "InstanceNumber": [1, 2, 3, 4, 5, 6, 7, 8, 9, 10, 11, 12, 13, 14, 15, 16, 17, 18, 19, 20, 21, 22, 23, 24, 25, 26, 27, 28, 29, 30, 31, 32, 33, 34, 35, 36, 37, 38, 39, 40, 41, 42, 43, 44, 45, 46, 47, 48, 49, 50, 51, 52, 53, 54, 55, 56, 57, 58, 59, 60, 61, 62, 63, 64, 65, 66, 67, 68, 69, 70, 71, 72, 73, 74, 75, 76, 77, 78, 79, 80, 81, 82, 83, 84, 85, 86, 87, 88, 89, 90, 91, 92, 93, 94, 95, 96, 97, 98, 99, 100, 101, 102, 103, 104, 105, 106, 107, 108, 109, 110, 111, 112, 113, 114, 115, 116, 117, 118, 119, 120, 121, 122, 123, 124, 125, 126, 127, 128, 129, 130, 131, 132, 133, 134, 135, 136, 137, 138, 139, 140, 141, 142, 143, 144, 145, 146, 147, 148, 149, 150, 151, 152, 153, 154, 155, 156, 157, 158, 159, 160, 161, 162, 163, 164, 165, 166, 167, 168, 169, 170, 171, 172, 173, 174, 175, 176, 177, 178, 179, 180, 181, 182, 183, 184, 185, 186, 187, 188, 189, 190],
      "LargestImagePixelValue": [38982, 38066, 37555, 37325, 37157, 37372, 37396, 37322, 37241, 36830, 37122, 36942, 37312, 36836, 36902, 36666, 37604, 37177, 36977, 37097, 37449, 37299, 37236, 37158, 37561, 36834, 37113, 37043, 37515, 36811, 37065, 36918, 37022, 37047, 37299, 36552, 36613, 36686, 36799, 37370, 36872, 37046, 37190, 36986, 37157, 36866, 37134, 37168, 36972, 36684, 37286, 36761, 37274, 37041, 37198, 36852, 37326, 37007, 36811, 37115, 36885, 37037, 37196, 37196, 36892, 36894, 37408, 37445, 37357, 36713, 37407, 37479, 37294, 37066, 37037, 37300, 37623, 36956, 37027, 37043, 37409, 37245, 36747, 37315, 36895, 37595, 36780, 36850, 37020, 37412, 37549, 37033, 37123, 37226, 37364, 37774, 37042, 36975, 37255, 37122, 37924, 37851, 37438, 36839, 37087, 37524, 37836, 37073, 37089, 37240, 37139, 37158, 37384, 37924, 37777, 37929, 37443, 37527, 37465, 37102, 37869, 38045, 38283, 37982, 38260, 37660, 37954, 37628, 38182, 37701, 37326, 37953, 37890, 37663, 38080, 37863, 37882, 37915, 37588, 37776, 37811, 37982, 38037, 38146, 37731, 37713, 38232, 38492, 38105, 37848, 37727, 38020, 37529, 38156, 37586, 38153, 39002, 38446, 38185, 38407, 37890, 38074, 38136, 38195, 38137, 38424, 38375, 38982, 38417, 38245, 38324, 38916, 38385, 38401, 38396, 38839, 38423, 38192, 38625, 38741, 39080, 38849, 38413, 38603, 38504, 39162, 38260, 39073, 39131, 38253],
      "WindowCenter": [10142.0, 10098.0, 10089.0, 10100.0, 10104.0, 10102.0, 10092.0, 10080.0, 10075.0, 10068.0, 10068.0, 10066.0, 10074.0, 10091.0, 10096.0, 10088.0, 10085.0, 10083.0, 10093.0, 10109.0, 10117.0, 10109.0, 10093.0, 10077.0, 10087.0, 10091.0, 10103.0, 10099.0, 10076.0, 10052.0, 10047.0, 10055.0, 10066.0, 10067.0, 10064.0, 10051.0, 10045.0, 10057.0, 10067.0, 10072.0, 10067.0, 10076.0, 10092.0, 10099.0, 10102.0, 10110.0, 10101.0, 10080.0, 10067.0, 10067.0, 10087.0, 10093.0, 10108.0, 10125.0, 10128.0, 10114.0, 10101.0, 10076.0, 10051.0, 10047.0, 10047.0, 10061.0, 10070.0, 10073.0, 10074.0, 10061.0, 10056.0, 10046.0, 10044.0, 10038.0, 10037.0, 10038.0, 10044.0, 10046.0, 10061.0, 10073.0, 10081.0, 10075.0, 10067.0, 10065.0, 10072.0, 10073.0, 10069.0, 10080.0, 10075.0, 10088.0, 10076.0, 10067.0, 10049.0, 10046.0, 10060.0, 10079.0, 10098.0, 10102.0, 10086.0, 10080.0, 10064.0, 10064.0, 10070.0, 10073.0, 10087.0, 10097.0, 10098.0, 10094.0, 10093.0, 10090.0, 10079.0, 10064.0, 10071.0, 10100.0, 10126.0, 10113.0, 10094.0, 10081.0, 10079.0, 10083.0, 10073.0, 10072.0, 10065.0, 10057.0, 10055.0, 10069.0, 10078.0, 10087.0, 10093.0, 10098.0, 10099.0, 10085.0, 10072.0, 10062.0, 10046.0, 10051.0, 10053.0, 10061.0, 10067.0, 10062.0, 10067.0, 10078.0, 10088.0, 10088.0, 10079.0, 10069.0, 10058.0, 10042.0, 10037.0, 10051.0, 10068.0, 10084.0, 10110.0, 10116.0, 10100.0, 10072.0, 10047.0, 10043.0, 10061.0, 10110.0, 10144.0, 10139.0, 10108.0, 10079.0, 10052.0, 10041.0, 10031.0, 10022.0, 10016.0, 10020.0, 10029.0, 10059.0, 10075.0, 10085.0, 10085.0, 10081.0, 10074.0, 10073.0, 10083.0, 10093.0, 10094.0, 10078.0, 10075.0, 10067.0, 10081.0, 10089.0, 10087.0, 10084.0, 10068.0, 10063.0, 10065.0, 10094.0, 10121.0, 10104.0],
      "WindowWidth": [21618.0, 21499.0, 21471.0, 21484.0, 21491.0, 21482.0, 21455.0, 21424.0, 21416.0, 21404.0, 21401.0, 21398.0, 21416.0, 21452.0, 21467.0, 21450.0, 21439.0, 21436.0, 21460.0, 21495.0, 21513.0, 21494.0, 21456.0, 21423.0, 21441.0, 21454.0, 21480.0, 21469.0, 21418.0, 21364.0, 21351.0, 21371.0, 21400.0, 21400.0, 21392.0, 21363.0, 21351.0, 21378.0, 21400.0, 21408.0, 21400.0, 21423.0, 21457.0, 21473.0, 21480.0, 21495.0, 21475.0, 21428.0, 21396.0, 21397.0, 21442.0, 21460.0, 21492.0, 21529.0, 21538.0, 21507.0, 21472.0, 21413.0, 21360.0, 21347.0, 21349.0, 21382.0, 21403.0, 21410.0, 21411.0, 21383.0, 21366.0, 21346.0, 21340.0, 21328.0, 21325.0, 21328.0, 21340.0, 21348.0, 21381.0, 21409.0, 21427.0, 21416.0, 21396.0, 21394.0, 21407.0, 21412.0, 21402.0, 21424.0, 21416.0, 21441.0, 21417.0, 21396.0, 21352.0, 21346.0, 21376.0, 21421.0, 21467.0, 21478.0, 21439.0, 21420.0, 21384.0, 21385.0, 21399.0, 21408.0, 21439.0, 21463.0, 21463.0, 21456.0, 21453.0, 21441.0, 21416.0, 21386.0, 21400.0, 21470.0, 21531.0, 21503.0, 21456.0, 21423.0, 21417.0, 21427.0, 21409.0, 21404.0, 21389.0, 21372.0, 21368.0, 21397.0, 21420.0, 21439.0, 21450.0, 21463.0, 21467.0, 21437.0, 21404.0, 21379.0, 21345.0, 21355.0, 21361.0, 21378.0, 21390.0, 21381.0, 21391.0, 21417.0, 21440.0, 21440.0, 21416.0, 21390.0, 21362.0, 21331.0, 21323.0, 21355.0, 21394.0, 21431.0, 21490.0, 21507.0, 21468.0, 21402.0, 21346.0, 21337.0, 21379.0, 21490.0, 21569.0, 21559.0, 21486.0, 21414.0, 21358.0, 21329.0, 21309.0, 21289.0, 21276.0, 21281.0, 21303.0, 21370.0, 21411.0, 21434.0, 21433.0, 21422.0, 21404.0, 21402.0, 21426.0, 21450.0, 21452.0, 21416.0, 21407.0, 21391.0, 21419.0, 21437.0, 21439.0, 21429.0, 21392.0, 21376.0, 21383.0, 21447.0, 21509.0, 21472.0]
    },
    "slices": {}
  }
}