{
  "AcquisitionMatrixPE": 104,
  "AcquisitionNumber": 1,
  "AcquisitionTime": "13:41:58.327500",
  "BandwidthPerPixelPhaseEncode": 17.17,
  "BaseResolution": 104,
  "BodyPartExamined": "BRAIN",
  "CoilString": "HC1-7;NC1_2",
  "ConsistencyInfo": "N4_VE11C_LATEST_20160120",
  "ConversionSoftware": "dcm2niix",
  "ConversionSoftwareVersion": "v1.0.20190902",
  "DerivedVendorReportedEchoSpacing": 0.000560011,
  "DeviceSerialNumber": "167006",
  "DwellTime": 2.1e-06,
  "EchoTime": 0.037,
  "EchoTrainLength": 104,
  "EffectiveEchoSpacing": 0.000560011,
  "FlipAngle": 52,
  "ImageComments": "Unaliased_MB4_PE3_LB",
  "ImageOrientationPatientDICOM": [0.999574, -0.00310716, 0.0290068, 0.00976996, 0.972548, -0.232495],
  "ImageType": [
    "ORIGINAL",
    "PRIMARY",
    "P",
    "MB",
    "ND",
    "MOSAIC"
],
  "ImagingFrequency": 123.259,
  "InPlanePhaseEncodingDirectionDICOM": "COL",
  "InstitutionAddress": "Chemin_Queen-Mary_4565_Montreal_District_CA_H3W_1W5",
  "InstitutionName": "IUGM",
  "InstitutionalDepartmentName": "Department",
  "MRAcquisitionType": "2D",
  "MagneticFieldStrength": 3,
  "Manufacturer": "Siemens",
  "ManufacturersModelName": "Prisma_fit",
  "Modality": "MR",
  "MultibandAccelerationFactor": 4,
  "PartialFourier": 1,
  "PatientPosition": "HFS",
  "PercentPhaseFOV": 100,
  "PhaseEncodingDirection": "j",
  "PhaseEncodingSteps": 104,
  "PhaseResolution": 1,
  "PixelBandwidth": 2290,
  "ProcedureStepDescription": "memory_things",
  "ProtocolName": "func_task-things_run-2",
  "PulseSequenceDetails": "%CustomerSeq%_cmrr_mbep2d_bold",
  "ReceiveCoilActiveElements": "HC1-7;NC1,2",
  "ReceiveCoilName": "HeadNeck_64",
  "ReconMatrixPE": 104,
  "RepetitionTime": 1.49,
  "SAR": 0.0353979,
  "ScanOptions": "FS",
  "ScanningSequence": "EP",
  "SequenceName": "epfid2d1_104",
  "SequenceVariant": "SK_SS",
  "SeriesDescription": "func_task-things_run-2",
  "SeriesNumber": 14,
  "ShimSetting": [634, -7218, -8791, 733, 46, -10, 73, 7],
  "SliceThickness": 2,
  "SliceTiming": [0, 0.7825, 0.0975, 0.88, 0.195, 0.9775, 0.2925, 1.0775, 0.39, 1.175, 0.49, 1.2725, 0.5875, 1.37, 0.685, 0, 0.7825, 0.0975, 0.88, 0.195, 0.9775, 0.2925, 1.0775, 0.39, 1.175, 0.49, 1.2725, 0.5875, 1.37, 0.685, 0, 0.7825, 0.0975, 0.88, 0.195, 0.9775, 0.2925, 1.0775, 0.39, 1.175, 0.49, 1.2725, 0.5875, 1.37, 0.685, 0, 0.7825, 0.0975, 0.88, 0.195, 0.9775, 0.2925, 1.0775, 0.39, 1.175, 0.49, 1.2725, 0.5875, 1.37, 0.685],
  "SoftwareVersions": "syngo_MR_E11",
  "SpacingBetweenSlices": 2,
  "StationName": "MRC35049",
  "TaskName": "things",
  "TotalReadoutTime": 0.0576811,
  "TxRefAmp": 216.774,
  "WipMemBlock": "e9c9df73-033e-469d-a28c-abe07878da46||Sequence: R016 ve11c/master r/e634e98; Dec 19 2017 11:00:25 by eja",
  "dcmmeta_affine": [
    [-1.9991487264633179, 0.01953992433845997, 0.054976243525743484, 106.58506774902344],
    [0.006214312743395567, 1.9450969696044922, -0.4653593599796295, -76.6046371459961],
    [0.05801360309123993, 0.464990496635437, 1.9443297386169434, -63.433231353759766],
    [0.0, 0.0, 0.0, 1.0]
],
  "dcmmeta_reorient_transform": [
    [0.0, -1.0, 0.0, 103.0],
    [1.0, 0.0, 0.0, 0.0],
    [0.0, 0.0, 1.0, 0.0],
    [0.0, 0.0, 0.0, 1.0]
],
  "dcmmeta_shape": [104, 104, 60, 190],
  "dcmmeta_slice_dim": 2,
  "dcmmeta_version": 0.6,
  "global": {
    "const": {
      "AcquisitionMatrix": [104, 0, 0, 104],
      "AngioFlag": "N",
      "BitsAllocated": 16,
      "BitsStored": 16,
      "BodyPartExamined": "BRAIN",
      "Columns": 832,
      "EchoNumbers": 1,
      "EchoTime": 37.0,
      "EchoTrainLength": 104,
      "FlipAngle": 52.0,
      "HighBit": 15,
      "ImageOrientationPatient": [0.99957438493022, -0.0031071563014, 0.02900680215206, 0.00976996182736, 0.9725484615218, -0.2324952426126],
      "ImagePositionPatient": [-843.4003664917, -829.49361534524, 132.60037516943],
      "ImageType": [
        "ORIGINAL",
        "PRIMARY",
        "P",
        "MB",
        "ND",
        "MOSAIC"
],
      "ImagedNucleus": "1H",
      "ImagingFrequency": 123.258935,
      "InPlanePhaseEncodingDirection": "COL",
      "LargestImagePixelValue": 4095,
      "MRAcquisitionType": "2D",
      "MagneticFieldStrength": 3.0,
      "Manufacturer": "SIEMENS",
      "ManufacturerModelName": "Prisma_fit",
      "Modality": "MR",
      "NumberOfAverages": 1.0,
      "NumberOfPhaseEncodingSteps": 104,
      "PercentPhaseFieldOfView": 100.0,
      "PercentSampling": 100.0,
      "PerformedProcedureStepStartTime": "131441.465000",
      "PhotometricInterpretation": "MONOCHROME2",
      "PixelBandwidth": 2290.0,
      "PixelRepresentation": 0,
      "PixelSpacing": [2.0, 2.0],
      "ProtocolName": "func_task-things_run-2",
      "RepetitionTime": 1490.0,
      "RescaleIntercept": -4096.0,
      "RescaleSlope": 2.0,
      "RescaleType": "US",
      "Rows": 832,
      "SAR": 0.03539793385248,
      "SamplesPerPixel": 1,
      "ScanOptions": "FS",
      "ScanningSequence": "EP",
      "SequenceName": "epfid2d1_104",
      "SequenceVariant": [
        "SK",
        "SS"
],
      "SeriesDescription": "func_task-things_run-2",
      "SeriesNumber": 14,
      "SeriesTime": "134317.505000",
      "SliceLocation": -40.913391994743,
      "SliceThickness": 2.0,
      "SmallestImagePixelValue": 0,
      "SoftwareVersions": "syngo MR E11",
      "SpacingBetweenSlices": 2.0000000246223,
      "SpecificCharacterSet": "ISO_IR 100",
      "StudyID": "1",
      "StudyTime": "131441.234000",
      "TransmitCoilName": "Body",
      "VariableFlipAngleFlag": "N",
      "WindowCenterWidthExplanation": "Algo1",
      "dBdt": 0.0},
    "slices": {}
  },
  "time": {
    "samples": {
      "AcquisitionNumber": [1, 2, 3, 4, 5, 6, 7, 8, 9, 10, 11, 12, 13, 14, 15, 16, 17, 18, 19, 20, 21, 22, 23, 24, 25, 26, 27, 28, 29, 30, 31, 32, 33, 34, 35, 36, 37, 38, 39, 40, 41, 42, 43, 44, 45, 46, 47, 48, 49, 50, 51, 52, 53, 54, 55, 56, 57, 58, 59, 60, 61, 62, 63, 64, 65, 66, 67, 68, 69, 70, 71, 72, 73, 74, 75, 76, 77, 78, 79, 80, 81, 82, 83, 84, 85, 86, 87, 88, 89, 90, 91, 92, 93, 94, 95, 96, 97, 98, 99, 100, 101, 102, 103, 104, 105, 106, 107, 108, 109, 110, 111, 112, 113, 114, 115, 116, 117, 118, 119, 120, 121, 122, 123, 124, 125, 126, 127, 128, 129, 130, 131, 132, 133, 134, 135, 136, 137, 138, 139, 140, 141, 142, 143, 144, 145, 146, 147, 148, 149, 150, 151, 152, 153, 154, 155, 156, 157, 158, 159, 160, 161, 162, 163, 164, 165, 166, 167, 168, 169, 170, 171, 172, 173, 174, 175, 176, 177, 178, 179, 180, 181, 182, 183, 184, 185, 186, 187, 188, 189, 190],
      "AcquisitionTime": ["134158.327500", "134159.817500", "134201.307500", "134202.797500", "134204.287500", "134205.777500", "134207.267500", "134208.757500", "134210.247500", "134211.737500", "134213.227500", "134214.717500", "134216.207500", "134217.697500", "134219.187500", "134220.677500", "134222.167500", "134223.657500", "134225.147500", "134226.637500", "134228.127500", "134229.617500", "134231.107500", "134232.597500", "134234.087500", "134235.577500", "134237.067500", "134238.557500", "134240.047500", "134241.537500", "134243.027500", "134244.517500", "134246.007500", "134247.497500", "134248.987500", "134250.477500", "134251.967500", "134253.457500", "134254.947500", "134256.437500", "134257.927500", "134259.417500", "134300.907500", "134302.397500", "134303.887500", "134305.377500", "134306.867500", "134308.357500", "134309.847500", "134311.337500", "134312.827500", "134314.317500", "134315.807500", "134317.297500", "134318.787500", "134320.277500", "134321.767500", "134323.257500", "134324.747500", "134326.237500", "134327.727500", "134329.217500", "134330.707500", "134332.197500", "134333.687500", "134335.177500", "134336.667500", "134338.157500", "134339.647500", "134341.137500", "134342.627500", "134344.117500", "134345.607500", "134347.097500", "134348.587500", "134350.077500", "134351.567500", "134353.057500", "134354.547500", "134356.037500", "134357.527500", "134359.017500", "134400.507500", "134401.997500", "134403.487500", "134404.977500", "134406.467500", "134407.957500", "134409.447500", "134410.937500", "134412.427500", "134413.917500", "134415.407500", "134416.897500", "134418.387500", "134419.877500", "134421.367500", "134422.857500", "134424.347500", "134425.837500", "134427.327500", "134428.817500", "134430.307500", "134431.797500", "134433.287500", "134434.777500", "134436.267500", "134437.757500", "134439.247500", "134440.737500", "134442.227500", "134443.717500", "134445.207500", "134446.697500", "134448.187500", "134449.677500", "134451.167500", "134452.657500", "134454.147500", "134455.637500", "134457.127500", "134458.617500", "134500.107500", "134501.597500", "134503.087500", "134504.577500", "134506.067500", "134507.557500", "134509.047500", "134510.537500", "134512.027500", "134513.517500", "134515.007500", "134516.497500", "134517.987500", "134519.477500", "134520.967500", "134522.457500", "134523.947500", "134525.437500", "134526.927500", "134528.417500", "134529.907500", "134531.397500", "134532.887500", "134534.377500", "134535.867500", "134537.357500", "134538.847500", "134540.337500", "134541.827500", "134543.317500", "134544.807500", "134546.297500", "134547.787500", "134549.277500", "134550.767500", "134552.257500", "134553.747500", "134555.237500", "134556.727500", "134558.217500", "134559.707500", "134601.197500", "134602.687500", "134604.177500", "134605.667500", "134607.157500", "134608.647500", "134610.137500", "134611.627500", "134613.117500", "134614.607500", "134616.097500", "134617.587500", "134619.077500", "134620.567500", "134622.057500", "134623.547500", "134625.037500", "134626.527500", "134628.017500", "134629.507500", "134630.997500", "134632.487500", "134633.977500", "134635.467500", "134636.957500", "134638.447500", "134639.937500"],
      "ContentTime": ["134317.507000", "134317.510000", "134317.512000", "134317.515000", "134317.518000", "134317.520000", "134317.523000", "134317.525000", "134317.528000", "134317.530000", "134317.533000", "134317.535000", "134317.538000", "134317.540000", "134317.543000", "134317.545000", "134317.548000", "134317.564000", "134317.566000", "134317.569000", "134317.571000", "134317.574000", "134317.576000", "134317.579000", "134317.581000", "134317.584000", "134337.447000", "134337.450000", "134337.452000", "134337.455000", "134337.469000", "134337.471000", "134337.474000", "134337.477000", "134337.479000", "134337.482000", "134337.484000", "134337.487000", "134337.489000", "134337.492000", "134337.495000", "134337.497000", "134337.500000", "134337.502000", "134337.505000", "134337.507000", "134357.492000", "134357.495000", "134357.497000", "134357.500000", "134357.502000", "134357.505000", "134357.508000", "134357.510000", "134357.513000", "134357.515000", "134357.518000", "134357.520000", "134357.523000", "134357.525000", "134357.528000", "134357.530000", "134357.533000", "134357.535000", "134357.538000", "134357.540000", "134417.451000", "134417.454000", "134417.456000", "134417.459000", "134417.462000", "134417.464000", "134417.467000", "134417.469000", "134417.472000", "134417.474000", "134417.477000", "134417.479000", "134417.482000", "134417.486000", "134417.488000", "134417.491000", "134417.493000", "134417.496000", "134417.499000", "134417.501000", "134417.504000", "134457.534000", "134457.537000", "134457.546000", "134457.549000", "134457.552000", "134457.554000", "134457.557000", "134457.559000", "134457.562000", "134457.565000", "134457.567000", "134457.570000", "134457.572000", "134457.575000", "134457.578000", "134457.580000", "134457.583000", "134457.585000", "134457.588000", "134457.590000", "134457.593000", "134457.595000", "134457.598000", "134457.600000", "134457.603000", "134457.606000", "134457.608000", "134457.611000", "134457.613000", "134457.616000", "134457.618000", "134457.621000", "134537.981000", "134537.984000", "134537.987000", "134537.990000", "134537.992000", "134537.995000", "134537.997000", "134538.000000", "134538.003000", "134538.005000", "134538.008000", "134538.011000", "134538.013000", "134538.016000", "134538.018000", "134538.021000", "134538.023000", "134538.026000", "134538.028000", "134538.031000", "134538.033000", "134538.036000", "134538.039000", "134538.041000", "134538.044000", "134538.046000", "134538.049000", "134617.487000", "134617.489000", "134617.492000", "134617.495000", "134617.497000", "134617.500000", "134617.502000", "134617.505000", "134617.507000", "134617.510000", "134617.512000", "134617.515000", "134617.518000", "134617.520000", "134617.523000", "134617.525000", "134617.528000", "134617.530000", "134617.533000", "134617.535000", "134617.538000", "134617.541000", "134617.543000", "134617.546000", "134617.548000", "134617.551000", "134617.553000", "134642.339000", "134642.342000", "134642.344000", "134642.347000", "134642.349000", "134642.352000", "134642.355000", "134642.357000", "134642.360000", "134642.363000", "134642.365000", "134642.368000", "134642.371000", "134642.374000", "134642.376000", "134642.379000", "134642.382000"],
      "InstanceCreationTime": ["134317.507000", "134317.510000", "134317.512000", "134317.515000", "134317.518000", "134317.520000", "134317.523000", "134317.525000", "134317.528000", "134317.530000", "134317.533000", "134317.535000", "134317.538000", "134317.540000", "134317.543000", "134317.545000", "134317.548000", "134317.564000", "134317.566000", "134317.569000", "134317.571000", "134317.574000", "134317.576000", "134317.579000", "134317.581000", "134317.584000", "134337.447000", "134337.450000", "134337.452000", "134337.455000", "134337.469000", "134337.471000", "134337.474000", "134337.477000", "134337.479000", "134337.482000", "134337.484000", "134337.487000", "134337.489000", "134337.492000", "134337.495000", "134337.497000", "134337.500000", "134337.502000", "134337.505000", "134337.507000", "134357.492000", "134357.495000", "134357.497000", "134357.500000", "134357.502000", "134357.505000", "134357.508000", "134357.510000", "134357.513000", "134357.515000", "134357.518000", "134357.520000", "134357.523000", "134357.525000", "134357.528000", "134357.530000", "134357.533000", "134357.535000", "134357.538000", "134357.540000", "134417.451000", "134417.454000", "134417.456000", "134417.459000", "134417.462000", "134417.464000", "134417.467000", "134417.469000", "134417.472000", "134417.474000", "134417.477000", "134417.479000", "134417.482000", "134417.486000", "134417.488000", "134417.491000", "134417.493000", "134417.496000", "134417.499000", "134417.501000", "134417.504000", "134457.534000", "134457.537000", "134457.546000", "134457.549000", "134457.552000", "134457.554000", "134457.557000", "134457.559000", "134457.562000", "134457.565000", "134457.567000", "134457.570000", "134457.572000", "134457.575000", "134457.578000", "134457.580000", "134457.583000", "134457.585000", "134457.588000", "134457.590000", "134457.593000", "134457.595000", "134457.598000", "134457.600000", "134457.603000", "134457.606000", "134457.608000", "134457.611000", "134457.613000", "134457.616000", "134457.618000", "134457.621000", "134537.981000", "134537.984000", "134537.987000", "134537.990000", "134537.992000", "134537.995000", "134537.997000", "134538.000000", "134538.003000", "134538.005000", "134538.008000", "134538.011000", "134538.013000", "134538.016000", "134538.018000", "134538.021000", "134538.023000", "134538.026000", "134538.028000", "134538.031000", "134538.033000", "134538.036000", "134538.039000", "134538.041000", "134538.044000", "134538.046000", "134538.049000", "134617.487000", "134617.489000", "134617.492000", "134617.495000", "134617.497000", "134617.500000", "134617.502000", "134617.505000", "134617.507000", "134617.510000", "134617.512000", "134617.515000", "134617.518000", "134617.520000", "134617.523000", "134617.525000", "134617.528000", "134617.530000", "134617.533000", "134617.535000", "134617.538000", "134617.541000", "134617.543000", "134617.546000", "134617.548000", "134617.551000", "134617.553000", "134642.339000", "134642.342000", "134642.344000", "134642.347000", "134642.349000", "134642.352000", "134642.355000", "134642.357000", "134642.360000", "134642.363000", "134642.365000", "134642.368000", "134642.371000", "134642.374000", "134642.376000", "134642.379000", "134642.382000"],
      "InstanceNumber": [1, 2, 3, 4, 5, 6, 7, 8, 9, 10, 11, 12, 13, 14, 15, 16, 17, 18, 19, 20, 21, 22, 23, 24, 25, 26, 27, 28, 29, 30, 31, 32, 33, 34, 35, 36, 37, 38, 39, 40, 41, 42, 43, 44, 45, 46, 47, 48, 49, 50, 51, 52, 53, 54, 55, 56, 57, 58, 59, 60, 61, 62, 63, 64, 65, 66, 67, 68, 69, 70, 71, 72, 73, 74, 75, 76, 77, 78, 79, 80, 81, 82, 83, 84, 85, 86, 87, 88, 89, 90, 91, 92, 93, 94, 95, 96, 97, 98, 99, 100, 101, 102, 103, 104, 105, 106, 107, 108, 109, 110, 111, 112, 113, 114, 115, 116, 117, 118, 119, 120, 121, 122, 123, 124, 125, 126, 127, 128, 129, 130, 131, 132, 133, 134, 135, 136, 137, 138, 139, 140, 141, 142, 143, 144, 145, 146, 147, 148, 149, 150, 151, 152, 153, 154, 155, 156, 157, 158, 159, 160, 161, 162, 163, 164, 165, 166, 167, 168, 169, 170, 171, 172, 173, 174, 175, 176, 177, 178, 179, 180, 181, 182, 183, 184, 185, 186, 187, 188, 189, 190],
      "WindowCenter": [4852.0, 4850.0, 4826.0, 4830.0, 4826.0, 4852.0, 4826.0, 4830.0, 4828.0, 4850.0, 4852.0, 4856.0, 4850.0, 4826.0, 4828.0, 4852.0, 4850.0, 4826.0, 4826.0, 4830.0, 4830.0, 4828.0, 4824.0, 4850.0, 4850.0, 4848.0, 4852.0, 4828.0, 4854.0, 4850.0, 4828.0, 4828.0, 4830.0, 4852.0, 4826.0, 4830.0, 4850.0, 4852.0, 4826.0, 4852.0, 4850.0, 4854.0, 4850.0, 4852.0, 4824.0, 4852.0, 4826.0, 4828.0, 4848.0, 4852.0, 4828.0, 4830.0, 4828.0, 4852.0, 4826.0, 4826.0, 4828.0, 4852.0, 4826.0, 4856.0, 4830.0, 4854.0, 4826.0, 4828.0, 4848.0, 4852.0, 4850.0, 4850.0, 4830.0, 4828.0, 4852.0, 4848.0, 4852.0, 4826.0, 4852.0, 4828.0, 4854.0, 4824.0, 4852.0, 4848.0, 4852.0, 4852.0, 4852.0, 4822.0, 4828.0, 4826.0, 4852.0, 4828.0, 4824.0, 4824.0, 4854.0, 4828.0, 4826.0, 4826.0, 4824.0, 4824.0, 4822.0, 4822.0, 4824.0, 4824.0, 4826.0, 4824.0, 4828.0, 4826.0, 4826.0, 4824.0, 4828.0, 4826.0, 4824.0, 4826.0, 4822.0, 4850.0, 4824.0, 4830.0, 4824.0, 4824.0, 4826.0, 4852.0, 4822.0, 4826.0, 4828.0, 4824.0, 4824.0, 4824.0, 4824.0, 4822.0, 4824.0, 4828.0, 4826.0, 4824.0, 4824.0, 4824.0, 4820.0, 4824.0, 4824.0, 4826.0, 4822.0, 4848.0, 4822.0, 4826.0, 4826.0, 4822.0, 4850.0, 4828.0, 4830.0, 4824.0, 4850.0, 4822.0, 4826.0, 4824.0, 4824.0, 4826.0, 4824.0, 4824.0, 4824.0, 4848.0, 4824.0, 4824.0, 4820.0, 4826.0, 4824.0, 4848.0, 4824.0, 4826.0, 4822.0, 4824.0, 4826.0, 4824.0, 4822.0, 4824.0, 4824.0, 4824.0, 4824.0, 4826.0, 4822.0, 4850.0, 4824.0, 4828.0, 4820.0, 4824.0, 4822.0, 4824.0, 4824.0, 4848.0, 4822.0, 4852.0, 4826.0, 4826.0, 4826.0, 4822.0],
      "WindowWidth": [18698.0, 18692.0, 18662.0, 18664.0, 18658.0, 18696.0, 18660.0, 18662.0, 18662.0, 18694.0, 18692.0, 18700.0, 18694.0, 18664.0, 18664.0, 18692.0, 18690.0, 18662.0, 18660.0, 18664.0, 18662.0, 18662.0, 18660.0, 18692.0, 18690.0, 18690.0, 18692.0, 18658.0, 18694.0, 18690.0, 18664.0, 18664.0, 18662.0, 18696.0, 18656.0, 18666.0, 18694.0, 18692.0, 18660.0, 18692.0, 18690.0, 18690.0, 18690.0, 18694.0, 18658.0, 18694.0, 18658.0, 18662.0, 18694.0, 18690.0, 18660.0, 18664.0, 18660.0, 18692.0, 18658.0, 18660.0, 18664.0, 18690.0, 18656.0, 18692.0, 18662.0, 18692.0, 18660.0, 18658.0, 18694.0, 18692.0, 18694.0, 18692.0, 18664.0, 18658.0, 18692.0, 18690.0, 18692.0, 18658.0, 18692.0, 18658.0, 18688.0, 18656.0, 18692.0, 18688.0, 18690.0, 18688.0, 18694.0, 18656.0, 18664.0, 18656.0, 18692.0, 18660.0, 18662.0, 18660.0, 18692.0, 18658.0, 18660.0, 18654.0, 18660.0, 18660.0, 18660.0, 18660.0, 18664.0, 18658.0, 18662.0, 18656.0, 18664.0, 18662.0, 18660.0, 18656.0, 18660.0, 18660.0, 18660.0, 18662.0, 18658.0, 18692.0, 18658.0, 18662.0, 18658.0, 18660.0, 18660.0, 18690.0, 18658.0, 18658.0, 18664.0, 18662.0, 18664.0, 18660.0, 18658.0, 18660.0, 18656.0, 18656.0, 18664.0, 18658.0, 18664.0, 18658.0, 18654.0, 18656.0, 18658.0, 18664.0, 18654.0, 18694.0, 18656.0, 18660.0, 18656.0, 18656.0, 18690.0, 18660.0, 18660.0, 18656.0, 18692.0, 18656.0, 18658.0, 18658.0, 18660.0, 18662.0, 18660.0, 18656.0, 18654.0, 18686.0, 18658.0, 18658.0, 18654.0, 18660.0, 18660.0, 18690.0, 18658.0, 18656.0, 18660.0, 18660.0, 18658.0, 18658.0, 18654.0, 18656.0, 18654.0, 18658.0, 18656.0, 18658.0, 18658.0, 18694.0, 18654.0, 18662.0, 18650.0, 18658.0, 18654.0, 18664.0, 18658.0, 18690.0, 18656.0, 18694.0, 18658.0, 18664.0, 18660.0, 18662.0]
    },
    "slices": {}
  }
}