{
  "AcquisitionMatrixPE": 104,
  "AcquisitionNumber": 1,
  "AcquisitionTime": "13:24:25.747500",
  "BandwidthPerPixelPhaseEncode": 17.17,
  "BaseResolution": 104,
  "BodyPartExamined": "BRAIN",
  "CoilString": "HC1-7;NC1_2",
  "ConsistencyInfo": "N4_VE11C_LATEST_20160120",
  "ConversionSoftware": "dcm2niix",
  "ConversionSoftwareVersion": "v1.0.20190902",
  "DerivedVendorReportedEchoSpacing": 0.000560011,
  "DeviceSerialNumber": "167006",
  "DwellTime": 2.1e-06,
  "EchoTime": 0.037,
  "EchoTrainLength": 104,
  "EffectiveEchoSpacing": 0.000560011,
  "FlipAngle": 52,
  "ImageComments": "Unaliased_MB4_PE3_LB",
  "ImageOrientationPatientDICOM": [0.999579, 0.0275586, 0.00912839, -0.0242545, 0.965552, -0.259079],
  "ImageType": [
    "ORIGINAL",
    "PRIMARY",
    "P",
    "MB",
    "ND",
    "MOSAIC"
],
  "ImagingFrequency": 123.259,
  "InPlanePhaseEncodingDirectionDICOM": "COL",
  "InstitutionAddress": "Chemin_Queen-Mary_4565_Montreal_District_CA_H3W_1W5",
  "InstitutionName": "IUGM",
  "InstitutionalDepartmentName": "Department",
  "MRAcquisitionType": "2D",
  "MagneticFieldStrength": 3,
  "Manufacturer": "Siemens",
  "ManufacturersModelName": "Prisma_fit",
  "Modality": "MR",
  "MultibandAccelerationFactor": 4,
  "PartialFourier": 1,
  "PatientPosition": "HFS",
  "PercentPhaseFOV": 100,
  "PhaseEncodingDirection": "j",
  "PhaseEncodingSteps": 104,
  "PhaseResolution": 1,
  "PixelBandwidth": 2290,
  "ProcedureStepDescription": "memory_things",
  "ProtocolName": "func_task-things_run-1",
  "PulseSequenceDetails": "%CustomerSeq%_cmrr_mbep2d_bold",
  "ReceiveCoilActiveElements": "HC1-7;NC1,2",
  "ReceiveCoilName": "HeadNeck_64",
  "ReconMatrixPE": 104,
  "RepetitionTime": 1.49,
  "SAR": 0.0524067,
  "ScanOptions": "FS",
  "ScanningSequence": "EP",
  "SequenceName": "epfid2d1_104",
  "SequenceVariant": "SK_SS",
  "SeriesDescription": "func_task-things_run-1",
  "SeriesNumber": 11,
  "ShimSetting": [636, -7200, -8782, 680, 42, 29, 81, -21],
  "SliceThickness": 2,
  "SliceTiming": [0, 0.7825, 0.0975, 0.8825, 0.195, 0.98, 0.2925, 1.0775, 0.3925, 1.175, 0.49, 1.2725, 0.5875, 1.37, 0.685, 0, 0.7825, 0.0975, 0.8825, 0.195, 0.98, 0.2925, 1.0775, 0.3925, 1.175, 0.49, 1.2725, 0.5875, 1.37, 0.685, 0, 0.7825, 0.0975, 0.8825, 0.195, 0.98, 0.2925, 1.0775, 0.3925, 1.175, 0.49, 1.2725, 0.5875, 1.37, 0.685, 0, 0.7825, 0.0975, 0.8825, 0.195, 0.98, 0.2925, 1.0775, 0.3925, 1.175, 0.49, 1.2725, 0.5875, 1.37, 0.685],
  "SoftwareVersions": "syngo_MR_E11",
  "SpacingBetweenSlices": 2,
  "StationName": "MRC35049",
  "TaskName": "things",
  "TotalReadoutTime": 0.0576811,
  "TxRefAmp": 235.931,
  "WipMemBlock": "07208b59-4767-4e25-a43b-6202d0ea9603||Sequence: R016 ve11c/master r/e634e98; Dec 19 2017 11:00:25 by eja",
  "dcmmeta_affine": [
    [-1.9991570711135864, -0.048509079962968826, 0.031907569617033005, 110.72010040283203],
    [-0.05511727184057236, 1.9311033487319946, -0.5174958109855652, -70.93833923339844],
    [0.018256785348057747, 0.5181570053100586, 1.9316262006759644, -56.86748504638672],
    [0.0, 0.0, 0.0, 1.0]
],
  "dcmmeta_reorient_transform": [
    [0.0, -1.0, 0.0, 103.0],
    [1.0, 0.0, 0.0, 0.0],
    [0.0, 0.0, 1.0, 0.0],
    [0.0, 0.0, 0.0, 1.0]
],
  "dcmmeta_shape": [104, 104, 60, 190],
  "dcmmeta_slice_dim": 2,
  "dcmmeta_version": 0.6,
  "global": {
    "const": {
      "AcquisitionMatrix": [104, 0, 0, 104],
      "AngioFlag": "N",
      "BitsAllocated": 16,
      "BitsStored": 16,
      "BodyPartExamined": "BRAIN",
      "Columns": 832,
      "EchoNumbers": 1,
      "EchoTime": 37.0,
      "EchoTrainLength": 104,
      "FlipAngle": 52.0,
      "HighBit": 15,
      "ImageOrientationPatient": [0.99957850820091, 0.02755863557292, 0.00912839242119, -0.0242545397838, 0.96555168095102, -0.2590784991321],
      "ImagePositionPatient": [-815.75951736621, -850.94961852248, 178.46636422598],
      "ImageType": [
        "ORIGINAL",
        "PRIMARY",
        "P",
        "MB",
        "ND",
        "MOSAIC"
],
      "ImagedNucleus": "1H",
      "ImagingFrequency": 123.258969,
      "InPlanePhaseEncodingDirection": "COL",
      "LargestImagePixelValue": 4095,
      "MRAcquisitionType": "2D",
      "MagneticFieldStrength": 3.0,
      "Manufacturer": "SIEMENS",
      "ManufacturerModelName": "Prisma_fit",
      "Modality": "MR",
      "NumberOfAverages": 1.0,
      "NumberOfPhaseEncodingSteps": 104,
      "PercentPhaseFieldOfView": 100.0,
      "PercentSampling": 100.0,
      "PerformedProcedureStepStartTime": "130031.899000",
      "PhotometricInterpretation": "MONOCHROME2",
      "PixelBandwidth": 2290.0,
      "PixelRepresentation": 0,
      "PixelSpacing": [2.0, 2.0],
      "ProtocolName": "func_task-things_run-1",
      "RepetitionTime": 1490.0,
      "RescaleIntercept": -4096.0,
      "RescaleSlope": 2.0,
      "RescaleType": "US",
      "Rows": 832,
      "SAR": 0.05240673787494,
      "SamplesPerPixel": 1,
      "ScanOptions": "FS",
      "ScanningSequence": "EP",
      "SequenceName": "epfid2d1_104",
      "SequenceVariant": [
        "SK",
        "SS"
],
      "SeriesDescription": "func_task-things_run-1",
      "SeriesNumber": 11,
      "SeriesTime": "132555.317000",
      "SliceLocation": -34.801812696301,
      "SliceThickness": 2.0,
      "SmallestImagePixelValue": 0,
      "SoftwareVersions": "syngo MR E11",
      "SpacingBetweenSlices": 1.9999999775106,
      "SpecificCharacterSet": "ISO_IR 100",
      "StudyID": "1",
      "StudyTime": "130031.753000",
      "TransmitCoilName": "Body",
      "VariableFlipAngleFlag": "N",
      "WindowCenterWidthExplanation": "Algo1",
      "dBdt": 0.0},
    "slices": {}
  },
  "time": {
    "samples": {
      "AcquisitionNumber": [1, 2, 3, 4, 5, 6, 7, 8, 9, 10, 11, 12, 13, 14, 15, 16, 17, 18, 19, 20, 21, 22, 23, 24, 25, 26, 27, 28, 29, 30, 31, 32, 33, 34, 35, 36, 37, 38, 39, 40, 41, 42, 43, 44, 45, 46, 47, 48, 49, 50, 51, 52, 53, 54, 55, 56, 57, 58, 59, 60, 61, 62, 63, 64, 65, 66, 67, 68, 69, 70, 71, 72, 73, 74, 75, 76, 77, 78, 79, 80, 81, 82, 83, 84, 85, 86, 87, 88, 89, 90, 91, 92, 93, 94, 95, 96, 97, 98, 99, 100, 101, 102, 103, 104, 105, 106, 107, 108, 109, 110, 111, 112, 113, 114, 115, 116, 117, 118, 119, 120, 121, 122, 123, 124, 125, 126, 127, 128, 129, 130, 131, 132, 133, 134, 135, 136, 137, 138, 139, 140, 141, 142, 143, 144, 145, 146, 147, 148, 149, 150, 151, 152, 153, 154, 155, 156, 157, 158, 159, 160, 161, 162, 163, 164, 165, 166, 167, 168, 169, 170, 171, 172, 173, 174, 175, 176, 177, 178, 179, 180, 181, 182, 183, 184, 185, 186, 187, 188, 189, 190],
      "AcquisitionTime": ["132425.747500", "132427.237500", "132428.727500", "132430.217500", "132431.707500", "132433.197500", "132434.687500", "132436.177500", "132437.667500", "132439.157500", "132440.647500", "132442.137500", "132443.627500", "132445.117500", "132446.607500", "132448.097500", "132449.587500", "132451.077500", "132452.567500", "132454.057500", "132455.547500", "132457.037500", "132458.527500", "132500.017500", "132501.507500", "132502.997500", "132504.487500", "132505.977500", "132507.467500", "132508.957500", "132510.447500", "132511.937500", "132513.427500", "132514.917500", "132516.407500", "132517.897500", "132519.387500", "132520.877500", "132522.367500", "132523.857500", "132525.347500", "132526.837500", "132528.327500", "132529.817500", "132531.307500", "132532.797500", "132534.287500", "132535.777500", "132537.267500", "132538.757500", "132540.247500", "132541.737500", "132543.227500", "132544.717500", "132546.207500", "132547.697500", "132549.187500", "132550.677500", "132552.167500", "132553.657500", "132555.147500", "132556.637500", "132558.127500", "132559.617500", "132601.107500", "132602.597500", "132604.087500", "132605.577500", "132607.067500", "132608.557500", "132610.047500", "132611.537500", "132613.027500", "132614.517500", "132616.007500", "132617.497500", "132618.987500", "132620.477500", "132621.967500", "132623.457500", "132624.947500", "132626.437500", "132627.927500", "132629.417500", "132630.907500", "132632.397500", "132633.887500", "132635.377500", "132636.867500", "132638.357500", "132639.847500", "132641.337500", "132642.827500", "132644.317500", "132645.807500", "132647.297500", "132648.787500", "132650.277500", "132651.767500", "132653.257500", "132654.747500", "132656.237500", "132657.727500", "132659.217500", "132700.707500", "132702.197500", "132703.687500", "132705.177500", "132706.667500", "132708.157500", "132709.647500", "132711.137500", "132712.627500", "132714.117500", "132715.607500", "132717.097500", "132718.587500", "132720.077500", "132721.567500", "132723.057500", "132724.547500", "132726.037500", "132727.527500", "132729.017500", "132730.507500", "132731.997500", "132733.487500", "132734.977500", "132736.467500", "132737.957500", "132739.447500", "132740.937500", "132742.427500", "132743.917500", "132745.407500", "132746.897500", "132748.387500", "132749.877500", "132751.367500", "132752.857500", "132754.347500", "132755.837500", "132757.327500", "132758.817500", "132800.307500", "132801.797500", "132803.287500", "132804.777500", "132806.267500", "132807.757500", "132809.247500", "132810.737500", "132812.227500", "132813.717500", "132815.207500", "132816.697500", "132818.187500", "132819.677500", "132821.167500", "132822.657500", "132824.147500", "132825.637500", "132827.127500", "132828.617500", "132830.107500", "132831.597500", "132833.087500", "132834.577500", "132836.067500", "132837.557500", "132839.047500", "132840.537500", "132842.027500", "132843.517500", "132845.007500", "132846.497500", "132847.987500", "132849.477500", "132850.967500", "132852.457500", "132853.947500", "132855.437500", "132856.927500", "132858.417500", "132859.907500", "132901.397500", "132902.887500", "132904.377500", "132905.867500", "132907.357500"],
      "ContentTime": ["132555.319000", "132555.322000", "132555.325000", "132555.327000", "132555.330000", "132555.333000", "132555.335000", "132555.338000", "132555.340000", "132555.343000", "132555.346000", "132555.348000", "132555.351000", "132555.354000", "132555.356000", "132555.358000", "132555.361000", "132555.364000", "132555.366000", "132555.369000", "132555.371000", "132555.374000", "132555.376000", "132555.379000", "132555.382000", "132555.384000", "132555.387000", "132555.389000", "132555.392000", "132555.394000", "132555.397000", "132555.399000", "132555.402000", "132555.404000", "132555.407000", "132555.409000", "132555.412000", "132555.415000", "132615.157000", "132615.159000", "132615.162000", "132615.164000", "132615.167000", "132615.170000", "132615.172000", "132615.175000", "132615.177000", "132615.180000", "132615.183000", "132615.185000", "132615.188000", "132615.190000", "132615.193000", "132615.205000", "132615.208000", "132615.210000", "132615.213000", "132615.215000", "132635.167000", "132635.170000", "132635.173000", "132635.175000", "132635.178000", "132635.180000", "132635.183000", "132635.185000", "132635.188000", "132635.191000", "132635.193000", "132635.196000", "132635.198000", "132635.201000", "132635.204000", "132635.206000", "132635.209000", "132635.211000", "132635.214000", "132635.216000", "132655.160000", "132655.163000", "132655.166000", "132655.168000", "132655.171000", "132655.174000", "132655.177000", "132655.180000", "132655.182000", "132655.185000", "132655.188000", "132655.190000", "132655.193000", "132655.196000", "132655.198000", "132655.201000", "132655.203000", "132655.206000", "132655.209000", "132655.211000", "132735.215000", "132735.218000", "132735.220000", "132735.223000", "132735.225000", "132735.228000", "132735.231000", "132735.233000", "132735.236000", "132735.238000", "132735.241000", "132735.243000", "132735.246000", "132735.249000", "132735.251000", "132735.254000", "132735.256000", "132735.259000", "132735.262000", "132735.264000", "132735.267000", "132735.269000", "132735.272000", "132735.275000", "132735.277000", "132735.280000", "132735.282000", "132735.285000", "132815.209000", "132815.212000", "132815.215000", "132815.218000", "132815.220000", "132815.223000", "132815.225000", "132815.228000", "132815.230000", "132815.233000", "132815.236000", "132815.238000", "132815.241000", "132815.243000", "132815.246000", "132815.249000", "132815.251000", "132815.254000", "132815.256000", "132815.259000", "132815.261000", "132815.264000", "132815.267000", "132815.269000", "132815.272000", "132815.274000", "132815.277000", "132855.213000", "132855.216000", "132855.219000", "132855.221000", "132855.224000", "132855.227000", "132855.230000", "132855.232000", "132855.235000", "132855.237000", "132855.240000", "132855.243000", "132855.245000", "132855.248000", "132855.250000", "132855.253000", "132855.256000", "132855.258000", "132855.261000", "132855.263000", "132855.266000", "132855.269000", "132855.271000", "132855.274000", "132855.276000", "132855.279000", "132855.282000", "132909.809000", "132909.812000", "132909.815000", "132909.824000", "132909.826000", "132909.829000", "132909.832000", "132909.834000", "132909.837000", "132909.840000"],
      "InstanceCreationTime": ["132555.319000", "132555.322000", "132555.325000", "132555.327000", "132555.330000", "132555.333000", "132555.335000", "132555.338000", "132555.340000", "132555.343000", "132555.346000", "132555.348000", "132555.351000", "132555.354000", "132555.356000", "132555.358000", "132555.361000", "132555.364000", "132555.366000", "132555.369000", "132555.371000", "132555.374000", "132555.376000", "132555.379000", "132555.382000", "132555.384000", "132555.387000", "132555.389000", "132555.392000", "132555.394000", "132555.397000", "132555.399000", "132555.402000", "132555.404000", "132555.407000", "132555.409000", "132555.412000", "132555.415000", "132615.157000", "132615.159000", "132615.162000", "132615.164000", "132615.167000", "132615.170000", "132615.172000", "132615.175000", "132615.177000", "132615.180000", "132615.183000", "132615.185000", "132615.188000", "132615.190000", "132615.193000", "132615.205000", "132615.208000", "132615.210000", "132615.213000", "132615.215000", "132635.167000", "132635.170000", "132635.173000", "132635.175000", "132635.178000", "132635.180000", "132635.183000", "132635.185000", "132635.188000", "132635.191000", "132635.193000", "132635.196000", "132635.198000", "132635.201000", "132635.204000", "132635.206000", "132635.209000", "132635.211000", "132635.214000", "132635.216000", "132655.160000", "132655.163000", "132655.166000", "132655.168000", "132655.171000", "132655.174000", "132655.177000", "132655.180000", "132655.182000", "132655.185000", "132655.188000", "132655.190000", "132655.193000", "132655.196000", "132655.198000", "132655.201000", "132655.203000", "132655.206000", "132655.209000", "132655.211000", "132735.215000", "132735.218000", "132735.220000", "132735.223000", "132735.225000", "132735.228000", "132735.231000", "132735.233000", "132735.236000", "132735.238000", "132735.241000", "132735.243000", "132735.246000", "132735.249000", "132735.251000", "132735.254000", "132735.256000", "132735.259000", "132735.262000", "132735.264000", "132735.267000", "132735.269000", "132735.272000", "132735.275000", "132735.277000", "132735.280000", "132735.282000", "132735.285000", "132815.209000", "132815.212000", "132815.215000", "132815.218000", "132815.220000", "132815.223000", "132815.225000", "132815.228000", "132815.230000", "132815.233000", "132815.236000", "132815.238000", "132815.241000", "132815.243000", "132815.246000", "132815.249000", "132815.251000", "132815.254000", "132815.256000", "132815.259000", "132815.261000", "132815.264000", "132815.267000", "132815.269000", "132815.272000", "132815.274000", "132815.277000", "132855.213000", "132855.216000", "132855.219000", "132855.221000", "132855.224000", "132855.227000", "132855.230000", "132855.232000", "132855.235000", "132855.237000", "132855.240000", "132855.243000", "132855.245000", "132855.248000", "132855.250000", "132855.253000", "132855.256000", "132855.258000", "132855.261000", "132855.263000", "132855.266000", "132855.269000", "132855.271000", "132855.274000", "132855.276000", "132855.279000", "132855.282000", "132909.809000", "132909.812000", "132909.815000", "132909.824000", "132909.826000", "132909.829000", "132909.832000", "132909.834000", "132909.837000", "132909.840000"],
      "InstanceNumber": [1, 2, 3, 4, 5, 6, 7, 8, 9, 10, 11, 12, 13, 14, 15, 16, 17, 18, 19, 20, 21, 22, 23, 24, 25, 26, 27, 28, 29, 30, 31, 32, 33, 34, 35, 36, 37, 38, 39, 40, 41, 42, 43, 44, 45, 46, 47, 48, 49, 50, 51, 52, 53, 54, 55, 56, 57, 58, 59, 60, 61, 62, 63, 64, 65, 66, 67, 68, 69, 70, 71, 72, 73, 74, 75, 76, 77, 78, 79, 80, 81, 82, 83, 84, 85, 86, 87, 88, 89, 90, 91, 92, 93, 94, 95, 96, 97, 98, 99, 100, 101, 102, 103, 104, 105, 106, 107, 108, 109, 110, 111, 112, 113, 114, 115, 116, 117, 118, 119, 120, 121, 122, 123, 124, 125, 126, 127, 128, 129, 130, 131, 132, 133, 134, 135, 136, 137, 138, 139, 140, 141, 142, 143, 144, 145, 146, 147, 148, 149, 150, 151, 152, 153, 154, 155, 156, 157, 158, 159, 160, 161, 162, 163, 164, 165, 166, 167, 168, 169, 170, 171, 172, 173, 174, 175, 176, 177, 178, 179, 180, 181, 182, 183, 184, 185, 186, 187, 188, 189, 190],
      "WindowCenter": [4834.0, 4834.0, 4834.0, 4832.0, 4830.0, 4834.0, 4832.0, 4830.0, 4830.0, 4832.0, 4834.0, 4832.0, 4834.0, 4832.0, 4836.0, 4834.0, 4830.0, 4834.0, 4832.0, 4834.0, 4834.0, 4834.0, 4856.0, 4834.0, 4856.0, 4830.0, 4834.0, 4832.0, 4834.0, 4834.0, 4834.0, 4830.0, 4832.0, 4834.0, 4830.0, 4832.0, 4858.0, 4834.0, 4856.0, 4834.0, 4856.0, 4858.0, 4832.0, 4836.0, 4836.0, 4834.0, 4836.0, 4832.0, 4836.0, 4834.0, 4834.0, 4832.0, 4856.0, 4836.0, 4830.0, 4860.0, 4834.0, 4836.0, 4834.0, 4834.0, 4832.0, 4834.0, 4834.0, 4836.0, 4838.0, 4834.0, 4858.0, 4834.0, 4834.0, 4834.0, 4834.0, 4834.0, 4836.0, 4858.0, 4834.0, 4856.0, 4836.0, 4838.0, 4836.0, 4858.0, 4836.0, 4834.0, 4834.0, 4834.0, 4836.0, 4836.0, 4858.0, 4836.0, 4836.0, 4836.0, 4832.0, 4836.0, 4832.0, 4854.0, 4832.0, 4838.0, 4834.0, 4860.0, 4836.0, 4858.0, 4834.0, 4858.0, 4836.0, 4860.0, 4834.0, 4836.0, 4834.0, 4856.0, 4832.0, 4834.0, 4836.0, 4836.0, 4834.0, 4858.0, 4834.0, 4858.0, 4834.0, 4856.0, 4860.0, 4858.0, 4836.0, 4860.0, 4836.0, 4856.0, 4836.0, 4838.0, 4858.0, 4860.0, 4860.0, 4834.0, 4858.0, 4834.0, 4858.0, 4832.0, 4834.0, 4834.0, 4858.0, 4858.0, 4856.0, 4836.0, 4836.0, 4856.0, 4834.0, 4860.0, 4832.0, 4860.0, 4832.0, 4856.0, 4860.0, 4836.0, 4834.0, 4858.0, 4834.0, 4836.0, 4836.0, 4834.0, 4858.0, 4836.0, 4860.0, 4858.0, 4856.0, 4830.0, 4858.0, 4860.0, 4836.0, 4834.0, 4858.0, 4858.0, 4856.0, 4836.0, 4836.0, 4858.0, 4834.0, 4858.0, 4856.0, 4836.0, 4836.0, 4856.0, 4836.0, 4830.0, 4860.0, 4830.0, 4832.0, 4836.0, 4860.0, 4836.0, 4858.0, 4834.0, 4858.0, 4836.0],
      "WindowWidth": [18584.0, 18592.0, 18590.0, 18586.0, 18580.0, 18594.0, 18580.0, 18582.0, 18580.0, 18584.0, 18584.0, 18586.0, 18588.0, 18584.0, 18584.0, 18582.0, 18588.0, 18584.0, 18586.0, 18584.0, 18586.0, 18586.0, 18616.0, 18582.0, 18620.0, 18580.0, 18586.0, 18584.0, 18586.0, 18590.0, 18582.0, 18588.0, 18584.0, 18586.0, 18578.0, 18586.0, 18614.0, 18584.0, 18616.0, 18592.0, 18618.0, 18620.0, 18580.0, 18588.0, 18580.0, 18586.0, 18584.0, 18580.0, 18584.0, 18586.0, 18584.0, 18586.0, 18616.0, 18584.0, 18580.0, 18620.0, 18584.0, 18590.0, 18584.0, 18586.0, 18584.0, 18586.0, 18586.0, 18584.0, 18584.0, 18586.0, 18616.0, 18584.0, 18586.0, 18590.0, 18588.0, 18580.0, 18592.0, 18612.0, 18584.0, 18614.0, 18586.0, 18590.0, 18584.0, 18612.0, 18586.0, 18584.0, 18582.0, 18586.0, 18590.0, 18588.0, 18612.0, 18588.0, 18584.0, 18586.0, 18586.0, 18584.0, 18586.0, 18614.0, 18578.0, 18586.0, 18582.0, 18614.0, 18590.0, 18618.0, 18588.0, 18612.0, 18584.0, 18616.0, 18588.0, 18588.0, 18582.0, 18620.0, 18582.0, 18576.0, 18586.0, 18588.0, 18586.0, 18614.0, 18586.0, 18616.0, 18580.0, 18616.0, 18612.0, 18614.0, 18580.0, 18618.0, 18586.0, 18612.0, 18584.0, 18582.0, 18622.0, 18616.0, 18614.0, 18580.0, 18618.0, 18586.0, 18618.0, 18580.0, 18586.0, 18586.0, 18616.0, 18614.0, 18612.0, 18582.0, 18584.0, 18616.0, 18580.0, 18616.0, 18584.0, 18620.0, 18586.0, 18612.0, 18616.0, 18588.0, 18586.0, 18618.0, 18584.0, 18584.0, 18586.0, 18590.0, 18612.0, 18588.0, 18618.0, 18616.0, 18614.0, 18580.0, 18616.0, 18616.0, 18582.0, 18586.0, 18616.0, 18614.0, 18618.0, 18586.0, 18586.0, 18610.0, 18582.0, 18618.0, 18614.0, 18590.0, 18586.0, 18606.0, 18586.0, 18586.0, 18616.0, 18582.0, 18582.0, 18590.0, 18612.0, 18584.0, 18616.0, 18588.0, 18614.0, 18582.0]
    },
    "slices": {}
  }
}