{
  "AcquisitionMatrixPE": 104,
  "AcquisitionNumber": 1,
  "AcquisitionTime": "13:24:25.747500",
  "BandwidthPerPixelPhaseEncode": 17.17,
  "BaseResolution": 104,
  "BodyPartExamined": "BRAIN",
  "CoilString": "HC1-7;NC1_2",
  "ConsistencyInfo": "N4_VE11C_LATEST_20160120",
  "ConversionSoftware": "dcm2niix",
  "ConversionSoftwareVersion": "v1.0.20190902",
  "DerivedVendorReportedEchoSpacing": 0.000560011,
  "DeviceSerialNumber": "167006",
  "DwellTime": 2.1e-06,
  "EchoTime": 0.037,
  "EchoTrainLength": 104,
  "EffectiveEchoSpacing": 0.000560011,
  "FlipAngle": 52,
  "ImageComments": "Unaliased_MB4_PE3_LB",
  "ImageOrientationPatientDICOM": [0.999579, 0.0275586, 0.00912839, -0.0242545, 0.965552, -0.259079],
  "ImageType": [
    "ORIGINAL",
    "PRIMARY",
    "M",
    "MB",
    "ND",
    "MOSAIC"
],
  "ImagingFrequency": 123.259,
  "InPlanePhaseEncodingDirectionDICOM": "COL",
  "InstitutionAddress": "Chemin_Queen-Mary_4565_Montreal_District_CA_H3W_1W5",
  "InstitutionName": "IUGM",
  "InstitutionalDepartmentName": "Department",
  "MRAcquisitionType": "2D",
  "MagneticFieldStrength": 3,
  "Manufacturer": "Siemens",
  "ManufacturersModelName": "Prisma_fit",
  "Modality": "MR",
  "MultibandAccelerationFactor": 4,
  "PartialFourier": 1,
  "PatientPosition": "HFS",
  "PercentPhaseFOV": 100,
  "PhaseEncodingDirection": "j",
  "PhaseEncodingSteps": 104,
  "PhaseResolution": 1,
  "PixelBandwidth": 2290,
  "ProcedureStepDescription": "memory_things",
  "ProtocolName": "func_task-things_run-1",
  "PulseSequenceDetails": "%CustomerSeq%_cmrr_mbep2d_bold",
  "ReceiveCoilActiveElements": "HC1-7;NC1,2",
  "ReceiveCoilName": "HeadNeck_64",
  "ReconMatrixPE": 104,
  "RepetitionTime": 1.49,
  "SAR": 0.0524067,
  "ScanOptions": "FS",
  "ScanningSequence": "EP",
  "SequenceName": "epfid2d1_104",
  "SequenceVariant": "SK_SS",
  "SeriesDescription": "func_task-things_run-1",
  "SeriesNumber": 10,
  "ShimSetting": [636, -7200, -8782, 680, 42, 29, 81, -21],
  "SliceThickness": 2,
  "SliceTiming": [0, 0.7825, 0.0975, 0.8825, 0.195, 0.98, 0.2925, 1.0775, 0.3925, 1.175, 0.49, 1.2725, 0.5875, 1.37, 0.685, 0, 0.7825, 0.0975, 0.8825, 0.195, 0.98, 0.2925, 1.0775, 0.3925, 1.175, 0.49, 1.2725, 0.5875, 1.37, 0.685, 0, 0.7825, 0.0975, 0.8825, 0.195, 0.98, 0.2925, 1.0775, 0.3925, 1.175, 0.49, 1.2725, 0.5875, 1.37, 0.685, 0, 0.7825, 0.0975, 0.8825, 0.195, 0.98, 0.2925, 1.0775, 0.3925, 1.175, 0.49, 1.2725, 0.5875, 1.37, 0.685],
  "SoftwareVersions": "syngo_MR_E11",
  "SpacingBetweenSlices": 2,
  "StationName": "MRC35049",
  "TaskName": "things",
  "TotalReadoutTime": 0.0576811,
  "TxRefAmp": 235.931,
  "WipMemBlock": "07208b59-4767-4e25-a43b-6202d0ea9603||Sequence: R016 ve11c/master r/e634e98; Dec 19 2017 11:00:25 by eja",
  "dcmmeta_affine": [
    [-1.9991570711135864, -0.048509079962968826, 0.031907569617033005, 110.72010040283203],
    [-0.05511727184057236, 1.9311033487319946, -0.5174958109855652, -70.93833923339844],
    [0.018256785348057747, 0.5181570053100586, 1.9316262006759644, -56.86748504638672],
    [0.0, 0.0, 0.0, 1.0]
],
  "dcmmeta_reorient_transform": [
    [0.0, -1.0, 0.0, 103.0],
    [1.0, 0.0, 0.0, 0.0],
    [0.0, 0.0, 1.0, 0.0],
    [0.0, 0.0, 0.0, 1.0]
],
  "dcmmeta_shape": [104, 104, 60, 190],
  "dcmmeta_slice_dim": 2,
  "dcmmeta_version": 0.6,
  "global": {
    "const": {
      "AcquisitionMatrix": [104, 0, 0, 104],
      "AngioFlag": "N",
      "BitsAllocated": 16,
      "BitsStored": 16,
      "BodyPartExamined": "BRAIN",
      "Columns": 832,
      "EchoNumbers": 1,
      "EchoTime": 37.0,
      "EchoTrainLength": 104,
      "FlipAngle": 52.0,
      "HighBit": 15,
      "ImageOrientationPatient": [0.99957850820091, 0.02755863557292, 0.00912839242119, -0.0242545397838, 0.96555168095102, -0.2590784991321],
      "ImagePositionPatient": [-815.75951736621, -850.94961852248, 178.46636422598],
      "ImageType": [
        "ORIGINAL",
        "PRIMARY",
        "M",
        "MB",
        "ND",
        "MOSAIC"
],
      "ImagedNucleus": "1H",
      "ImagingFrequency": 123.258969,
      "InPlanePhaseEncodingDirection": "COL",
      "MRAcquisitionType": "2D",
      "MagneticFieldStrength": 3.0,
      "Manufacturer": "SIEMENS",
      "ManufacturerModelName": "Prisma_fit",
      "Modality": "MR",
      "NumberOfAverages": 1.0,
      "NumberOfPhaseEncodingSteps": 104,
      "PercentPhaseFieldOfView": 100.0,
      "PercentSampling": 100.0,
      "PerformedProcedureStepStartTime": "130031.899000",
      "PhotometricInterpretation": "MONOCHROME2",
      "PixelBandwidth": 2290.0,
      "PixelRepresentation": 0,
      "PixelSpacing": [2.0, 2.0],
      "ProtocolName": "func_task-things_run-1",
      "RepetitionTime": 1490.0,
      "Rows": 832,
      "SAR": 0.05240673787494,
      "SamplesPerPixel": 1,
      "ScanOptions": "FS",
      "ScanningSequence": "EP",
      "SequenceName": "epfid2d1_104",
      "SequenceVariant": [
        "SK",
        "SS"
],
      "SeriesDescription": "func_task-things_run-1",
      "SeriesNumber": 10,
      "SeriesTime": "132555.089000",
      "SliceLocation": -34.801812696301,
      "SliceThickness": 2.0,
      "SmallestImagePixelValue": 0,
      "SoftwareVersions": "syngo MR E11",
      "SpacingBetweenSlices": 1.9999999775106,
      "SpecificCharacterSet": "ISO_IR 100",
      "StudyID": "1",
      "StudyTime": "130031.753000",
      "TransmitCoilName": "Body",
      "VariableFlipAngleFlag": "N",
      "WindowCenterWidthExplanation": "Algo1",
      "dBdt": 0.0},
    "slices": {}
  },
  "time": {
    "samples": {
      "AcquisitionNumber": [1, 2, 3, 4, 5, 6, 7, 8, 9, 10, 11, 12, 13, 14, 15, 16, 17, 18, 19, 20, 21, 22, 23, 24, 25, 26, 27, 28, 29, 30, 31, 32, 33, 34, 35, 36, 37, 38, 39, 40, 41, 42, 43, 44, 45, 46, 47, 48, 49, 50, 51, 52, 53, 54, 55, 56, 57, 58, 59, 60, 61, 62, 63, 64, 65, 66, 67, 68, 69, 70, 71, 72, 73, 74, 75, 76, 77, 78, 79, 80, 81, 82, 83, 84, 85, 86, 87, 88, 89, 90, 91, 92, 93, 94, 95, 96, 97, 98, 99, 100, 101, 102, 103, 104, 105, 106, 107, 108, 109, 110, 111, 112, 113, 114, 115, 116, 117, 118, 119, 120, 121, 122, 123, 124, 125, 126, 127, 128, 129, 130, 131, 132, 133, 134, 135, 136, 137, 138, 139, 140, 141, 142, 143, 144, 145, 146, 147, 148, 149, 150, 151, 152, 153, 154, 155, 156, 157, 158, 159, 160, 161, 162, 163, 164, 165, 166, 167, 168, 169, 170, 171, 172, 173, 174, 175, 176, 177, 178, 179, 180, 181, 182, 183, 184, 185, 186, 187, 188, 189, 190],
      "AcquisitionTime": ["132425.747500", "132427.237500", "132428.727500", "132430.217500", "132431.707500", "132433.197500", "132434.687500", "132436.177500", "132437.667500", "132439.157500", "132440.647500", "132442.137500", "132443.627500", "132445.117500", "132446.607500", "132448.097500", "132449.587500", "132451.077500", "132452.567500", "132454.057500", "132455.547500", "132457.037500", "132458.527500", "132500.017500", "132501.507500", "132502.997500", "132504.487500", "132505.977500", "132507.467500", "132508.957500", "132510.447500", "132511.937500", "132513.427500", "132514.917500", "132516.407500", "132517.897500", "132519.387500", "132520.877500", "132522.367500", "132523.857500", "132525.347500", "132526.837500", "132528.327500", "132529.817500", "132531.307500", "132532.797500", "132534.287500", "132535.777500", "132537.267500", "132538.757500", "132540.247500", "132541.737500", "132543.227500", "132544.717500", "132546.207500", "132547.697500", "132549.187500", "132550.677500", "132552.167500", "132553.657500", "132555.147500", "132556.637500", "132558.127500", "132559.617500", "132601.107500", "132602.597500", "132604.087500", "132605.577500", "132607.067500", "132608.557500", "132610.047500", "132611.537500", "132613.027500", "132614.517500", "132616.007500", "132617.497500", "132618.987500", "132620.477500", "132621.967500", "132623.457500", "132624.947500", "132626.437500", "132627.927500", "132629.417500", "132630.907500", "132632.397500", "132633.887500", "132635.377500", "132636.867500", "132638.357500", "132639.847500", "132641.337500", "132642.827500", "132644.317500", "132645.807500", "132647.297500", "132648.787500", "132650.277500", "132651.767500", "132653.257500", "132654.747500", "132656.237500", "132657.727500", "132659.217500", "132700.707500", "132702.197500", "132703.687500", "132705.177500", "132706.667500", "132708.157500", "132709.647500", "132711.137500", "132712.627500", "132714.117500", "132715.607500", "132717.097500", "132718.587500", "132720.077500", "132721.567500", "132723.057500", "132724.547500", "132726.037500", "132727.527500", "132729.017500", "132730.507500", "132731.997500", "132733.487500", "132734.977500", "132736.467500", "132737.957500", "132739.447500", "132740.937500", "132742.427500", "132743.917500", "132745.407500", "132746.897500", "132748.387500", "132749.877500", "132751.367500", "132752.857500", "132754.347500", "132755.837500", "132757.327500", "132758.817500", "132800.307500", "132801.797500", "132803.287500", "132804.777500", "132806.267500", "132807.757500", "132809.247500", "132810.737500", "132812.227500", "132813.717500", "132815.207500", "132816.697500", "132818.187500", "132819.677500", "132821.167500", "132822.657500", "132824.147500", "132825.637500", "132827.127500", "132828.617500", "132830.107500", "132831.597500", "132833.087500", "132834.577500", "132836.067500", "132837.557500", "132839.047500", "132840.537500", "132842.027500", "132843.517500", "132845.007500", "132846.497500", "132847.987500", "132849.477500", "132850.967500", "132852.457500", "132853.947500", "132855.437500", "132856.927500", "132858.417500", "132859.907500", "132901.397500", "132902.887500", "132904.377500", "132905.867500", "132907.357500"],
      "ContentTime": ["132555.093000", "132555.097000", "132555.100000", "132555.113000", "132555.116000", "132555.120000", "132555.123000", "132555.126000", "132555.130000", "132555.133000", "132555.136000", "132555.140000", "132555.143000", "132555.147000", "132555.150000", "132555.153000", "132555.157000", "132555.160000", "132555.168000", "132555.171000", "132555.203000", "132555.207000", "132555.210000", "132555.213000", "132555.217000", "132555.220000", "132555.223000", "132555.227000", "132555.230000", "132555.233000", "132555.237000", "132555.240000", "132555.243000", "132555.247000", "132555.250000", "132555.253000", "132555.257000", "132555.260000", "132615.050000", "132615.054000", "132615.057000", "132615.061000", "132615.064000", "132615.068000", "132615.071000", "132615.074000", "132615.078000", "132615.081000", "132615.085000", "132615.088000", "132615.091000", "132615.095000", "132615.098000", "132615.102000", "132615.105000", "132615.109000", "132615.112000", "132615.115000", "132635.050000", "132635.054000", "132635.058000", "132635.061000", "132635.065000", "132635.068000", "132635.072000", "132635.075000", "132635.078000", "132635.082000", "132635.085000", "132635.089000", "132635.092000", "132635.095000", "132635.099000", "132635.102000", "132635.106000", "132635.109000", "132635.112000", "132635.116000", "132655.050000", "132655.054000", "132655.058000", "132655.061000", "132655.064000", "132655.068000", "132655.071000", "132655.075000", "132655.078000", "132655.082000", "132655.085000", "132655.088000", "132655.092000", "132655.095000", "132655.099000", "132655.102000", "132655.105000", "132655.109000", "132655.112000", "132655.116000", "132735.051000", "132735.055000", "132735.059000", "132735.062000", "132735.065000", "132735.069000", "132735.073000", "132735.076000", "132735.080000", "132735.083000", "132735.087000", "132735.090000", "132735.093000", "132735.097000", "132735.100000", "132735.104000", "132735.107000", "132735.111000", "132735.114000", "132735.117000", "132735.121000", "132735.124000", "132735.128000", "132735.131000", "132735.134000", "132735.138000", "132735.141000", "132735.144000", "132815.051000", "132815.055000", "132815.059000", "132815.062000", "132815.065000", "132815.069000", "132815.072000", "132815.076000", "132815.079000", "132815.083000", "132815.086000", "132815.089000", "132815.093000", "132815.096000", "132815.100000", "132815.103000", "132815.106000", "132815.110000", "132815.113000", "132815.117000", "132815.120000", "132815.124000", "132815.127000", "132815.131000", "132815.134000", "132815.138000", "132815.141000", "132855.050000", "132855.054000", "132855.074000", "132855.078000", "132855.081000", "132855.085000", "132855.088000", "132855.091000", "132855.095000", "132855.098000", "132855.102000", "132855.105000", "132855.109000", "132855.112000", "132855.115000", "132855.119000", "132855.122000", "132855.126000", "132855.129000", "132855.132000", "132855.136000", "132855.139000", "132855.142000", "132855.146000", "132855.149000", "132855.153000", "132855.156000", "132909.739000", "132909.743000", "132909.747000", "132909.751000", "132909.754000", "132909.758000", "132909.762000", "132909.765000", "132909.769000", "132909.772000"],
      "InstanceCreationTime": ["132555.093000", "132555.097000", "132555.100000", "132555.113000", "132555.116000", "132555.120000", "132555.123000", "132555.126000", "132555.130000", "132555.133000", "132555.136000", "132555.140000", "132555.143000", "132555.147000", "132555.150000", "132555.153000", "132555.157000", "132555.160000", "132555.168000", "132555.171000", "132555.203000", "132555.207000", "132555.210000", "132555.213000", "132555.217000", "132555.220000", "132555.223000", "132555.227000", "132555.230000", "132555.233000", "132555.237000", "132555.240000", "132555.243000", "132555.247000", "132555.250000", "132555.253000", "132555.257000", "132555.260000", "132615.050000", "132615.054000", "132615.057000", "132615.061000", "132615.064000", "132615.068000", "132615.071000", "132615.074000", "132615.078000", "132615.081000", "132615.085000", "132615.088000", "132615.091000", "132615.095000", "132615.098000", "132615.102000", "132615.105000", "132615.109000", "132615.112000", "132615.115000", "132635.050000", "132635.054000", "132635.058000", "132635.061000", "132635.065000", "132635.068000", "132635.072000", "132635.075000", "132635.078000", "132635.082000", "132635.085000", "132635.089000", "132635.092000", "132635.095000", "132635.099000", "132635.102000", "132635.106000", "132635.109000", "132635.112000", "132635.116000", "132655.050000", "132655.054000", "132655.058000", "132655.061000", "132655.064000", "132655.068000", "132655.071000", "132655.075000", "132655.078000", "132655.082000", "132655.085000", "132655.088000", "132655.092000", "132655.095000", "132655.099000", "132655.102000", "132655.105000", "132655.109000", "132655.112000", "132655.116000", "132735.051000", "132735.055000", "132735.059000", "132735.062000", "132735.065000", "132735.069000", "132735.073000", "132735.076000", "132735.080000", "132735.083000", "132735.087000", "132735.090000", "132735.093000", "132735.097000", "132735.100000", "132735.104000", "132735.107000", "132735.111000", "132735.114000", "132735.117000", "132735.121000", "132735.124000", "132735.128000", "132735.131000", "132735.134000", "132735.138000", "132735.141000", "132735.144000", "132815.051000", "132815.055000", "132815.059000", "132815.062000", "132815.065000", "132815.069000", "132815.072000", "132815.076000", "132815.079000", "132815.083000", "132815.086000", "132815.089000", "132815.093000", "132815.096000", "132815.100000", "132815.103000", "132815.106000", "132815.110000", "132815.113000", "132815.117000", "132815.120000", "132815.124000", "132815.127000", "132815.131000", "132815.134000", "132815.138000", "132815.141000", "132855.050000", "132855.054000", "132855.074000", "132855.078000", "132855.081000", "132855.085000", "132855.088000", "132855.091000", "132855.095000", "132855.098000", "132855.102000", "132855.105000", "132855.109000", "132855.112000", "132855.115000", "132855.119000", "132855.122000", "132855.126000", "132855.129000", "132855.132000", "132855.136000", "132855.139000", "132855.142000", "132855.146000", "132855.149000", "132855.153000", "132855.156000", "132909.739000", "132909.743000", "132909.747000", "132909.751000", "132909.754000", "132909.758000", "132909.762000", "132909.765000", "132909.769000", "132909.772000"],
      "InstanceNumber": [1, 2, 3, 4, 5, 6, 7, 8, 9, 10, 11, 12, 13, 14, 15, 16, 17, 18, 19, 20, 21, 22, 23, 24, 25, 26, 27, 28, 29, 30, 31, 32, 33, 34, 35, 36, 37, 38, 39, 40, 41, 42, 43, 44, 45, 46, 47, 48, 49, 50, 51, 52, 53, 54, 55, 56, 57, 58, 59, 60, 61, 62, 63, 64, 65, 66, 67, 68, 69, 70, 71, 72, 73, 74, 75, 76, 77, 78, 79, 80, 81, 82, 83, 84, 85, 86, 87, 88, 89, 90, 91, 92, 93, 94, 95, 96, 97, 98, 99, 100, 101, 102, 103, 104, 105, 106, 107, 108, 109, 110, 111, 112, 113, 114, 115, 116, 117, 118, 119, 120, 121, 122, 123, 124, 125, 126, 127, 128, 129, 130, 131, 132, 133, 134, 135, 136, 137, 138, 139, 140, 141, 142, 143, 144, 145, 146, 147, 148, 149, 150, 151, 152, 153, 154, 155, 156, 157, 158, 159, 160, 161, 162, 163, 164, 165, 166, 167, 168, 169, 170, 171, 172, 173, 174, 175, 176, 177, 178, 179, 180, 181, 182, 183, 184, 185, 186, 187, 188, 189, 190],
      "LargestImagePixelValue": [42740, 41518, 40110, 39421, 39550, 39406, 39551, 39970, 39733, 39769, 39824, 38787, 39083, 39199, 39207, 39698, 39140, 39852, 39210, 39147, 38926, 38541, 39165, 39039, 39792, 39599, 39567, 39217, 39374, 38519, 39137, 39174, 39452, 39341, 39438, 39003, 39002, 38374, 39119, 39158, 39058, 38826, 39231, 39478, 39454, 39032, 38883, 38489, 38852, 38642, 38770, 38689, 38966, 39308, 39259, 39466, 39291, 38579, 38447, 38627, 38702, 38859, 39127, 38622, 39521, 39008, 39029, 39006, 38364, 38643, 38393, 39181, 38785, 38946, 39061, 39125, 39352, 38670, 38667, 38951, 38715, 38709, 38794, 38984, 38768, 38347, 38658, 38664, 38854, 38776, 38992, 39064, 38877, 38418, 38680, 38720, 39146, 39321, 38662, 39242, 38841, 38687, 38618, 38592, 38486, 38929, 38682, 38753, 38682, 38879, 38928, 38721, 38929, 38590, 38547, 38649, 38544, 38792, 38927, 39473, 38761, 39320, 38861, 38623, 39110, 38816, 38796, 38592, 38727, 38758, 38900, 38596, 38473, 38657, 38698, 38655, 38602, 38490, 38747, 38586, 38698, 38637, 38631, 38741, 38588, 39036, 38473, 38613, 38567, 38654, 38827, 38577, 38622, 38647, 38456, 38548, 38486, 38437, 38445, 38370, 38597, 38580, 38791, 38456, 38443, 38289, 38326, 38735, 38268, 38725, 38225, 38469, 38825, 38589, 38537, 38632, 38660, 38939, 38590, 38403, 38417, 38355, 38391, 38393, 38433, 38575, 38625, 38544, 38462, 38461],
      "WindowCenter": [10286.0, 10239.0, 10228.0, 10207.0, 10210.0, 10189.0, 10199.0, 10192.0, 10201.0, 10204.0, 10203.0, 10181.0, 10179.0, 10185.0, 10191.0, 10192.0, 10186.0, 10190.0, 10185.0, 10197.0, 10195.0, 10197.0, 10195.0, 10193.0, 10201.0, 10200.0, 10200.0, 10196.0, 10217.0, 10200.0, 10204.0, 10202.0, 10203.0, 10202.0, 10210.0, 10210.0, 10211.0, 10189.0, 10195.0, 10188.0, 10185.0, 10179.0, 10184.0, 10185.0, 10193.0, 10187.0, 10197.0, 10190.0, 10181.0, 10178.0, 10184.0, 10195.0, 10197.0, 10203.0, 10194.0, 10195.0, 10188.0, 10188.0, 10190.0, 10199.0, 10207.0, 10217.0, 10208.0, 10182.0, 10185.0, 10181.0, 10195.0, 10207.0, 10201.0, 10193.0, 10176.0, 10186.0, 10171.0, 10178.0, 10171.0, 10171.0, 10177.0, 10172.0, 10164.0, 10172.0, 10172.0, 10174.0, 10175.0, 10185.0, 10181.0, 10181.0, 10182.0, 10181.0, 10188.0, 10191.0, 10200.0, 10198.0, 10185.0, 10176.0, 10180.0, 10182.0, 10195.0, 10219.0, 10215.0, 10201.0, 10170.0, 10158.0, 10170.0, 10182.0, 10192.0, 10192.0, 10191.0, 10184.0, 10197.0, 10191.0, 10207.0, 10209.0, 10199.0, 10184.0, 10184.0, 10188.0, 10183.0, 10180.0, 10171.0, 10172.0, 10174.0, 10188.0, 10183.0, 10184.0, 10189.0, 10176.0, 10158.0, 10157.0, 10163.0, 10164.0, 10179.0, 10175.0, 10175.0, 10181.0, 10189.0, 10183.0, 10184.0, 10176.0, 10158.0, 10155.0, 10170.0, 10189.0, 10201.0, 10210.0, 10201.0, 10198.0, 10184.0, 10183.0, 10190.0, 10184.0, 10183.0, 10181.0, 10189.0, 10176.0, 10170.0, 10174.0, 10176.0, 10175.0, 10169.0, 10166.0, 10166.0, 10174.0, 10191.0, 10194.0, 10187.0, 10176.0, 10166.0, 10166.0, 10164.0, 10180.0, 10176.0, 10175.0, 10175.0, 10182.0, 10186.0, 10202.0, 10195.0, 10176.0, 10168.0, 10167.0, 10169.0, 10177.0, 10176.0, 10169.0, 10161.0, 10157.0, 10150.0, 10143.0, 10158.0, 10165.0],
      "WindowWidth": [21944.0, 21811.0, 21774.0, 21720.0, 21721.0, 21674.0, 21693.0, 21676.0, 21698.0, 21705.0, 21701.0, 21655.0, 21648.0, 21663.0, 21673.0, 21676.0, 21663.0, 21670.0, 21664.0, 21692.0, 21688.0, 21691.0, 21684.0, 21679.0, 21696.0, 21693.0, 21696.0, 21689.0, 21736.0, 21702.0, 21709.0, 21701.0, 21706.0, 21701.0, 21720.0, 21719.0, 21721.0, 21673.0, 21682.0, 21668.0, 21661.0, 21648.0, 21657.0, 21661.0, 21680.0, 21667.0, 21692.0, 21677.0, 21654.0, 21644.0, 21658.0, 21683.0, 21688.0, 21701.0, 21678.0, 21684.0, 21668.0, 21669.0, 21675.0, 21698.0, 21714.0, 21737.0, 21716.0, 21653.0, 21660.0, 21654.0, 21685.0, 21714.0, 21703.0, 21684.0, 21645.0, 21662.0, 21630.0, 21644.0, 21629.0, 21628.0, 21639.0, 21632.0, 21614.0, 21631.0, 21633.0, 21637.0, 21641.0, 21660.0, 21654.0, 21652.0, 21655.0, 21652.0, 21670.0, 21679.0, 21698.0, 21692.0, 21664.0, 21643.0, 21651.0, 21655.0, 21684.0, 21738.0, 21733.0, 21698.0, 21627.0, 21601.0, 21625.0, 21655.0, 21679.0, 21679.0, 21676.0, 21660.0, 21689.0, 21677.0, 21714.0, 21719.0, 21695.0, 21662.0, 21661.0, 21666.0, 21659.0, 21650.0, 21626.0, 21632.0, 21637.0, 21668.0, 21659.0, 21662.0, 21669.0, 21641.0, 21598.0, 21596.0, 21607.0, 21613.0, 21647.0, 21641.0, 21640.0, 21651.0, 21671.0, 21658.0, 21657.0, 21641.0, 21599.0, 21592.0, 21624.0, 21672.0, 21701.0, 21723.0, 21699.0, 21691.0, 21659.0, 21657.0, 21673.0, 21660.0, 21658.0, 21652.0, 21670.0, 21641.0, 21629.0, 21635.0, 21642.0, 21636.0, 21623.0, 21613.0, 21617.0, 21634.0, 21674.0, 21685.0, 21669.0, 21639.0, 21615.0, 21616.0, 21613.0, 21649.0, 21644.0, 21641.0, 21641.0, 21656.0, 21666.0, 21702.0, 21687.0, 21640.0, 21622.0, 21620.0, 21626.0, 21644.0, 21640.0, 21622.0, 21602.0, 21590.0, 21576.0, 21563.0, 21595.0, 21613.0]
    },
    "slices": {}
  }
}