{
  "AcquisitionMatrixPE": 104,
  "AcquisitionNumber": 1,
  "AcquisitionTime": "13:30:39.130000",
  "BandwidthPerPixelPhaseEncode": 17.17,
  "BaseResolution": 104,
  "BodyPartExamined": "BRAIN",
  "CoilString": "HC1-7;NC1_2",
  "ConsistencyInfo": "N4_VE11C_LATEST_20160120",
  "ConversionSoftware": "dcm2niix",
  "ConversionSoftwareVersion": "v1.0.20190902",
  "DerivedVendorReportedEchoSpacing": 0.000560011,
  "DeviceSerialNumber": "167006",
  "DwellTime": 2.1e-06,
  "EchoTime": 0.037,
  "EchoTrainLength": 104,
  "EffectiveEchoSpacing": 0.000560011,
  "FlipAngle": 52,
  "ImageComments": "Unaliased_MB4_PE3_LB",
  "ImageOrientationPatientDICOM": [0.999579, 0.0275586, 0.00912839, -0.0242545, 0.965552, -0.259079],
  "ImageType": [
    "ORIGINAL",
    "PRIMARY",
    "P",
    "MB",
    "ND",
    "MOSAIC"
],
  "ImagingFrequency": 123.259,
  "InPlanePhaseEncodingDirectionDICOM": "COL",
  "InstitutionAddress": "Chemin_Queen-Mary_4565_Montreal_District_CA_H3W_1W5",
  "InstitutionName": "IUGM",
  "InstitutionalDepartmentName": "Department",
  "MRAcquisitionType": "2D",
  "MagneticFieldStrength": 3,
  "Manufacturer": "Siemens",
  "ManufacturersModelName": "Prisma_fit",
  "Modality": "MR",
  "MultibandAccelerationFactor": 4,
  "PartialFourier": 1,
  "PatientPosition": "HFS",
  "PercentPhaseFOV": 100,
  "PhaseEncodingDirection": "j",
  "PhaseEncodingSteps": 104,
  "PhaseResolution": 1,
  "PixelBandwidth": 2290,
  "ProcedureStepDescription": "memory_things",
  "ProtocolName": "func_task-things_run-2",
  "PulseSequenceDetails": "%CustomerSeq%_cmrr_mbep2d_bold",
  "ReceiveCoilActiveElements": "HC1-7;NC1,2",
  "ReceiveCoilName": "HeadNeck_64",
  "ReconMatrixPE": 104,
  "RepetitionTime": 1.49,
  "SAR": 0.0524067,
  "ScanOptions": "FS",
  "ScanningSequence": "EP",
  "SequenceName": "epfid2d1_104",
  "SequenceVariant": "SK_SS",
  "SeriesDescription": "func_task-things_run-2",
  "SeriesNumber": 14,
  "ShimSetting": [636, -7200, -8782, 680, 42, 29, 81, -21],
  "SliceThickness": 2,
  "SliceTiming": [0, 0.785, 0.0975, 0.8825, 0.195, 0.98, 0.295, 1.0775, 0.3925, 1.175, 0.49, 1.275, 0.5875, 1.3725, 0.685, 0, 0.785, 0.0975, 0.8825, 0.195, 0.98, 0.295, 1.0775, 0.3925, 1.175, 0.49, 1.275, 0.5875, 1.3725, 0.685, 0, 0.785, 0.0975, 0.8825, 0.195, 0.98, 0.295, 1.0775, 0.3925, 1.175, 0.49, 1.275, 0.5875, 1.3725, 0.685, 0, 0.785, 0.0975, 0.8825, 0.195, 0.98, 0.295, 1.0775, 0.3925, 1.175, 0.49, 1.275, 0.5875, 1.3725, 0.685],
  "SoftwareVersions": "syngo_MR_E11",
  "SpacingBetweenSlices": 2,
  "StationName": "MRC35049",
  "TaskName": "things",
  "TotalReadoutTime": 0.0576811,
  "TxRefAmp": 235.931,
  "WipMemBlock": "3e9734d1-c6a0-492a-a5e3-c8ddba7239e5||Sequence: R016 ve11c/master r/e634e98; Dec 19 2017 11:00:25 by eja",
  "dcmmeta_affine": [
    [-1.9991570711135864, -0.048509079962968826, 0.031907569617033005, 110.72010040283203],
    [-0.05511727184057236, 1.9311033487319946, -0.5174958109855652, -70.93833923339844],
    [0.018256785348057747, 0.5181570053100586, 1.9316262006759644, -56.86748504638672],
    [0.0, 0.0, 0.0, 1.0]
],
  "dcmmeta_reorient_transform": [
    [0.0, -1.0, 0.0, 103.0],
    [1.0, 0.0, 0.0, 0.0],
    [0.0, 0.0, 1.0, 0.0],
    [0.0, 0.0, 0.0, 1.0]
],
  "dcmmeta_shape": [104, 104, 60, 190],
  "dcmmeta_slice_dim": 2,
  "dcmmeta_version": 0.6,
  "global": {
    "const": {
      "AcquisitionMatrix": [104, 0, 0, 104],
      "AngioFlag": "N",
      "BitsAllocated": 16,
      "BitsStored": 16,
      "BodyPartExamined": "BRAIN",
      "Columns": 832,
      "EchoNumbers": 1,
      "EchoTime": 37.0,
      "EchoTrainLength": 104,
      "FlipAngle": 52.0,
      "HighBit": 15,
      "ImageOrientationPatient": [0.99957850820091, 0.02755863557292, 0.00912839242119, -0.0242545397838, 0.96555168095102, -0.2590784991321],
      "ImagePositionPatient": [-815.75951736621, -850.94961852248, 178.46636422598],
      "ImageType": [
        "ORIGINAL",
        "PRIMARY",
        "P",
        "MB",
        "ND",
        "MOSAIC"
],
      "ImagedNucleus": "1H",
      "ImagingFrequency": 123.258973,
      "InPlanePhaseEncodingDirection": "COL",
      "LargestImagePixelValue": 4095,
      "MRAcquisitionType": "2D",
      "MagneticFieldStrength": 3.0,
      "Manufacturer": "SIEMENS",
      "ManufacturerModelName": "Prisma_fit",
      "Modality": "MR",
      "NumberOfAverages": 1.0,
      "NumberOfPhaseEncodingSteps": 104,
      "PercentPhaseFieldOfView": 100.0,
      "PercentSampling": 100.0,
      "PerformedProcedureStepStartTime": "130031.899000",
      "PhotometricInterpretation": "MONOCHROME2",
      "PixelBandwidth": 2290.0,
      "PixelRepresentation": 0,
      "PixelSpacing": [2.0, 2.0],
      "ProtocolName": "func_task-things_run-2",
      "RepetitionTime": 1490.0,
      "RescaleIntercept": -4096.0,
      "RescaleSlope": 2.0,
      "RescaleType": "US",
      "Rows": 832,
      "SAR": 0.05240673787494,
      "SamplesPerPixel": 1,
      "ScanOptions": "FS",
      "ScanningSequence": "EP",
      "SequenceName": "epfid2d1_104",
      "SequenceVariant": [
        "SK",
        "SS"
],
      "SeriesDescription": "func_task-things_run-2",
      "SeriesNumber": 14,
      "SeriesTime": "133200.447000",
      "SliceLocation": -34.801812696301,
      "SliceThickness": 2.0,
      "SmallestImagePixelValue": 0,
      "SoftwareVersions": "syngo MR E11",
      "SpacingBetweenSlices": 1.9999999775106,
      "SpecificCharacterSet": "ISO_IR 100",
      "StudyID": "1",
      "StudyTime": "130031.753000",
      "TransmitCoilName": "Body",
      "VariableFlipAngleFlag": "N",
      "WindowCenterWidthExplanation": "Algo1",
      "dBdt": 0.0},
    "slices": {}
  },
  "time": {
    "samples": {
      "AcquisitionNumber": [1, 2, 3, 4, 5, 6, 7, 8, 9, 10, 11, 12, 13, 14, 15, 16, 17, 18, 19, 20, 21, 22, 23, 24, 25, 26, 27, 28, 29, 30, 31, 32, 33, 34, 35, 36, 37, 38, 39, 40, 41, 42, 43, 44, 45, 46, 47, 48, 49, 50, 51, 52, 53, 54, 55, 56, 57, 58, 59, 60, 61, 62, 63, 64, 65, 66, 67, 68, 69, 70, 71, 72, 73, 74, 75, 76, 77, 78, 79, 80, 81, 82, 83, 84, 85, 86, 87, 88, 89, 90, 91, 92, 93, 94, 95, 96, 97, 98, 99, 100, 101, 102, 103, 104, 105, 106, 107, 108, 109, 110, 111, 112, 113, 114, 115, 116, 117, 118, 119, 120, 121, 122, 123, 124, 125, 126, 127, 128, 129, 130, 131, 132, 133, 134, 135, 136, 137, 138, 139, 140, 141, 142, 143, 144, 145, 146, 147, 148, 149, 150, 151, 152, 153, 154, 155, 156, 157, 158, 159, 160, 161, 162, 163, 164, 165, 166, 167, 168, 169, 170, 171, 172, 173, 174, 175, 176, 177, 178, 179, 180, 181, 182, 183, 184, 185, 186, 187, 188, 189, 190],
      "AcquisitionTime": ["133039.130000", "133040.620000", "133042.110000", "133043.600000", "133045.090000", "133046.580000", "133048.070000", "133049.560000", "133051.050000", "133052.540000", "133054.030000", "133055.520000", "133057.010000", "133058.500000", "133059.990000", "133101.480000", "133102.970000", "133104.460000", "133105.950000", "133107.440000", "133108.930000", "133110.420000", "133111.910000", "133113.400000", "133114.890000", "133116.380000", "133117.870000", "133119.360000", "133120.850000", "133122.340000", "133123.830000", "133125.320000", "133126.810000", "133128.300000", "133129.790000", "133131.280000", "133132.770000", "133134.260000", "133135.750000", "133137.240000", "133138.730000", "133140.220000", "133141.710000", "133143.200000", "133144.690000", "133146.180000", "133147.670000", "133149.160000", "133150.650000", "133152.140000", "133153.630000", "133155.120000", "133156.610000", "133158.100000", "133159.590000", "133201.080000", "133202.570000", "133204.060000", "133205.550000", "133207.040000", "133208.530000", "133210.020000", "133211.510000", "133213.000000", "133214.490000", "133215.980000", "133217.470000", "133218.960000", "133220.450000", "133221.940000", "133223.430000", "133224.920000", "133226.410000", "133227.900000", "133229.390000", "133230.880000", "133232.370000", "133233.860000", "133235.350000", "133236.840000", "133238.330000", "133239.820000", "133241.310000", "133242.800000", "133244.290000", "133245.780000", "133247.270000", "133248.760000", "133250.250000", "133251.740000", "133253.230000", "133254.720000", "133256.210000", "133257.700000", "133259.190000", "133300.680000", "133302.170000", "133303.660000", "133305.150000", "133306.640000", "133308.130000", "133309.620000", "133311.110000", "133312.600000", "133314.090000", "133315.580000", "133317.070000", "133318.560000", "133320.050000", "133321.540000", "133323.030000", "133324.520000", "133326.010000", "133327.500000", "133328.990000", "133330.480000", "133331.970000", "133333.460000", "133334.950000", "133336.440000", "133337.930000", "133339.420000", "133340.910000", "133342.400000", "133343.890000", "133345.380000", "133346.870000", "133348.360000", "133349.850000", "133351.340000", "133352.830000", "133354.320000", "133355.810000", "133357.300000", "133358.790000", "133400.280000", "133401.770000", "133403.260000", "133404.750000", "133406.240000", "133407.730000", "133409.220000", "133410.710000", "133412.200000", "133413.690000", "133415.180000", "133416.670000", "133418.160000", "133419.650000", "133421.140000", "133422.630000", "133424.120000", "133425.610000", "133427.100000", "133428.590000", "133430.080000", "133431.570000", "133433.060000", "133434.550000", "133436.040000", "133437.530000", "133439.020000", "133440.510000", "133442.000000", "133443.490000", "133444.980000", "133446.470000", "133447.960000", "133449.450000", "133450.940000", "133452.430000", "133453.920000", "133455.410000", "133456.900000", "133458.390000", "133459.880000", "133501.370000", "133502.860000", "133504.350000", "133505.840000", "133507.330000", "133508.820000", "133510.310000", "133511.800000", "133513.290000", "133514.780000", "133516.270000", "133517.760000", "133519.250000", "133520.740000"],
      "ContentTime": ["133200.449000", "133200.452000", "133200.454000", "133200.457000", "133200.460000", "133200.463000", "133200.466000", "133200.468000", "133200.471000", "133200.473000", "133200.476000", "133200.478000", "133200.481000", "133200.484000", "133200.486000", "133200.489000", "133200.491000", "133200.494000", "133200.499000", "133200.501000", "133200.504000", "133200.506000", "133200.509000", "133200.512000", "133200.514000", "133200.517000", "133200.519000", "133200.522000", "133220.389000", "133220.392000", "133220.394000", "133220.397000", "133220.400000", "133220.402000", "133220.404000", "133220.407000", "133220.410000", "133220.412000", "133220.415000", "133220.417000", "133220.420000", "133220.423000", "133220.425000", "133220.428000", "133220.430000", "133220.433000", "133220.435000", "133220.438000", "133240.382000", "133240.385000", "133240.387000", "133240.390000", "133240.392000", "133240.395000", "133240.397000", "133240.400000", "133240.402000", "133240.405000", "133240.407000", "133240.410000", "133240.413000", "133240.417000", "133240.421000", "133240.424000", "133240.427000", "133240.431000", "133240.433000", "133240.436000", "133300.385000", "133300.388000", "133300.398000", "133300.400000", "133300.403000", "133300.405000", "133300.408000", "133300.410000", "133300.413000", "133300.415000", "133300.418000", "133300.421000", "133300.423000", "133300.426000", "133300.428000", "133300.431000", "133300.433000", "133300.436000", "133300.439000", "133300.441000", "133300.444000", "133340.424000", "133340.428000", "133340.430000", "133340.433000", "133340.436000", "133340.438000", "133340.441000", "133340.443000", "133340.446000", "133340.448000", "133340.451000", "133340.454000", "133340.456000", "133340.459000", "133340.461000", "133340.464000", "133340.467000", "133340.469000", "133340.472000", "133340.474000", "133340.477000", "133340.479000", "133340.482000", "133340.485000", "133340.487000", "133340.490000", "133340.492000", "133340.495000", "133340.497000", "133340.500000", "133340.502000", "133420.425000", "133420.428000", "133420.430000", "133420.433000", "133420.436000", "133420.438000", "133420.441000", "133420.443000", "133420.446000", "133420.448000", "133420.451000", "133420.454000", "133420.456000", "133420.459000", "133420.461000", "133420.464000", "133420.472000", "133420.474000", "133420.477000", "133420.479000", "133420.482000", "133420.485000", "133420.487000", "133420.490000", "133420.492000", "133420.495000", "133420.497000", "133500.392000", "133500.395000", "133500.397000", "133500.400000", "133500.403000", "133500.405000", "133500.408000", "133500.410000", "133500.413000", "133500.415000", "133500.418000", "133500.420000", "133500.423000", "133500.426000", "133500.428000", "133500.431000", "133500.433000", "133500.436000", "133500.439000", "133500.441000", "133500.444000", "133500.446000", "133500.449000", "133500.451000", "133500.454000", "133500.456000", "133500.459000", "133523.419000", "133523.424000", "133523.427000", "133523.438000", "133523.441000", "133523.443000", "133523.446000", "133523.449000", "133523.453000", "133523.457000", "133523.460000", "133523.464000", "133523.466000", "133523.469000", "133523.473000", "133523.476000"],
      "InstanceCreationTime": ["133200.449000", "133200.452000", "133200.454000", "133200.457000", "133200.460000", "133200.463000", "133200.466000", "133200.468000", "133200.471000", "133200.473000", "133200.476000", "133200.478000", "133200.481000", "133200.484000", "133200.486000", "133200.489000", "133200.491000", "133200.494000", "133200.499000", "133200.501000", "133200.504000", "133200.506000", "133200.509000", "133200.512000", "133200.514000", "133200.517000", "133200.519000", "133200.522000", "133220.389000", "133220.392000", "133220.394000", "133220.397000", "133220.400000", "133220.402000", "133220.404000", "133220.407000", "133220.410000", "133220.412000", "133220.415000", "133220.417000", "133220.420000", "133220.423000", "133220.425000", "133220.428000", "133220.430000", "133220.433000", "133220.435000", "133220.438000", "133240.382000", "133240.385000", "133240.387000", "133240.390000", "133240.392000", "133240.395000", "133240.397000", "133240.400000", "133240.402000", "133240.405000", "133240.407000", "133240.410000", "133240.413000", "133240.417000", "133240.421000", "133240.424000", "133240.427000", "133240.431000", "133240.433000", "133240.436000", "133300.385000", "133300.388000", "133300.398000", "133300.400000", "133300.403000", "133300.405000", "133300.408000", "133300.410000", "133300.413000", "133300.415000", "133300.418000", "133300.421000", "133300.423000", "133300.426000", "133300.428000", "133300.431000", "133300.433000", "133300.436000", "133300.439000", "133300.441000", "133300.444000", "133340.424000", "133340.428000", "133340.430000", "133340.433000", "133340.436000", "133340.438000", "133340.441000", "133340.443000", "133340.446000", "133340.448000", "133340.451000", "133340.454000", "133340.456000", "133340.459000", "133340.461000", "133340.464000", "133340.467000", "133340.469000", "133340.472000", "133340.474000", "133340.477000", "133340.479000", "133340.482000", "133340.485000", "133340.487000", "133340.490000", "133340.492000", "133340.495000", "133340.497000", "133340.500000", "133340.502000", "133420.425000", "133420.428000", "133420.430000", "133420.433000", "133420.436000", "133420.438000", "133420.441000", "133420.443000", "133420.446000", "133420.448000", "133420.451000", "133420.454000", "133420.456000", "133420.459000", "133420.461000", "133420.464000", "133420.472000", "133420.474000", "133420.477000", "133420.479000", "133420.482000", "133420.485000", "133420.487000", "133420.490000", "133420.492000", "133420.495000", "133420.497000", "133500.392000", "133500.395000", "133500.397000", "133500.400000", "133500.403000", "133500.405000", "133500.408000", "133500.410000", "133500.413000", "133500.415000", "133500.418000", "133500.420000", "133500.423000", "133500.426000", "133500.428000", "133500.431000", "133500.433000", "133500.436000", "133500.439000", "133500.441000", "133500.444000", "133500.446000", "133500.449000", "133500.451000", "133500.454000", "133500.456000", "133500.459000", "133523.419000", "133523.424000", "133523.427000", "133523.438000", "133523.441000", "133523.443000", "133523.446000", "133523.449000", "133523.453000", "133523.457000", "133523.460000", "133523.464000", "133523.466000", "133523.469000", "133523.473000", "133523.476000"],
      "InstanceNumber": [1, 2, 3, 4, 5, 6, 7, 8, 9, 10, 11, 12, 13, 14, 15, 16, 17, 18, 19, 20, 21, 22, 23, 24, 25, 26, 27, 28, 29, 30, 31, 32, 33, 34, 35, 36, 37, 38, 39, 40, 41, 42, 43, 44, 45, 46, 47, 48, 49, 50, 51, 52, 53, 54, 55, 56, 57, 58, 59, 60, 61, 62, 63, 64, 65, 66, 67, 68, 69, 70, 71, 72, 73, 74, 75, 76, 77, 78, 79, 80, 81, 82, 83, 84, 85, 86, 87, 88, 89, 90, 91, 92, 93, 94, 95, 96, 97, 98, 99, 100, 101, 102, 103, 104, 105, 106, 107, 108, 109, 110, 111, 112, 113, 114, 115, 116, 117, 118, 119, 120, 121, 122, 123, 124, 125, 126, 127, 128, 129, 130, 131, 132, 133, 134, 135, 136, 137, 138, 139, 140, 141, 142, 143, 144, 145, 146, 147, 148, 149, 150, 151, 152, 153, 154, 155, 156, 157, 158, 159, 160, 161, 162, 163, 164, 165, 166, 167, 168, 169, 170, 171, 172, 173, 174, 175, 176, 177, 178, 179, 180, 181, 182, 183, 184, 185, 186, 187, 188, 189, 190],
      "WindowCenter": [4860.0, 4836.0, 4860.0, 4836.0, 4836.0, 4860.0, 4858.0, 4856.0, 4834.0, 4836.0, 4836.0, 4856.0, 4836.0, 4858.0, 4858.0, 4858.0, 4860.0, 4856.0, 4834.0, 4860.0, 4834.0, 4858.0, 4858.0, 4860.0, 4830.0, 4858.0, 4858.0, 4860.0, 4856.0, 4860.0, 4834.0, 4860.0, 4858.0, 4856.0, 4834.0, 4856.0, 4856.0, 4834.0, 4860.0, 4858.0, 4860.0, 4858.0, 4856.0, 4858.0, 4858.0, 4834.0, 4860.0, 4858.0, 4860.0, 4860.0, 4858.0, 4860.0, 4832.0, 4860.0, 4834.0, 4836.0, 4836.0, 4856.0, 4832.0, 4860.0, 4836.0, 4860.0, 4860.0, 4836.0, 4836.0, 4860.0, 4862.0, 4832.0, 4858.0, 4860.0, 4860.0, 4834.0, 4862.0, 4834.0, 4834.0, 4860.0, 4860.0, 4858.0, 4858.0, 4860.0, 4858.0, 4858.0, 4862.0, 4858.0, 4858.0, 4860.0, 4858.0, 4862.0, 4860.0, 4858.0, 4856.0, 4862.0, 4858.0, 4858.0, 4856.0, 4858.0, 4858.0, 4860.0, 4862.0, 4858.0, 4858.0, 4858.0, 4862.0, 4860.0, 4860.0, 4856.0, 4858.0, 4860.0, 4858.0, 4858.0, 4858.0, 4860.0, 4860.0, 4858.0, 4858.0, 4858.0, 4858.0, 4864.0, 4858.0, 4858.0, 4834.0, 4860.0, 4860.0, 4862.0, 4858.0, 4858.0, 4858.0, 4860.0, 4862.0, 4856.0, 4860.0, 4858.0, 4862.0, 4838.0, 4858.0, 4858.0, 4864.0, 4856.0, 4860.0, 4856.0, 4860.0, 4860.0, 4860.0, 4858.0, 4862.0, 4858.0, 4858.0, 4860.0, 4836.0, 4860.0, 4858.0, 4860.0, 4858.0, 4860.0, 4860.0, 4858.0, 4860.0, 4860.0, 4858.0, 4858.0, 4858.0, 4856.0, 4858.0, 4860.0, 4860.0, 4858.0, 4860.0, 4860.0, 4854.0, 4860.0, 4860.0, 4862.0, 4862.0, 4862.0, 4836.0, 4858.0, 4856.0, 4858.0, 4858.0, 4860.0, 4854.0, 4860.0, 4860.0, 4858.0, 4858.0, 4856.0, 4858.0, 4860.0, 4858.0, 4838.0],
      "WindowWidth": [18614.0, 18584.0, 18614.0, 18584.0, 18586.0, 18614.0, 18610.0, 18608.0, 18586.0, 18586.0, 18584.0, 18618.0, 18584.0, 18616.0, 18618.0, 18612.0, 18614.0, 18616.0, 18586.0, 18614.0, 18588.0, 18616.0, 18618.0, 18616.0, 18578.0, 18620.0, 18616.0, 18618.0, 18612.0, 18612.0, 18586.0, 18618.0, 18616.0, 18608.0, 18584.0, 18616.0, 18614.0, 18586.0, 18616.0, 18616.0, 18618.0, 18616.0, 18614.0, 18614.0, 18616.0, 18588.0, 18616.0, 18618.0, 18606.0, 18610.0, 18612.0, 18612.0, 18584.0, 18616.0, 18584.0, 18582.0, 18586.0, 18618.0, 18584.0, 18618.0, 18588.0, 18618.0, 18616.0, 18586.0, 18584.0, 18616.0, 18618.0, 18586.0, 18612.0, 18614.0, 18616.0, 18584.0, 18618.0, 18584.0, 18584.0, 18616.0, 18612.0, 18614.0, 18618.0, 18616.0, 18616.0, 18618.0, 18620.0, 18616.0, 18616.0, 18620.0, 18614.0, 18620.0, 18612.0, 18614.0, 18614.0, 18622.0, 18616.0, 18612.0, 18612.0, 18618.0, 18618.0, 18620.0, 18612.0, 18614.0, 18616.0, 18616.0, 18620.0, 18612.0, 18616.0, 18616.0, 18616.0, 18612.0, 18610.0, 18614.0, 18614.0, 18618.0, 18616.0, 18616.0, 18610.0, 18614.0, 18612.0, 18620.0, 18614.0, 18614.0, 18586.0, 18614.0, 18614.0, 18618.0, 18612.0, 18618.0, 18614.0, 18616.0, 18618.0, 18610.0, 18622.0, 18616.0, 18618.0, 18584.0, 18618.0, 18616.0, 18622.0, 18614.0, 18616.0, 18616.0, 18618.0, 18618.0, 18612.0, 18618.0, 18614.0, 18612.0, 18618.0, 18618.0, 18584.0, 18616.0, 18610.0, 18618.0, 18612.0, 18616.0, 18618.0, 18612.0, 18618.0, 18616.0, 18614.0, 18620.0, 18614.0, 18614.0, 18612.0, 18616.0, 18612.0, 18614.0, 18614.0, 18620.0, 18612.0, 18614.0, 18614.0, 18618.0, 18614.0, 18622.0, 18584.0, 18620.0, 18616.0, 18612.0, 18618.0, 18612.0, 18612.0, 18616.0, 18620.0, 18614.0, 18624.0, 18614.0, 18616.0, 18614.0, 18614.0, 18588.0]
    },
    "slices": {}
  }
}