{
  "AcquisitionMatrixPE": 104,
  "AcquisitionNumber": 1,
  "AcquisitionTime": "13:36:39.632500",
  "BandwidthPerPixelPhaseEncode": 17.17,
  "BaseResolution": 104,
  "BodyPartExamined": "BRAIN",
  "CoilString": "HC1-7;NC1_2",
  "ConsistencyInfo": "N4_VE11C_LATEST_20160120",
  "ConversionSoftware": "dcm2niix",
  "ConversionSoftwareVersion": "v1.0.20190902",
  "DerivedVendorReportedEchoSpacing": 0.000560011,
  "DeviceSerialNumber": "167006",
  "DwellTime": 2.1e-06,
  "EchoTime": 0.037,
  "EchoTrainLength": 104,
  "EffectiveEchoSpacing": 0.000560011,
  "FlipAngle": 52,
  "ImageComments": "Unaliased_MB4_PE3_LB",
  "ImageOrientationPatientDICOM": [0.999579, 0.0275586, 0.00912839, -0.0242545, 0.965552, -0.259079],
  "ImageType": [
    "ORIGINAL",
    "PRIMARY",
    "M",
    "MB",
    "ND",
    "MOSAIC"
],
  "ImagingFrequency": 123.259,
  "InPlanePhaseEncodingDirectionDICOM": "COL",
  "InstitutionAddress": "Chemin_Queen-Mary_4565_Montreal_District_CA_H3W_1W5",
  "InstitutionName": "IUGM",
  "InstitutionalDepartmentName": "Department",
  "MRAcquisitionType": "2D",
  "MagneticFieldStrength": 3,
  "Manufacturer": "Siemens",
  "ManufacturersModelName": "Prisma_fit",
  "Modality": "MR",
  "MultibandAccelerationFactor": 4,
  "PartialFourier": 1,
  "PatientPosition": "HFS",
  "PercentPhaseFOV": 100,
  "PhaseEncodingDirection": "j",
  "PhaseEncodingSteps": 104,
  "PhaseResolution": 1,
  "PixelBandwidth": 2290,
  "ProcedureStepDescription": "memory_things",
  "ProtocolName": "func_task-things_run-3",
  "PulseSequenceDetails": "%CustomerSeq%_cmrr_mbep2d_bold",
  "ReceiveCoilActiveElements": "HC1-7;NC1,2",
  "ReceiveCoilName": "HeadNeck_64",
  "ReconMatrixPE": 104,
  "RepetitionTime": 1.49,
  "SAR": 0.0524067,
  "ScanOptions": "FS",
  "ScanningSequence": "EP",
  "SequenceName": "epfid2d1_104",
  "SequenceVariant": "SK_SS",
  "SeriesDescription": "func_task-things_run-3",
  "SeriesNumber": 16,
  "ShimSetting": [636, -7200, -8782, 680, 42, 29, 81, -21],
  "SliceThickness": 2,
  "SliceTiming": [0, 0.785, 0.1, 0.8825, 0.1975, 0.98, 0.295, 1.0775, 0.3925, 1.1775, 0.49, 1.275, 0.59, 1.3725, 0.6875, 0, 0.785, 0.1, 0.8825, 0.1975, 0.98, 0.295, 1.0775, 0.3925, 1.1775, 0.49, 1.275, 0.59, 1.3725, 0.6875, 0, 0.785, 0.1, 0.8825, 0.1975, 0.98, 0.295, 1.0775, 0.3925, 1.1775, 0.49, 1.275, 0.59, 1.3725, 0.6875, 0, 0.785, 0.1, 0.8825, 0.1975, 0.98, 0.295, 1.0775, 0.3925, 1.1775, 0.49, 1.275, 0.59, 1.3725, 0.6875],
  "SoftwareVersions": "syngo_MR_E11",
  "SpacingBetweenSlices": 2,
  "StationName": "MRC35049",
  "TaskName": "things",
  "TotalReadoutTime": 0.0576811,
  "TxRefAmp": 235.931,
  "WipMemBlock": "7453b3a5-925a-4f33-9baa-cbe3ccca3a01||Sequence: R016 ve11c/master r/e634e98; Dec 19 2017 11:00:25 by eja",
  "dcmmeta_affine": [
    [-1.9991570711135864, -0.048509079962968826, 0.031907569617033005, 110.72010040283203],
    [-0.05511727184057236, 1.9311033487319946, -0.5174958109855652, -70.93833923339844],
    [0.018256785348057747, 0.5181570053100586, 1.9316262006759644, -56.86748504638672],
    [0.0, 0.0, 0.0, 1.0]
],
  "dcmmeta_reorient_transform": [
    [0.0, -1.0, 0.0, 103.0],
    [1.0, 0.0, 0.0, 0.0],
    [0.0, 0.0, 1.0, 0.0],
    [0.0, 0.0, 0.0, 1.0]
],
  "dcmmeta_shape": [104, 104, 60, 190],
  "dcmmeta_slice_dim": 2,
  "dcmmeta_version": 0.6,
  "global": {
    "const": {
      "AcquisitionMatrix": [104, 0, 0, 104],
      "AngioFlag": "N",
      "BitsAllocated": 16,
      "BitsStored": 16,
      "BodyPartExamined": "BRAIN",
      "Columns": 832,
      "EchoNumbers": 1,
      "EchoTime": 37.0,
      "EchoTrainLength": 104,
      "FlipAngle": 52.0,
      "HighBit": 15,
      "ImageOrientationPatient": [0.99957850820091, 0.02755863557292, 0.00912839242119, -0.0242545397838, 0.96555168095102, -0.2590784991321],
      "ImagePositionPatient": [-815.75951736621, -850.94961852248, 178.46636422598],
      "ImageType": [
        "ORIGINAL",
        "PRIMARY",
        "M",
        "MB",
        "ND",
        "MOSAIC"
],
      "ImagedNucleus": "1H",
      "ImagingFrequency": 123.258976,
      "InPlanePhaseEncodingDirection": "COL",
      "MRAcquisitionType": "2D",
      "MagneticFieldStrength": 3.0,
      "Manufacturer": "SIEMENS",
      "ManufacturerModelName": "Prisma_fit",
      "Modality": "MR",
      "NumberOfAverages": 1.0,
      "NumberOfPhaseEncodingSteps": 104,
      "PercentPhaseFieldOfView": 100.0,
      "PercentSampling": 100.0,
      "PerformedProcedureStepStartTime": "130031.899000",
      "PhotometricInterpretation": "MONOCHROME2",
      "PixelBandwidth": 2290.0,
      "PixelRepresentation": 0,
      "PixelSpacing": [2.0, 2.0],
      "ProtocolName": "func_task-things_run-3",
      "RepetitionTime": 1490.0,
      "Rows": 832,
      "SAR": 0.05240673787494,
      "SamplesPerPixel": 1,
      "ScanOptions": "FS",
      "ScanningSequence": "EP",
      "SequenceName": "epfid2d1_104",
      "SequenceVariant": [
        "SK",
        "SS"
],
      "SeriesDescription": "func_task-things_run-3",
      "SeriesNumber": 16,
      "SeriesTime": "133742.183000",
      "SliceLocation": -34.801812696301,
      "SliceThickness": 2.0,
      "SmallestImagePixelValue": 0,
      "SoftwareVersions": "syngo MR E11",
      "SpacingBetweenSlices": 1.9999999775106,
      "SpecificCharacterSet": "ISO_IR 100",
      "StudyID": "1",
      "StudyTime": "130031.753000",
      "TransmitCoilName": "Body",
      "VariableFlipAngleFlag": "N",
      "WindowCenterWidthExplanation": "Algo1",
      "dBdt": 0.0},
    "slices": {}
  },
  "time": {
    "samples": {
      "AcquisitionNumber": [1, 2, 3, 4, 5, 6, 7, 8, 9, 10, 11, 12, 13, 14, 15, 16, 17, 18, 19, 20, 21, 22, 23, 24, 25, 26, 27, 28, 29, 30, 31, 32, 33, 34, 35, 36, 37, 38, 39, 40, 41, 42, 43, 44, 45, 46, 47, 48, 49, 50, 51, 52, 53, 54, 55, 56, 57, 58, 59, 60, 61, 62, 63, 64, 65, 66, 67, 68, 69, 70, 71, 72, 73, 74, 75, 76, 77, 78, 79, 80, 81, 82, 83, 84, 85, 86, 87, 88, 89, 90, 91, 92, 93, 94, 95, 96, 97, 98, 99, 100, 101, 102, 103, 104, 105, 106, 107, 108, 109, 110, 111, 112, 113, 114, 115, 116, 117, 118, 119, 120, 121, 122, 123, 124, 125, 126, 127, 128, 129, 130, 131, 132, 133, 134, 135, 136, 137, 138, 139, 140, 141, 142, 143, 144, 145, 146, 147, 148, 149, 150, 151, 152, 153, 154, 155, 156, 157, 158, 159, 160, 161, 162, 163, 164, 165, 166, 167, 168, 169, 170, 171, 172, 173, 174, 175, 176, 177, 178, 179, 180, 181, 182, 183, 184, 185, 186, 187, 188, 189, 190],
      "AcquisitionTime": ["133639.632500", "133641.122500", "133642.612500", "133644.102500", "133645.592500", "133647.082500", "133648.572500", "133650.062500", "133651.552500", "133653.042500", "133654.532500", "133656.022500", "133657.512500", "133659.002500", "133700.492500", "133701.982500", "133703.472500", "133704.962500", "133706.452500", "133707.942500", "133709.432500", "133710.922500", "133712.412500", "133713.902500", "133715.392500", "133716.882500", "133718.372500", "133719.862500", "133721.352500", "133722.842500", "133724.332500", "133725.822500", "133727.312500", "133728.802500", "133730.292500", "133731.782500", "133733.272500", "133734.762500", "133736.252500", "133737.742500", "133739.232500", "133740.722500", "133742.212500", "133743.702500", "133745.192500", "133746.682500", "133748.172500", "133749.662500", "133751.152500", "133752.642500", "133754.132500", "133755.622500", "133757.112500", "133758.602500", "133800.092500", "133801.582500", "133803.072500", "133804.562500", "133806.052500", "133807.542500", "133809.032500", "133810.522500", "133812.012500", "133813.502500", "133814.992500", "133816.482500", "133817.972500", "133819.462500", "133820.952500", "133822.442500", "133823.932500", "133825.422500", "133826.912500", "133828.402500", "133829.892500", "133831.382500", "133832.872500", "133834.362500", "133835.852500", "133837.342500", "133838.832500", "133840.322500", "133841.812500", "133843.302500", "133844.792500", "133846.282500", "133847.772500", "133849.262500", "133850.752500", "133852.242500", "133853.732500", "133855.222500", "133856.712500", "133858.202500", "133859.692500", "133901.182500", "133902.672500", "133904.162500", "133905.652500", "133907.142500", "133908.632500", "133910.122500", "133911.612500", "133913.102500", "133914.592500", "133916.082500", "133917.572500", "133919.062500", "133920.552500", "133922.042500", "133923.532500", "133925.022500", "133926.512500", "133928.002500", "133929.492500", "133930.982500", "133932.472500", "133933.962500", "133935.452500", "133936.942500", "133938.432500", "133939.922500", "133941.412500", "133942.902500", "133944.392500", "133945.882500", "133947.372500", "133948.862500", "133950.352500", "133951.842500", "133953.332500", "133954.822500", "133956.312500", "133957.802500", "133959.292500", "134000.782500", "134002.272500", "134003.762500", "134005.252500", "134006.742500", "134008.232500", "134009.722500", "134011.212500", "134012.702500", "134014.192500", "134015.682500", "134017.172500", "134018.662500", "134020.152500", "134021.642500", "134023.132500", "134024.622500", "134026.112500", "134027.602500", "134029.092500", "134030.582500", "134032.072500", "134033.562500", "134035.052500", "134036.542500", "134038.032500", "134039.522500", "134041.012500", "134042.502500", "134043.992500", "134045.482500", "134046.972500", "134048.462500", "134049.952500", "134051.442500", "134052.932500", "134054.422500", "134055.912500", "134057.402500", "134058.892500", "134100.382500", "134101.872500", "134103.362500", "134104.852500", "134106.342500", "134107.832500", "134109.322500", "134110.812500", "134112.302500", "134113.792500", "134115.282500", "134116.772500", "134118.262500", "134119.752500", "134121.242500"],
      "ContentTime": ["133742.186000", "133742.190000", "133742.194000", "133742.197000", "133742.201000", "133742.204000", "133742.207000", "133742.211000", "133802.148000", "133802.152000", "133802.155000", "133802.159000", "133802.162000", "133802.166000", "133802.169000", "133802.172000", "133802.176000", "133802.179000", "133802.182000", "133802.186000", "133802.189000", "133802.193000", "133802.196000", "133802.199000", "133802.203000", "133802.206000", "133802.210000", "133802.213000", "133802.217000", "133822.147000", "133822.151000", "133822.154000", "133822.166000", "133822.169000", "133822.172000", "133822.176000", "133822.179000", "133822.183000", "133822.186000", "133822.189000", "133822.193000", "133822.196000", "133822.200000", "133822.203000", "133822.207000", "133822.210000", "133822.213000", "133822.217000", "133822.220000", "133842.147000", "133842.151000", "133842.154000", "133842.158000", "133842.161000", "133842.169000", "133842.172000", "133842.176000", "133842.179000", "133842.182000", "133842.186000", "133842.189000", "133842.193000", "133842.196000", "133842.199000", "133842.203000", "133842.206000", "133842.210000", "133842.213000", "133842.217000", "133902.147000", "133902.152000", "133902.155000", "133902.159000", "133902.162000", "133902.166000", "133902.169000", "133902.173000", "133902.176000", "133902.179000", "133902.183000", "133902.186000", "133902.190000", "133902.193000", "133902.196000", "133902.200000", "133902.203000", "133902.207000", "133902.210000", "133902.214000", "133902.217000", "133942.147000", "133942.151000", "133942.155000", "133942.158000", "133942.161000", "133942.165000", "133942.168000", "133942.172000", "133942.175000", "133942.179000", "133942.182000", "133942.186000", "133942.189000", "133942.192000", "133942.196000", "133942.199000", "133942.202000", "133942.206000", "133942.209000", "133942.213000", "133942.216000", "133942.220000", "133942.223000", "133942.226000", "133942.230000", "133942.233000", "133942.237000", "133942.240000", "133942.244000", "133942.247000", "133942.251000", "134022.148000", "134022.152000", "134022.155000", "134022.159000", "134022.162000", "134022.166000", "134022.169000", "134022.173000", "134022.214000", "134022.217000", "134022.221000", "134022.224000", "134022.236000", "134022.240000", "134022.243000", "134022.259000", "134022.263000", "134022.266000", "134022.269000", "134022.273000", "134022.276000", "134022.280000", "134022.283000", "134022.286000", "134022.290000", "134022.293000", "134022.297000", "134102.147000", "134102.151000", "134102.155000", "134102.158000", "134102.162000", "134102.165000", "134102.168000", "134102.172000", "134102.200000", "134102.204000", "134102.207000", "134102.211000", "134102.214000", "134102.218000", "134102.221000", "134102.224000", "134102.228000", "134102.231000", "134102.234000", "134102.238000", "134102.241000", "134102.245000", "134102.248000", "134102.251000", "134102.255000", "134102.258000", "134102.262000", "134123.640000", "134123.643000", "134123.647000", "134123.651000", "134123.654000", "134123.657000", "134123.661000", "134123.664000", "134123.668000", "134123.671000", "134123.674000", "134123.678000", "134123.681000", "134123.685000", "134123.688000"],
      "InstanceCreationTime": ["133742.186000", "133742.190000", "133742.194000", "133742.197000", "133742.201000", "133742.204000", "133742.207000", "133742.211000", "133802.148000", "133802.152000", "133802.155000", "133802.159000", "133802.162000", "133802.166000", "133802.169000", "133802.172000", "133802.176000", "133802.179000", "133802.182000", "133802.186000", "133802.189000", "133802.193000", "133802.196000", "133802.199000", "133802.203000", "133802.206000", "133802.210000", "133802.213000", "133802.217000", "133822.147000", "133822.151000", "133822.154000", "133822.166000", "133822.169000", "133822.172000", "133822.176000", "133822.179000", "133822.183000", "133822.186000", "133822.189000", "133822.193000", "133822.196000", "133822.200000", "133822.203000", "133822.207000", "133822.210000", "133822.213000", "133822.217000", "133822.220000", "133842.147000", "133842.151000", "133842.154000", "133842.158000", "133842.161000", "133842.169000", "133842.172000", "133842.176000", "133842.179000", "133842.182000", "133842.186000", "133842.189000", "133842.193000", "133842.196000", "133842.199000", "133842.203000", "133842.206000", "133842.210000", "133842.213000", "133842.217000", "133902.147000", "133902.152000", "133902.155000", "133902.159000", "133902.162000", "133902.166000", "133902.169000", "133902.173000", "133902.176000", "133902.179000", "133902.183000", "133902.186000", "133902.190000", "133902.193000", "133902.196000", "133902.200000", "133902.203000", "133902.207000", "133902.210000", "133902.214000", "133902.217000", "133942.147000", "133942.151000", "133942.155000", "133942.158000", "133942.161000", "133942.165000", "133942.168000", "133942.172000", "133942.175000", "133942.179000", "133942.182000", "133942.186000", "133942.189000", "133942.192000", "133942.196000", "133942.199000", "133942.202000", "133942.206000", "133942.209000", "133942.213000", "133942.216000", "133942.220000", "133942.223000", "133942.226000", "133942.230000", "133942.233000", "133942.237000", "133942.240000", "133942.244000", "133942.247000", "133942.251000", "134022.148000", "134022.152000", "134022.155000", "134022.159000", "134022.162000", "134022.166000", "134022.169000", "134022.173000", "134022.214000", "134022.217000", "134022.221000", "134022.224000", "134022.236000", "134022.240000", "134022.243000", "134022.259000", "134022.263000", "134022.266000", "134022.269000", "134022.273000", "134022.276000", "134022.280000", "134022.283000", "134022.286000", "134022.290000", "134022.293000", "134022.297000", "134102.147000", "134102.151000", "134102.155000", "134102.158000", "134102.162000", "134102.165000", "134102.168000", "134102.172000", "134102.200000", "134102.204000", "134102.207000", "134102.211000", "134102.214000", "134102.218000", "134102.221000", "134102.224000", "134102.228000", "134102.231000", "134102.234000", "134102.238000", "134102.241000", "134102.245000", "134102.248000", "134102.251000", "134102.255000", "134102.258000", "134102.262000", "134123.640000", "134123.643000", "134123.647000", "134123.651000", "134123.654000", "134123.657000", "134123.661000", "134123.664000", "134123.668000", "134123.671000", "134123.674000", "134123.678000", "134123.681000", "134123.685000", "134123.688000"],
      "InstanceNumber": [1, 2, 3, 4, 5, 6, 7, 8, 9, 10, 11, 12, 13, 14, 15, 16, 17, 18, 19, 20, 21, 22, 23, 24, 25, 26, 27, 28, 29, 30, 31, 32, 33, 34, 35, 36, 37, 38, 39, 40, 41, 42, 43, 44, 45, 46, 47, 48, 49, 50, 51, 52, 53, 54, 55, 56, 57, 58, 59, 60, 61, 62, 63, 64, 65, 66, 67, 68, 69, 70, 71, 72, 73, 74, 75, 76, 77, 78, 79, 80, 81, 82, 83, 84, 85, 86, 87, 88, 89, 90, 91, 92, 93, 94, 95, 96, 97, 98, 99, 100, 101, 102, 103, 104, 105, 106, 107, 108, 109, 110, 111, 112, 113, 114, 115, 116, 117, 118, 119, 120, 121, 122, 123, 124, 125, 126, 127, 128, 129, 130, 131, 132, 133, 134, 135, 136, 137, 138, 139, 140, 141, 142, 143, 144, 145, 146, 147, 148, 149, 150, 151, 152, 153, 154, 155, 156, 157, 158, 159, 160, 161, 162, 163, 164, 165, 166, 167, 168, 169, 170, 171, 172, 173, 174, 175, 176, 177, 178, 179, 180, 181, 182, 183, 184, 185, 186, 187, 188, 189, 190],
      "LargestImagePixelValue": [42557, 41834, 41027, 41015, 40906, 40082, 40123, 40199, 40656, 40732, 39915, 39711, 40491, 40417, 40643, 40007, 39563, 40136, 40514, 40435, 40626, 40227, 40130, 40264, 40316, 40540, 40666, 39605, 40140, 41119, 40772, 40716, 39990, 40097, 40331, 40377, 40606, 40477, 39994, 39872, 39946, 40710, 40869, 40142, 39966, 40175, 40275, 40647, 40725, 40674, 40122, 39655, 39821, 40765, 40789, 40979, 40070, 40373, 40601, 40874, 40946, 41165, 40584, 40008, 40400, 40699, 40975, 40766, 40017, 40620, 40617, 40582, 40095, 40395, 40138, 40784, 40532, 40674, 41024, 40040, 39593, 40065, 40685, 41074, 40356, 40103, 39871, 40108, 40621, 40564, 40508, 39851, 40050, 40277, 40126, 41035, 40563, 40083, 39493, 40519, 40184, 40309, 40743, 39948, 39910, 40401, 40325, 40498, 40450, 40786, 39827, 40045, 40065, 40434, 40740, 40237, 40303, 40023, 39118, 39825, 40483, 39969, 40005, 40189, 40142, 40052, 39308, 39965, 39861, 40000, 40636, 40542, 40003, 40028, 39449, 40351, 40238, 40464, 40133, 39325, 39700, 39664, 40364, 40331, 40319, 39857, 39834, 40026, 39999, 40566, 40067, 39799, 39597, 39592, 39764, 40127, 40486, 40075, 39221, 39207, 39867, 40153, 40329, 40181, 39911, 39709, 39769, 39910, 39952, 39719, 39247, 39244, 39470, 39763, 40410, 39355, 39652, 39325, 40063, 40125, 40011, 39510, 39882, 40136, 39933, 40048, 39617, 39132, 39932, 39910],
      "WindowCenter": [10218.0, 10182.0, 10170.0, 10161.0, 10161.0, 10147.0, 10143.0, 10151.0, 10152.0, 10169.0, 10171.0, 10175.0, 10186.0, 10190.0, 10193.0, 10181.0, 10191.0, 10207.0, 10222.0, 10214.0, 10221.0, 10213.0, 10209.0, 10208.0, 10200.0, 10211.0, 10220.0, 10209.0, 10210.0, 10214.0, 10212.0, 10204.0, 10198.0, 10197.0, 10198.0, 10182.0, 10175.0, 10175.0, 10181.0, 10174.0, 10181.0, 10185.0, 10183.0, 10178.0, 10183.0, 10186.0, 10173.0, 10170.0, 10185.0, 10197.0, 10192.0, 10182.0, 10176.0, 10187.0, 10204.0, 10209.0, 10183.0, 10172.0, 10170.0, 10170.0, 10176.0, 10176.0, 10178.0, 10173.0, 10173.0, 10168.0, 10167.0, 10169.0, 10180.0, 10178.0, 10171.0, 10162.0, 10163.0, 10178.0, 10173.0, 10177.0, 10177.0, 10184.0, 10191.0, 10197.0, 10185.0, 10166.0, 10148.0, 10164.0, 10169.0, 10189.0, 10191.0, 10185.0, 10180.0, 10178.0, 10185.0, 10181.0, 10182.0, 10180.0, 10173.0, 10176.0, 10167.0, 10164.0, 10168.0, 10179.0, 10181.0, 10166.0, 10170.0, 10171.0, 10181.0, 10180.0, 10183.0, 10188.0, 10198.0, 10214.0, 10197.0, 10169.0, 10141.0, 10151.0, 10201.0, 10223.0, 10217.0, 10192.0, 10155.0, 10133.0, 10135.0, 10136.0, 10139.0, 10147.0, 10147.0, 10140.0, 10131.0, 10139.0, 10153.0, 10157.0, 10160.0, 10160.0, 10156.0, 10164.0, 10164.0, 10165.0, 10173.0, 10172.0, 10171.0, 10174.0, 10175.0, 10159.0, 10147.0, 10145.0, 10150.0, 10162.0, 10175.0, 10181.0, 10173.0, 10184.0, 10196.0, 10184.0, 10175.0, 10156.0, 10157.0, 10179.0, 10196.0, 10183.0, 10153.0, 10134.0, 10131.0, 10145.0, 10161.0, 10179.0, 10172.0, 10159.0, 10158.0, 10166.0, 10166.0, 10173.0, 10176.0, 10169.0, 10152.0, 10156.0, 10162.0, 10175.0, 10183.0, 10171.0, 10166.0, 10167.0, 10156.0, 10154.0, 10173.0, 10184.0, 10176.0, 10165.0, 10148.0, 10145.0, 10170.0, 10167.0],
      "WindowWidth": [21785.0, 21678.0, 21640.0, 21611.0, 21606.0, 21575.0, 21559.0, 21578.0, 21582.0, 21621.0, 21628.0, 21640.0, 21661.0, 21672.0, 21676.0, 21652.0, 21676.0, 21713.0, 21744.0, 21728.0, 21741.0, 21725.0, 21720.0, 21715.0, 21697.0, 21718.0, 21740.0, 21716.0, 21720.0, 21724.0, 21718.0, 21699.0, 21688.0, 21687.0, 21690.0, 21653.0, 21631.0, 21633.0, 21653.0, 21638.0, 21652.0, 21655.0, 21649.0, 21640.0, 21654.0, 21658.0, 21630.0, 21622.0, 21654.0, 21685.0, 21676.0, 21650.0, 21638.0, 21662.0, 21702.0, 21709.0, 21654.0, 21627.0, 21622.0, 21620.0, 21634.0, 21635.0, 21642.0, 21631.0, 21631.0, 21615.0, 21614.0, 21621.0, 21647.0, 21638.0, 21622.0, 21604.0, 21605.0, 21640.0, 21630.0, 21638.0, 21639.0, 21653.0, 21668.0, 21686.0, 21660.0, 21613.0, 21569.0, 21603.0, 21620.0, 21667.0, 21674.0, 21659.0, 21646.0, 21641.0, 21656.0, 21650.0, 21651.0, 21645.0, 21630.0, 21634.0, 21614.0, 21609.0, 21622.0, 21644.0, 21646.0, 21613.0, 21619.0, 21625.0, 21650.0, 21646.0, 21652.0, 21663.0, 21686.0, 21724.0, 21688.0, 21620.0, 21556.0, 21577.0, 21695.0, 21746.0, 21731.0, 21673.0, 21592.0, 21536.0, 21537.0, 21543.0, 21552.0, 21569.0, 21567.0, 21553.0, 21532.0, 21550.0, 21581.0, 21592.0, 21596.0, 21595.0, 21588.0, 21607.0, 21606.0, 21611.0, 21628.0, 21627.0, 21622.0, 21632.0, 21636.0, 21598.0, 21570.0, 21562.0, 21573.0, 21604.0, 21637.0, 21649.0, 21632.0, 21653.0, 21684.0, 21656.0, 21634.0, 21588.0, 21594.0, 21642.0, 21681.0, 21654.0, 21587.0, 21540.0, 21532.0, 21564.0, 21604.0, 21643.0, 21629.0, 21602.0, 21599.0, 21617.0, 21618.0, 21632.0, 21640.0, 21621.0, 21582.0, 21589.0, 21603.0, 21635.0, 21653.0, 21629.0, 21612.0, 21614.0, 21588.0, 21587.0, 21628.0, 21655.0, 21636.0, 21608.0, 21568.0, 21566.0, 21619.0, 21613.0]
    },
    "slices": {}
  }
}