{
  "AcquisitionMatrixPE": 104,
  "AcquisitionNumber": 1,
  "AcquisitionTime": "13:54:51.077500",
  "BandwidthPerPixelPhaseEncode": 17.17,
  "BaseResolution": 104,
  "BodyPartExamined": "BRAIN",
  "CoilString": "HC1-7;NC1_2",
  "ConsistencyInfo": "N4_VE11C_LATEST_20160120",
  "ConversionSoftware": "dcm2niix",
  "ConversionSoftwareVersion": "v1.0.20190902",
  "DerivedVendorReportedEchoSpacing": 0.000560011,
  "DeviceSerialNumber": "167006",
  "DwellTime": 2.1e-06,
  "EchoTime": 0.037,
  "EchoTrainLength": 104,
  "EffectiveEchoSpacing": 0.000560011,
  "FlipAngle": 52,
  "ImageComments": "Unaliased_MB4_PE3_LB",
  "ImageOrientationPatientDICOM": [0.999579, 0.0275586, 0.00912839, -0.0242545, 0.965552, -0.259079],
  "ImageType": [
    "ORIGINAL",
    "PRIMARY",
    "P",
    "MB",
    "ND",
    "MOSAIC"
],
  "ImagingFrequency": 123.259,
  "InPlanePhaseEncodingDirectionDICOM": "COL",
  "InstitutionAddress": "Chemin_Queen-Mary_4565_Montreal_District_CA_H3W_1W5",
  "InstitutionName": "IUGM",
  "InstitutionalDepartmentName": "Department",
  "MRAcquisitionType": "2D",
  "MagneticFieldStrength": 3,
  "Manufacturer": "Siemens",
  "ManufacturersModelName": "Prisma_fit",
  "Modality": "MR",
  "MultibandAccelerationFactor": 4,
  "PartialFourier": 1,
  "PatientPosition": "HFS",
  "PercentPhaseFOV": 100,
  "PhaseEncodingDirection": "j",
  "PhaseEncodingSteps": 104,
  "PhaseResolution": 1,
  "PixelBandwidth": 2290,
  "ProcedureStepDescription": "memory_things",
  "ProtocolName": "func_task-things_run-6",
  "PulseSequenceDetails": "%CustomerSeq%_cmrr_mbep2d_bold",
  "ReceiveCoilActiveElements": "HC1-7;NC1,2",
  "ReceiveCoilName": "HeadNeck_64",
  "ReconMatrixPE": 104,
  "RepetitionTime": 1.49,
  "SAR": 0.0524067,
  "ScanOptions": "FS",
  "ScanningSequence": "EP",
  "SequenceName": "epfid2d1_104",
  "SequenceVariant": "SK_SS",
  "SeriesDescription": "func_task-things_run-6",
  "SeriesNumber": 26,
  "ShimSetting": [636, -7200, -8782, 680, 42, 29, 81, -21],
  "SliceThickness": 2,
  "SliceTiming": [0, 0.7825, 0.0975, 0.8825, 0.195, 0.98, 0.295, 1.0775, 0.3925, 1.175, 0.49, 1.2725, 0.5875, 1.3725, 0.685, 0, 0.7825, 0.0975, 0.8825, 0.195, 0.98, 0.295, 1.0775, 0.3925, 1.175, 0.49, 1.2725, 0.5875, 1.3725, 0.685, 0, 0.7825, 0.0975, 0.8825, 0.195, 0.98, 0.295, 1.0775, 0.3925, 1.175, 0.49, 1.2725, 0.5875, 1.3725, 0.685, 0, 0.7825, 0.0975, 0.8825, 0.195, 0.98, 0.295, 1.0775, 0.3925, 1.175, 0.49, 1.2725, 0.5875, 1.3725, 0.685],
  "SoftwareVersions": "syngo_MR_E11",
  "SpacingBetweenSlices": 2,
  "StationName": "MRC35049",
  "TaskName": "things",
  "TotalReadoutTime": 0.0576811,
  "TxRefAmp": 235.931,
  "WipMemBlock": "4e185252-ef69-4daf-ba21-c35282eebfb8||Sequence: R016 ve11c/master r/e634e98; Dec 19 2017 11:00:25 by eja",
  "dcmmeta_affine": [
    [-1.9991570711135864, -0.048509079962968826, 0.031907569617033005, 110.72010040283203],
    [-0.05511727184057236, 1.9311033487319946, -0.5174958109855652, -70.93833923339844],
    [0.018256785348057747, 0.5181570053100586, 1.9316262006759644, -56.86748504638672],
    [0.0, 0.0, 0.0, 1.0]
],
  "dcmmeta_reorient_transform": [
    [0.0, -1.0, 0.0, 103.0],
    [1.0, 0.0, 0.0, 0.0],
    [0.0, 0.0, 1.0, 0.0],
    [0.0, 0.0, 0.0, 1.0]
],
  "dcmmeta_shape": [104, 104, 60, 190],
  "dcmmeta_slice_dim": 2,
  "dcmmeta_version": 0.6,
  "global": {
    "const": {
      "AcquisitionMatrix": [104, 0, 0, 104],
      "AngioFlag": "N",
      "BitsAllocated": 16,
      "BitsStored": 16,
      "BodyPartExamined": "BRAIN",
      "Columns": 832,
      "EchoNumbers": 1,
      "EchoTime": 37.0,
      "EchoTrainLength": 104,
      "FlipAngle": 52.0,
      "HighBit": 15,
      "ImageOrientationPatient": [0.99957850820091, 0.02755863557292, 0.00912839242119, -0.0242545397838, 0.96555168095102, -0.2590784991321],
      "ImagePositionPatient": [-815.75951736621, -850.94961852248, 178.46636422598],
      "ImageType": [
        "ORIGINAL",
        "PRIMARY",
        "P",
        "MB",
        "ND",
        "MOSAIC"
],
      "ImagedNucleus": "1H",
      "ImagingFrequency": 123.258984,
      "InPlanePhaseEncodingDirection": "COL",
      "LargestImagePixelValue": 4095,
      "MRAcquisitionType": "2D",
      "MagneticFieldStrength": 3.0,
      "Manufacturer": "SIEMENS",
      "ManufacturerModelName": "Prisma_fit",
      "Modality": "MR",
      "NumberOfAverages": 1.0,
      "NumberOfPhaseEncodingSteps": 104,
      "PercentPhaseFieldOfView": 100.0,
      "PercentSampling": 100.0,
      "PerformedProcedureStepStartTime": "130031.899000",
      "PhotometricInterpretation": "MONOCHROME2",
      "PixelBandwidth": 2290.0,
      "PixelRepresentation": 0,
      "PixelSpacing": [2.0, 2.0],
      "ProtocolName": "func_task-things_run-6",
      "RepetitionTime": 1490.0,
      "RescaleIntercept": -4096.0,
      "RescaleSlope": 2.0,
      "RescaleType": "US",
      "Rows": 832,
      "SAR": 0.05240673787494,
      "SamplesPerPixel": 1,
      "ScanOptions": "FS",
      "ScanningSequence": "EP",
      "SequenceName": "epfid2d1_104",
      "SequenceVariant": [
        "SK",
        "SS"
],
      "SeriesDescription": "func_task-things_run-6",
      "SeriesNumber": 26,
      "SeriesTime": "135602.299000",
      "SliceLocation": -34.801812696301,
      "SliceThickness": 2.0,
      "SmallestImagePixelValue": 0,
      "SoftwareVersions": "syngo MR E11",
      "SpacingBetweenSlices": 1.9999999775106,
      "SpecificCharacterSet": "ISO_IR 100",
      "StudyID": "1",
      "StudyTime": "130031.753000",
      "TransmitCoilName": "Body",
      "VariableFlipAngleFlag": "N",
      "WindowCenterWidthExplanation": "Algo1",
      "dBdt": 0.0},
    "slices": {}
  },
  "time": {
    "samples": {
      "AcquisitionNumber": [1, 2, 3, 4, 5, 6, 7, 8, 9, 10, 11, 12, 13, 14, 15, 16, 17, 18, 19, 20, 21, 22, 23, 24, 25, 26, 27, 28, 29, 30, 31, 32, 33, 34, 35, 36, 37, 38, 39, 40, 41, 42, 43, 44, 45, 46, 47, 48, 49, 50, 51, 52, 53, 54, 55, 56, 57, 58, 59, 60, 61, 62, 63, 64, 65, 66, 67, 68, 69, 70, 71, 72, 73, 74, 75, 76, 77, 78, 79, 80, 81, 82, 83, 84, 85, 86, 87, 88, 89, 90, 91, 92, 93, 94, 95, 96, 97, 98, 99, 100, 101, 102, 103, 104, 105, 106, 107, 108, 109, 110, 111, 112, 113, 114, 115, 116, 117, 118, 119, 120, 121, 122, 123, 124, 125, 126, 127, 128, 129, 130, 131, 132, 133, 134, 135, 136, 137, 138, 139, 140, 141, 142, 143, 144, 145, 146, 147, 148, 149, 150, 151, 152, 153, 154, 155, 156, 157, 158, 159, 160, 161, 162, 163, 164, 165, 166, 167, 168, 169, 170, 171, 172, 173, 174, 175, 176, 177, 178, 179, 180, 181, 182, 183, 184, 185, 186, 187, 188, 189, 190],
      "AcquisitionTime": ["135451.077500", "135452.567500", "135454.057500", "135455.547500", "135457.037500", "135458.527500", "135500.017500", "135501.507500", "135502.997500", "135504.487500", "135505.977500", "135507.467500", "135508.957500", "135510.447500", "135511.937500", "135513.427500", "135514.917500", "135516.407500", "135517.897500", "135519.387500", "135520.877500", "135522.367500", "135523.857500", "135525.347500", "135526.837500", "135528.327500", "135529.817500", "135531.307500", "135532.797500", "135534.287500", "135535.777500", "135537.267500", "135538.757500", "135540.247500", "135541.737500", "135543.227500", "135544.717500", "135546.207500", "135547.697500", "135549.187500", "135550.677500", "135552.167500", "135553.657500", "135555.147500", "135556.637500", "135558.127500", "135559.617500", "135601.107500", "135602.597500", "135604.087500", "135605.577500", "135607.067500", "135608.557500", "135610.047500", "135611.537500", "135613.027500", "135614.517500", "135616.007500", "135617.497500", "135618.987500", "135620.477500", "135621.967500", "135623.457500", "135624.947500", "135626.437500", "135627.927500", "135629.417500", "135630.907500", "135632.397500", "135633.887500", "135635.377500", "135636.867500", "135638.357500", "135639.847500", "135641.337500", "135642.827500", "135644.317500", "135645.807500", "135647.297500", "135648.787500", "135650.277500", "135651.767500", "135653.257500", "135654.747500", "135656.237500", "135657.727500", "135659.217500", "135700.707500", "135702.197500", "135703.687500", "135705.177500", "135706.667500", "135708.157500", "135709.647500", "135711.137500", "135712.627500", "135714.117500", "135715.607500", "135717.097500", "135718.587500", "135720.077500", "135721.567500", "135723.057500", "135724.547500", "135726.037500", "135727.527500", "135729.017500", "135730.507500", "135731.997500", "135733.487500", "135734.977500", "135736.467500", "135737.957500", "135739.447500", "135740.937500", "135742.427500", "135743.917500", "135745.407500", "135746.897500", "135748.387500", "135749.877500", "135751.367500", "135752.857500", "135754.347500", "135755.837500", "135757.327500", "135758.817500", "135800.307500", "135801.797500", "135803.287500", "135804.777500", "135806.267500", "135807.757500", "135809.247500", "135810.737500", "135812.227500", "135813.717500", "135815.207500", "135816.697500", "135818.187500", "135819.677500", "135821.167500", "135822.657500", "135824.147500", "135825.637500", "135827.127500", "135828.617500", "135830.107500", "135831.597500", "135833.087500", "135834.577500", "135836.067500", "135837.557500", "135839.047500", "135840.537500", "135842.027500", "135843.517500", "135845.007500", "135846.497500", "135847.987500", "135849.477500", "135850.967500", "135852.457500", "135853.947500", "135855.437500", "135856.927500", "135858.417500", "135859.907500", "135901.397500", "135902.887500", "135904.377500", "135905.867500", "135907.357500", "135908.847500", "135910.337500", "135911.827500", "135913.317500", "135914.807500", "135916.297500", "135917.787500", "135919.277500", "135920.767500", "135922.257500", "135923.747500", "135925.237500", "135926.727500", "135928.217500", "135929.707500", "135931.197500", "135932.687500"],
      "ContentTime": ["135602.301000", "135602.304000", "135602.307000", "135602.315000", "135602.318000", "135602.321000", "135602.323000", "135602.326000", "135602.328000", "135602.331000", "135602.333000", "135602.336000", "135602.338000", "135602.341000", "135602.344000", "135622.273000", "135622.276000", "135622.279000", "135622.282000", "135622.285000", "135622.287000", "135622.290000", "135622.292000", "135622.295000", "135622.298000", "135622.300000", "135622.303000", "135622.305000", "135622.308000", "135622.310000", "135622.313000", "135622.315000", "135622.318000", "135622.320000", "135622.323000", "135642.266000", "135642.269000", "135642.272000", "135642.274000", "135642.277000", "135642.279000", "135642.282000", "135642.284000", "135642.287000", "135642.289000", "135642.292000", "135642.294000", "135642.297000", "135642.299000", "135642.302000", "135642.304000", "135642.307000", "135642.309000", "135642.312000", "135642.314000", "135642.316000", "135702.259000", "135702.262000", "135702.265000", "135702.267000", "135702.270000", "135702.272000", "135702.275000", "135702.277000", "135702.280000", "135702.282000", "135702.285000", "135702.287000", "135702.290000", "135702.292000", "135702.295000", "135702.298000", "135702.300000", "135702.303000", "135702.305000", "135702.308000", "135722.258000", "135722.261000", "135722.264000", "135722.266000", "135722.269000", "135722.271000", "135722.274000", "135722.276000", "135722.279000", "135722.281000", "135722.284000", "135722.286000", "135722.289000", "135722.291000", "135722.294000", "135722.296000", "135722.299000", "135722.301000", "135722.304000", "135722.306000", "135802.314000", "135802.317000", "135802.319000", "135802.322000", "135802.324000", "135802.327000", "135802.330000", "135802.333000", "135802.336000", "135802.338000", "135802.341000", "135802.343000", "135802.346000", "135802.348000", "135802.351000", "135802.353000", "135802.356000", "135802.358000", "135802.361000", "135802.363000", "135802.366000", "135802.368000", "135802.371000", "135802.373000", "135802.376000", "135802.378000", "135802.381000", "135802.383000", "135802.386000", "135802.389000", "135802.391000", "135842.885000", "135842.888000", "135842.891000", "135842.893000", "135842.896000", "135842.898000", "135842.901000", "135842.903000", "135842.906000", "135842.908000", "135842.911000", "135842.913000", "135842.916000", "135842.919000", "135842.921000", "135842.924000", "135842.926000", "135842.929000", "135842.931000", "135842.934000", "135842.936000", "135842.939000", "135842.941000", "135842.944000", "135842.946000", "135842.949000", "135842.952000", "135922.300000", "135922.302000", "135922.305000", "135922.308000", "135922.310000", "135922.313000", "135922.315000", "135922.318000", "135922.320000", "135922.323000", "135922.325000", "135922.328000", "135922.330000", "135922.333000", "135922.335000", "135922.338000", "135922.340000", "135922.343000", "135922.346000", "135922.348000", "135922.351000", "135922.353000", "135922.356000", "135922.358000", "135922.361000", "135922.364000", "135922.366000", "135934.996000", "135935.000000", "135935.003000", "135935.005000", "135935.008000", "135935.010000", "135935.013000", "135935.016000", "135935.018000"],
      "InstanceCreationTime": ["135602.301000", "135602.304000", "135602.307000", "135602.315000", "135602.318000", "135602.321000", "135602.323000", "135602.326000", "135602.328000", "135602.331000", "135602.333000", "135602.336000", "135602.338000", "135602.341000", "135602.344000", "135622.273000", "135622.276000", "135622.279000", "135622.282000", "135622.285000", "135622.287000", "135622.290000", "135622.292000", "135622.295000", "135622.298000", "135622.300000", "135622.303000", "135622.305000", "135622.308000", "135622.310000", "135622.313000", "135622.315000", "135622.318000", "135622.320000", "135622.323000", "135642.266000", "135642.269000", "135642.272000", "135642.274000", "135642.277000", "135642.279000", "135642.282000", "135642.284000", "135642.287000", "135642.289000", "135642.292000", "135642.294000", "135642.297000", "135642.299000", "135642.302000", "135642.304000", "135642.307000", "135642.309000", "135642.312000", "135642.314000", "135642.316000", "135702.259000", "135702.262000", "135702.265000", "135702.267000", "135702.270000", "135702.272000", "135702.275000", "135702.277000", "135702.280000", "135702.282000", "135702.285000", "135702.287000", "135702.290000", "135702.292000", "135702.295000", "135702.298000", "135702.300000", "135702.303000", "135702.305000", "135702.308000", "135722.258000", "135722.261000", "135722.264000", "135722.266000", "135722.269000", "135722.271000", "135722.274000", "135722.276000", "135722.279000", "135722.281000", "135722.284000", "135722.286000", "135722.289000", "135722.291000", "135722.294000", "135722.296000", "135722.299000", "135722.301000", "135722.304000", "135722.306000", "135802.314000", "135802.317000", "135802.319000", "135802.322000", "135802.324000", "135802.327000", "135802.330000", "135802.333000", "135802.336000", "135802.338000", "135802.341000", "135802.343000", "135802.346000", "135802.348000", "135802.351000", "135802.353000", "135802.356000", "135802.358000", "135802.361000", "135802.363000", "135802.366000", "135802.368000", "135802.371000", "135802.373000", "135802.376000", "135802.378000", "135802.381000", "135802.383000", "135802.386000", "135802.389000", "135802.391000", "135842.885000", "135842.888000", "135842.891000", "135842.893000", "135842.896000", "135842.898000", "135842.901000", "135842.903000", "135842.906000", "135842.908000", "135842.911000", "135842.913000", "135842.916000", "135842.919000", "135842.921000", "135842.924000", "135842.926000", "135842.929000", "135842.931000", "135842.934000", "135842.936000", "135842.939000", "135842.941000", "135842.944000", "135842.946000", "135842.949000", "135842.952000", "135922.300000", "135922.302000", "135922.305000", "135922.308000", "135922.310000", "135922.313000", "135922.315000", "135922.318000", "135922.320000", "135922.323000", "135922.325000", "135922.328000", "135922.330000", "135922.333000", "135922.335000", "135922.338000", "135922.340000", "135922.343000", "135922.346000", "135922.348000", "135922.351000", "135922.353000", "135922.356000", "135922.358000", "135922.361000", "135922.364000", "135922.366000", "135934.996000", "135935.000000", "135935.003000", "135935.005000", "135935.008000", "135935.010000", "135935.013000", "135935.016000", "135935.018000"],
      "InstanceNumber": [1, 2, 3, 4, 5, 6, 7, 8, 9, 10, 11, 12, 13, 14, 15, 16, 17, 18, 19, 20, 21, 22, 23, 24, 25, 26, 27, 28, 29, 30, 31, 32, 33, 34, 35, 36, 37, 38, 39, 40, 41, 42, 43, 44, 45, 46, 47, 48, 49, 50, 51, 52, 53, 54, 55, 56, 57, 58, 59, 60, 61, 62, 63, 64, 65, 66, 67, 68, 69, 70, 71, 72, 73, 74, 75, 76, 77, 78, 79, 80, 81, 82, 83, 84, 85, 86, 87, 88, 89, 90, 91, 92, 93, 94, 95, 96, 97, 98, 99, 100, 101, 102, 103, 104, 105, 106, 107, 108, 109, 110, 111, 112, 113, 114, 115, 116, 117, 118, 119, 120, 121, 122, 123, 124, 125, 126, 127, 128, 129, 130, 131, 132, 133, 134, 135, 136, 137, 138, 139, 140, 141, 142, 143, 144, 145, 146, 147, 148, 149, 150, 151, 152, 153, 154, 155, 156, 157, 158, 159, 160, 161, 162, 163, 164, 165, 166, 167, 168, 169, 170, 171, 172, 173, 174, 175, 176, 177, 178, 179, 180, 181, 182, 183, 184, 185, 186, 187, 188, 189, 190],
      "WindowCenter": [4828.0, 4832.0, 4830.0, 4834.0, 4826.0, 4832.0, 4828.0, 4832.0, 4826.0, 4830.0, 4828.0, 4832.0, 4830.0, 4832.0, 4830.0, 4832.0, 4826.0, 4832.0, 4828.0, 4832.0, 4830.0, 4834.0, 4832.0, 4832.0, 4830.0, 4826.0, 4828.0, 4830.0, 4828.0, 4830.0, 4828.0, 4828.0, 4834.0, 4830.0, 4834.0, 4832.0, 4832.0, 4830.0, 4832.0, 4830.0, 4830.0, 4828.0, 4828.0, 4830.0, 4834.0, 4828.0, 4830.0, 4832.0, 4828.0, 4834.0, 4830.0, 4830.0, 4826.0, 4830.0, 4826.0, 4832.0, 4830.0, 4832.0, 4832.0, 4832.0, 4828.0, 4830.0, 4832.0, 4830.0, 4830.0, 4830.0, 4828.0, 4832.0, 4826.0, 4834.0, 4830.0, 4832.0, 4830.0, 4832.0, 4830.0, 4832.0, 4832.0, 4828.0, 4828.0, 4828.0, 4832.0, 4828.0, 4832.0, 4828.0, 4830.0, 4830.0, 4830.0, 4830.0, 4830.0, 4830.0, 4832.0, 4834.0, 4830.0, 4832.0, 4832.0, 4834.0, 4832.0, 4838.0, 4830.0, 4832.0, 4826.0, 4834.0, 4832.0, 4834.0, 4832.0, 4832.0, 4830.0, 4834.0, 4832.0, 4832.0, 4830.0, 4830.0, 4834.0, 4832.0, 4830.0, 4828.0, 4830.0, 4828.0, 4832.0, 4830.0, 4832.0, 4830.0, 4832.0, 4832.0, 4832.0, 4828.0, 4828.0, 4830.0, 4834.0, 4830.0, 4830.0, 4832.0, 4832.0, 4830.0, 4828.0, 4828.0, 4834.0, 4828.0, 4836.0, 4830.0, 4834.0, 4830.0, 4834.0, 4832.0, 4830.0, 4832.0, 4828.0, 4834.0, 4830.0, 4828.0, 4830.0, 4830.0, 4836.0, 4830.0, 4830.0, 4832.0, 4832.0, 4830.0, 4832.0, 4830.0, 4832.0, 4832.0, 4834.0, 4834.0, 4834.0, 4830.0, 4832.0, 4832.0, 4834.0, 4832.0, 4834.0, 4830.0, 4832.0, 4834.0, 4830.0, 4830.0, 4834.0, 4858.0, 4834.0, 4834.0, 4832.0, 4834.0, 4832.0, 4830.0, 4832.0, 4832.0, 4836.0, 4828.0, 4832.0, 4832.0],
      "WindowWidth": [18590.0, 18590.0, 18594.0, 18590.0, 18588.0, 18588.0, 18594.0, 18592.0, 18592.0, 18592.0, 18590.0, 18588.0, 18588.0, 18592.0, 18594.0, 18592.0, 18590.0, 18598.0, 18584.0, 18590.0, 18594.0, 18594.0, 18592.0, 18586.0, 18590.0, 18588.0, 18592.0, 18590.0, 18590.0, 18596.0, 18588.0, 18588.0, 18594.0, 18590.0, 18590.0, 18594.0, 18586.0, 18594.0, 18588.0, 18588.0, 18592.0, 18590.0, 18588.0, 18590.0, 18590.0, 18588.0, 18588.0, 18594.0, 18590.0, 18594.0, 18590.0, 18586.0, 18588.0, 18592.0, 18582.0, 18594.0, 18592.0, 18594.0, 18592.0, 18592.0, 18588.0, 18588.0, 18592.0, 18588.0, 18596.0, 18588.0, 18592.0, 18592.0, 18590.0, 18596.0, 18590.0, 18590.0, 18592.0, 18586.0, 18592.0, 18590.0, 18590.0, 18590.0, 18590.0, 18590.0, 18592.0, 18590.0, 18598.0, 18590.0, 18590.0, 18592.0, 18586.0, 18588.0, 18592.0, 18592.0, 18590.0, 18596.0, 18590.0, 18596.0, 18588.0, 18596.0, 18590.0, 18594.0, 18586.0, 18592.0, 18588.0, 18596.0, 18592.0, 18596.0, 18592.0, 18592.0, 18590.0, 18590.0, 18592.0, 18586.0, 18590.0, 18588.0, 18598.0, 18592.0, 18592.0, 18588.0, 18590.0, 18590.0, 18586.0, 18586.0, 18592.0, 18594.0, 18592.0, 18596.0, 18588.0, 18590.0, 18586.0, 18590.0, 18590.0, 18594.0, 18588.0, 18592.0, 18586.0, 18588.0, 18584.0, 18588.0, 18596.0, 18582.0, 18590.0, 18592.0, 18596.0, 18594.0, 18596.0, 18598.0, 18588.0, 18590.0, 18590.0, 18594.0, 18592.0, 18588.0, 18588.0, 18588.0, 18594.0, 18586.0, 18586.0, 18590.0, 18592.0, 18592.0, 18594.0, 18586.0, 18592.0, 18594.0, 18592.0, 18586.0, 18596.0, 18588.0, 18588.0, 18596.0, 18586.0, 18588.0, 18592.0, 18586.0, 18590.0, 18594.0, 18596.0, 18590.0, 18594.0, 18624.0, 18594.0, 18594.0, 18590.0, 18594.0, 18592.0, 18586.0, 18594.0, 18586.0, 18592.0, 18592.0, 18592.0, 18592.0]
    },
    "slices": {}
  }
}