{
  "AcquisitionMatrixPE": 104,
  "AcquisitionNumber": 1,
  "AcquisitionTime": "13:30:39.130000",
  "BandwidthPerPixelPhaseEncode": 17.17,
  "BaseResolution": 104,
  "BodyPartExamined": "BRAIN",
  "CoilString": "HC1-7;NC1_2",
  "ConsistencyInfo": "N4_VE11C_LATEST_20160120",
  "ConversionSoftware": "dcm2niix",
  "ConversionSoftwareVersion": "v1.0.20190902",
  "DerivedVendorReportedEchoSpacing": 0.000560011,
  "DeviceSerialNumber": "167006",
  "DwellTime": 2.1e-06,
  "EchoTime": 0.037,
  "EchoTrainLength": 104,
  "EffectiveEchoSpacing": 0.000560011,
  "FlipAngle": 52,
  "ImageComments": "Unaliased_MB4_PE3_LB",
  "ImageOrientationPatientDICOM": [0.999579, 0.0275586, 0.00912839, -0.0242545, 0.965552, -0.259079],
  "ImageType": [
    "ORIGINAL",
    "PRIMARY",
    "M",
    "MB",
    "ND",
    "MOSAIC"
],
  "ImagingFrequency": 123.259,
  "InPlanePhaseEncodingDirectionDICOM": "COL",
  "InstitutionAddress": "Chemin_Queen-Mary_4565_Montreal_District_CA_H3W_1W5",
  "InstitutionName": "IUGM",
  "InstitutionalDepartmentName": "Department",
  "MRAcquisitionType": "2D",
  "MagneticFieldStrength": 3,
  "Manufacturer": "Siemens",
  "ManufacturersModelName": "Prisma_fit",
  "Modality": "MR",
  "MultibandAccelerationFactor": 4,
  "PartialFourier": 1,
  "PatientPosition": "HFS",
  "PercentPhaseFOV": 100,
  "PhaseEncodingDirection": "j",
  "PhaseEncodingSteps": 104,
  "PhaseResolution": 1,
  "PixelBandwidth": 2290,
  "ProcedureStepDescription": "memory_things",
  "ProtocolName": "func_task-things_run-2",
  "PulseSequenceDetails": "%CustomerSeq%_cmrr_mbep2d_bold",
  "ReceiveCoilActiveElements": "HC1-7;NC1,2",
  "ReceiveCoilName": "HeadNeck_64",
  "ReconMatrixPE": 104,
  "RepetitionTime": 1.49,
  "SAR": 0.0524067,
  "ScanOptions": "FS",
  "ScanningSequence": "EP",
  "SequenceName": "epfid2d1_104",
  "SequenceVariant": "SK_SS",
  "SeriesDescription": "func_task-things_run-2",
  "SeriesNumber": 13,
  "ShimSetting": [636, -7200, -8782, 680, 42, 29, 81, -21],
  "SliceThickness": 2,
  "SliceTiming": [0, 0.785, 0.0975, 0.8825, 0.195, 0.98, 0.295, 1.0775, 0.3925, 1.175, 0.49, 1.275, 0.5875, 1.3725, 0.685, 0, 0.785, 0.0975, 0.8825, 0.195, 0.98, 0.295, 1.0775, 0.3925, 1.175, 0.49, 1.275, 0.5875, 1.3725, 0.685, 0, 0.785, 0.0975, 0.8825, 0.195, 0.98, 0.295, 1.0775, 0.3925, 1.175, 0.49, 1.275, 0.5875, 1.3725, 0.685, 0, 0.785, 0.0975, 0.8825, 0.195, 0.98, 0.295, 1.0775, 0.3925, 1.175, 0.49, 1.275, 0.5875, 1.3725, 0.685],
  "SoftwareVersions": "syngo_MR_E11",
  "SpacingBetweenSlices": 2,
  "StationName": "MRC35049",
  "TaskName": "things",
  "TotalReadoutTime": 0.0576811,
  "TxRefAmp": 235.931,
  "WipMemBlock": "3e9734d1-c6a0-492a-a5e3-c8ddba7239e5||Sequence: R016 ve11c/master r/e634e98; Dec 19 2017 11:00:25 by eja",
  "dcmmeta_affine": [
    [-1.9991570711135864, -0.048509079962968826, 0.031907569617033005, 110.72010040283203],
    [-0.05511727184057236, 1.9311033487319946, -0.5174958109855652, -70.93833923339844],
    [0.018256785348057747, 0.5181570053100586, 1.9316262006759644, -56.86748504638672],
    [0.0, 0.0, 0.0, 1.0]
],
  "dcmmeta_reorient_transform": [
    [0.0, -1.0, 0.0, 103.0],
    [1.0, 0.0, 0.0, 0.0],
    [0.0, 0.0, 1.0, 0.0],
    [0.0, 0.0, 0.0, 1.0]
],
  "dcmmeta_shape": [104, 104, 60, 190],
  "dcmmeta_slice_dim": 2,
  "dcmmeta_version": 0.6,
  "global": {
    "const": {
      "AcquisitionMatrix": [104, 0, 0, 104],
      "AngioFlag": "N",
      "BitsAllocated": 16,
      "BitsStored": 16,
      "BodyPartExamined": "BRAIN",
      "Columns": 832,
      "EchoNumbers": 1,
      "EchoTime": 37.0,
      "EchoTrainLength": 104,
      "FlipAngle": 52.0,
      "HighBit": 15,
      "ImageOrientationPatient": [0.99957850820091, 0.02755863557292, 0.00912839242119, -0.0242545397838, 0.96555168095102, -0.2590784991321],
      "ImagePositionPatient": [-815.75951736621, -850.94961852248, 178.46636422598],
      "ImageType": [
        "ORIGINAL",
        "PRIMARY",
        "M",
        "MB",
        "ND",
        "MOSAIC"
],
      "ImagedNucleus": "1H",
      "ImagingFrequency": 123.258973,
      "InPlanePhaseEncodingDirection": "COL",
      "MRAcquisitionType": "2D",
      "MagneticFieldStrength": 3.0,
      "Manufacturer": "SIEMENS",
      "ManufacturerModelName": "Prisma_fit",
      "Modality": "MR",
      "NumberOfAverages": 1.0,
      "NumberOfPhaseEncodingSteps": 104,
      "PercentPhaseFieldOfView": 100.0,
      "PercentSampling": 100.0,
      "PerformedProcedureStepStartTime": "130031.899000",
      "PhotometricInterpretation": "MONOCHROME2",
      "PixelBandwidth": 2290.0,
      "PixelRepresentation": 0,
      "PixelSpacing": [2.0, 2.0],
      "ProtocolName": "func_task-things_run-2",
      "RepetitionTime": 1490.0,
      "Rows": 832,
      "SAR": 0.05240673787494,
      "SamplesPerPixel": 1,
      "ScanOptions": "FS",
      "ScanningSequence": "EP",
      "SequenceName": "epfid2d1_104",
      "SequenceVariant": [
        "SK",
        "SS"
],
      "SeriesDescription": "func_task-things_run-2",
      "SeriesNumber": 13,
      "SeriesTime": "133200.295000",
      "SliceLocation": -34.801812696301,
      "SliceThickness": 2.0,
      "SmallestImagePixelValue": 0,
      "SoftwareVersions": "syngo MR E11",
      "SpacingBetweenSlices": 1.9999999775106,
      "SpecificCharacterSet": "ISO_IR 100",
      "StudyID": "1",
      "StudyTime": "130031.753000",
      "TransmitCoilName": "Body",
      "VariableFlipAngleFlag": "N",
      "WindowCenterWidthExplanation": "Algo1",
      "dBdt": 0.0},
    "slices": {}
  },
  "time": {
    "samples": {
      "AcquisitionNumber": [1, 2, 3, 4, 5, 6, 7, 8, 9, 10, 11, 12, 13, 14, 15, 16, 17, 18, 19, 20, 21, 22, 23, 24, 25, 26, 27, 28, 29, 30, 31, 32, 33, 34, 35, 36, 37, 38, 39, 40, 41, 42, 43, 44, 45, 46, 47, 48, 49, 50, 51, 52, 53, 54, 55, 56, 57, 58, 59, 60, 61, 62, 63, 64, 65, 66, 67, 68, 69, 70, 71, 72, 73, 74, 75, 76, 77, 78, 79, 80, 81, 82, 83, 84, 85, 86, 87, 88, 89, 90, 91, 92, 93, 94, 95, 96, 97, 98, 99, 100, 101, 102, 103, 104, 105, 106, 107, 108, 109, 110, 111, 112, 113, 114, 115, 116, 117, 118, 119, 120, 121, 122, 123, 124, 125, 126, 127, 128, 129, 130, 131, 132, 133, 134, 135, 136, 137, 138, 139, 140, 141, 142, 143, 144, 145, 146, 147, 148, 149, 150, 151, 152, 153, 154, 155, 156, 157, 158, 159, 160, 161, 162, 163, 164, 165, 166, 167, 168, 169, 170, 171, 172, 173, 174, 175, 176, 177, 178, 179, 180, 181, 182, 183, 184, 185, 186, 187, 188, 189, 190],
      "AcquisitionTime": ["133039.130000", "133040.620000", "133042.110000", "133043.600000", "133045.090000", "133046.580000", "133048.070000", "133049.560000", "133051.050000", "133052.540000", "133054.030000", "133055.520000", "133057.010000", "133058.500000", "133059.990000", "133101.480000", "133102.970000", "133104.460000", "133105.950000", "133107.440000", "133108.930000", "133110.420000", "133111.910000", "133113.400000", "133114.890000", "133116.380000", "133117.870000", "133119.360000", "133120.850000", "133122.340000", "133123.830000", "133125.320000", "133126.810000", "133128.300000", "133129.790000", "133131.280000", "133132.770000", "133134.260000", "133135.750000", "133137.240000", "133138.730000", "133140.220000", "133141.710000", "133143.200000", "133144.690000", "133146.180000", "133147.670000", "133149.160000", "133150.650000", "133152.140000", "133153.630000", "133155.120000", "133156.610000", "133158.100000", "133159.590000", "133201.080000", "133202.570000", "133204.060000", "133205.550000", "133207.040000", "133208.530000", "133210.020000", "133211.510000", "133213.000000", "133214.490000", "133215.980000", "133217.470000", "133218.960000", "133220.450000", "133221.940000", "133223.430000", "133224.920000", "133226.410000", "133227.900000", "133229.390000", "133230.880000", "133232.370000", "133233.860000", "133235.350000", "133236.840000", "133238.330000", "133239.820000", "133241.310000", "133242.800000", "133244.290000", "133245.780000", "133247.270000", "133248.760000", "133250.250000", "133251.740000", "133253.230000", "133254.720000", "133256.210000", "133257.700000", "133259.190000", "133300.680000", "133302.170000", "133303.660000", "133305.150000", "133306.640000", "133308.130000", "133309.620000", "133311.110000", "133312.600000", "133314.090000", "133315.580000", "133317.070000", "133318.560000", "133320.050000", "133321.540000", "133323.030000", "133324.520000", "133326.010000", "133327.500000", "133328.990000", "133330.480000", "133331.970000", "133333.460000", "133334.950000", "133336.440000", "133337.930000", "133339.420000", "133340.910000", "133342.400000", "133343.890000", "133345.380000", "133346.870000", "133348.360000", "133349.850000", "133351.340000", "133352.830000", "133354.320000", "133355.810000", "133357.300000", "133358.790000", "133400.280000", "133401.770000", "133403.260000", "133404.750000", "133406.240000", "133407.730000", "133409.220000", "133410.710000", "133412.200000", "133413.690000", "133415.180000", "133416.670000", "133418.160000", "133419.650000", "133421.140000", "133422.630000", "133424.120000", "133425.610000", "133427.100000", "133428.590000", "133430.080000", "133431.570000", "133433.060000", "133434.550000", "133436.040000", "133437.530000", "133439.020000", "133440.510000", "133442.000000", "133443.490000", "133444.980000", "133446.470000", "133447.960000", "133449.450000", "133450.940000", "133452.430000", "133453.920000", "133455.410000", "133456.900000", "133458.390000", "133459.880000", "133501.370000", "133502.860000", "133504.350000", "133505.840000", "133507.330000", "133508.820000", "133510.310000", "133511.800000", "133513.290000", "133514.780000", "133516.270000", "133517.760000", "133519.250000", "133520.740000"],
      "ContentTime": ["133200.298000", "133200.302000", "133200.305000", "133200.309000", "133200.312000", "133200.315000", "133200.319000", "133200.322000", "133200.326000", "133200.329000", "133200.333000", "133200.336000", "133200.339000", "133200.343000", "133200.346000", "133200.350000", "133200.353000", "133200.357000", "133200.360000", "133200.363000", "133200.367000", "133200.374000", "133200.378000", "133200.381000", "133200.385000", "133200.388000", "133200.392000", "133200.395000", "133220.260000", "133220.264000", "133220.267000", "133220.271000", "133220.284000", "133220.287000", "133220.291000", "133220.294000", "133220.298000", "133220.301000", "133220.304000", "133220.308000", "133220.311000", "133220.315000", "133220.318000", "133220.322000", "133220.325000", "133220.328000", "133220.332000", "133220.348000", "133240.260000", "133240.264000", "133240.267000", "133240.271000", "133240.274000", "133240.278000", "133240.281000", "133240.284000", "133240.288000", "133240.291000", "133240.294000", "133240.298000", "133240.301000", "133240.304000", "133240.308000", "133240.311000", "133240.314000", "133240.318000", "133240.321000", "133240.324000", "133300.260000", "133300.264000", "133300.267000", "133300.271000", "133300.274000", "133300.278000", "133300.281000", "133300.284000", "133300.288000", "133300.291000", "133300.294000", "133300.298000", "133300.302000", "133300.305000", "133300.308000", "133300.312000", "133300.315000", "133300.318000", "133300.322000", "133300.325000", "133300.329000", "133340.261000", "133340.265000", "133340.269000", "133340.272000", "133340.275000", "133340.279000", "133340.282000", "133340.297000", "133340.300000", "133340.304000", "133340.307000", "133340.310000", "133340.314000", "133340.317000", "133340.321000", "133340.324000", "133340.327000", "133340.331000", "133340.334000", "133340.338000", "133340.341000", "133340.345000", "133340.348000", "133340.351000", "133340.355000", "133340.358000", "133340.362000", "133340.365000", "133340.369000", "133340.372000", "133340.376000", "133420.261000", "133420.265000", "133420.269000", "133420.272000", "133420.276000", "133420.279000", "133420.282000", "133420.286000", "133420.289000", "133420.293000", "133420.296000", "133420.300000", "133420.303000", "133420.306000", "133420.310000", "133420.319000", "133420.322000", "133420.326000", "133420.329000", "133420.333000", "133420.336000", "133420.340000", "133420.343000", "133420.346000", "133420.350000", "133420.353000", "133420.357000", "133500.260000", "133500.264000", "133500.267000", "133500.271000", "133500.274000", "133500.278000", "133500.281000", "133500.285000", "133500.288000", "133500.291000", "133500.295000", "133500.298000", "133500.301000", "133500.305000", "133500.309000", "133500.312000", "133500.315000", "133500.319000", "133500.322000", "133500.326000", "133500.329000", "133500.333000", "133500.336000", "133500.339000", "133500.343000", "133500.346000", "133500.350000", "133523.297000", "133523.302000", "133523.306000", "133523.311000", "133523.314000", "133523.319000", "133523.323000", "133523.327000", "133523.332000", "133523.337000", "133523.341000", "133523.345000", "133523.350000", "133523.354000", "133523.358000", "133523.363000"],
      "InstanceCreationTime": ["133200.298000", "133200.302000", "133200.305000", "133200.309000", "133200.312000", "133200.315000", "133200.319000", "133200.322000", "133200.326000", "133200.329000", "133200.333000", "133200.336000", "133200.339000", "133200.343000", "133200.346000", "133200.350000", "133200.353000", "133200.357000", "133200.360000", "133200.363000", "133200.367000", "133200.374000", "133200.378000", "133200.381000", "133200.385000", "133200.388000", "133200.392000", "133200.395000", "133220.260000", "133220.264000", "133220.267000", "133220.271000", "133220.284000", "133220.287000", "133220.291000", "133220.294000", "133220.298000", "133220.301000", "133220.304000", "133220.308000", "133220.311000", "133220.315000", "133220.318000", "133220.322000", "133220.325000", "133220.328000", "133220.332000", "133220.348000", "133240.260000", "133240.264000", "133240.267000", "133240.271000", "133240.274000", "133240.278000", "133240.281000", "133240.284000", "133240.288000", "133240.291000", "133240.294000", "133240.298000", "133240.301000", "133240.304000", "133240.308000", "133240.311000", "133240.314000", "133240.318000", "133240.321000", "133240.324000", "133300.260000", "133300.264000", "133300.267000", "133300.271000", "133300.274000", "133300.278000", "133300.281000", "133300.284000", "133300.288000", "133300.291000", "133300.294000", "133300.298000", "133300.302000", "133300.305000", "133300.308000", "133300.312000", "133300.315000", "133300.318000", "133300.322000", "133300.325000", "133300.329000", "133340.261000", "133340.265000", "133340.269000", "133340.272000", "133340.275000", "133340.279000", "133340.282000", "133340.297000", "133340.300000", "133340.304000", "133340.307000", "133340.310000", "133340.314000", "133340.317000", "133340.321000", "133340.324000", "133340.327000", "133340.331000", "133340.334000", "133340.338000", "133340.341000", "133340.345000", "133340.348000", "133340.351000", "133340.355000", "133340.358000", "133340.362000", "133340.365000", "133340.369000", "133340.372000", "133340.376000", "133420.261000", "133420.265000", "133420.269000", "133420.272000", "133420.276000", "133420.279000", "133420.282000", "133420.286000", "133420.289000", "133420.293000", "133420.296000", "133420.300000", "133420.303000", "133420.306000", "133420.310000", "133420.319000", "133420.322000", "133420.326000", "133420.329000", "133420.333000", "133420.336000", "133420.340000", "133420.343000", "133420.346000", "133420.350000", "133420.353000", "133420.357000", "133500.260000", "133500.264000", "133500.267000", "133500.271000", "133500.274000", "133500.278000", "133500.281000", "133500.285000", "133500.288000", "133500.291000", "133500.295000", "133500.298000", "133500.301000", "133500.305000", "133500.309000", "133500.312000", "133500.315000", "133500.319000", "133500.322000", "133500.326000", "133500.329000", "133500.333000", "133500.336000", "133500.339000", "133500.343000", "133500.346000", "133500.350000", "133523.297000", "133523.302000", "133523.306000", "133523.311000", "133523.314000", "133523.319000", "133523.323000", "133523.327000", "133523.332000", "133523.337000", "133523.341000", "133523.345000", "133523.350000", "133523.354000", "133523.358000", "133523.363000"],
      "InstanceNumber": [1, 2, 3, 4, 5, 6, 7, 8, 9, 10, 11, 12, 13, 14, 15, 16, 17, 18, 19, 20, 21, 22, 23, 24, 25, 26, 27, 28, 29, 30, 31, 32, 33, 34, 35, 36, 37, 38, 39, 40, 41, 42, 43, 44, 45, 46, 47, 48, 49, 50, 51, 52, 53, 54, 55, 56, 57, 58, 59, 60, 61, 62, 63, 64, 65, 66, 67, 68, 69, 70, 71, 72, 73, 74, 75, 76, 77, 78, 79, 80, 81, 82, 83, 84, 85, 86, 87, 88, 89, 90, 91, 92, 93, 94, 95, 96, 97, 98, 99, 100, 101, 102, 103, 104, 105, 106, 107, 108, 109, 110, 111, 112, 113, 114, 115, 116, 117, 118, 119, 120, 121, 122, 123, 124, 125, 126, 127, 128, 129, 130, 131, 132, 133, 134, 135, 136, 137, 138, 139, 140, 141, 142, 143, 144, 145, 146, 147, 148, 149, 150, 151, 152, 153, 154, 155, 156, 157, 158, 159, 160, 161, 162, 163, 164, 165, 166, 167, 168, 169, 170, 171, 172, 173, 174, 175, 176, 177, 178, 179, 180, 181, 182, 183, 184, 185, 186, 187, 188, 189, 190],
      "LargestImagePixelValue": [40976, 40586, 39461, 39311, 38968, 38494, 38782, 38916, 39412, 39078, 39225, 38730, 38950, 38579, 38901, 38829, 39385, 38898, 38974, 38986, 38515, 38905, 38863, 39172, 39214, 38991, 38492, 39091, 38875, 39249, 39423, 39444, 39344, 38864, 39245, 38765, 39397, 39247, 39361, 38830, 38649, 38425, 38786, 39157, 39152, 38866, 38492, 38723, 38972, 39892, 39426, 39707, 39088, 38375, 39250, 38886, 39193, 39547, 39793, 38655, 39151, 39520, 39603, 40065, 39663, 39120, 39241, 39687, 39371, 39831, 39763, 39427, 39029, 39372, 39554, 39858, 39885, 39865, 39312, 39242, 39151, 39446, 39980, 39801, 40009, 39791, 39976, 40023, 39363, 39202, 39381, 39989, 40232, 39832, 40053, 40072, 39822, 39774, 39543, 39212, 39816, 39375, 39870, 39787, 39512, 40097, 39650, 39216, 39319, 39474, 39681, 39953, 40227, 40179, 39495, 38940, 39036, 39305, 39604, 39868, 40021, 40066, 39886, 39024, 39126, 39139, 39537, 39912, 39691, 40207, 40085, 40067, 39791, 39790, 39370, 39242, 39463, 39922, 39854, 39818, 39582, 39082, 39218, 39279, 40326, 40423, 40485, 39594, 39339, 39310, 39026, 39812, 40007, 39766, 39616, 39226, 39364, 39846, 39549, 39966, 40075, 39926, 38759, 39393, 39489, 40048, 39882, 39906, 39031, 38910, 40137, 39997, 39951, 39944, 40025, 39527, 38999, 39034, 39105, 39441, 39220, 39849, 39907, 40419, 40061, 39748, 39540, 39141, 38968, 39359],
      "WindowCenter": [10269.0, 10244.0, 10233.0, 10219.0, 10214.0, 10180.0, 10178.0, 10184.0, 10183.0, 10181.0, 10190.0, 10170.0, 10150.0, 10140.0, 10131.0, 10129.0, 10144.0, 10139.0, 10148.0, 10149.0, 10144.0, 10148.0, 10143.0, 10149.0, 10167.0, 10177.0, 10167.0, 10172.0, 10158.0, 10163.0, 10169.0, 10170.0, 10178.0, 10173.0, 10164.0, 10148.0, 10160.0, 10170.0, 10179.0, 10166.0, 10151.0, 10141.0, 10149.0, 10164.0, 10175.0, 10165.0, 10150.0, 10146.0, 10155.0, 10168.0, 10172.0, 10162.0, 10161.0, 10152.0, 10160.0, 10157.0, 10141.0, 10146.0, 10143.0, 10137.0, 10127.0, 10141.0, 10133.0, 10146.0, 10156.0, 10154.0, 10161.0, 10145.0, 10135.0, 10132.0, 10140.0, 10143.0, 10152.0, 10152.0, 10152.0, 10156.0, 10160.0, 10166.0, 10160.0, 10161.0, 10162.0, 10168.0, 10176.0, 10169.0, 10167.0, 10169.0, 10176.0, 10182.0, 10180.0, 10174.0, 10172.0, 10178.0, 10184.0, 10179.0, 10185.0, 10184.0, 10162.0, 10153.0, 10160.0, 10153.0, 10160.0, 10154.0, 10162.0, 10163.0, 10155.0, 10151.0, 10159.0, 10162.0, 10154.0, 10159.0, 10146.0, 10150.0, 10165.0, 10177.0, 10164.0, 10164.0, 10157.0, 10155.0, 10154.0, 10160.0, 10167.0, 10178.0, 10186.0, 10167.0, 10165.0, 10157.0, 10160.0, 10157.0, 10162.0, 10184.0, 10188.0, 10165.0, 10148.0, 10151.0, 10148.0, 10146.0, 10139.0, 10143.0, 10159.0, 10177.0, 10181.0, 10152.0, 10140.0, 10136.0, 10156.0, 10175.0, 10190.0, 10173.0, 10163.0, 10165.0, 10157.0, 10155.0, 10150.0, 10146.0, 10145.0, 10145.0, 10147.0, 10161.0, 10163.0, 10160.0, 10160.0, 10160.0, 10151.0, 10154.0, 10156.0, 10168.0, 10171.0, 10178.0, 10165.0, 10158.0, 10178.0, 10195.0, 10195.0, 10179.0, 10172.0, 10180.0, 10182.0, 10176.0, 10167.0, 10158.0, 10148.0, 10153.0, 10168.0, 10183.0, 10176.0, 10170.0, 10185.0, 10175.0, 10155.0, 10140.0],
      "WindowWidth": [21913.0, 21830.0, 21796.0, 21753.0, 21740.0, 21655.0, 21649.0, 21661.0, 21658.0, 21653.0, 21674.0, 21631.0, 21579.0, 21554.0, 21534.0, 21532.0, 21563.0, 21555.0, 21576.0, 21578.0, 21570.0, 21575.0, 21566.0, 21579.0, 21615.0, 21640.0, 21620.0, 21629.0, 21598.0, 21609.0, 21621.0, 21625.0, 21642.0, 21633.0, 21611.0, 21575.0, 21601.0, 21627.0, 21647.0, 21619.0, 21585.0, 21562.0, 21578.0, 21612.0, 21638.0, 21614.0, 21578.0, 21568.0, 21592.0, 21621.0, 21631.0, 21608.0, 21604.0, 21589.0, 21602.0, 21599.0, 21561.0, 21572.0, 21562.0, 21550.0, 21527.0, 21555.0, 21537.0, 21566.0, 21591.0, 21589.0, 21604.0, 21569.0, 21545.0, 21535.0, 21554.0, 21562.0, 21583.0, 21583.0, 21583.0, 21588.0, 21600.0, 21614.0, 21601.0, 21602.0, 21604.0, 21616.0, 21634.0, 21621.0, 21615.0, 21622.0, 21637.0, 21651.0, 21651.0, 21636.0, 21630.0, 21645.0, 21656.0, 21648.0, 21657.0, 21652.0, 21606.0, 21585.0, 21599.0, 21585.0, 21602.0, 21588.0, 21608.0, 21610.0, 21594.0, 21579.0, 21596.0, 21606.0, 21588.0, 21596.0, 21569.0, 21576.0, 21611.0, 21638.0, 21611.0, 21609.0, 21595.0, 21591.0, 21586.0, 21601.0, 21614.0, 21642.0, 21658.0, 21620.0, 21612.0, 21596.0, 21598.0, 21592.0, 21606.0, 21655.0, 21668.0, 21615.0, 21578.0, 21580.0, 21578.0, 21570.0, 21558.0, 21562.0, 21598.0, 21640.0, 21649.0, 21585.0, 21556.0, 21545.0, 21591.0, 21636.0, 21667.0, 21632.0, 21610.0, 21615.0, 21597.0, 21591.0, 21577.0, 21571.0, 21566.0, 21565.0, 21572.0, 21603.0, 21610.0, 21599.0, 21600.0, 21598.0, 21584.0, 21587.0, 21592.0, 21618.0, 21627.0, 21641.0, 21613.0, 21596.0, 21642.0, 21681.0, 21679.0, 21642.0, 21627.0, 21647.0, 21653.0, 21639.0, 21617.0, 21598.0, 21573.0, 21583.0, 21617.0, 21649.0, 21632.0, 21622.0, 21656.0, 21634.0, 21587.0, 21556.0]
    },
    "slices": {}
  }
}