{
  "AcquisitionMatrixPE": 104,
  "AcquisitionNumber": 1,
  "AcquisitionTime": "13:36:39.632500",
  "BandwidthPerPixelPhaseEncode": 17.17,
  "BaseResolution": 104,
  "BodyPartExamined": "BRAIN",
  "CoilString": "HC1-7;NC1_2",
  "ConsistencyInfo": "N4_VE11C_LATEST_20160120",
  "ConversionSoftware": "dcm2niix",
  "ConversionSoftwareVersion": "v1.0.20190902",
  "DerivedVendorReportedEchoSpacing": 0.000560011,
  "DeviceSerialNumber": "167006",
  "DwellTime": 2.1e-06,
  "EchoTime": 0.037,
  "EchoTrainLength": 104,
  "EffectiveEchoSpacing": 0.000560011,
  "FlipAngle": 52,
  "ImageComments": "Unaliased_MB4_PE3_LB",
  "ImageOrientationPatientDICOM": [0.999579, 0.0275586, 0.00912839, -0.0242545, 0.965552, -0.259079],
  "ImageType": [
    "ORIGINAL",
    "PRIMARY",
    "P",
    "MB",
    "ND",
    "MOSAIC"
],
  "ImagingFrequency": 123.259,
  "InPlanePhaseEncodingDirectionDICOM": "COL",
  "InstitutionAddress": "Chemin_Queen-Mary_4565_Montreal_District_CA_H3W_1W5",
  "InstitutionName": "IUGM",
  "InstitutionalDepartmentName": "Department",
  "MRAcquisitionType": "2D",
  "MagneticFieldStrength": 3,
  "Manufacturer": "Siemens",
  "ManufacturersModelName": "Prisma_fit",
  "Modality": "MR",
  "MultibandAccelerationFactor": 4,
  "PartialFourier": 1,
  "PatientPosition": "HFS",
  "PercentPhaseFOV": 100,
  "PhaseEncodingDirection": "j",
  "PhaseEncodingSteps": 104,
  "PhaseResolution": 1,
  "PixelBandwidth": 2290,
  "ProcedureStepDescription": "memory_things",
  "ProtocolName": "func_task-things_run-3",
  "PulseSequenceDetails": "%CustomerSeq%_cmrr_mbep2d_bold",
  "ReceiveCoilActiveElements": "HC1-7;NC1,2",
  "ReceiveCoilName": "HeadNeck_64",
  "ReconMatrixPE": 104,
  "RepetitionTime": 1.49,
  "SAR": 0.0524067,
  "ScanOptions": "FS",
  "ScanningSequence": "EP",
  "SequenceName": "epfid2d1_104",
  "SequenceVariant": "SK_SS",
  "SeriesDescription": "func_task-things_run-3",
  "SeriesNumber": 17,
  "ShimSetting": [636, -7200, -8782, 680, 42, 29, 81, -21],
  "SliceThickness": 2,
  "SliceTiming": [0, 0.785, 0.1, 0.8825, 0.1975, 0.98, 0.295, 1.0775, 0.3925, 1.1775, 0.49, 1.275, 0.59, 1.3725, 0.6875, 0, 0.785, 0.1, 0.8825, 0.1975, 0.98, 0.295, 1.0775, 0.3925, 1.1775, 0.49, 1.275, 0.59, 1.3725, 0.6875, 0, 0.785, 0.1, 0.8825, 0.1975, 0.98, 0.295, 1.0775, 0.3925, 1.1775, 0.49, 1.275, 0.59, 1.3725, 0.6875, 0, 0.785, 0.1, 0.8825, 0.1975, 0.98, 0.295, 1.0775, 0.3925, 1.1775, 0.49, 1.275, 0.59, 1.3725, 0.6875],
  "SoftwareVersions": "syngo_MR_E11",
  "SpacingBetweenSlices": 2,
  "StationName": "MRC35049",
  "TaskName": "things",
  "TotalReadoutTime": 0.0576811,
  "TxRefAmp": 235.931,
  "WipMemBlock": "7453b3a5-925a-4f33-9baa-cbe3ccca3a01||Sequence: R016 ve11c/master r/e634e98; Dec 19 2017 11:00:25 by eja",
  "dcmmeta_affine": [
    [-1.9991570711135864, -0.048509079962968826, 0.031907569617033005, 110.72010040283203],
    [-0.05511727184057236, 1.9311033487319946, -0.5174958109855652, -70.93833923339844],
    [0.018256785348057747, 0.5181570053100586, 1.9316262006759644, -56.86748504638672],
    [0.0, 0.0, 0.0, 1.0]
],
  "dcmmeta_reorient_transform": [
    [0.0, -1.0, 0.0, 103.0],
    [1.0, 0.0, 0.0, 0.0],
    [0.0, 0.0, 1.0, 0.0],
    [0.0, 0.0, 0.0, 1.0]
],
  "dcmmeta_shape": [104, 104, 60, 190],
  "dcmmeta_slice_dim": 2,
  "dcmmeta_version": 0.6,
  "global": {
    "const": {
      "AcquisitionMatrix": [104, 0, 0, 104],
      "AngioFlag": "N",
      "BitsAllocated": 16,
      "BitsStored": 16,
      "BodyPartExamined": "BRAIN",
      "Columns": 832,
      "EchoNumbers": 1,
      "EchoTime": 37.0,
      "EchoTrainLength": 104,
      "FlipAngle": 52.0,
      "HighBit": 15,
      "ImageOrientationPatient": [0.99957850820091, 0.02755863557292, 0.00912839242119, -0.0242545397838, 0.96555168095102, -0.2590784991321],
      "ImagePositionPatient": [-815.75951736621, -850.94961852248, 178.46636422598],
      "ImageType": [
        "ORIGINAL",
        "PRIMARY",
        "P",
        "MB",
        "ND",
        "MOSAIC"
],
      "ImagedNucleus": "1H",
      "ImagingFrequency": 123.258976,
      "InPlanePhaseEncodingDirection": "COL",
      "LargestImagePixelValue": 4095,
      "MRAcquisitionType": "2D",
      "MagneticFieldStrength": 3.0,
      "Manufacturer": "SIEMENS",
      "ManufacturerModelName": "Prisma_fit",
      "Modality": "MR",
      "NumberOfAverages": 1.0,
      "NumberOfPhaseEncodingSteps": 104,
      "PercentPhaseFieldOfView": 100.0,
      "PercentSampling": 100.0,
      "PerformedProcedureStepStartTime": "130031.899000",
      "PhotometricInterpretation": "MONOCHROME2",
      "PixelBandwidth": 2290.0,
      "PixelRepresentation": 0,
      "PixelSpacing": [2.0, 2.0],
      "ProtocolName": "func_task-things_run-3",
      "RepetitionTime": 1490.0,
      "RescaleIntercept": -4096.0,
      "RescaleSlope": 2.0,
      "RescaleType": "US",
      "Rows": 832,
      "SAR": 0.05240673787494,
      "SamplesPerPixel": 1,
      "ScanOptions": "FS",
      "ScanningSequence": "EP",
      "SequenceName": "epfid2d1_104",
      "SequenceVariant": [
        "SK",
        "SS"
],
      "SeriesDescription": "func_task-things_run-3",
      "SeriesNumber": 17,
      "SeriesTime": "133742.240000",
      "SliceLocation": -34.801812696301,
      "SliceThickness": 2.0,
      "SmallestImagePixelValue": 0,
      "SoftwareVersions": "syngo MR E11",
      "SpacingBetweenSlices": 1.9999999775106,
      "SpecificCharacterSet": "ISO_IR 100",
      "StudyID": "1",
      "StudyTime": "130031.753000",
      "TransmitCoilName": "Body",
      "VariableFlipAngleFlag": "N",
      "WindowCenterWidthExplanation": "Algo1",
      "dBdt": 0.0},
    "slices": {}
  },
  "time": {
    "samples": {
      "AcquisitionNumber": [1, 2, 3, 4, 5, 6, 7, 8, 9, 10, 11, 12, 13, 14, 15, 16, 17, 18, 19, 20, 21, 22, 23, 24, 25, 26, 27, 28, 29, 30, 31, 32, 33, 34, 35, 36, 37, 38, 39, 40, 41, 42, 43, 44, 45, 46, 47, 48, 49, 50, 51, 52, 53, 54, 55, 56, 57, 58, 59, 60, 61, 62, 63, 64, 65, 66, 67, 68, 69, 70, 71, 72, 73, 74, 75, 76, 77, 78, 79, 80, 81, 82, 83, 84, 85, 86, 87, 88, 89, 90, 91, 92, 93, 94, 95, 96, 97, 98, 99, 100, 101, 102, 103, 104, 105, 106, 107, 108, 109, 110, 111, 112, 113, 114, 115, 116, 117, 118, 119, 120, 121, 122, 123, 124, 125, 126, 127, 128, 129, 130, 131, 132, 133, 134, 135, 136, 137, 138, 139, 140, 141, 142, 143, 144, 145, 146, 147, 148, 149, 150, 151, 152, 153, 154, 155, 156, 157, 158, 159, 160, 161, 162, 163, 164, 165, 166, 167, 168, 169, 170, 171, 172, 173, 174, 175, 176, 177, 178, 179, 180, 181, 182, 183, 184, 185, 186, 187, 188, 189, 190],
      "AcquisitionTime": ["133639.632500", "133641.122500", "133642.612500", "133644.102500", "133645.592500", "133647.082500", "133648.572500", "133650.062500", "133651.552500", "133653.042500", "133654.532500", "133656.022500", "133657.512500", "133659.002500", "133700.492500", "133701.982500", "133703.472500", "133704.962500", "133706.452500", "133707.942500", "133709.432500", "133710.922500", "133712.412500", "133713.902500", "133715.392500", "133716.882500", "133718.372500", "133719.862500", "133721.352500", "133722.842500", "133724.332500", "133725.822500", "133727.312500", "133728.802500", "133730.292500", "133731.782500", "133733.272500", "133734.762500", "133736.252500", "133737.742500", "133739.232500", "133740.722500", "133742.212500", "133743.702500", "133745.192500", "133746.682500", "133748.172500", "133749.662500", "133751.152500", "133752.642500", "133754.132500", "133755.622500", "133757.112500", "133758.602500", "133800.092500", "133801.582500", "133803.072500", "133804.562500", "133806.052500", "133807.542500", "133809.032500", "133810.522500", "133812.012500", "133813.502500", "133814.992500", "133816.482500", "133817.972500", "133819.462500", "133820.952500", "133822.442500", "133823.932500", "133825.422500", "133826.912500", "133828.402500", "133829.892500", "133831.382500", "133832.872500", "133834.362500", "133835.852500", "133837.342500", "133838.832500", "133840.322500", "133841.812500", "133843.302500", "133844.792500", "133846.282500", "133847.772500", "133849.262500", "133850.752500", "133852.242500", "133853.732500", "133855.222500", "133856.712500", "133858.202500", "133859.692500", "133901.182500", "133902.672500", "133904.162500", "133905.652500", "133907.142500", "133908.632500", "133910.122500", "133911.612500", "133913.102500", "133914.592500", "133916.082500", "133917.572500", "133919.062500", "133920.552500", "133922.042500", "133923.532500", "133925.022500", "133926.512500", "133928.002500", "133929.492500", "133930.982500", "133932.472500", "133933.962500", "133935.452500", "133936.942500", "133938.432500", "133939.922500", "133941.412500", "133942.902500", "133944.392500", "133945.882500", "133947.372500", "133948.862500", "133950.352500", "133951.842500", "133953.332500", "133954.822500", "133956.312500", "133957.802500", "133959.292500", "134000.782500", "134002.272500", "134003.762500", "134005.252500", "134006.742500", "134008.232500", "134009.722500", "134011.212500", "134012.702500", "134014.192500", "134015.682500", "134017.172500", "134018.662500", "134020.152500", "134021.642500", "134023.132500", "134024.622500", "134026.112500", "134027.602500", "134029.092500", "134030.582500", "134032.072500", "134033.562500", "134035.052500", "134036.542500", "134038.032500", "134039.522500", "134041.012500", "134042.502500", "134043.992500", "134045.482500", "134046.972500", "134048.462500", "134049.952500", "134051.442500", "134052.932500", "134054.422500", "134055.912500", "134057.402500", "134058.892500", "134100.382500", "134101.872500", "134103.362500", "134104.852500", "134106.342500", "134107.832500", "134109.322500", "134110.812500", "134112.302500", "134113.792500", "134115.282500", "134116.772500", "134118.262500", "134119.752500", "134121.242500"],
      "ContentTime": ["133742.242000", "133742.245000", "133742.248000", "133742.250000", "133742.253000", "133742.255000", "133742.258000", "133742.261000", "133802.264000", "133802.267000", "133802.270000", "133802.272000", "133802.275000", "133802.277000", "133802.280000", "133802.282000", "133802.285000", "133802.289000", "133802.291000", "133802.294000", "133802.296000", "133802.299000", "133802.302000", "133802.304000", "133802.307000", "133802.309000", "133802.312000", "133802.314000", "133802.317000", "133822.263000", "133822.266000", "133822.268000", "133822.271000", "133822.274000", "133822.276000", "133822.279000", "133822.281000", "133822.284000", "133822.286000", "133822.289000", "133822.291000", "133822.294000", "133822.297000", "133822.299000", "133822.302000", "133822.304000", "133822.307000", "133822.309000", "133822.312000", "133842.268000", "133842.270000", "133842.273000", "133842.276000", "133842.278000", "133842.281000", "133842.283000", "133842.286000", "133842.288000", "133842.291000", "133842.293000", "133842.296000", "133842.299000", "133842.301000", "133842.304000", "133842.306000", "133842.309000", "133842.311000", "133842.314000", "133842.316000", "133902.261000", "133902.264000", "133902.266000", "133902.269000", "133902.271000", "133902.274000", "133902.277000", "133902.279000", "133902.282000", "133902.284000", "133902.287000", "133902.290000", "133902.292000", "133902.295000", "133902.297000", "133902.300000", "133902.302000", "133902.305000", "133902.308000", "133902.310000", "133902.313000", "133942.788000", "133942.791000", "133942.794000", "133942.796000", "133942.799000", "133942.801000", "133942.804000", "133942.807000", "133942.809000", "133942.812000", "133942.815000", "133942.817000", "133942.820000", "133942.822000", "133942.825000", "133942.828000", "133942.830000", "133942.833000", "133942.835000", "133942.838000", "133942.840000", "133942.843000", "133942.846000", "133942.848000", "133942.851000", "133942.853000", "133942.856000", "133942.858000", "133942.861000", "133942.863000", "133942.866000", "134022.341000", "134022.344000", "134022.347000", "134022.350000", "134022.356000", "134022.358000", "134022.361000", "134022.363000", "134022.366000", "134022.369000", "134022.371000", "134022.374000", "134022.376000", "134022.379000", "134022.381000", "134022.384000", "134022.387000", "134022.389000", "134022.392000", "134022.394000", "134022.397000", "134022.400000", "134022.402000", "134022.405000", "134022.408000", "134022.410000", "134022.413000", "134102.315000", "134102.317000", "134102.320000", "134102.323000", "134102.325000", "134102.328000", "134102.331000", "134102.333000", "134102.336000", "134102.338000", "134102.341000", "134102.344000", "134102.346000", "134102.349000", "134102.351000", "134102.354000", "134102.356000", "134102.359000", "134102.362000", "134102.364000", "134102.367000", "134102.369000", "134102.372000", "134102.374000", "134102.377000", "134102.379000", "134102.382000", "134123.737000", "134123.740000", "134123.742000", "134123.745000", "134123.754000", "134123.757000", "134123.759000", "134123.762000", "134123.765000", "134123.767000", "134123.770000", "134123.772000", "134123.775000", "134123.778000", "134123.780000"],
      "InstanceCreationTime": ["133742.242000", "133742.245000", "133742.248000", "133742.250000", "133742.253000", "133742.255000", "133742.258000", "133742.261000", "133802.264000", "133802.267000", "133802.270000", "133802.272000", "133802.275000", "133802.277000", "133802.280000", "133802.282000", "133802.285000", "133802.289000", "133802.291000", "133802.294000", "133802.296000", "133802.299000", "133802.302000", "133802.304000", "133802.307000", "133802.309000", "133802.312000", "133802.314000", "133802.317000", "133822.263000", "133822.266000", "133822.268000", "133822.271000", "133822.274000", "133822.276000", "133822.279000", "133822.281000", "133822.284000", "133822.286000", "133822.289000", "133822.291000", "133822.294000", "133822.297000", "133822.299000", "133822.302000", "133822.304000", "133822.307000", "133822.309000", "133822.312000", "133842.268000", "133842.270000", "133842.273000", "133842.276000", "133842.278000", "133842.281000", "133842.283000", "133842.286000", "133842.288000", "133842.291000", "133842.293000", "133842.296000", "133842.299000", "133842.301000", "133842.304000", "133842.306000", "133842.309000", "133842.311000", "133842.314000", "133842.316000", "133902.261000", "133902.264000", "133902.266000", "133902.269000", "133902.271000", "133902.274000", "133902.277000", "133902.279000", "133902.282000", "133902.284000", "133902.287000", "133902.290000", "133902.292000", "133902.295000", "133902.297000", "133902.300000", "133902.302000", "133902.305000", "133902.308000", "133902.310000", "133902.313000", "133942.788000", "133942.791000", "133942.794000", "133942.796000", "133942.799000", "133942.801000", "133942.804000", "133942.807000", "133942.809000", "133942.812000", "133942.815000", "133942.817000", "133942.820000", "133942.822000", "133942.825000", "133942.828000", "133942.830000", "133942.833000", "133942.835000", "133942.838000", "133942.840000", "133942.843000", "133942.846000", "133942.848000", "133942.851000", "133942.853000", "133942.856000", "133942.858000", "133942.861000", "133942.863000", "133942.866000", "134022.341000", "134022.344000", "134022.347000", "134022.350000", "134022.356000", "134022.358000", "134022.361000", "134022.363000", "134022.366000", "134022.369000", "134022.371000", "134022.374000", "134022.376000", "134022.379000", "134022.381000", "134022.384000", "134022.387000", "134022.389000", "134022.392000", "134022.394000", "134022.397000", "134022.400000", "134022.402000", "134022.405000", "134022.408000", "134022.410000", "134022.413000", "134102.315000", "134102.317000", "134102.320000", "134102.323000", "134102.325000", "134102.328000", "134102.331000", "134102.333000", "134102.336000", "134102.338000", "134102.341000", "134102.344000", "134102.346000", "134102.349000", "134102.351000", "134102.354000", "134102.356000", "134102.359000", "134102.362000", "134102.364000", "134102.367000", "134102.369000", "134102.372000", "134102.374000", "134102.377000", "134102.379000", "134102.382000", "134123.737000", "134123.740000", "134123.742000", "134123.745000", "134123.754000", "134123.757000", "134123.759000", "134123.762000", "134123.765000", "134123.767000", "134123.770000", "134123.772000", "134123.775000", "134123.778000", "134123.780000"],
      "InstanceNumber": [1, 2, 3, 4, 5, 6, 7, 8, 9, 10, 11, 12, 13, 14, 15, 16, 17, 18, 19, 20, 21, 22, 23, 24, 25, 26, 27, 28, 29, 30, 31, 32, 33, 34, 35, 36, 37, 38, 39, 40, 41, 42, 43, 44, 45, 46, 47, 48, 49, 50, 51, 52, 53, 54, 55, 56, 57, 58, 59, 60, 61, 62, 63, 64, 65, 66, 67, 68, 69, 70, 71, 72, 73, 74, 75, 76, 77, 78, 79, 80, 81, 82, 83, 84, 85, 86, 87, 88, 89, 90, 91, 92, 93, 94, 95, 96, 97, 98, 99, 100, 101, 102, 103, 104, 105, 106, 107, 108, 109, 110, 111, 112, 113, 114, 115, 116, 117, 118, 119, 120, 121, 122, 123, 124, 125, 126, 127, 128, 129, 130, 131, 132, 133, 134, 135, 136, 137, 138, 139, 140, 141, 142, 143, 144, 145, 146, 147, 148, 149, 150, 151, 152, 153, 154, 155, 156, 157, 158, 159, 160, 161, 162, 163, 164, 165, 166, 167, 168, 169, 170, 171, 172, 173, 174, 175, 176, 177, 178, 179, 180, 181, 182, 183, 184, 185, 186, 187, 188, 189, 190],
      "WindowCenter": [4858.0, 4832.0, 4834.0, 4858.0, 4836.0, 4836.0, 4860.0, 4862.0, 4858.0, 4836.0, 4836.0, 4860.0, 4836.0, 4858.0, 4858.0, 4832.0, 4858.0, 4834.0, 4860.0, 4858.0, 4860.0, 4858.0, 4858.0, 4836.0, 4860.0, 4832.0, 4858.0, 4836.0, 4862.0, 4858.0, 4860.0, 4832.0, 4856.0, 4836.0, 4858.0, 4858.0, 4858.0, 4834.0, 4858.0, 4858.0, 4836.0, 4832.0, 4856.0, 4856.0, 4836.0, 4858.0, 4834.0, 4858.0, 4836.0, 4860.0, 4860.0, 4834.0, 4858.0, 4834.0, 4858.0, 4834.0, 4860.0, 4836.0, 4858.0, 4838.0, 4860.0, 4834.0, 4860.0, 4858.0, 4858.0, 4862.0, 4858.0, 4858.0, 4860.0, 4860.0, 4838.0, 4858.0, 4858.0, 4858.0, 4858.0, 4858.0, 4836.0, 4858.0, 4858.0, 4860.0, 4858.0, 4858.0, 4834.0, 4858.0, 4836.0, 4860.0, 4860.0, 4858.0, 4858.0, 4858.0, 4834.0, 4856.0, 4858.0, 4834.0, 4858.0, 4836.0, 4860.0, 4836.0, 4860.0, 4858.0, 4836.0, 4858.0, 4860.0, 4832.0, 4862.0, 4858.0, 4834.0, 4836.0, 4858.0, 4858.0, 4860.0, 4860.0, 4858.0, 4858.0, 4862.0, 4862.0, 4862.0, 4858.0, 4860.0, 4834.0, 4858.0, 4858.0, 4834.0, 4860.0, 4858.0, 4862.0, 4860.0, 4858.0, 4858.0, 4856.0, 4836.0, 4860.0, 4836.0, 4860.0, 4858.0, 4836.0, 4860.0, 4858.0, 4834.0, 4860.0, 4858.0, 4858.0, 4862.0, 4862.0, 4858.0, 4836.0, 4864.0, 4858.0, 4860.0, 4856.0, 4858.0, 4860.0, 4860.0, 4858.0, 4858.0, 4858.0, 4862.0, 4838.0, 4860.0, 4858.0, 4860.0, 4838.0, 4856.0, 4858.0, 4836.0, 4860.0, 4836.0, 4862.0, 4836.0, 4862.0, 4856.0, 4860.0, 4856.0, 4856.0, 4860.0, 4836.0, 4860.0, 4860.0, 4858.0, 4860.0, 4860.0, 4858.0, 4862.0, 4860.0, 4856.0, 4858.0, 4858.0, 4860.0, 4836.0, 4858.0],
      "WindowWidth": [18608.0, 18584.0, 18584.0, 18612.0, 18588.0, 18582.0, 18620.0, 18614.0, 18610.0, 18584.0, 18582.0, 18616.0, 18584.0, 18614.0, 18614.0, 18584.0, 18610.0, 18580.0, 18612.0, 18614.0, 18614.0, 18610.0, 18612.0, 18580.0, 18614.0, 18580.0, 18612.0, 18586.0, 18608.0, 18610.0, 18612.0, 18582.0, 18614.0, 18584.0, 18608.0, 18610.0, 18614.0, 18578.0, 18612.0, 18612.0, 18580.0, 18580.0, 18612.0, 18610.0, 18576.0, 18614.0, 18576.0, 18614.0, 18580.0, 18612.0, 18614.0, 18586.0, 18612.0, 18582.0, 18610.0, 18580.0, 18614.0, 18584.0, 18614.0, 18582.0, 18618.0, 18582.0, 18614.0, 18614.0, 18612.0, 18620.0, 18614.0, 18608.0, 18618.0, 18612.0, 18586.0, 18614.0, 18608.0, 18612.0, 18612.0, 18612.0, 18586.0, 18612.0, 18610.0, 18616.0, 18608.0, 18610.0, 18586.0, 18608.0, 18578.0, 18616.0, 18612.0, 18612.0, 18614.0, 18612.0, 18582.0, 18616.0, 18616.0, 18580.0, 18616.0, 18584.0, 18614.0, 18582.0, 18616.0, 18616.0, 18580.0, 18608.0, 18616.0, 18576.0, 18620.0, 18616.0, 18582.0, 18580.0, 18614.0, 18618.0, 18618.0, 18618.0, 18608.0, 18614.0, 18614.0, 18612.0, 18612.0, 18610.0, 18614.0, 18582.0, 18618.0, 18608.0, 18584.0, 18610.0, 18616.0, 18614.0, 18612.0, 18606.0, 18610.0, 18612.0, 18580.0, 18614.0, 18586.0, 18610.0, 18614.0, 18584.0, 18612.0, 18610.0, 18584.0, 18614.0, 18612.0, 18612.0, 18614.0, 18616.0, 18612.0, 18584.0, 18612.0, 18610.0, 18614.0, 18612.0, 18612.0, 18614.0, 18610.0, 18612.0, 18612.0, 18616.0, 18612.0, 18580.0, 18612.0, 18608.0, 18614.0, 18584.0, 18610.0, 18610.0, 18582.0, 18612.0, 18580.0, 18612.0, 18580.0, 18612.0, 18612.0, 18610.0, 18606.0, 18610.0, 18616.0, 18586.0, 18616.0, 18616.0, 18610.0, 18614.0, 18616.0, 18612.0, 18616.0, 18612.0, 18612.0, 18612.0, 18614.0, 18612.0, 18582.0, 18610.0]
    },
    "slices": {}
  }
}