{
  "AcquisitionMatrixPE": 104,
  "AcquisitionNumber": 1,
  "AcquisitionTime": "13:48:43.517500",
  "BandwidthPerPixelPhaseEncode": 17.17,
  "BaseResolution": 104,
  "BodyPartExamined": "BRAIN",
  "CoilString": "HC1-7;NC1_2",
  "ConsistencyInfo": "N4_VE11C_LATEST_20160120",
  "ConversionSoftware": "dcm2niix",
  "ConversionSoftwareVersion": "v1.0.20190902",
  "DerivedVendorReportedEchoSpacing": 0.000560011,
  "DeviceSerialNumber": "167006",
  "DwellTime": 2.1e-06,
  "EchoTime": 0.037,
  "EchoTrainLength": 104,
  "EffectiveEchoSpacing": 0.000560011,
  "FlipAngle": 52,
  "ImageComments": "Unaliased_MB4_PE3_LB",
  "ImageOrientationPatientDICOM": [0.999579, 0.0275586, 0.00912839, -0.0242545, 0.965552, -0.259079],
  "ImageType": [
    "ORIGINAL",
    "PRIMARY",
    "P",
    "MB",
    "ND",
    "MOSAIC"
],
  "ImagingFrequency": 123.259,
  "InPlanePhaseEncodingDirectionDICOM": "COL",
  "InstitutionAddress": "Chemin_Queen-Mary_4565_Montreal_District_CA_H3W_1W5",
  "InstitutionName": "IUGM",
  "InstitutionalDepartmentName": "Department",
  "MRAcquisitionType": "2D",
  "MagneticFieldStrength": 3,
  "Manufacturer": "Siemens",
  "ManufacturersModelName": "Prisma_fit",
  "Modality": "MR",
  "MultibandAccelerationFactor": 4,
  "PartialFourier": 1,
  "PatientPosition": "HFS",
  "PercentPhaseFOV": 100,
  "PhaseEncodingDirection": "j",
  "PhaseEncodingSteps": 104,
  "PhaseResolution": 1,
  "PixelBandwidth": 2290,
  "ProcedureStepDescription": "memory_things",
  "ProtocolName": "func_task-things_run-5",
  "PulseSequenceDetails": "%CustomerSeq%_cmrr_mbep2d_bold",
  "ReceiveCoilActiveElements": "HC1-7;NC1,2",
  "ReceiveCoilName": "HeadNeck_64",
  "ReconMatrixPE": 104,
  "RepetitionTime": 1.49,
  "SAR": 0.0524067,
  "ScanOptions": "FS",
  "ScanningSequence": "EP",
  "SequenceName": "epfid2d1_104",
  "SequenceVariant": "SK_SS",
  "SeriesDescription": "func_task-things_run-5",
  "SeriesNumber": 23,
  "ShimSetting": [636, -7200, -8782, 680, 42, 29, 81, -21],
  "SliceThickness": 2,
  "SliceTiming": [0, 0.785, 0.0975, 0.8825, 0.195, 0.98, 0.295, 1.0775, 0.3925, 1.175, 0.49, 1.275, 0.5875, 1.3725, 0.685, 0, 0.785, 0.0975, 0.8825, 0.195, 0.98, 0.295, 1.0775, 0.3925, 1.175, 0.49, 1.275, 0.5875, 1.3725, 0.685, 0, 0.785, 0.0975, 0.8825, 0.195, 0.98, 0.295, 1.0775, 0.3925, 1.175, 0.49, 1.275, 0.5875, 1.3725, 0.685, 0, 0.785, 0.0975, 0.8825, 0.195, 0.98, 0.295, 1.0775, 0.3925, 1.175, 0.49, 1.275, 0.5875, 1.3725, 0.685],
  "SoftwareVersions": "syngo_MR_E11",
  "SpacingBetweenSlices": 2,
  "StationName": "MRC35049",
  "TaskName": "things",
  "TotalReadoutTime": 0.0576811,
  "TxRefAmp": 235.931,
  "WipMemBlock": "608b9a5b-97ae-490a-a587-84cf5d10d24e||Sequence: R016 ve11c/master r/e634e98; Dec 19 2017 11:00:25 by eja",
  "dcmmeta_affine": [
    [-1.9991570711135864, -0.048509079962968826, 0.031907569617033005, 110.72010040283203],
    [-0.05511727184057236, 1.9311033487319946, -0.5174958109855652, -70.93833923339844],
    [0.018256785348057747, 0.5181570053100586, 1.9316262006759644, -56.86748504638672],
    [0.0, 0.0, 0.0, 1.0]
],
  "dcmmeta_reorient_transform": [
    [0.0, -1.0, 0.0, 103.0],
    [1.0, 0.0, 0.0, 0.0],
    [0.0, 0.0, 1.0, 0.0],
    [0.0, 0.0, 0.0, 1.0]
],
  "dcmmeta_shape": [104, 104, 60, 190],
  "dcmmeta_slice_dim": 2,
  "dcmmeta_version": 0.6,
  "global": {
    "const": {
      "AcquisitionMatrix": [104, 0, 0, 104],
      "AngioFlag": "N",
      "BitsAllocated": 16,
      "BitsStored": 16,
      "BodyPartExamined": "BRAIN",
      "Columns": 832,
      "EchoNumbers": 1,
      "EchoTime": 37.0,
      "EchoTrainLength": 104,
      "FlipAngle": 52.0,
      "HighBit": 15,
      "ImageOrientationPatient": [0.99957850820091, 0.02755863557292, 0.00912839242119, -0.0242545397838, 0.96555168095102, -0.2590784991321],
      "ImagePositionPatient": [-815.75951736621, -850.94961852248, 178.46636422598],
      "ImageType": [
        "ORIGINAL",
        "PRIMARY",
        "P",
        "MB",
        "ND",
        "MOSAIC"
],
      "ImagedNucleus": "1H",
      "ImagingFrequency": 123.258982,
      "InPlanePhaseEncodingDirection": "COL",
      "LargestImagePixelValue": 4095,
      "MRAcquisitionType": "2D",
      "MagneticFieldStrength": 3.0,
      "Manufacturer": "SIEMENS",
      "ManufacturerModelName": "Prisma_fit",
      "Modality": "MR",
      "NumberOfAverages": 1.0,
      "NumberOfPhaseEncodingSteps": 104,
      "PercentPhaseFieldOfView": 100.0,
      "PercentSampling": 100.0,
      "PerformedProcedureStepStartTime": "130031.899000",
      "PhotometricInterpretation": "MONOCHROME2",
      "PixelBandwidth": 2290.0,
      "PixelRepresentation": 0,
      "PixelSpacing": [2.0, 2.0],
      "ProtocolName": "func_task-things_run-5",
      "RepetitionTime": 1490.0,
      "RescaleIntercept": -4096.0,
      "RescaleSlope": 2.0,
      "RescaleType": "US",
      "Rows": 832,
      "SAR": 0.05240673787494,
      "SamplesPerPixel": 1,
      "ScanOptions": "FS",
      "ScanningSequence": "EP",
      "SequenceName": "epfid2d1_104",
      "SequenceVariant": [
        "SK",
        "SS"
],
      "SeriesDescription": "func_task-things_run-5",
      "SeriesNumber": 23,
      "SeriesTime": "135000.876000",
      "SliceLocation": -34.801812696301,
      "SliceThickness": 2.0,
      "SmallestImagePixelValue": 0,
      "SoftwareVersions": "syngo MR E11",
      "SpacingBetweenSlices": 1.9999999775106,
      "SpecificCharacterSet": "ISO_IR 100",
      "StudyID": "1",
      "StudyTime": "130031.753000",
      "TransmitCoilName": "Body",
      "VariableFlipAngleFlag": "N",
      "WindowCenterWidthExplanation": "Algo1",
      "dBdt": 0.0},
    "slices": {}
  },
  "time": {
    "samples": {
      "AcquisitionNumber": [1, 2, 3, 4, 5, 6, 7, 8, 9, 10, 11, 12, 13, 14, 15, 16, 17, 18, 19, 20, 21, 22, 23, 24, 25, 26, 27, 28, 29, 30, 31, 32, 33, 34, 35, 36, 37, 38, 39, 40, 41, 42, 43, 44, 45, 46, 47, 48, 49, 50, 51, 52, 53, 54, 55, 56, 57, 58, 59, 60, 61, 62, 63, 64, 65, 66, 67, 68, 69, 70, 71, 72, 73, 74, 75, 76, 77, 78, 79, 80, 81, 82, 83, 84, 85, 86, 87, 88, 89, 90, 91, 92, 93, 94, 95, 96, 97, 98, 99, 100, 101, 102, 103, 104, 105, 106, 107, 108, 109, 110, 111, 112, 113, 114, 115, 116, 117, 118, 119, 120, 121, 122, 123, 124, 125, 126, 127, 128, 129, 130, 131, 132, 133, 134, 135, 136, 137, 138, 139, 140, 141, 142, 143, 144, 145, 146, 147, 148, 149, 150, 151, 152, 153, 154, 155, 156, 157, 158, 159, 160, 161, 162, 163, 164, 165, 166, 167, 168, 169, 170, 171, 172, 173, 174, 175, 176, 177, 178, 179, 180, 181, 182, 183, 184, 185, 186, 187, 188, 189, 190],
      "AcquisitionTime": ["134843.517500", "134845.007500", "134846.497500", "134847.987500", "134849.477500", "134850.967500", "134852.457500", "134853.947500", "134855.437500", "134856.927500", "134858.417500", "134859.907500", "134901.397500", "134902.887500", "134904.377500", "134905.867500", "134907.357500", "134908.847500", "134910.337500", "134911.827500", "134913.317500", "134914.807500", "134916.297500", "134917.787500", "134919.277500", "134920.767500", "134922.257500", "134923.747500", "134925.237500", "134926.727500", "134928.217500", "134929.707500", "134931.197500", "134932.687500", "134934.177500", "134935.667500", "134937.157500", "134938.647500", "134940.137500", "134941.627500", "134943.117500", "134944.607500", "134946.097500", "134947.587500", "134949.077500", "134950.567500", "134952.057500", "134953.547500", "134955.037500", "134956.527500", "134958.017500", "134959.507500", "135000.997500", "135002.487500", "135003.977500", "135005.467500", "135006.957500", "135008.447500", "135009.937500", "135011.427500", "135012.917500", "135014.407500", "135015.897500", "135017.387500", "135018.877500", "135020.367500", "135021.857500", "135023.347500", "135024.837500", "135026.327500", "135027.817500", "135029.307500", "135030.797500", "135032.287500", "135033.777500", "135035.267500", "135036.757500", "135038.247500", "135039.737500", "135041.227500", "135042.717500", "135044.207500", "135045.697500", "135047.187500", "135048.677500", "135050.167500", "135051.657500", "135053.147500", "135054.637500", "135056.127500", "135057.617500", "135059.107500", "135100.597500", "135102.087500", "135103.577500", "135105.067500", "135106.557500", "135108.047500", "135109.537500", "135111.027500", "135112.517500", "135114.007500", "135115.497500", "135116.987500", "135118.477500", "135119.967500", "135121.457500", "135122.947500", "135124.437500", "135125.927500", "135127.417500", "135128.907500", "135130.397500", "135131.887500", "135133.377500", "135134.867500", "135136.357500", "135137.847500", "135139.337500", "135140.827500", "135142.317500", "135143.807500", "135145.297500", "135146.787500", "135148.277500", "135149.767500", "135151.257500", "135152.747500", "135154.237500", "135155.727500", "135157.217500", "135158.707500", "135200.197500", "135201.687500", "135203.177500", "135204.667500", "135206.157500", "135207.647500", "135209.137500", "135210.627500", "135212.117500", "135213.607500", "135215.097500", "135216.587500", "135218.077500", "135219.567500", "135221.057500", "135222.547500", "135224.037500", "135225.527500", "135227.017500", "135228.507500", "135229.997500", "135231.487500", "135232.977500", "135234.467500", "135235.957500", "135237.447500", "135238.937500", "135240.427500", "135241.917500", "135243.407500", "135244.897500", "135246.387500", "135247.877500", "135249.367500", "135250.857500", "135252.347500", "135253.837500", "135255.327500", "135256.817500", "135258.307500", "135259.797500", "135301.287500", "135302.777500", "135304.267500", "135305.757500", "135307.247500", "135308.737500", "135310.227500", "135311.717500", "135313.207500", "135314.697500", "135316.187500", "135317.677500", "135319.167500", "135320.657500", "135322.147500", "135323.637500", "135325.127500"],
      "ContentTime": ["135000.878000", "135000.881000", "135000.884000", "135000.886000", "135000.889000", "135000.891000", "135000.894000", "135000.897000", "135000.899000", "135000.902000", "135000.904000", "135000.907000", "135000.909000", "135000.916000", "135000.919000", "135000.922000", "135000.924000", "135000.927000", "135000.929000", "135000.932000", "135000.934000", "135000.937000", "135000.939000", "135020.367000", "135020.370000", "135020.373000", "135020.375000", "135020.378000", "135020.380000", "135020.383000", "135020.386000", "135020.388000", "135020.391000", "135020.393000", "135020.396000", "135020.398000", "135020.401000", "135020.403000", "135020.406000", "135020.409000", "135020.411000", "135020.414000", "135020.417000", "135040.384000", "135040.386000", "135040.389000", "135040.392000", "135040.394000", "135040.397000", "135040.399000", "135040.402000", "135040.404000", "135040.407000", "135040.409000", "135040.412000", "135040.415000", "135040.417000", "135040.420000", "135040.422000", "135040.425000", "135040.427000", "135040.430000", "135040.433000", "135100.383000", "135100.385000", "135100.397000", "135100.399000", "135100.402000", "135100.404000", "135100.407000", "135100.410000", "135100.412000", "135100.415000", "135100.417000", "135100.420000", "135100.422000", "135100.425000", "135100.428000", "135100.430000", "135100.433000", "135100.435000", "135100.438000", "135100.449000", "135100.452000", "135120.382000", "135120.385000", "135120.388000", "135120.390000", "135120.393000", "135120.396000", "135120.399000", "135120.402000", "135120.404000", "135120.407000", "135120.410000", "135120.412000", "135120.415000", "135120.417000", "135120.420000", "135120.422000", "135120.425000", "135120.428000", "135120.430000", "135120.433000", "135200.425000", "135200.427000", "135200.430000", "135200.433000", "135200.435000", "135200.438000", "135200.440000", "135200.443000", "135200.445000", "135200.448000", "135200.451000", "135200.453000", "135200.456000", "135200.458000", "135200.461000", "135200.463000", "135200.466000", "135200.468000", "135200.471000", "135200.474000", "135200.476000", "135200.479000", "135200.481000", "135200.484000", "135200.486000", "135200.489000", "135200.491000", "135240.409000", "135240.412000", "135240.415000", "135240.417000", "135240.420000", "135240.422000", "135240.425000", "135240.427000", "135240.430000", "135240.432000", "135240.435000", "135240.437000", "135240.440000", "135240.442000", "135240.445000", "135240.448000", "135240.450000", "135240.453000", "135240.455000", "135240.458000", "135240.460000", "135240.463000", "135240.465000", "135240.468000", "135240.470000", "135240.473000", "135240.476000", "135320.398000", "135320.401000", "135320.404000", "135320.406000", "135320.409000", "135320.411000", "135320.414000", "135320.416000", "135320.419000", "135320.422000", "135320.424000", "135320.427000", "135320.429000", "135320.432000", "135320.434000", "135320.437000", "135320.439000", "135320.442000", "135320.444000", "135320.447000", "135320.449000", "135320.452000", "135320.454000", "135320.457000", "135320.459000", "135320.462000", "135320.464000", "135327.329000", "135327.331000", "135327.338000", "135327.340000", "135327.343000"],
      "InstanceCreationTime": ["135000.878000", "135000.881000", "135000.884000", "135000.886000", "135000.889000", "135000.891000", "135000.894000", "135000.897000", "135000.899000", "135000.902000", "135000.904000", "135000.907000", "135000.909000", "135000.916000", "135000.919000", "135000.922000", "135000.924000", "135000.927000", "135000.929000", "135000.932000", "135000.934000", "135000.937000", "135000.939000", "135020.367000", "135020.370000", "135020.373000", "135020.375000", "135020.378000", "135020.380000", "135020.383000", "135020.386000", "135020.388000", "135020.391000", "135020.393000", "135020.396000", "135020.398000", "135020.401000", "135020.403000", "135020.406000", "135020.409000", "135020.411000", "135020.414000", "135020.417000", "135040.384000", "135040.386000", "135040.389000", "135040.392000", "135040.394000", "135040.397000", "135040.399000", "135040.402000", "135040.404000", "135040.407000", "135040.409000", "135040.412000", "135040.415000", "135040.417000", "135040.420000", "135040.422000", "135040.425000", "135040.427000", "135040.430000", "135040.433000", "135100.383000", "135100.385000", "135100.397000", "135100.399000", "135100.402000", "135100.404000", "135100.407000", "135100.410000", "135100.412000", "135100.415000", "135100.417000", "135100.420000", "135100.422000", "135100.425000", "135100.428000", "135100.430000", "135100.433000", "135100.435000", "135100.438000", "135100.449000", "135100.452000", "135120.382000", "135120.385000", "135120.388000", "135120.390000", "135120.393000", "135120.396000", "135120.399000", "135120.402000", "135120.404000", "135120.407000", "135120.410000", "135120.412000", "135120.415000", "135120.417000", "135120.420000", "135120.422000", "135120.425000", "135120.428000", "135120.430000", "135120.433000", "135200.425000", "135200.427000", "135200.430000", "135200.433000", "135200.435000", "135200.438000", "135200.440000", "135200.443000", "135200.445000", "135200.448000", "135200.451000", "135200.453000", "135200.456000", "135200.458000", "135200.461000", "135200.463000", "135200.466000", "135200.468000", "135200.471000", "135200.474000", "135200.476000", "135200.479000", "135200.481000", "135200.484000", "135200.486000", "135200.489000", "135200.491000", "135240.409000", "135240.412000", "135240.415000", "135240.417000", "135240.420000", "135240.422000", "135240.425000", "135240.427000", "135240.430000", "135240.432000", "135240.435000", "135240.437000", "135240.440000", "135240.442000", "135240.445000", "135240.448000", "135240.450000", "135240.453000", "135240.455000", "135240.458000", "135240.460000", "135240.463000", "135240.465000", "135240.468000", "135240.470000", "135240.473000", "135240.476000", "135320.398000", "135320.401000", "135320.404000", "135320.406000", "135320.409000", "135320.411000", "135320.414000", "135320.416000", "135320.419000", "135320.422000", "135320.424000", "135320.427000", "135320.429000", "135320.432000", "135320.434000", "135320.437000", "135320.439000", "135320.442000", "135320.444000", "135320.447000", "135320.449000", "135320.452000", "135320.454000", "135320.457000", "135320.459000", "135320.462000", "135320.464000", "135327.329000", "135327.331000", "135327.338000", "135327.340000", "135327.343000"],
      "InstanceNumber": [1, 2, 3, 4, 5, 6, 7, 8, 9, 10, 11, 12, 13, 14, 15, 16, 17, 18, 19, 20, 21, 22, 23, 24, 25, 26, 27, 28, 29, 30, 31, 32, 33, 34, 35, 36, 37, 38, 39, 40, 41, 42, 43, 44, 45, 46, 47, 48, 49, 50, 51, 52, 53, 54, 55, 56, 57, 58, 59, 60, 61, 62, 63, 64, 65, 66, 67, 68, 69, 70, 71, 72, 73, 74, 75, 76, 77, 78, 79, 80, 81, 82, 83, 84, 85, 86, 87, 88, 89, 90, 91, 92, 93, 94, 95, 96, 97, 98, 99, 100, 101, 102, 103, 104, 105, 106, 107, 108, 109, 110, 111, 112, 113, 114, 115, 116, 117, 118, 119, 120, 121, 122, 123, 124, 125, 126, 127, 128, 129, 130, 131, 132, 133, 134, 135, 136, 137, 138, 139, 140, 141, 142, 143, 144, 145, 146, 147, 148, 149, 150, 151, 152, 153, 154, 155, 156, 157, 158, 159, 160, 161, 162, 163, 164, 165, 166, 167, 168, 169, 170, 171, 172, 173, 174, 175, 176, 177, 178, 179, 180, 181, 182, 183, 184, 185, 186, 187, 188, 189, 190],
      "WindowCenter": [4834.0, 4830.0, 4828.0, 4834.0, 4830.0, 4832.0, 4828.0, 4832.0, 4826.0, 4830.0, 4828.0, 4830.0, 4826.0, 4832.0, 4832.0, 4830.0, 4830.0, 4830.0, 4830.0, 4830.0, 4830.0, 4830.0, 4828.0, 4828.0, 4830.0, 4828.0, 4830.0, 4826.0, 4828.0, 4804.0, 4830.0, 4832.0, 4828.0, 4832.0, 4832.0, 4830.0, 4834.0, 4828.0, 4828.0, 4828.0, 4832.0, 4826.0, 4830.0, 4830.0, 4830.0, 4828.0, 4830.0, 4830.0, 4828.0, 4828.0, 4830.0, 4824.0, 4830.0, 4832.0, 4832.0, 4828.0, 4830.0, 4832.0, 4830.0, 4830.0, 4828.0, 4832.0, 4828.0, 4832.0, 4832.0, 4830.0, 4828.0, 4832.0, 4828.0, 4832.0, 4832.0, 4830.0, 4830.0, 4826.0, 4828.0, 4830.0, 4832.0, 4830.0, 4832.0, 4832.0, 4832.0, 4830.0, 4832.0, 4832.0, 4832.0, 4832.0, 4836.0, 4828.0, 4830.0, 4830.0, 4832.0, 4828.0, 4834.0, 4828.0, 4828.0, 4828.0, 4832.0, 4830.0, 4834.0, 4834.0, 4832.0, 4832.0, 4834.0, 4826.0, 4832.0, 4832.0, 4832.0, 4828.0, 4834.0, 4828.0, 4834.0, 4832.0, 4832.0, 4830.0, 4828.0, 4830.0, 4834.0, 4832.0, 4834.0, 4828.0, 4830.0, 4832.0, 4828.0, 4832.0, 4832.0, 4830.0, 4830.0, 4828.0, 4832.0, 4830.0, 4832.0, 4832.0, 4832.0, 4832.0, 4830.0, 4832.0, 4834.0, 4832.0, 4832.0, 4830.0, 4830.0, 4830.0, 4830.0, 4832.0, 4834.0, 4832.0, 4836.0, 4830.0, 4832.0, 4830.0, 4828.0, 4828.0, 4828.0, 4828.0, 4834.0, 4830.0, 4832.0, 4832.0, 4834.0, 4830.0, 4834.0, 4830.0, 4828.0, 4830.0, 4830.0, 4832.0, 4830.0, 4828.0, 4832.0, 4834.0, 4832.0, 4828.0, 4830.0, 4832.0, 4832.0, 4832.0, 4832.0, 4832.0, 4834.0, 4830.0, 4830.0, 4830.0, 4836.0, 4828.0, 4830.0, 4832.0, 4830.0, 4832.0, 4830.0, 4830.0],
      "WindowWidth": [18590.0, 18590.0, 18590.0, 18588.0, 18592.0, 18590.0, 18590.0, 18592.0, 18592.0, 18590.0, 18586.0, 18592.0, 18590.0, 18590.0, 18588.0, 18590.0, 18588.0, 18594.0, 18590.0, 18590.0, 18588.0, 18594.0, 18588.0, 18592.0, 18592.0, 18588.0, 18588.0, 18590.0, 18588.0, 18556.0, 18592.0, 18596.0, 18590.0, 18594.0, 18594.0, 18594.0, 18594.0, 18588.0, 18588.0, 18590.0, 18594.0, 18588.0, 18594.0, 18598.0, 18584.0, 18594.0, 18592.0, 18592.0, 18594.0, 18592.0, 18590.0, 18586.0, 18592.0, 18594.0, 18594.0, 18592.0, 18592.0, 18594.0, 18590.0, 18590.0, 18590.0, 18592.0, 18594.0, 18592.0, 18594.0, 18594.0, 18588.0, 18594.0, 18590.0, 18594.0, 18588.0, 18592.0, 18590.0, 18584.0, 18590.0, 18588.0, 18590.0, 18590.0, 18584.0, 18594.0, 18590.0, 18594.0, 18584.0, 18592.0, 18586.0, 18592.0, 18590.0, 18594.0, 18588.0, 18584.0, 18592.0, 18592.0, 18590.0, 18588.0, 18590.0, 18588.0, 18586.0, 18590.0, 18590.0, 18592.0, 18588.0, 18590.0, 18590.0, 18590.0, 18592.0, 18596.0, 18586.0, 18586.0, 18590.0, 18586.0, 18588.0, 18590.0, 18596.0, 18590.0, 18588.0, 18584.0, 18590.0, 18588.0, 18592.0, 18582.0, 18582.0, 18588.0, 18584.0, 18592.0, 18586.0, 18588.0, 18586.0, 18584.0, 18586.0, 18590.0, 18588.0, 18592.0, 18586.0, 18590.0, 18584.0, 18588.0, 18586.0, 18588.0, 18586.0, 18588.0, 18586.0, 18592.0, 18590.0, 18590.0, 18588.0, 18590.0, 18592.0, 18588.0, 18592.0, 18588.0, 18588.0, 18592.0, 18584.0, 18588.0, 18590.0, 18594.0, 18590.0, 18590.0, 18586.0, 18586.0, 18590.0, 18590.0, 18588.0, 18586.0, 18590.0, 18590.0, 18590.0, 18592.0, 18592.0, 18590.0, 18588.0, 18592.0, 18592.0, 18592.0, 18592.0, 18590.0, 18590.0, 18586.0, 18592.0, 18592.0, 18586.0, 18590.0, 18598.0, 18588.0, 18590.0, 18592.0, 18588.0, 18588.0, 18588.0, 18594.0]
    },
    "slices": {}
  }
}