{
  "AcquisitionMatrixPE": 104,
  "AcquisitionNumber": 1,
  "AcquisitionTime": "15:48:45.845000",
  "BandwidthPerPixelPhaseEncode": 17.17,
  "BaseResolution": 104,
  "BodyPartExamined": "BRAIN",
  "CoilString": "HC1-7;NC1_2",
  "ConsistencyInfo": "N4_VE11C_LATEST_20160120",
  "ConversionSoftware": "dcm2niix",
  "ConversionSoftwareVersion": "v1.0.20190902",
  "DerivedVendorReportedEchoSpacing": 0.000560011,
  "DeviceSerialNumber": "167006",
  "DwellTime": 2.1e-06,
  "EchoTime": 0.037,
  "EchoTrainLength": 104,
  "EffectiveEchoSpacing": 0.000560011,
  "FlipAngle": 52,
  "ImageComments": "Unaliased_MB4_PE3_LB",
  "ImageOrientationPatientDICOM": [0.998645, -0.0516151, 0.006645, 0.0509387, 0.943345, -0.32788],
  "ImageType": [
    "ORIGINAL",
    "PRIMARY",
    "P",
    "MB",
    "ND",
    "MOSAIC"
],
  "ImagingFrequency": 123.259,
  "InPlanePhaseEncodingDirectionDICOM": "COL",
  "InstitutionAddress": "Chemin_Queen-Mary_4565_Montreal_District_CA_H3W_1W5",
  "InstitutionName": "IUGM",
  "InstitutionalDepartmentName": "Department",
  "MRAcquisitionType": "2D",
  "MagneticFieldStrength": 3,
  "Manufacturer": "Siemens",
  "ManufacturersModelName": "Prisma_fit",
  "Modality": "MR",
  "MultibandAccelerationFactor": 4,
  "PartialFourier": 1,
  "PatientPosition": "HFS",
  "PercentPhaseFOV": 100,
  "PhaseEncodingDirection": "j",
  "PhaseEncodingSteps": 104,
  "PhaseResolution": 1,
  "PixelBandwidth": 2290,
  "ProcedureStepDescription": "memory_things",
  "ProtocolName": "func_task-things_run-4",
  "PulseSequenceDetails": "%CustomerSeq%_cmrr_mbep2d_bold",
  "ReceiveCoilActiveElements": "HC1-7;NC1,2",
  "ReceiveCoilName": "HeadNeck_64",
  "ReconMatrixPE": 104,
  "RepetitionTime": 1.49,
  "SAR": 0.0380096,
  "ScanOptions": "FS",
  "ScanningSequence": "EP",
  "SequenceName": "epfid2d1_104",
  "SequenceVariant": "SK_SS",
  "SeriesDescription": "func_task-things_run-4",
  "SeriesNumber": 20,
  "ShimSetting": [623, -7247, -8821, 559, -8, -203, -51, -35],
  "SliceThickness": 2,
  "SliceTiming": [0, 0.7825, 0.0975, 0.88, 0.195, 0.98, 0.2925, 1.0775, 0.39, 1.175, 0.49, 1.2725, 0.5875, 1.37, 0.685, 0, 0.7825, 0.0975, 0.88, 0.195, 0.98, 0.2925, 1.0775, 0.39, 1.175, 0.49, 1.2725, 0.5875, 1.37, 0.685, 0, 0.7825, 0.0975, 0.88, 0.195, 0.98, 0.2925, 1.0775, 0.39, 1.175, 0.49, 1.2725, 0.5875, 1.37, 0.685, 0, 0.7825, 0.0975, 0.88, 0.195, 0.98, 0.2925, 1.0775, 0.39, 1.175, 0.49, 1.2725, 0.5875, 1.37, 0.685],
  "SoftwareVersions": "syngo_MR_E11",
  "SpacingBetweenSlices": 2,
  "StationName": "MRC35049",
  "TaskName": "things",
  "TotalReadoutTime": 0.0576811,
  "TxRefAmp": 240.739,
  "WipMemBlock": "c9a40fe8-f31c-469c-b71e-4ab4982e857a||Sequence: R016 ve11c/master r/e634e98; Dec 19 2017 11:00:25 by eja",
  "dcmmeta_affine": [
    [-1.9972898960113525, 0.10187730193138123, -0.021310120820999146, 102.44097900390625],
    [0.10323023796081543, 1.8866899013519287, -0.6555492281913757, -69.96168518066406],
    [0.013289996422827244, 0.6557608246803284, 1.8893917798995972, -61.63075256347656],
    [0.0, 0.0, 0.0, 1.0]
],
  "dcmmeta_reorient_transform": [
    [0.0, -1.0, 0.0, 103.0],
    [1.0, 0.0, 0.0, 0.0],
    [0.0, 0.0, 1.0, 0.0],
    [0.0, 0.0, 0.0, 1.0]
],
  "dcmmeta_shape": [104, 104, 60, 190],
  "dcmmeta_slice_dim": 2,
  "dcmmeta_version": 0.6,
  "global": {
    "const": {
      "AcquisitionMatrix": [104, 0, 0, 104],
      "AngioFlag": "N",
      "BitsAllocated": 16,
      "BitsStored": 16,
      "BodyPartExamined": "BRAIN",
      "Columns": 832,
      "EchoNumbers": 1,
      "EchoTime": 37.0,
      "EchoTrainLength": 104,
      "FlipAngle": 52.0,
      "HighBit": 15,
      "ImageOrientationPatient": [0.99864494367889, -0.0516151185299, 0.00664499840005, 0.05093865076541, 0.94334494561495, -0.327880416373],
      "ImagePositionPatient": [-877.03120093395, -773.54668424389, 239.77199716328],
      "ImageType": [
        "ORIGINAL",
        "PRIMARY",
        "P",
        "MB",
        "ND",
        "MOSAIC"
],
      "ImagedNucleus": "1H",
      "ImagingFrequency": 123.258888,
      "InPlanePhaseEncodingDirection": "COL",
      "LargestImagePixelValue": 4095,
      "MRAcquisitionType": "2D",
      "MagneticFieldStrength": 3.0,
      "Manufacturer": "SIEMENS",
      "ManufacturerModelName": "Prisma_fit",
      "Modality": "MR",
      "NumberOfAverages": 1.0,
      "NumberOfPhaseEncodingSteps": 104,
      "PercentPhaseFieldOfView": 100.0,
      "PercentSampling": 100.0,
      "PerformedProcedureStepStartTime": "145924.353000",
      "PhotometricInterpretation": "MONOCHROME2",
      "PixelBandwidth": 2290.0,
      "PixelRepresentation": 0,
      "PixelSpacing": [2.0, 2.0],
      "ProtocolName": "func_task-things_run-4",
      "RepetitionTime": 1490.0,
      "RescaleIntercept": -4096.0,
      "RescaleSlope": 2.0,
      "RescaleType": "US",
      "Rows": 832,
      "SAR": 0.03800960168162,
      "SamplesPerPixel": 1,
      "ScanOptions": "FS",
      "ScanningSequence": "EP",
      "SequenceName": "epfid2d1_104",
      "SequenceVariant": [
        "SK",
        "SS"
],
      "SeriesDescription": "func_task-things_run-4",
      "SeriesNumber": 20,
      "SeriesTime": "155007.508000",
      "SliceLocation": -36.382167270261,
      "SliceThickness": 2.0,
      "SmallestImagePixelValue": 0,
      "SoftwareVersions": "syngo MR E11",
      "SpacingBetweenSlices": 1.9999999914467,
      "SpecificCharacterSet": "ISO_IR 100",
      "StudyID": "1",
      "StudyTime": "145924.271000",
      "TransmitCoilName": "Body",
      "VariableFlipAngleFlag": "N",
      "WindowCenterWidthExplanation": "Algo1",
      "dBdt": 0.0},
    "slices": {}
  },
  "time": {
    "samples": {
      "AcquisitionNumber": [1, 2, 3, 4, 5, 6, 7, 8, 9, 10, 11, 12, 13, 14, 15, 16, 17, 18, 19, 20, 21, 22, 23, 24, 25, 26, 27, 28, 29, 30, 31, 32, 33, 34, 35, 36, 37, 38, 39, 40, 41, 42, 43, 44, 45, 46, 47, 48, 49, 50, 51, 52, 53, 54, 55, 56, 57, 58, 59, 60, 61, 62, 63, 64, 65, 66, 67, 68, 69, 70, 71, 72, 73, 74, 75, 76, 77, 78, 79, 80, 81, 82, 83, 84, 85, 86, 87, 88, 89, 90, 91, 92, 93, 94, 95, 96, 97, 98, 99, 100, 101, 102, 103, 104, 105, 106, 107, 108, 109, 110, 111, 112, 113, 114, 115, 116, 117, 118, 119, 120, 121, 122, 123, 124, 125, 126, 127, 128, 129, 130, 131, 132, 133, 134, 135, 136, 137, 138, 139, 140, 141, 142, 143, 144, 145, 146, 147, 148, 149, 150, 151, 152, 153, 154, 155, 156, 157, 158, 159, 160, 161, 162, 163, 164, 165, 166, 167, 168, 169, 170, 171, 172, 173, 174, 175, 176, 177, 178, 179, 180, 181, 182, 183, 184, 185, 186, 187, 188, 189, 190],
      "AcquisitionTime": ["154845.845000", "154847.335000", "154848.825000", "154850.315000", "154851.805000", "154853.295000", "154854.785000", "154856.275000", "154857.765000", "154859.255000", "154900.745000", "154902.235000", "154903.725000", "154905.215000", "154906.705000", "154908.195000", "154909.685000", "154911.175000", "154912.665000", "154914.155000", "154915.645000", "154917.135000", "154918.625000", "154920.115000", "154921.605000", "154923.095000", "154924.585000", "154926.075000", "154927.565000", "154929.055000", "154930.545000", "154932.035000", "154933.525000", "154935.015000", "154936.505000", "154937.995000", "154939.485000", "154940.975000", "154942.465000", "154943.955000", "154945.445000", "154946.935000", "154948.425000", "154949.915000", "154951.405000", "154952.895000", "154954.385000", "154955.875000", "154957.365000", "154958.855000", "155000.345000", "155001.835000", "155003.325000", "155004.815000", "155006.305000", "155007.795000", "155009.285000", "155010.775000", "155012.265000", "155013.755000", "155015.245000", "155016.735000", "155018.225000", "155019.715000", "155021.205000", "155022.695000", "155024.185000", "155025.675000", "155027.165000", "155028.655000", "155030.145000", "155031.635000", "155033.125000", "155034.615000", "155036.105000", "155037.595000", "155039.085000", "155040.575000", "155042.065000", "155043.555000", "155045.045000", "155046.535000", "155048.025000", "155049.515000", "155051.005000", "155052.495000", "155053.985000", "155055.475000", "155056.965000", "155058.455000", "155059.945000", "155101.435000", "155102.925000", "155104.415000", "155105.905000", "155107.395000", "155108.885000", "155110.375000", "155111.865000", "155113.355000", "155114.845000", "155116.335000", "155117.825000", "155119.315000", "155120.805000", "155122.295000", "155123.785000", "155125.275000", "155126.765000", "155128.255000", "155129.745000", "155131.235000", "155132.725000", "155134.215000", "155135.705000", "155137.195000", "155138.685000", "155140.175000", "155141.665000", "155143.155000", "155144.645000", "155146.135000", "155147.625000", "155149.115000", "155150.605000", "155152.095000", "155153.585000", "155155.075000", "155156.565000", "155158.055000", "155159.545000", "155201.035000", "155202.525000", "155204.015000", "155205.505000", "155206.995000", "155208.485000", "155209.975000", "155211.465000", "155212.955000", "155214.445000", "155215.935000", "155217.425000", "155218.915000", "155220.405000", "155221.895000", "155223.385000", "155224.875000", "155226.365000", "155227.855000", "155229.345000", "155230.835000", "155232.325000", "155233.815000", "155235.305000", "155236.795000", "155238.285000", "155239.775000", "155241.265000", "155242.755000", "155244.245000", "155245.735000", "155247.225000", "155248.715000", "155250.205000", "155251.695000", "155253.185000", "155254.675000", "155256.165000", "155257.655000", "155259.145000", "155300.635000", "155302.125000", "155303.615000", "155305.105000", "155306.595000", "155308.085000", "155309.575000", "155311.065000", "155312.555000", "155314.045000", "155315.535000", "155317.025000", "155318.515000", "155320.005000", "155321.495000", "155322.985000", "155324.475000", "155325.965000", "155327.455000"],
      "ContentTime": ["155007.510000", "155007.513000", "155007.516000", "155007.518000", "155007.521000", "155007.523000", "155007.526000", "155007.534000", "155007.536000", "155007.539000", "155007.549000", "155007.551000", "155007.554000", "155007.556000", "155007.559000", "155007.561000", "155007.564000", "155007.566000", "155007.569000", "155007.571000", "155007.574000", "155007.576000", "155007.579000", "155007.581000", "155007.584000", "155007.586000", "155027.450000", "155027.453000", "155027.456000", "155027.458000", "155027.461000", "155027.463000", "155027.465000", "155027.468000", "155027.471000", "155027.473000", "155027.476000", "155027.478000", "155027.486000", "155027.488000", "155027.491000", "155027.493000", "155027.496000", "155027.498000", "155027.501000", "155027.503000", "155027.506000", "155047.456000", "155047.458000", "155047.461000", "155047.463000", "155047.466000", "155047.468000", "155047.471000", "155047.473000", "155047.476000", "155047.478000", "155047.481000", "155047.483000", "155047.486000", "155047.488000", "155047.491000", "155047.493000", "155047.496000", "155047.498000", "155047.501000", "155047.503000", "155107.437000", "155107.440000", "155107.442000", "155107.445000", "155107.447000", "155107.450000", "155107.452000", "155107.455000", "155107.457000", "155107.460000", "155107.462000", "155107.465000", "155107.467000", "155107.470000", "155107.472000", "155107.475000", "155107.477000", "155107.480000", "155107.482000", "155107.485000", "155127.447000", "155127.450000", "155127.453000", "155127.455000", "155127.458000", "155127.460000", "155127.463000", "155127.465000", "155127.468000", "155127.471000", "155127.473000", "155127.476000", "155127.478000", "155127.480000", "155127.483000", "155127.485000", "155127.488000", "155127.490000", "155127.493000", "155127.495000", "155207.494000", "155207.496000", "155207.499000", "155207.501000", "155207.504000", "155207.506000", "155207.509000", "155207.511000", "155207.514000", "155207.516000", "155207.519000", "155207.521000", "155207.524000", "155207.526000", "155207.529000", "155207.531000", "155207.534000", "155207.536000", "155207.539000", "155207.541000", "155207.551000", "155207.554000", "155207.556000", "155207.559000", "155207.561000", "155207.564000", "155207.566000", "155227.419000", "155227.422000", "155227.425000", "155227.427000", "155227.430000", "155227.432000", "155227.435000", "155227.437000", "155227.440000", "155227.442000", "155227.445000", "155227.447000", "155227.450000", "155227.452000", "155307.495000", "155307.498000", "155307.501000", "155307.503000", "155307.506000", "155307.508000", "155307.511000", "155307.513000", "155307.516000", "155307.518000", "155307.521000", "155307.523000", "155307.526000", "155307.528000", "155307.531000", "155307.533000", "155307.536000", "155307.538000", "155307.541000", "155307.551000", "155307.554000", "155307.556000", "155307.559000", "155307.562000", "155307.564000", "155307.567000", "155329.918000", "155329.921000", "155329.923000", "155329.926000", "155329.929000", "155329.931000", "155329.934000", "155329.936000", "155329.939000", "155329.941000", "155329.944000", "155329.953000", "155329.955000", "155329.958000", "155329.961000", "155329.963000"],
      "InstanceCreationTime": ["155007.510000", "155007.513000", "155007.516000", "155007.518000", "155007.521000", "155007.523000", "155007.526000", "155007.534000", "155007.536000", "155007.539000", "155007.549000", "155007.551000", "155007.554000", "155007.556000", "155007.559000", "155007.561000", "155007.564000", "155007.566000", "155007.569000", "155007.571000", "155007.574000", "155007.576000", "155007.579000", "155007.581000", "155007.584000", "155007.586000", "155027.450000", "155027.453000", "155027.456000", "155027.458000", "155027.461000", "155027.463000", "155027.465000", "155027.468000", "155027.471000", "155027.473000", "155027.476000", "155027.478000", "155027.486000", "155027.488000", "155027.491000", "155027.493000", "155027.496000", "155027.498000", "155027.501000", "155027.503000", "155027.506000", "155047.456000", "155047.458000", "155047.461000", "155047.463000", "155047.466000", "155047.468000", "155047.471000", "155047.473000", "155047.476000", "155047.478000", "155047.481000", "155047.483000", "155047.486000", "155047.488000", "155047.491000", "155047.493000", "155047.496000", "155047.498000", "155047.501000", "155047.503000", "155107.437000", "155107.440000", "155107.442000", "155107.445000", "155107.447000", "155107.450000", "155107.452000", "155107.455000", "155107.457000", "155107.460000", "155107.462000", "155107.465000", "155107.467000", "155107.470000", "155107.472000", "155107.475000", "155107.477000", "155107.480000", "155107.482000", "155107.485000", "155127.447000", "155127.450000", "155127.453000", "155127.455000", "155127.458000", "155127.460000", "155127.463000", "155127.465000", "155127.468000", "155127.471000", "155127.473000", "155127.476000", "155127.478000", "155127.480000", "155127.483000", "155127.485000", "155127.488000", "155127.490000", "155127.493000", "155127.495000", "155207.494000", "155207.496000", "155207.499000", "155207.501000", "155207.504000", "155207.506000", "155207.509000", "155207.511000", "155207.514000", "155207.516000", "155207.519000", "155207.521000", "155207.524000", "155207.526000", "155207.529000", "155207.531000", "155207.534000", "155207.536000", "155207.539000", "155207.541000", "155207.551000", "155207.554000", "155207.556000", "155207.559000", "155207.561000", "155207.564000", "155207.566000", "155227.419000", "155227.422000", "155227.425000", "155227.427000", "155227.430000", "155227.432000", "155227.435000", "155227.437000", "155227.440000", "155227.442000", "155227.445000", "155227.447000", "155227.450000", "155227.452000", "155307.495000", "155307.498000", "155307.501000", "155307.503000", "155307.506000", "155307.508000", "155307.511000", "155307.513000", "155307.516000", "155307.518000", "155307.521000", "155307.523000", "155307.526000", "155307.528000", "155307.531000", "155307.533000", "155307.536000", "155307.538000", "155307.541000", "155307.551000", "155307.554000", "155307.556000", "155307.559000", "155307.562000", "155307.564000", "155307.567000", "155329.918000", "155329.921000", "155329.923000", "155329.926000", "155329.929000", "155329.931000", "155329.934000", "155329.936000", "155329.939000", "155329.941000", "155329.944000", "155329.953000", "155329.955000", "155329.958000", "155329.961000", "155329.963000"],
      "InstanceNumber": [1, 2, 3, 4, 5, 6, 7, 8, 9, 10, 11, 12, 13, 14, 15, 16, 17, 18, 19, 20, 21, 22, 23, 24, 25, 26, 27, 28, 29, 30, 31, 32, 33, 34, 35, 36, 37, 38, 39, 40, 41, 42, 43, 44, 45, 46, 47, 48, 49, 50, 51, 52, 53, 54, 55, 56, 57, 58, 59, 60, 61, 62, 63, 64, 65, 66, 67, 68, 69, 70, 71, 72, 73, 74, 75, 76, 77, 78, 79, 80, 81, 82, 83, 84, 85, 86, 87, 88, 89, 90, 91, 92, 93, 94, 95, 96, 97, 98, 99, 100, 101, 102, 103, 104, 105, 106, 107, 108, 109, 110, 111, 112, 113, 114, 115, 116, 117, 118, 119, 120, 121, 122, 123, 124, 125, 126, 127, 128, 129, 130, 131, 132, 133, 134, 135, 136, 137, 138, 139, 140, 141, 142, 143, 144, 145, 146, 147, 148, 149, 150, 151, 152, 153, 154, 155, 156, 157, 158, 159, 160, 161, 162, 163, 164, 165, 166, 167, 168, 169, 170, 171, 172, 173, 174, 175, 176, 177, 178, 179, 180, 181, 182, 183, 184, 185, 186, 187, 188, 189, 190],
      "WindowCenter": [4852.0, 4854.0, 4876.0, 4874.0, 4880.0, 4854.0, 4822.0, 4822.0, 4822.0, 4826.0, 4852.0, 4850.0, 4878.0, 4876.0, 4874.0, 4874.0, 4852.0, 4826.0, 4826.0, 4826.0, 4850.0, 4854.0, 4850.0, 4850.0, 4854.0, 4854.0, 4852.0, 4856.0, 4852.0, 4876.0, 4878.0, 4876.0, 4854.0, 4852.0, 4852.0, 4880.0, 4908.0, 4880.0, 4852.0, 4876.0, 4876.0, 4878.0, 4852.0, 4856.0, 4880.0, 4874.0, 4852.0, 4848.0, 4876.0, 4878.0, 4878.0, 4876.0, 4852.0, 4856.0, 4850.0, 4876.0, 4882.0, 4856.0, 4852.0, 4854.0, 4852.0, 4878.0, 4876.0, 4878.0, 4876.0, 4874.0, 4876.0, 4854.0, 4852.0, 4878.0, 4878.0, 4876.0, 4876.0, 4874.0, 4874.0, 4874.0, 4876.0, 4848.0, 4854.0, 4878.0, 4882.0, 4876.0, 4852.0, 4856.0, 4858.0, 4880.0, 4878.0, 4876.0, 4878.0, 4880.0, 4852.0, 4852.0, 4850.0, 4854.0, 4882.0, 4856.0, 4852.0, 4876.0, 4880.0, 4874.0, 4856.0, 4878.0, 4900.0, 4904.0, 4878.0, 4852.0, 4880.0, 4874.0, 4880.0, 4856.0, 4852.0, 4854.0, 4878.0, 4876.0, 4880.0, 4880.0, 4852.0, 4878.0, 4856.0, 4878.0, 4856.0, 4878.0, 4882.0, 4878.0, 4884.0, 4878.0, 4880.0, 4876.0, 4854.0, 4852.0, 4876.0, 4840.0, 4904.0, 4856.0, 4828.0, 4850.0, 4850.0, 4876.0, 4878.0, 4882.0, 4876.0, 4878.0, 4882.0, 4876.0, 4878.0, 4876.0, 4850.0, 4852.0, 4852.0, 4856.0, 4878.0, 4884.0, 4880.0, 4874.0, 4808.0, 4904.0, 4830.0, 4824.0, 4824.0, 4828.0, 4854.0, 4878.0, 4878.0, 4886.0, 4880.0, 4872.0, 4882.0, 4878.0, 4854.0, 4848.0, 4854.0, 4856.0, 4876.0, 4878.0, 4878.0, 4800.0, 4774.0, 4878.0, 4830.0, 4826.0, 4824.0, 4824.0, 4854.0, 4884.0, 4884.0, 4872.0, 4838.0, 4880.0, 4882.0, 4852.0],
      "WindowWidth": [18624.0, 18628.0, 18672.0, 18688.0, 18686.0, 18624.0, 18582.0, 18582.0, 18584.0, 18588.0, 18632.0, 18626.0, 18664.0, 18662.0, 18674.0, 18674.0, 18630.0, 18588.0, 18590.0, 18586.0, 18622.0, 18628.0, 18620.0, 18628.0, 18628.0, 18632.0, 18632.0, 18634.0, 18622.0, 18668.0, 18662.0, 18668.0, 18634.0, 18634.0, 18634.0, 18674.0, 18706.0, 18672.0, 18622.0, 18668.0, 18678.0, 18674.0, 18628.0, 18624.0, 18678.0, 18668.0, 18628.0, 18624.0, 18666.0, 18666.0, 18674.0, 18672.0, 18626.0, 18628.0, 18630.0, 18668.0, 18678.0, 18632.0, 18624.0, 18636.0, 18632.0, 18672.0, 18668.0, 18664.0, 18678.0, 18670.0, 18682.0, 18630.0, 18626.0, 18674.0, 18680.0, 18676.0, 18674.0, 18678.0, 18678.0, 18682.0, 18674.0, 18630.0, 18630.0, 18670.0, 18686.0, 18660.0, 18628.0, 18628.0, 18630.0, 18662.0, 18668.0, 18676.0, 18680.0, 18676.0, 18626.0, 18628.0, 18626.0, 18632.0, 18670.0, 18628.0, 18614.0, 18662.0, 18686.0, 18666.0, 18630.0, 18660.0, 18714.0, 18708.0, 18666.0, 18624.0, 18670.0, 18662.0, 18680.0, 18630.0, 18630.0, 18632.0, 18676.0, 18672.0, 18676.0, 18676.0, 18628.0, 18664.0, 18630.0, 18662.0, 18634.0, 18668.0, 18668.0, 18664.0, 18680.0, 18664.0, 18672.0, 18658.0, 18628.0, 18618.0, 18686.0, 18640.0, 18724.0, 18634.0, 18594.0, 18628.0, 18630.0, 18664.0, 18678.0, 18672.0, 18684.0, 18686.0, 18680.0, 18664.0, 18680.0, 18666.0, 18622.0, 18620.0, 18622.0, 18628.0, 18660.0, 18670.0, 18672.0, 18676.0, 18598.0, 18712.0, 18586.0, 18576.0, 18584.0, 18582.0, 18622.0, 18656.0, 18674.0, 18678.0, 18682.0, 18680.0, 18674.0, 18664.0, 18628.0, 18616.0, 18628.0, 18614.0, 18662.0, 18656.0, 18676.0, 18592.0, 18556.0, 18680.0, 18588.0, 18588.0, 18578.0, 18588.0, 18618.0, 18664.0, 18682.0, 18674.0, 18634.0, 18684.0, 18682.0, 18620.0]
    },
    "slices": {}
  }
}