{
  "AcquisitionMatrixPE": 104,
  "AcquisitionNumber": 1,
  "AcquisitionTime": "15:31:55.982500",
  "BandwidthPerPixelPhaseEncode": 17.17,
  "BaseResolution": 104,
  "BodyPartExamined": "BRAIN",
  "CoilString": "HC1-7;NC1_2",
  "ConsistencyInfo": "N4_VE11C_LATEST_20160120",
  "ConversionSoftware": "dcm2niix",
  "ConversionSoftwareVersion": "v1.0.20190902",
  "DerivedVendorReportedEchoSpacing": 0.000560011,
  "DeviceSerialNumber": "167006",
  "DwellTime": 2.1e-06,
  "EchoTime": 0.037,
  "EchoTrainLength": 104,
  "EffectiveEchoSpacing": 0.000560011,
  "FlipAngle": 52,
  "ImageComments": "Unaliased_MB4_PE3_LB",
  "ImageOrientationPatientDICOM": [0.998645, -0.0516151, 0.006645, 0.0509387, 0.943345, -0.32788],
  "ImageType": [
    "ORIGINAL",
    "PRIMARY",
    "M",
    "MB",
    "ND",
    "MOSAIC"
],
  "ImagingFrequency": 123.259,
  "InPlanePhaseEncodingDirectionDICOM": "COL",
  "InstitutionAddress": "Chemin_Queen-Mary_4565_Montreal_District_CA_H3W_1W5",
  "InstitutionName": "IUGM",
  "InstitutionalDepartmentName": "Department",
  "MRAcquisitionType": "2D",
  "MagneticFieldStrength": 3,
  "Manufacturer": "Siemens",
  "ManufacturersModelName": "Prisma_fit",
  "Modality": "MR",
  "MultibandAccelerationFactor": 4,
  "PartialFourier": 1,
  "PatientPosition": "HFS",
  "PercentPhaseFOV": 100,
  "PhaseEncodingDirection": "j",
  "PhaseEncodingSteps": 104,
  "PhaseResolution": 1,
  "PixelBandwidth": 2290,
  "ProcedureStepDescription": "memory_things",
  "ProtocolName": "func_task-things_run-2",
  "PulseSequenceDetails": "%CustomerSeq%_cmrr_mbep2d_bold",
  "ReceiveCoilActiveElements": "HC1-7;NC1,2",
  "ReceiveCoilName": "HeadNeck_64",
  "ReconMatrixPE": 104,
  "RepetitionTime": 1.49,
  "SAR": 0.0380096,
  "ScanOptions": "FS",
  "ScanningSequence": "EP",
  "SequenceName": "epfid2d1_104",
  "SequenceVariant": "SK_SS",
  "SeriesDescription": "func_task-things_run-2",
  "SeriesNumber": 13,
  "ShimSetting": [623, -7247, -8821, 559, -8, -203, -51, -35],
  "SliceThickness": 2,
  "SliceTiming": [0, 0.785, 0.1, 0.8825, 0.1975, 0.98, 0.295, 1.08, 0.3925, 1.1775, 0.49, 1.275, 0.59, 1.3725, 0.6875, 0, 0.785, 0.1, 0.8825, 0.1975, 0.98, 0.295, 1.08, 0.3925, 1.1775, 0.49, 1.275, 0.59, 1.3725, 0.6875, 0, 0.785, 0.1, 0.8825, 0.1975, 0.98, 0.295, 1.08, 0.3925, 1.1775, 0.49, 1.275, 0.59, 1.3725, 0.6875, 0, 0.785, 0.1, 0.8825, 0.1975, 0.98, 0.295, 1.08, 0.3925, 1.1775, 0.49, 1.275, 0.59, 1.3725, 0.6875],
  "SoftwareVersions": "syngo_MR_E11",
  "SpacingBetweenSlices": 2,
  "StationName": "MRC35049",
  "TaskName": "things",
  "TotalReadoutTime": 0.0576811,
  "TxRefAmp": 240.739,
  "WipMemBlock": "7f1614df-cbde-40b2-b221-9f2a58d2ea12||Sequence: R016 ve11c/master r/e634e98; Dec 19 2017 11:00:25 by eja",
  "dcmmeta_affine": [
    [-1.9972898960113525, 0.10187730193138123, -0.021310120820999146, 102.44097900390625],
    [0.10323023796081543, 1.8866899013519287, -0.6555492281913757, -69.96168518066406],
    [0.013289996422827244, 0.6557608246803284, 1.8893917798995972, -61.63075256347656],
    [0.0, 0.0, 0.0, 1.0]
],
  "dcmmeta_reorient_transform": [
    [0.0, -1.0, 0.0, 103.0],
    [1.0, 0.0, 0.0, 0.0],
    [0.0, 0.0, 1.0, 0.0],
    [0.0, 0.0, 0.0, 1.0]
],
  "dcmmeta_shape": [104, 104, 60, 190],
  "dcmmeta_slice_dim": 2,
  "dcmmeta_version": 0.6,
  "global": {
    "const": {
      "AcquisitionMatrix": [104, 0, 0, 104],
      "AngioFlag": "N",
      "BitsAllocated": 16,
      "BitsStored": 16,
      "BodyPartExamined": "BRAIN",
      "Columns": 832,
      "EchoNumbers": 1,
      "EchoTime": 37.0,
      "EchoTrainLength": 104,
      "FlipAngle": 52.0,
      "HighBit": 15,
      "ImageOrientationPatient": [0.99864494367889, -0.0516151185299, 0.00664499840005, 0.05093865076541, 0.94334494561495, -0.327880416373],
      "ImagePositionPatient": [-877.03120093395, -773.54668424389, 239.77199716328],
      "ImageType": [
        "ORIGINAL",
        "PRIMARY",
        "M",
        "MB",
        "ND",
        "MOSAIC"
],
      "ImagedNucleus": "1H",
      "ImagingFrequency": 123.258879,
      "InPlanePhaseEncodingDirection": "COL",
      "MRAcquisitionType": "2D",
      "MagneticFieldStrength": 3.0,
      "Manufacturer": "SIEMENS",
      "ManufacturerModelName": "Prisma_fit",
      "Modality": "MR",
      "NumberOfAverages": 1.0,
      "NumberOfPhaseEncodingSteps": 104,
      "PercentPhaseFieldOfView": 100.0,
      "PercentSampling": 100.0,
      "PerformedProcedureStepStartTime": "145924.353000",
      "PhotometricInterpretation": "MONOCHROME2",
      "PixelBandwidth": 2290.0,
      "PixelRepresentation": 0,
      "PixelSpacing": [2.0, 2.0],
      "ProtocolName": "func_task-things_run-2",
      "RepetitionTime": 1490.0,
      "Rows": 832,
      "SAR": 0.03800960168162,
      "SamplesPerPixel": 1,
      "ScanOptions": "FS",
      "ScanningSequence": "EP",
      "SequenceName": "epfid2d1_104",
      "SequenceVariant": [
        "SK",
        "SS"
],
      "SeriesDescription": "func_task-things_run-2",
      "SeriesNumber": 13,
      "SeriesTime": "153302.141000",
      "SliceLocation": -36.382167270261,
      "SliceThickness": 2.0,
      "SmallestImagePixelValue": 0,
      "SoftwareVersions": "syngo MR E11",
      "SpacingBetweenSlices": 1.9999999914467,
      "SpecificCharacterSet": "ISO_IR 100",
      "StudyID": "1",
      "StudyTime": "145924.271000",
      "TransmitCoilName": "Body",
      "VariableFlipAngleFlag": "N",
      "WindowCenterWidthExplanation": "Algo1",
      "dBdt": 0.0},
    "slices": {}
  },
  "time": {
    "samples": {
      "AcquisitionNumber": [1, 2, 3, 4, 5, 6, 7, 8, 9, 10, 11, 12, 13, 14, 15, 16, 17, 18, 19, 20, 21, 22, 23, 24, 25, 26, 27, 28, 29, 30, 31, 32, 33, 34, 35, 36, 37, 38, 39, 40, 41, 42, 43, 44, 45, 46, 47, 48, 49, 50, 51, 52, 53, 54, 55, 56, 57, 58, 59, 60, 61, 62, 63, 64, 65, 66, 67, 68, 69, 70, 71, 72, 73, 74, 75, 76, 77, 78, 79, 80, 81, 82, 83, 84, 85, 86, 87, 88, 89, 90, 91, 92, 93, 94, 95, 96, 97, 98, 99, 100, 101, 102, 103, 104, 105, 106, 107, 108, 109, 110, 111, 112, 113, 114, 115, 116, 117, 118, 119, 120, 121, 122, 123, 124, 125, 126, 127, 128, 129, 130, 131, 132, 133, 134, 135, 136, 137, 138, 139, 140, 141, 142, 143, 144, 145, 146, 147, 148, 149, 150, 151, 152, 153, 154, 155, 156, 157, 158, 159, 160, 161, 162, 163, 164, 165, 166, 167, 168, 169, 170, 171, 172, 173, 174, 175, 176, 177, 178, 179, 180, 181, 182, 183, 184, 185, 186, 187, 188, 189, 190],
      "AcquisitionTime": ["153155.982500", "153157.472500", "153158.962500", "153200.452500", "153201.942500", "153203.432500", "153204.922500", "153206.412500", "153207.902500", "153209.392500", "153210.882500", "153212.372500", "153213.862500", "153215.352500", "153216.842500", "153218.332500", "153219.822500", "153221.312500", "153222.802500", "153224.292500", "153225.782500", "153227.272500", "153228.762500", "153230.252500", "153231.742500", "153233.232500", "153234.722500", "153236.212500", "153237.702500", "153239.192500", "153240.682500", "153242.172500", "153243.662500", "153245.152500", "153246.642500", "153248.132500", "153249.622500", "153251.112500", "153252.602500", "153254.092500", "153255.582500", "153257.072500", "153258.562500", "153300.052500", "153301.542500", "153303.032500", "153304.522500", "153306.012500", "153307.502500", "153308.992500", "153310.482500", "153311.972500", "153313.462500", "153314.952500", "153316.442500", "153317.932500", "153319.422500", "153320.912500", "153322.402500", "153323.892500", "153325.382500", "153326.872500", "153328.362500", "153329.852500", "153331.342500", "153332.832500", "153334.322500", "153335.812500", "153337.302500", "153338.792500", "153340.282500", "153341.772500", "153343.262500", "153344.752500", "153346.242500", "153347.732500", "153349.222500", "153350.712500", "153352.202500", "153353.692500", "153355.182500", "153356.672500", "153358.162500", "153359.652500", "153401.142500", "153402.632500", "153404.122500", "153405.612500", "153407.102500", "153408.592500", "153410.082500", "153411.572500", "153413.062500", "153414.552500", "153416.042500", "153417.532500", "153419.022500", "153420.512500", "153422.002500", "153423.492500", "153424.982500", "153426.472500", "153427.962500", "153429.452500", "153430.942500", "153432.432500", "153433.922500", "153435.412500", "153436.902500", "153438.392500", "153439.882500", "153441.372500", "153442.862500", "153444.352500", "153445.842500", "153447.332500", "153448.822500", "153450.312500", "153451.802500", "153453.292500", "153454.782500", "153456.272500", "153457.762500", "153459.252500", "153500.742500", "153502.232500", "153503.722500", "153505.212500", "153506.702500", "153508.192500", "153509.682500", "153511.172500", "153512.662500", "153514.152500", "153515.642500", "153517.132500", "153518.622500", "153520.112500", "153521.602500", "153523.092500", "153524.582500", "153526.072500", "153527.562500", "153529.052500", "153530.542500", "153532.032500", "153533.522500", "153535.012500", "153536.502500", "153537.992500", "153539.482500", "153540.972500", "153542.462500", "153543.952500", "153545.442500", "153546.932500", "153548.422500", "153549.912500", "153551.402500", "153552.892500", "153554.382500", "153555.872500", "153557.362500", "153558.852500", "153600.342500", "153601.832500", "153603.322500", "153604.812500", "153606.302500", "153607.792500", "153609.282500", "153610.772500", "153612.262500", "153613.752500", "153615.242500", "153616.732500", "153618.222500", "153619.712500", "153621.202500", "153622.692500", "153624.182500", "153625.672500", "153627.162500", "153628.652500", "153630.142500", "153631.632500", "153633.122500", "153634.612500", "153636.102500", "153637.592500"],
      "ContentTime": ["153302.144000", "153302.147000", "153302.151000", "153302.154000", "153302.157000", "153302.161000", "153302.164000", "153302.167000", "153302.171000", "153302.174000", "153302.177000", "153322.110000", "153322.114000", "153322.117000", "153322.120000", "153322.124000", "153322.127000", "153322.130000", "153322.134000", "153322.137000", "153322.140000", "153322.143000", "153322.147000", "153322.150000", "153322.153000", "153322.157000", "153322.160000", "153322.164000", "153322.167000", "153322.170000", "153322.174000", "153322.177000", "153342.110000", "153342.114000", "153342.117000", "153342.120000", "153342.124000", "153342.127000", "153342.130000", "153342.134000", "153342.137000", "153342.140000", "153342.160000", "153342.164000", "153342.167000", "153342.170000", "153342.174000", "153342.177000", "153342.180000", "153342.184000", "153342.187000", "153342.190000", "153402.110000", "153402.114000", "153402.117000", "153402.120000", "153402.124000", "153402.127000", "153402.130000", "153402.134000", "153402.138000", "153402.141000", "153402.145000", "153402.149000", "153402.152000", "153402.156000", "153402.161000", "153402.166000", "153402.170000", "153402.173000", "153402.176000", "153402.180000", "153422.111000", "153422.115000", "153422.118000", "153422.121000", "153422.125000", "153422.128000", "153422.131000", "153422.150000", "153422.153000", "153422.156000", "153422.167000", "153422.171000", "153422.174000", "153422.177000", "153422.181000", "153422.184000", "153422.187000", "153422.191000", "153422.194000", "153422.197000", "153422.201000", "153502.111000", "153502.115000", "153502.118000", "153502.121000", "153502.125000", "153502.128000", "153502.132000", "153502.135000", "153502.139000", "153502.142000", "153502.145000", "153502.149000", "153502.152000", "153502.155000", "153502.159000", "153502.163000", "153502.166000", "153502.169000", "153502.172000", "153502.176000", "153502.179000", "153502.183000", "153502.186000", "153502.189000", "153502.193000", "153502.196000", "153502.199000", "153502.203000", "153502.206000", "153502.209000", "153502.213000", "153542.110000", "153542.114000", "153542.117000", "153542.121000", "153542.124000", "153542.127000", "153542.130000", "153542.134000", "153542.137000", "153542.140000", "153542.144000", "153542.147000", "153542.150000", "153542.154000", "153542.157000", "153542.161000", "153542.164000", "153542.168000", "153542.171000", "153542.174000", "153542.178000", "153542.181000", "153542.184000", "153542.188000", "153542.191000", "153542.194000", "153542.198000", "153622.110000", "153622.114000", "153622.117000", "153622.121000", "153622.124000", "153622.127000", "153622.131000", "153622.134000", "153622.138000", "153622.141000", "153622.145000", "153622.148000", "153622.151000", "153622.161000", "153622.164000", "153622.168000", "153622.171000", "153622.175000", "153622.178000", "153622.181000", "153622.185000", "153622.188000", "153622.191000", "153622.195000", "153622.198000", "153622.201000", "153640.218000", "153640.221000", "153640.237000", "153640.241000", "153640.244000", "153640.248000", "153640.251000", "153640.254000", "153640.258000", "153640.261000", "153640.265000", "153640.268000", "153640.271000"],
      "InstanceCreationTime": ["153302.144000", "153302.147000", "153302.151000", "153302.154000", "153302.157000", "153302.161000", "153302.164000", "153302.167000", "153302.171000", "153302.174000", "153302.177000", "153322.110000", "153322.114000", "153322.117000", "153322.120000", "153322.124000", "153322.127000", "153322.130000", "153322.134000", "153322.137000", "153322.140000", "153322.143000", "153322.147000", "153322.150000", "153322.153000", "153322.157000", "153322.160000", "153322.164000", "153322.167000", "153322.170000", "153322.174000", "153322.177000", "153342.110000", "153342.114000", "153342.117000", "153342.120000", "153342.124000", "153342.127000", "153342.130000", "153342.134000", "153342.137000", "153342.140000", "153342.160000", "153342.164000", "153342.167000", "153342.170000", "153342.174000", "153342.177000", "153342.180000", "153342.184000", "153342.187000", "153342.190000", "153402.110000", "153402.114000", "153402.117000", "153402.120000", "153402.124000", "153402.127000", "153402.130000", "153402.134000", "153402.138000", "153402.141000", "153402.145000", "153402.149000", "153402.152000", "153402.156000", "153402.161000", "153402.166000", "153402.170000", "153402.173000", "153402.176000", "153402.180000", "153422.111000", "153422.115000", "153422.118000", "153422.121000", "153422.125000", "153422.128000", "153422.131000", "153422.150000", "153422.153000", "153422.156000", "153422.167000", "153422.171000", "153422.174000", "153422.177000", "153422.181000", "153422.184000", "153422.187000", "153422.191000", "153422.194000", "153422.197000", "153422.201000", "153502.111000", "153502.115000", "153502.118000", "153502.121000", "153502.125000", "153502.128000", "153502.132000", "153502.135000", "153502.139000", "153502.142000", "153502.145000", "153502.149000", "153502.152000", "153502.155000", "153502.159000", "153502.163000", "153502.166000", "153502.169000", "153502.172000", "153502.176000", "153502.179000", "153502.183000", "153502.186000", "153502.189000", "153502.193000", "153502.196000", "153502.199000", "153502.203000", "153502.206000", "153502.209000", "153502.213000", "153542.110000", "153542.114000", "153542.117000", "153542.121000", "153542.124000", "153542.127000", "153542.130000", "153542.134000", "153542.137000", "153542.140000", "153542.144000", "153542.147000", "153542.150000", "153542.154000", "153542.157000", "153542.161000", "153542.164000", "153542.168000", "153542.171000", "153542.174000", "153542.178000", "153542.181000", "153542.184000", "153542.188000", "153542.191000", "153542.194000", "153542.198000", "153622.110000", "153622.114000", "153622.117000", "153622.121000", "153622.124000", "153622.127000", "153622.131000", "153622.134000", "153622.138000", "153622.141000", "153622.145000", "153622.148000", "153622.151000", "153622.161000", "153622.164000", "153622.168000", "153622.171000", "153622.175000", "153622.178000", "153622.181000", "153622.185000", "153622.188000", "153622.191000", "153622.195000", "153622.198000", "153622.201000", "153640.218000", "153640.221000", "153640.237000", "153640.241000", "153640.244000", "153640.248000", "153640.251000", "153640.254000", "153640.258000", "153640.261000", "153640.265000", "153640.268000", "153640.271000"],
      "InstanceNumber": [1, 2, 3, 4, 5, 6, 7, 8, 9, 10, 11, 12, 13, 14, 15, 16, 17, 18, 19, 20, 21, 22, 23, 24, 25, 26, 27, 28, 29, 30, 31, 32, 33, 34, 35, 36, 37, 38, 39, 40, 41, 42, 43, 44, 45, 46, 47, 48, 49, 50, 51, 52, 53, 54, 55, 56, 57, 58, 59, 60, 61, 62, 63, 64, 65, 66, 67, 68, 69, 70, 71, 72, 73, 74, 75, 76, 77, 78, 79, 80, 81, 82, 83, 84, 85, 86, 87, 88, 89, 90, 91, 92, 93, 94, 95, 96, 97, 98, 99, 100, 101, 102, 103, 104, 105, 106, 107, 108, 109, 110, 111, 112, 113, 114, 115, 116, 117, 118, 119, 120, 121, 122, 123, 124, 125, 126, 127, 128, 129, 130, 131, 132, 133, 134, 135, 136, 137, 138, 139, 140, 141, 142, 143, 144, 145, 146, 147, 148, 149, 150, 151, 152, 153, 154, 155, 156, 157, 158, 159, 160, 161, 162, 163, 164, 165, 166, 167, 168, 169, 170, 171, 172, 173, 174, 175, 176, 177, 178, 179, 180, 181, 182, 183, 184, 185, 186, 187, 188, 189, 190],
      "LargestImagePixelValue": [45549, 43219, 44423, 44651, 43187, 43081, 43354, 42980, 43484, 42727, 43410, 42912, 43084, 43104, 42166, 42432, 42187, 43014, 42812, 43334, 42793, 43110, 43081, 42779, 42781, 42911, 42558, 42573, 43060, 43401, 42979, 43208, 42476, 42232, 42130, 42809, 43150, 42048, 42374, 43574, 43312, 42643, 42750, 42725, 42530, 42598, 42584, 42432, 42625, 43202, 43363, 43092, 42711, 42490, 42787, 42165, 42239, 42347, 42229, 42645, 42623, 42477, 42187, 42328, 41914, 42119, 42313, 42029, 42051, 42015, 42106, 41927, 42077, 41959, 41728, 42413, 41924, 43037, 42349, 42788, 41953, 41645, 42396, 42297, 41842, 41967, 42075, 42111, 42515, 43667, 42023, 42924, 42294, 42796, 43104, 42697, 43470, 42002, 43163, 43572, 43471, 43144, 42711, 43813, 43211, 42947, 43337, 42587, 43303, 43568, 43538, 43782, 43596, 43266, 43537, 43299, 43398, 43737, 43702, 43584, 42763, 42720, 42866, 43069, 44263, 43420, 44149, 44495, 43363, 43769, 43806, 43888, 43786, 44344, 42859, 43424, 44419, 45124, 45040, 44146, 44211, 44130, 42919, 43993, 44107, 45624, 45595, 45785, 45403, 44952, 44987, 45429, 44850, 45238, 45438, 45275, 43811, 45931, 45031, 46106, 44440, 45524, 44742, 43377, 44694, 44562, 44632, 45423, 45860, 46041, 46141, 46221, 45806, 45034, 46040, 45961, 45539, 45141, 45278, 45133, 44884, 44034, 44367, 45197, 45053, 44411, 44661, 44794, 44639, 44521],
      "WindowCenter": [10553.0, 10470.0, 10471.0, 10466.0, 10440.0, 10420.0, 10422.0, 10431.0, 10446.0, 10443.0, 10446.0, 10434.0, 10445.0, 10460.0, 10446.0, 10436.0, 10421.0, 10415.0, 10415.0, 10429.0, 10444.0, 10445.0, 10439.0, 10447.0, 10469.0, 10487.0, 10477.0, 10459.0, 10440.0, 10450.0, 10461.0, 10476.0, 10459.0, 10444.0, 10436.0, 10444.0, 10464.0, 10477.0, 10483.0, 10479.0, 10434.0, 10405.0, 10387.0, 10393.0, 10402.0, 10418.0, 10413.0, 10403.0, 10402.0, 10415.0, 10429.0, 10440.0, 10441.0, 10430.0, 10420.0, 10415.0, 10424.0, 10429.0, 10437.0, 10453.0, 10447.0, 10429.0, 10421.0, 10422.0, 10428.0, 10438.0, 10447.0, 10449.0, 10437.0, 10426.0, 10417.0, 10417.0, 10418.0, 10416.0, 10413.0, 10416.0, 10410.0, 10417.0, 10429.0, 10443.0, 10434.0, 10420.0, 10424.0, 10425.0, 10432.0, 10434.0, 10440.0, 10454.0, 10476.0, 10470.0, 10428.0, 10395.0, 10389.0, 10448.0, 10466.0, 10428.0, 10409.0, 10379.0, 10399.0, 10409.0, 10408.0, 10386.0, 10362.0, 10380.0, 10391.0, 10399.0, 10393.0, 10395.0, 10416.0, 10433.0, 10432.0, 10423.0, 10436.0, 10463.0, 10464.0, 10451.0, 10455.0, 10471.0, 10464.0, 10435.0, 10410.0, 10395.0, 10448.0, 10474.0, 10451.0, 10422.0, 10413.0, 10419.0, 10399.0, 10404.0, 10420.0, 10405.0, 10381.0, 10389.0, 10387.0, 10427.0, 10459.0, 10457.0, 10448.0, 10429.0, 10411.0, 10375.0, 10354.0, 10381.0, 10425.0, 10439.0, 10411.0, 10390.0, 10387.0, 10403.0, 10421.0, 10430.0, 10420.0, 10411.0, 10410.0, 10419.0, 10438.0, 10494.0, 10505.0, 10508.0, 10490.0, 10487.0, 10483.0, 10457.0, 10450.0, 10421.0, 10403.0, 10399.0, 10398.0, 10392.0, 10393.0, 10390.0, 10377.0, 10381.0, 10430.0, 10439.0, 10418.0, 10404.0, 10406.0, 10412.0, 10398.0, 10407.0, 10441.0, 10460.0, 10423.0, 10380.0, 10364.0, 10369.0, 10388.0, 10396.0],
      "WindowWidth": [22906.0, 22656.0, 22634.0, 22608.0, 22543.0, 22489.0, 22489.0, 22508.0, 22540.0, 22535.0, 22539.0, 22514.0, 22536.0, 22571.0, 22545.0, 22522.0, 22488.0, 22471.0, 22474.0, 22505.0, 22540.0, 22540.0, 22531.0, 22549.0, 22602.0, 22644.0, 22623.0, 22580.0, 22533.0, 22556.0, 22584.0, 22618.0, 22580.0, 22546.0, 22528.0, 22543.0, 22589.0, 22626.0, 22637.0, 22626.0, 22526.0, 22457.0, 22414.0, 22424.0, 22446.0, 22480.0, 22469.0, 22447.0, 22447.0, 22477.0, 22509.0, 22536.0, 22538.0, 22513.0, 22490.0, 22480.0, 22500.0, 22512.0, 22529.0, 22568.0, 22551.0, 22509.0, 22490.0, 22495.0, 22508.0, 22534.0, 22555.0, 22560.0, 22534.0, 22509.0, 22486.0, 22484.0, 22486.0, 22484.0, 22479.0, 22484.0, 22469.0, 22482.0, 22513.0, 22543.0, 22527.0, 22497.0, 22504.0, 22509.0, 22525.0, 22529.0, 22542.0, 22575.0, 22624.0, 22613.0, 22518.0, 22436.0, 22424.0, 22560.0, 22602.0, 22514.0, 22467.0, 22408.0, 22444.0, 22470.0, 22463.0, 22412.0, 22363.0, 22399.0, 22428.0, 22444.0, 22431.0, 22437.0, 22484.0, 22525.0, 22523.0, 22504.0, 22531.0, 22598.0, 22599.0, 22570.0, 22579.0, 22614.0, 22599.0, 22532.0, 22479.0, 22440.0, 22563.0, 22622.0, 22567.0, 22496.0, 22478.0, 22498.0, 22448.0, 22458.0, 22492.0, 22457.0, 22403.0, 22420.0, 22418.0, 22511.0, 22585.0, 22578.0, 22555.0, 22515.0, 22469.0, 22388.0, 22344.0, 22395.0, 22499.0, 22531.0, 22467.0, 22415.0, 22408.0, 22445.0, 22487.0, 22507.0, 22489.0, 22466.0, 22463.0, 22487.0, 22537.0, 22660.0, 22693.0, 22697.0, 22659.0, 22649.0, 22644.0, 22588.0, 22562.0, 22496.0, 22456.0, 22445.0, 22441.0, 22427.0, 22430.0, 22422.0, 22391.0, 22399.0, 22509.0, 22533.0, 22483.0, 22453.0, 22456.0, 22467.0, 22439.0, 22466.0, 22538.0, 22580.0, 22493.0, 22396.0, 22355.0, 22369.0, 22417.0, 22435.0]
    },
    "slices": {}
  }
}