{
  "AcquisitionMatrixPE": 104,
  "AcquisitionNumber": 1,
  "AcquisitionTime": "15:22:55.295000",
  "BandwidthPerPixelPhaseEncode": 17.17,
  "BaseResolution": 104,
  "BodyPartExamined": "BRAIN",
  "CoilString": "HC1-7;NC1_2",
  "ConsistencyInfo": "N4_VE11C_LATEST_20160120",
  "ConversionSoftware": "dcm2niix",
  "ConversionSoftwareVersion": "v1.0.20190902",
  "DerivedVendorReportedEchoSpacing": 0.000560011,
  "DeviceSerialNumber": "167006",
  "DwellTime": 2.1e-06,
  "EchoTime": 0.037,
  "EchoTrainLength": 104,
  "EffectiveEchoSpacing": 0.000560011,
  "FlipAngle": 52,
  "ImageComments": "Unaliased_MB4_PE3_LB",
  "ImageOrientationPatientDICOM": [0.998645, -0.0516151, 0.006645, 0.0509387, 0.943345, -0.32788],
  "ImageType": [
    "ORIGINAL",
    "PRIMARY",
    "P",
    "MB",
    "ND",
    "MOSAIC"
],
  "ImagingFrequency": 123.259,
  "InPlanePhaseEncodingDirectionDICOM": "COL",
  "InstitutionAddress": "Chemin_Queen-Mary_4565_Montreal_District_CA_H3W_1W5",
  "InstitutionName": "IUGM",
  "InstitutionalDepartmentName": "Department",
  "MRAcquisitionType": "2D",
  "MagneticFieldStrength": 3,
  "Manufacturer": "Siemens",
  "ManufacturersModelName": "Prisma_fit",
  "Modality": "MR",
  "MultibandAccelerationFactor": 4,
  "PartialFourier": 1,
  "PatientPosition": "HFS",
  "PercentPhaseFOV": 100,
  "PhaseEncodingDirection": "j",
  "PhaseEncodingSteps": 104,
  "PhaseResolution": 1,
  "PixelBandwidth": 2290,
  "ProcedureStepDescription": "memory_things",
  "ProtocolName": "func_task-things_run-1",
  "PulseSequenceDetails": "%CustomerSeq%_cmrr_mbep2d_bold",
  "ReceiveCoilActiveElements": "HC1-7;NC1,2",
  "ReceiveCoilName": "HeadNeck_64",
  "ReconMatrixPE": 104,
  "RepetitionTime": 1.49,
  "SAR": 0.0380096,
  "ScanOptions": "FS",
  "ScanningSequence": "EP",
  "SequenceName": "epfid2d1_104",
  "SequenceVariant": "SK_SS",
  "SeriesDescription": "func_task-things_run-1",
  "SeriesNumber": 11,
  "ShimSetting": [623, -7247, -8821, 559, -8, -203, -51, -35],
  "SliceThickness": 2,
  "SliceTiming": [0, 0.7825, 0.0975, 0.88, 0.195, 0.98, 0.2925, 1.0775, 0.39, 1.175, 0.49, 1.2725, 0.5875, 1.37, 0.685, 0, 0.7825, 0.0975, 0.88, 0.195, 0.98, 0.2925, 1.0775, 0.39, 1.175, 0.49, 1.2725, 0.5875, 1.37, 0.685, 0, 0.7825, 0.0975, 0.88, 0.195, 0.98, 0.2925, 1.0775, 0.39, 1.175, 0.49, 1.2725, 0.5875, 1.37, 0.685, 0, 0.7825, 0.0975, 0.88, 0.195, 0.98, 0.2925, 1.0775, 0.39, 1.175, 0.49, 1.2725, 0.5875, 1.37, 0.685],
  "SoftwareVersions": "syngo_MR_E11",
  "SpacingBetweenSlices": 2,
  "StationName": "MRC35049",
  "TaskName": "things",
  "TotalReadoutTime": 0.0576811,
  "TxRefAmp": 240.739,
  "WipMemBlock": "a356a4dd-8cf5-403f-9c38-c8c16c83dd02||Sequence: R016 ve11c/master r/e634e98; Dec 19 2017 11:00:25 by eja",
  "dcmmeta_affine": [
    [-1.9972898960113525, 0.10187730193138123, -0.021310120820999146, 102.44097900390625],
    [0.10323023796081543, 1.8866899013519287, -0.6555492281913757, -69.96168518066406],
    [0.013289996422827244, 0.6557608246803284, 1.8893917798995972, -61.63075256347656],
    [0.0, 0.0, 0.0, 1.0]
],
  "dcmmeta_reorient_transform": [
    [0.0, -1.0, 0.0, 103.0],
    [1.0, 0.0, 0.0, 0.0],
    [0.0, 0.0, 1.0, 0.0],
    [0.0, 0.0, 0.0, 1.0]
],
  "dcmmeta_shape": [104, 104, 60, 190],
  "dcmmeta_slice_dim": 2,
  "dcmmeta_version": 0.6,
  "global": {
    "const": {
      "AcquisitionMatrix": [104, 0, 0, 104],
      "AngioFlag": "N",
      "BitsAllocated": 16,
      "BitsStored": 16,
      "BodyPartExamined": "BRAIN",
      "Columns": 832,
      "EchoNumbers": 1,
      "EchoTime": 37.0,
      "EchoTrainLength": 104,
      "FlipAngle": 52.0,
      "HighBit": 15,
      "ImageOrientationPatient": [0.99864494367889, -0.0516151185299, 0.00664499840005, 0.05093865076541, 0.94334494561495, -0.327880416373],
      "ImagePositionPatient": [-877.03120093395, -773.54668424389, 239.77199716328],
      "ImageType": [
        "ORIGINAL",
        "PRIMARY",
        "P",
        "MB",
        "ND",
        "MOSAIC"
],
      "ImagedNucleus": "1H",
      "ImagingFrequency": 123.258874,
      "InPlanePhaseEncodingDirection": "COL",
      "LargestImagePixelValue": 4095,
      "MRAcquisitionType": "2D",
      "MagneticFieldStrength": 3.0,
      "Manufacturer": "SIEMENS",
      "ManufacturerModelName": "Prisma_fit",
      "Modality": "MR",
      "NumberOfAverages": 1.0,
      "NumberOfPhaseEncodingSteps": 104,
      "PercentPhaseFieldOfView": 100.0,
      "PercentSampling": 100.0,
      "PerformedProcedureStepStartTime": "145924.353000",
      "PhotometricInterpretation": "MONOCHROME2",
      "PixelBandwidth": 2290.0,
      "PixelRepresentation": 0,
      "PixelSpacing": [2.0, 2.0],
      "ProtocolName": "func_task-things_run-1",
      "RepetitionTime": 1490.0,
      "RescaleIntercept": -4096.0,
      "RescaleSlope": 2.0,
      "RescaleType": "US",
      "Rows": 832,
      "SAR": 0.03800960168162,
      "SamplesPerPixel": 1,
      "ScanOptions": "FS",
      "ScanningSequence": "EP",
      "SequenceName": "epfid2d1_104",
      "SequenceVariant": [
        "SK",
        "SS"
],
      "SeriesDescription": "func_task-things_run-1",
      "SeriesNumber": 11,
      "SeriesTime": "152407.479000",
      "SliceLocation": -36.382167270261,
      "SliceThickness": 2.0,
      "SmallestImagePixelValue": 0,
      "SoftwareVersions": "syngo MR E11",
      "SpacingBetweenSlices": 1.9999999914467,
      "SpecificCharacterSet": "ISO_IR 100",
      "StudyID": "1",
      "StudyTime": "145924.271000",
      "TransmitCoilName": "Body",
      "VariableFlipAngleFlag": "N",
      "WindowCenterWidthExplanation": "Algo1",
      "dBdt": 0.0},
    "slices": {}
  },
  "time": {
    "samples": {
      "AcquisitionNumber": [1, 2, 3, 4, 5, 6, 7, 8, 9, 10, 11, 12, 13, 14, 15, 16, 17, 18, 19, 20, 21, 22, 23, 24, 25, 26, 27, 28, 29, 30, 31, 32, 33, 34, 35, 36, 37, 38, 39, 40, 41, 42, 43, 44, 45, 46, 47, 48, 49, 50, 51, 52, 53, 54, 55, 56, 57, 58, 59, 60, 61, 62, 63, 64, 65, 66, 67, 68, 69, 70, 71, 72, 73, 74, 75, 76, 77, 78, 79, 80, 81, 82, 83, 84, 85, 86, 87, 88, 89, 90, 91, 92, 93, 94, 95, 96, 97, 98, 99, 100, 101, 102, 103, 104, 105, 106, 107, 108, 109, 110, 111, 112, 113, 114, 115, 116, 117, 118, 119, 120, 121, 122, 123, 124, 125, 126, 127, 128, 129, 130, 131, 132, 133, 134, 135, 136, 137, 138, 139, 140, 141, 142, 143, 144, 145, 146, 147, 148, 149, 150, 151, 152, 153, 154, 155, 156, 157, 158, 159, 160, 161, 162, 163, 164, 165, 166, 167, 168, 169, 170, 171, 172, 173, 174, 175, 176, 177, 178, 179, 180, 181, 182, 183, 184, 185, 186, 187, 188, 189, 190],
      "AcquisitionTime": ["152255.295000", "152256.785000", "152258.275000", "152259.765000", "152301.255000", "152302.745000", "152304.235000", "152305.725000", "152307.215000", "152308.705000", "152310.195000", "152311.685000", "152313.175000", "152314.665000", "152316.155000", "152317.645000", "152319.135000", "152320.625000", "152322.115000", "152323.605000", "152325.095000", "152326.585000", "152328.075000", "152329.565000", "152331.055000", "152332.545000", "152334.035000", "152335.525000", "152337.015000", "152338.505000", "152339.995000", "152341.485000", "152342.975000", "152344.465000", "152345.955000", "152347.445000", "152348.935000", "152350.425000", "152351.915000", "152353.405000", "152354.895000", "152356.385000", "152357.875000", "152359.365000", "152400.855000", "152402.345000", "152403.835000", "152405.325000", "152406.815000", "152408.305000", "152409.795000", "152411.285000", "152412.775000", "152414.265000", "152415.755000", "152417.245000", "152418.735000", "152420.225000", "152421.715000", "152423.205000", "152424.695000", "152426.185000", "152427.675000", "152429.165000", "152430.655000", "152432.145000", "152433.635000", "152435.125000", "152436.615000", "152438.105000", "152439.595000", "152441.085000", "152442.575000", "152444.065000", "152445.555000", "152447.045000", "152448.535000", "152450.025000", "152451.515000", "152453.005000", "152454.495000", "152455.985000", "152457.475000", "152458.965000", "152500.455000", "152501.945000", "152503.435000", "152504.925000", "152506.415000", "152507.905000", "152509.395000", "152510.885000", "152512.375000", "152513.865000", "152515.355000", "152516.845000", "152518.335000", "152519.825000", "152521.315000", "152522.805000", "152524.295000", "152525.785000", "152527.275000", "152528.765000", "152530.255000", "152531.745000", "152533.235000", "152534.725000", "152536.215000", "152537.705000", "152539.195000", "152540.685000", "152542.175000", "152543.665000", "152545.155000", "152546.645000", "152548.135000", "152549.625000", "152551.115000", "152552.605000", "152554.095000", "152555.585000", "152557.075000", "152558.565000", "152600.055000", "152601.545000", "152603.035000", "152604.525000", "152606.015000", "152607.505000", "152608.995000", "152610.485000", "152611.975000", "152613.465000", "152614.955000", "152616.445000", "152617.935000", "152619.425000", "152620.915000", "152622.405000", "152623.895000", "152625.385000", "152626.875000", "152628.365000", "152629.855000", "152631.345000", "152632.835000", "152634.325000", "152635.815000", "152637.305000", "152638.795000", "152640.285000", "152641.775000", "152643.265000", "152644.755000", "152646.245000", "152647.735000", "152649.225000", "152650.715000", "152652.205000", "152653.695000", "152655.185000", "152656.675000", "152658.165000", "152659.655000", "152701.145000", "152702.635000", "152704.125000", "152705.615000", "152707.105000", "152708.595000", "152710.085000", "152711.575000", "152713.065000", "152714.555000", "152716.045000", "152717.535000", "152719.025000", "152720.515000", "152722.005000", "152723.495000", "152724.985000", "152726.475000", "152727.965000", "152729.455000", "152730.945000", "152732.435000", "152733.925000", "152735.415000", "152736.905000"],
      "ContentTime": ["152407.481000", "152407.484000", "152407.486000", "152407.489000", "152407.491000", "152407.494000", "152407.496000", "152407.499000", "152407.501000", "152407.504000", "152407.506000", "152407.509000", "152407.511000", "152407.513000", "152407.516000", "152407.518000", "152407.521000", "152407.523000", "152427.445000", "152427.448000", "152427.450000", "152427.453000", "152427.455000", "152427.458000", "152427.460000", "152427.463000", "152427.465000", "152427.468000", "152427.470000", "152427.473000", "152427.475000", "152427.478000", "152427.480000", "152427.483000", "152427.485000", "152427.488000", "152427.490000", "152427.492000", "152427.495000", "152447.444000", "152447.447000", "152447.449000", "152447.452000", "152447.454000", "152447.457000", "152447.459000", "152447.462000", "152447.464000", "152447.467000", "152447.469000", "152447.472000", "152447.474000", "152447.477000", "152447.479000", "152447.482000", "152447.484000", "152447.487000", "152447.489000", "152447.492000", "152507.460000", "152507.463000", "152507.466000", "152507.468000", "152507.471000", "152507.473000", "152507.476000", "152507.478000", "152507.481000", "152507.483000", "152507.486000", "152507.488000", "152507.491000", "152507.493000", "152507.496000", "152507.498000", "152507.501000", "152507.510000", "152507.512000", "152507.515000", "152507.517000", "152527.454000", "152527.457000", "152527.459000", "152527.462000", "152527.464000", "152527.467000", "152527.469000", "152527.472000", "152527.474000", "152527.477000", "152527.483000", "152527.486000", "152527.488000", "152527.491000", "152527.493000", "152527.496000", "152527.498000", "152527.501000", "152527.503000", "152527.506000", "152607.946000", "152607.949000", "152607.952000", "152607.954000", "152607.957000", "152607.959000", "152607.962000", "152607.964000", "152607.967000", "152607.969000", "152607.972000", "152607.974000", "152607.977000", "152607.979000", "152607.982000", "152607.984000", "152607.987000", "152607.990000", "152607.992000", "152607.995000", "152607.997000", "152608.001000", "152608.003000", "152608.006000", "152608.008000", "152608.011000", "152608.014000", "152608.016000", "152647.470000", "152647.472000", "152647.475000", "152647.477000", "152647.480000", "152647.482000", "152647.485000", "152647.487000", "152647.490000", "152647.493000", "152647.495000", "152647.498000", "152647.500000", "152647.503000", "152647.505000", "152647.516000", "152647.518000", "152647.521000", "152647.523000", "152647.526000", "152647.528000", "152647.531000", "152647.534000", "152647.536000", "152647.539000", "152647.541000", "152647.544000", "152727.483000", "152727.486000", "152727.488000", "152727.491000", "152727.493000", "152727.496000", "152727.498000", "152727.501000", "152727.503000", "152727.506000", "152727.508000", "152727.511000", "152727.513000", "152727.516000", "152727.519000", "152727.521000", "152727.524000", "152727.527000", "152727.529000", "152727.532000", "152727.534000", "152727.537000", "152727.540000", "152727.542000", "152727.545000", "152727.547000", "152727.550000", "152738.782000", "152738.785000", "152738.787000", "152738.790000", "152738.793000", "152738.795000", "152738.798000", "152738.801000"],
      "InstanceCreationTime": ["152407.481000", "152407.484000", "152407.486000", "152407.489000", "152407.491000", "152407.494000", "152407.496000", "152407.499000", "152407.501000", "152407.504000", "152407.506000", "152407.509000", "152407.511000", "152407.513000", "152407.516000", "152407.518000", "152407.521000", "152407.523000", "152427.445000", "152427.448000", "152427.450000", "152427.453000", "152427.455000", "152427.458000", "152427.460000", "152427.463000", "152427.465000", "152427.468000", "152427.470000", "152427.473000", "152427.475000", "152427.478000", "152427.480000", "152427.483000", "152427.485000", "152427.488000", "152427.490000", "152427.492000", "152427.495000", "152447.444000", "152447.447000", "152447.449000", "152447.452000", "152447.454000", "152447.457000", "152447.459000", "152447.462000", "152447.464000", "152447.467000", "152447.469000", "152447.472000", "152447.474000", "152447.477000", "152447.479000", "152447.482000", "152447.484000", "152447.487000", "152447.489000", "152447.492000", "152507.460000", "152507.463000", "152507.466000", "152507.468000", "152507.471000", "152507.473000", "152507.476000", "152507.478000", "152507.481000", "152507.483000", "152507.486000", "152507.488000", "152507.491000", "152507.493000", "152507.496000", "152507.498000", "152507.501000", "152507.510000", "152507.512000", "152507.515000", "152507.517000", "152527.454000", "152527.457000", "152527.459000", "152527.462000", "152527.464000", "152527.467000", "152527.469000", "152527.472000", "152527.474000", "152527.477000", "152527.483000", "152527.486000", "152527.488000", "152527.491000", "152527.493000", "152527.496000", "152527.498000", "152527.501000", "152527.503000", "152527.506000", "152607.946000", "152607.949000", "152607.952000", "152607.954000", "152607.957000", "152607.959000", "152607.962000", "152607.964000", "152607.967000", "152607.969000", "152607.972000", "152607.974000", "152607.977000", "152607.979000", "152607.982000", "152607.984000", "152607.987000", "152607.990000", "152607.992000", "152607.995000", "152607.997000", "152608.001000", "152608.003000", "152608.006000", "152608.008000", "152608.011000", "152608.014000", "152608.016000", "152647.470000", "152647.472000", "152647.475000", "152647.477000", "152647.480000", "152647.482000", "152647.485000", "152647.487000", "152647.490000", "152647.493000", "152647.495000", "152647.498000", "152647.500000", "152647.503000", "152647.505000", "152647.516000", "152647.518000", "152647.521000", "152647.523000", "152647.526000", "152647.528000", "152647.531000", "152647.534000", "152647.536000", "152647.539000", "152647.541000", "152647.544000", "152727.483000", "152727.486000", "152727.488000", "152727.491000", "152727.493000", "152727.496000", "152727.498000", "152727.501000", "152727.503000", "152727.506000", "152727.508000", "152727.511000", "152727.513000", "152727.516000", "152727.519000", "152727.521000", "152727.524000", "152727.527000", "152727.529000", "152727.532000", "152727.534000", "152727.537000", "152727.540000", "152727.542000", "152727.545000", "152727.547000", "152727.550000", "152738.782000", "152738.785000", "152738.787000", "152738.790000", "152738.793000", "152738.795000", "152738.798000", "152738.801000"],
      "InstanceNumber": [1, 2, 3, 4, 5, 6, 7, 8, 9, 10, 11, 12, 13, 14, 15, 16, 17, 18, 19, 20, 21, 22, 23, 24, 25, 26, 27, 28, 29, 30, 31, 32, 33, 34, 35, 36, 37, 38, 39, 40, 41, 42, 43, 44, 45, 46, 47, 48, 49, 50, 51, 52, 53, 54, 55, 56, 57, 58, 59, 60, 61, 62, 63, 64, 65, 66, 67, 68, 69, 70, 71, 72, 73, 74, 75, 76, 77, 78, 79, 80, 81, 82, 83, 84, 85, 86, 87, 88, 89, 90, 91, 92, 93, 94, 95, 96, 97, 98, 99, 100, 101, 102, 103, 104, 105, 106, 107, 108, 109, 110, 111, 112, 113, 114, 115, 116, 117, 118, 119, 120, 121, 122, 123, 124, 125, 126, 127, 128, 129, 130, 131, 132, 133, 134, 135, 136, 137, 138, 139, 140, 141, 142, 143, 144, 145, 146, 147, 148, 149, 150, 151, 152, 153, 154, 155, 156, 157, 158, 159, 160, 161, 162, 163, 164, 165, 166, 167, 168, 169, 170, 171, 172, 173, 174, 175, 176, 177, 178, 179, 180, 181, 182, 183, 184, 185, 186, 187, 188, 189, 190],
      "WindowCenter": [4848.0, 4850.0, 4838.0, 4846.0, 4838.0, 4834.0, 4842.0, 4852.0, 4856.0, 4850.0, 4850.0, 4846.0, 4816.0, 4818.0, 4844.0, 4844.0, 4834.0, 4840.0, 4850.0, 4848.0, 4880.0, 4882.0, 4848.0, 4846.0, 4842.0, 4838.0, 4842.0, 4814.0, 4812.0, 4834.0, 4850.0, 4856.0, 4854.0, 4852.0, 4852.0, 4848.0, 4836.0, 4842.0, 4834.0, 4844.0, 4838.0, 4852.0, 4876.0, 4848.0, 4852.0, 4852.0, 4838.0, 4840.0, 4838.0, 4838.0, 4846.0, 4850.0, 4840.0, 4848.0, 4848.0, 4838.0, 4850.0, 4852.0, 4848.0, 4844.0, 4846.0, 4834.0, 4844.0, 4846.0, 4836.0, 4850.0, 4852.0, 4844.0, 4844.0, 4840.0, 4838.0, 4842.0, 4844.0, 4836.0, 4844.0, 4844.0, 4846.0, 4872.0, 4834.0, 4840.0, 4848.0, 4842.0, 4844.0, 4846.0, 4842.0, 4844.0, 4850.0, 4846.0, 4842.0, 4850.0, 4846.0, 4842.0, 4874.0, 4842.0, 4844.0, 4842.0, 4844.0, 4848.0, 4844.0, 4846.0, 4842.0, 4844.0, 4844.0, 4844.0, 4872.0, 4846.0, 4840.0, 4846.0, 4840.0, 4846.0, 4844.0, 4850.0, 4840.0, 4842.0, 4844.0, 4840.0, 4840.0, 4840.0, 4846.0, 4834.0, 4838.0, 4838.0, 4846.0, 4840.0, 4838.0, 4834.0, 4846.0, 4834.0, 4846.0, 4836.0, 4840.0, 4844.0, 4838.0, 4844.0, 4844.0, 4842.0, 4844.0, 4844.0, 4842.0, 4834.0, 4842.0, 4836.0, 4844.0, 4844.0, 4836.0, 4836.0, 4844.0, 4850.0, 4842.0, 4838.0, 4842.0, 4836.0, 4838.0, 4844.0, 4838.0, 4846.0, 4838.0, 4840.0, 4844.0, 4838.0, 4842.0, 4838.0, 4840.0, 4838.0, 4838.0, 4844.0, 4838.0, 4844.0, 4834.0, 4840.0, 4840.0, 4842.0, 4842.0, 4834.0, 4840.0, 4840.0, 4842.0, 4846.0, 4836.0, 4846.0, 4840.0, 4840.0, 4844.0, 4838.0, 4836.0, 4836.0, 4812.0, 4838.0, 4834.0, 4836.0],
      "WindowWidth": [18636.0, 18634.0, 18628.0, 18634.0, 18626.0, 18634.0, 18626.0, 18638.0, 18636.0, 18640.0, 18636.0, 18630.0, 18588.0, 18594.0, 18628.0, 18630.0, 18628.0, 18628.0, 18640.0, 18634.0, 18672.0, 18672.0, 18636.0, 18628.0, 18628.0, 18624.0, 18626.0, 18604.0, 18602.0, 18628.0, 18636.0, 18630.0, 18628.0, 18642.0, 18642.0, 18634.0, 18634.0, 18646.0, 18628.0, 18632.0, 18622.0, 18640.0, 18672.0, 18636.0, 18634.0, 18634.0, 18626.0, 18628.0, 18632.0, 18622.0, 18632.0, 18634.0, 18628.0, 18638.0, 18632.0, 18628.0, 18632.0, 18636.0, 18634.0, 18632.0, 18630.0, 18624.0, 18630.0, 18634.0, 18628.0, 18638.0, 18636.0, 18628.0, 18636.0, 18628.0, 18630.0, 18626.0, 18634.0, 18628.0, 18634.0, 18634.0, 18630.0, 18670.0, 18628.0, 18626.0, 18630.0, 18632.0, 18634.0, 18632.0, 18626.0, 18634.0, 18636.0, 18630.0, 18630.0, 18638.0, 18630.0, 18630.0, 18664.0, 18628.0, 18634.0, 18628.0, 18632.0, 18632.0, 18626.0, 18634.0, 18626.0, 18630.0, 18634.0, 18632.0, 18664.0, 18630.0, 18628.0, 18632.0, 18632.0, 18634.0, 18630.0, 18640.0, 18630.0, 18630.0, 18634.0, 18630.0, 18634.0, 18628.0, 18634.0, 18622.0, 18622.0, 18630.0, 18634.0, 18632.0, 18628.0, 18626.0, 18632.0, 18624.0, 18636.0, 18626.0, 18630.0, 18634.0, 18622.0, 18636.0, 18630.0, 18630.0, 18632.0, 18634.0, 18630.0, 18624.0, 18628.0, 18624.0, 18630.0, 18636.0, 18640.0, 18624.0, 18636.0, 18642.0, 18632.0, 18630.0, 18636.0, 18628.0, 18630.0, 18630.0, 18630.0, 18634.0, 18628.0, 18630.0, 18632.0, 18624.0, 18630.0, 18628.0, 18630.0, 18628.0, 18626.0, 18634.0, 18624.0, 18634.0, 18628.0, 18628.0, 18628.0, 18630.0, 18636.0, 18634.0, 18628.0, 18634.0, 18630.0, 18634.0, 18624.0, 18634.0, 18628.0, 18628.0, 18632.0, 18632.0, 18630.0, 18630.0, 18594.0, 18628.0, 18626.0, 18626.0]
    },
    "slices": {}
  }
}