{
  "AcquisitionMatrixPE": 104,
  "AcquisitionNumber": 1,
  "AcquisitionTime": "16:01:21.325000",
  "BandwidthPerPixelPhaseEncode": 17.17,
  "BaseResolution": 104,
  "BodyPartExamined": "BRAIN",
  "CoilString": "HC1-7;NC1_2",
  "ConsistencyInfo": "N4_VE11C_LATEST_20160120",
  "ConversionSoftware": "dcm2niix",
  "ConversionSoftwareVersion": "v1.0.20190902",
  "DerivedVendorReportedEchoSpacing": 0.000560011,
  "DeviceSerialNumber": "167006",
  "DwellTime": 2.1e-06,
  "EchoTime": 0.037,
  "EchoTrainLength": 104,
  "EffectiveEchoSpacing": 0.000560011,
  "FlipAngle": 52,
  "ImageComments": "Unaliased_MB4_PE3_LB",
  "ImageOrientationPatientDICOM": [0.998645, -0.0516151, 0.006645, 0.0509387, 0.943345, -0.32788],
  "ImageType": [
    "ORIGINAL",
    "PRIMARY",
    "P",
    "MB",
    "ND",
    "MOSAIC"
],
  "ImagingFrequency": 123.259,
  "InPlanePhaseEncodingDirectionDICOM": "COL",
  "InstitutionAddress": "Chemin_Queen-Mary_4565_Montreal_District_CA_H3W_1W5",
  "InstitutionName": "IUGM",
  "InstitutionalDepartmentName": "Department",
  "MRAcquisitionType": "2D",
  "MagneticFieldStrength": 3,
  "Manufacturer": "Siemens",
  "ManufacturersModelName": "Prisma_fit",
  "Modality": "MR",
  "MultibandAccelerationFactor": 4,
  "PartialFourier": 1,
  "PatientPosition": "HFS",
  "PercentPhaseFOV": 100,
  "PhaseEncodingDirection": "j",
  "PhaseEncodingSteps": 104,
  "PhaseResolution": 1,
  "PixelBandwidth": 2290,
  "ProcedureStepDescription": "memory_things",
  "ProtocolName": "func_task-things_run-6",
  "PulseSequenceDetails": "%CustomerSeq%_cmrr_mbep2d_bold",
  "ReceiveCoilActiveElements": "HC1-7;NC1,2",
  "ReceiveCoilName": "HeadNeck_64",
  "ReconMatrixPE": 104,
  "RepetitionTime": 1.49,
  "SAR": 0.0380096,
  "ScanOptions": "FS",
  "ScanningSequence": "EP",
  "SequenceName": "epfid2d1_104",
  "SequenceVariant": "SK_SS",
  "SeriesDescription": "func_task-things_run-6",
  "SeriesNumber": 26,
  "ShimSetting": [623, -7247, -8821, 559, -8, -203, -51, -35],
  "SliceThickness": 2,
  "SliceTiming": [0, 0.7825, 0.0975, 0.88, 0.195, 0.98, 0.2925, 1.0775, 0.3925, 1.175, 0.49, 1.2725, 0.5875, 1.37, 0.685, 0, 0.7825, 0.0975, 0.88, 0.195, 0.98, 0.2925, 1.0775, 0.3925, 1.175, 0.49, 1.2725, 0.5875, 1.37, 0.685, 0, 0.7825, 0.0975, 0.88, 0.195, 0.98, 0.2925, 1.0775, 0.3925, 1.175, 0.49, 1.2725, 0.5875, 1.37, 0.685, 0, 0.7825, 0.0975, 0.88, 0.195, 0.98, 0.2925, 1.0775, 0.3925, 1.175, 0.49, 1.2725, 0.5875, 1.37, 0.685],
  "SoftwareVersions": "syngo_MR_E11",
  "SpacingBetweenSlices": 2,
  "StationName": "MRC35049",
  "TaskName": "things",
  "TotalReadoutTime": 0.0576811,
  "TxRefAmp": 240.739,
  "WipMemBlock": "66ab2185-30df-4b88-9909-03fb972536c3||Sequence: R016 ve11c/master r/e634e98; Dec 19 2017 11:00:25 by eja",
  "dcmmeta_affine": [
    [-1.9972898960113525, 0.10187730193138123, -0.021310120820999146, 102.44097900390625],
    [0.10323023796081543, 1.8866899013519287, -0.6555492281913757, -69.96168518066406],
    [0.013289996422827244, 0.6557608246803284, 1.8893917798995972, -61.63075256347656],
    [0.0, 0.0, 0.0, 1.0]
],
  "dcmmeta_reorient_transform": [
    [0.0, -1.0, 0.0, 103.0],
    [1.0, 0.0, 0.0, 0.0],
    [0.0, 0.0, 1.0, 0.0],
    [0.0, 0.0, 0.0, 1.0]
],
  "dcmmeta_shape": [104, 104, 60, 190],
  "dcmmeta_slice_dim": 2,
  "dcmmeta_version": 0.6,
  "global": {
    "const": {
      "AcquisitionMatrix": [104, 0, 0, 104],
      "AngioFlag": "N",
      "BitsAllocated": 16,
      "BitsStored": 16,
      "BodyPartExamined": "BRAIN",
      "Columns": 832,
      "EchoNumbers": 1,
      "EchoTime": 37.0,
      "EchoTrainLength": 104,
      "FlipAngle": 52.0,
      "HighBit": 15,
      "ImageOrientationPatient": [0.99864494367889, -0.0516151185299, 0.00664499840005, 0.05093865076541, 0.94334494561495, -0.327880416373],
      "ImagePositionPatient": [-877.03120093395, -773.54668424389, 239.77199716328],
      "ImageType": [
        "ORIGINAL",
        "PRIMARY",
        "P",
        "MB",
        "ND",
        "MOSAIC"
],
      "ImagedNucleus": "1H",
      "ImagingFrequency": 123.258891,
      "InPlanePhaseEncodingDirection": "COL",
      "LargestImagePixelValue": 4095,
      "MRAcquisitionType": "2D",
      "MagneticFieldStrength": 3.0,
      "Manufacturer": "SIEMENS",
      "ManufacturerModelName": "Prisma_fit",
      "Modality": "MR",
      "NumberOfAverages": 1.0,
      "NumberOfPhaseEncodingSteps": 104,
      "PercentPhaseFieldOfView": 100.0,
      "PercentSampling": 100.0,
      "PerformedProcedureStepStartTime": "145924.353000",
      "PhotometricInterpretation": "MONOCHROME2",
      "PixelBandwidth": 2290.0,
      "PixelRepresentation": 0,
      "PixelSpacing": [2.0, 2.0],
      "ProtocolName": "func_task-things_run-6",
      "RepetitionTime": 1490.0,
      "RescaleIntercept": -4096.0,
      "RescaleSlope": 2.0,
      "RescaleType": "US",
      "Rows": 832,
      "SAR": 0.03800960168162,
      "SamplesPerPixel": 1,
      "ScanOptions": "FS",
      "ScanningSequence": "EP",
      "SequenceName": "epfid2d1_104",
      "SequenceVariant": [
        "SK",
        "SS"
],
      "SeriesDescription": "func_task-things_run-6",
      "SeriesNumber": 26,
      "SeriesTime": "160235.066000",
      "SliceLocation": -36.382167270261,
      "SliceThickness": 2.0,
      "SmallestImagePixelValue": 0,
      "SoftwareVersions": "syngo MR E11",
      "SpacingBetweenSlices": 1.9999999914467,
      "SpecificCharacterSet": "ISO_IR 100",
      "StudyID": "1",
      "StudyTime": "145924.271000",
      "TransmitCoilName": "Body",
      "VariableFlipAngleFlag": "N",
      "WindowCenterWidthExplanation": "Algo1",
      "dBdt": 0.0},
    "slices": {}
  },
  "time": {
    "samples": {
      "AcquisitionNumber": [1, 2, 3, 4, 5, 6, 7, 8, 9, 10, 11, 12, 13, 14, 15, 16, 17, 18, 19, 20, 21, 22, 23, 24, 25, 26, 27, 28, 29, 30, 31, 32, 33, 34, 35, 36, 37, 38, 39, 40, 41, 42, 43, 44, 45, 46, 47, 48, 49, 50, 51, 52, 53, 54, 55, 56, 57, 58, 59, 60, 61, 62, 63, 64, 65, 66, 67, 68, 69, 70, 71, 72, 73, 74, 75, 76, 77, 78, 79, 80, 81, 82, 83, 84, 85, 86, 87, 88, 89, 90, 91, 92, 93, 94, 95, 96, 97, 98, 99, 100, 101, 102, 103, 104, 105, 106, 107, 108, 109, 110, 111, 112, 113, 114, 115, 116, 117, 118, 119, 120, 121, 122, 123, 124, 125, 126, 127, 128, 129, 130, 131, 132, 133, 134, 135, 136, 137, 138, 139, 140, 141, 142, 143, 144, 145, 146, 147, 148, 149, 150, 151, 152, 153, 154, 155, 156, 157, 158, 159, 160, 161, 162, 163, 164, 165, 166, 167, 168, 169, 170, 171, 172, 173, 174, 175, 176, 177, 178, 179, 180, 181, 182, 183, 184, 185, 186, 187, 188, 189, 190],
      "AcquisitionTime": ["160121.325000", "160122.815000", "160124.305000", "160125.795000", "160127.285000", "160128.775000", "160130.265000", "160131.755000", "160133.245000", "160134.735000", "160136.225000", "160137.715000", "160139.205000", "160140.695000", "160142.185000", "160143.675000", "160145.165000", "160146.655000", "160148.145000", "160149.635000", "160151.125000", "160152.615000", "160154.105000", "160155.595000", "160157.085000", "160158.575000", "160200.065000", "160201.555000", "160203.045000", "160204.535000", "160206.025000", "160207.515000", "160209.005000", "160210.495000", "160211.985000", "160213.475000", "160214.965000", "160216.455000", "160217.945000", "160219.435000", "160220.925000", "160222.415000", "160223.905000", "160225.395000", "160226.885000", "160228.375000", "160229.865000", "160231.355000", "160232.845000", "160234.335000", "160235.825000", "160237.315000", "160238.805000", "160240.295000", "160241.785000", "160243.275000", "160244.765000", "160246.255000", "160247.745000", "160249.235000", "160250.725000", "160252.215000", "160253.705000", "160255.195000", "160256.685000", "160258.175000", "160259.665000", "160301.155000", "160302.645000", "160304.135000", "160305.625000", "160307.115000", "160308.605000", "160310.095000", "160311.585000", "160313.075000", "160314.565000", "160316.055000", "160317.545000", "160319.035000", "160320.525000", "160322.015000", "160323.505000", "160324.995000", "160326.485000", "160327.975000", "160329.465000", "160330.955000", "160332.445000", "160333.935000", "160335.425000", "160336.915000", "160338.405000", "160339.895000", "160341.385000", "160342.875000", "160344.365000", "160345.855000", "160347.345000", "160348.835000", "160350.325000", "160351.815000", "160353.305000", "160354.795000", "160356.285000", "160357.775000", "160359.265000", "160400.755000", "160402.245000", "160403.735000", "160405.225000", "160406.715000", "160408.205000", "160409.695000", "160411.185000", "160412.675000", "160414.165000", "160415.655000", "160417.145000", "160418.635000", "160420.125000", "160421.615000", "160423.105000", "160424.595000", "160426.085000", "160427.575000", "160429.065000", "160430.555000", "160432.045000", "160433.535000", "160435.025000", "160436.515000", "160438.005000", "160439.495000", "160440.985000", "160442.475000", "160443.965000", "160445.455000", "160446.945000", "160448.435000", "160449.925000", "160451.415000", "160452.905000", "160454.395000", "160455.885000", "160457.375000", "160458.865000", "160500.355000", "160501.845000", "160503.335000", "160504.825000", "160506.315000", "160507.805000", "160509.295000", "160510.785000", "160512.275000", "160513.765000", "160515.255000", "160516.745000", "160518.235000", "160519.725000", "160521.215000", "160522.705000", "160524.195000", "160525.685000", "160527.175000", "160528.665000", "160530.155000", "160531.645000", "160533.135000", "160534.625000", "160536.115000", "160537.605000", "160539.095000", "160540.585000", "160542.075000", "160543.565000", "160545.055000", "160546.545000", "160548.035000", "160549.525000", "160551.015000", "160552.505000", "160553.995000", "160555.485000", "160556.975000", "160558.465000", "160559.955000", "160601.445000", "160602.935000"],
      "ContentTime": ["160235.068000", "160235.071000", "160235.073000", "160235.076000", "160235.089000", "160235.091000", "160235.094000", "160235.096000", "160235.099000", "160235.101000", "160235.104000", "160235.106000", "160235.109000", "160235.111000", "160235.114000", "160235.116000", "160235.119000", "160235.121000", "160235.124000", "160235.126000", "160235.128000", "160255.049000", "160255.052000", "160255.054000", "160255.057000", "160255.059000", "160255.062000", "160255.064000", "160255.067000", "160255.069000", "160255.072000", "160255.074000", "160255.076000", "160255.079000", "160255.090000", "160255.092000", "160255.095000", "160255.097000", "160255.100000", "160255.102000", "160255.104000", "160315.048000", "160315.050000", "160315.053000", "160315.055000", "160315.058000", "160315.060000", "160315.063000", "160315.065000", "160315.068000", "160315.070000", "160315.073000", "160315.075000", "160315.078000", "160315.080000", "160315.083000", "160315.085000", "160315.088000", "160315.090000", "160315.093000", "160315.095000", "160335.081000", "160335.084000", "160335.086000", "160335.089000", "160335.091000", "160335.094000", "160335.096000", "160335.099000", "160335.101000", "160335.104000", "160335.106000", "160335.109000", "160335.111000", "160335.114000", "160335.116000", "160335.119000", "160335.121000", "160335.124000", "160335.126000", "160335.129000", "160335.131000", "160355.069000", "160355.071000", "160355.074000", "160355.076000", "160355.079000", "160355.081000", "160355.084000", "160355.086000", "160355.089000", "160355.091000", "160355.094000", "160355.096000", "160355.099000", "160355.101000", "160355.104000", "160355.106000", "160355.109000", "160355.111000", "160355.114000", "160355.116000", "160435.099000", "160435.102000", "160435.109000", "160435.112000", "160435.114000", "160435.117000", "160435.119000", "160435.122000", "160435.124000", "160435.127000", "160435.129000", "160435.132000", "160435.134000", "160435.137000", "160435.139000", "160435.142000", "160435.144000", "160435.147000", "160435.149000", "160435.152000", "160435.154000", "160435.157000", "160435.159000", "160435.162000", "160435.164000", "160435.167000", "160435.169000", "160515.107000", "160515.110000", "160515.113000", "160515.115000", "160515.118000", "160515.120000", "160515.123000", "160515.125000", "160515.128000", "160515.130000", "160515.133000", "160515.135000", "160515.138000", "160515.140000", "160515.143000", "160515.145000", "160515.148000", "160515.150000", "160515.153000", "160515.155000", "160515.158000", "160515.160000", "160515.163000", "160515.165000", "160515.168000", "160515.170000", "160515.173000", "160555.098000", "160555.101000", "160555.103000", "160555.106000", "160555.108000", "160555.111000", "160555.113000", "160555.116000", "160555.118000", "160555.121000", "160555.124000", "160555.126000", "160555.129000", "160555.131000", "160555.134000", "160555.136000", "160555.139000", "160555.141000", "160555.144000", "160555.146000", "160555.149000", "160555.151000", "160555.154000", "160555.156000", "160555.159000", "160555.161000", "160555.164000", "160605.278000", "160605.281000", "160605.283000", "160605.286000", "160605.289000", "160605.291000", "160605.294000"],
      "InstanceCreationTime": ["160235.068000", "160235.071000", "160235.073000", "160235.076000", "160235.089000", "160235.091000", "160235.094000", "160235.096000", "160235.099000", "160235.101000", "160235.104000", "160235.106000", "160235.109000", "160235.111000", "160235.114000", "160235.116000", "160235.119000", "160235.121000", "160235.124000", "160235.126000", "160235.128000", "160255.049000", "160255.052000", "160255.054000", "160255.057000", "160255.059000", "160255.062000", "160255.064000", "160255.067000", "160255.069000", "160255.072000", "160255.074000", "160255.076000", "160255.079000", "160255.090000", "160255.092000", "160255.095000", "160255.097000", "160255.100000", "160255.102000", "160255.104000", "160315.048000", "160315.050000", "160315.053000", "160315.055000", "160315.058000", "160315.060000", "160315.063000", "160315.065000", "160315.068000", "160315.070000", "160315.073000", "160315.075000", "160315.078000", "160315.080000", "160315.083000", "160315.085000", "160315.088000", "160315.090000", "160315.093000", "160315.095000", "160335.081000", "160335.084000", "160335.086000", "160335.089000", "160335.091000", "160335.094000", "160335.096000", "160335.099000", "160335.101000", "160335.104000", "160335.106000", "160335.109000", "160335.111000", "160335.114000", "160335.116000", "160335.119000", "160335.121000", "160335.124000", "160335.126000", "160335.129000", "160335.131000", "160355.069000", "160355.071000", "160355.074000", "160355.076000", "160355.079000", "160355.081000", "160355.084000", "160355.086000", "160355.089000", "160355.091000", "160355.094000", "160355.096000", "160355.099000", "160355.101000", "160355.104000", "160355.106000", "160355.109000", "160355.111000", "160355.114000", "160355.116000", "160435.099000", "160435.102000", "160435.109000", "160435.112000", "160435.114000", "160435.117000", "160435.119000", "160435.122000", "160435.124000", "160435.127000", "160435.129000", "160435.132000", "160435.134000", "160435.137000", "160435.139000", "160435.142000", "160435.144000", "160435.147000", "160435.149000", "160435.152000", "160435.154000", "160435.157000", "160435.159000", "160435.162000", "160435.164000", "160435.167000", "160435.169000", "160515.107000", "160515.110000", "160515.113000", "160515.115000", "160515.118000", "160515.120000", "160515.123000", "160515.125000", "160515.128000", "160515.130000", "160515.133000", "160515.135000", "160515.138000", "160515.140000", "160515.143000", "160515.145000", "160515.148000", "160515.150000", "160515.153000", "160515.155000", "160515.158000", "160515.160000", "160515.163000", "160515.165000", "160515.168000", "160515.170000", "160515.173000", "160555.098000", "160555.101000", "160555.103000", "160555.106000", "160555.108000", "160555.111000", "160555.113000", "160555.116000", "160555.118000", "160555.121000", "160555.124000", "160555.126000", "160555.129000", "160555.131000", "160555.134000", "160555.136000", "160555.139000", "160555.141000", "160555.144000", "160555.146000", "160555.149000", "160555.151000", "160555.154000", "160555.156000", "160555.159000", "160555.161000", "160555.164000", "160605.278000", "160605.281000", "160605.283000", "160605.286000", "160605.289000", "160605.291000", "160605.294000"],
      "InstanceNumber": [1, 2, 3, 4, 5, 6, 7, 8, 9, 10, 11, 12, 13, 14, 15, 16, 17, 18, 19, 20, 21, 22, 23, 24, 25, 26, 27, 28, 29, 30, 31, 32, 33, 34, 35, 36, 37, 38, 39, 40, 41, 42, 43, 44, 45, 46, 47, 48, 49, 50, 51, 52, 53, 54, 55, 56, 57, 58, 59, 60, 61, 62, 63, 64, 65, 66, 67, 68, 69, 70, 71, 72, 73, 74, 75, 76, 77, 78, 79, 80, 81, 82, 83, 84, 85, 86, 87, 88, 89, 90, 91, 92, 93, 94, 95, 96, 97, 98, 99, 100, 101, 102, 103, 104, 105, 106, 107, 108, 109, 110, 111, 112, 113, 114, 115, 116, 117, 118, 119, 120, 121, 122, 123, 124, 125, 126, 127, 128, 129, 130, 131, 132, 133, 134, 135, 136, 137, 138, 139, 140, 141, 142, 143, 144, 145, 146, 147, 148, 149, 150, 151, 152, 153, 154, 155, 156, 157, 158, 159, 160, 161, 162, 163, 164, 165, 166, 167, 168, 169, 170, 171, 172, 173, 174, 175, 176, 177, 178, 179, 180, 181, 182, 183, 184, 185, 186, 187, 188, 189, 190],
      "WindowCenter": [4882.0, 4878.0, 4904.0, 4874.0, 4838.0, 4876.0, 4880.0, 4876.0, 4878.0, 4874.0, 4842.0, 4904.0, 4876.0, 4880.0, 4876.0, 4876.0, 4842.0, 4880.0, 4878.0, 4880.0, 4872.0, 4872.0, 4874.0, 4874.0, 4878.0, 4882.0, 4872.0, 4880.0, 4882.0, 4876.0, 4774.0, 4774.0, 4830.0, 4878.0, 4854.0, 4824.0, 4874.0, 4876.0, 4872.0, 4840.0, 4806.0, 4814.0, 4774.0, 4846.0, 4876.0, 4826.0, 4828.0, 4826.0, 4902.0, 4846.0, 4772.0, 4778.0, 4804.0, 4870.0, 4904.0, 4882.0, 4878.0, 4876.0, 4876.0, 4878.0, 4882.0, 4840.0, 4844.0, 4840.0, 4842.0, 4878.0, 4870.0, 4864.0, 4880.0, 4878.0, 4902.0, 4878.0, 4876.0, 4878.0, 4878.0, 4878.0, 4842.0, 4878.0, 4874.0, 4870.0, 4876.0, 4880.0, 4876.0, 4878.0, 4876.0, 4876.0, 4878.0, 4808.0, 4830.0, 4878.0, 4880.0, 4880.0, 4880.0, 4880.0, 4878.0, 4842.0, 4874.0, 4880.0, 4810.0, 4872.0, 4876.0, 4878.0, 4880.0, 4878.0, 4880.0, 4904.0, 4838.0, 4866.0, 4878.0, 4868.0, 4874.0, 4882.0, 4876.0, 4876.0, 4880.0, 4846.0, 4878.0, 4882.0, 4870.0, 4880.0, 4880.0, 4870.0, 4876.0, 4878.0, 4872.0, 4878.0, 4880.0, 4878.0, 4902.0, 4832.0, 4870.0, 4878.0, 4874.0, 4834.0, 4870.0, 4878.0, 4880.0, 4872.0, 4876.0, 4878.0, 4874.0, 4876.0, 4878.0, 4878.0, 4874.0, 4880.0, 4878.0, 4882.0, 4842.0, 4868.0, 4876.0, 4876.0, 4838.0, 4878.0, 4876.0, 4904.0, 4878.0, 4880.0, 4882.0, 4872.0, 4872.0, 4880.0, 4838.0, 4876.0, 4880.0, 4878.0, 4878.0, 4878.0, 4880.0, 4878.0, 4872.0, 4882.0, 4876.0, 4872.0, 4878.0, 4882.0, 4880.0, 4836.0, 4800.0, 4848.0, 4902.0, 4872.0, 4868.0, 4802.0, 4832.0, 4836.0, 4838.0, 4868.0, 4870.0, 4872.0],
      "WindowWidth": [18682.0, 18680.0, 18712.0, 18682.0, 18640.0, 18680.0, 18690.0, 18672.0, 18674.0, 18686.0, 18648.0, 18716.0, 18680.0, 18684.0, 18674.0, 18688.0, 18646.0, 18686.0, 18684.0, 18678.0, 18686.0, 18688.0, 18688.0, 18686.0, 18672.0, 18676.0, 18686.0, 18684.0, 18682.0, 18680.0, 18564.0, 18558.0, 18636.0, 18682.0, 18630.0, 18592.0, 18668.0, 18684.0, 18684.0, 18642.0, 18588.0, 18612.0, 18554.0, 18650.0, 18660.0, 18588.0, 18592.0, 18584.0, 18710.0, 18650.0, 18552.0, 18564.0, 18590.0, 18680.0, 18714.0, 18668.0, 18690.0, 18686.0, 18682.0, 18676.0, 18682.0, 18638.0, 18646.0, 18642.0, 18642.0, 18684.0, 18682.0, 18684.0, 18684.0, 18682.0, 18716.0, 18680.0, 18684.0, 18686.0, 18684.0, 18692.0, 18648.0, 18686.0, 18680.0, 18686.0, 18688.0, 18686.0, 18670.0, 18676.0, 18690.0, 18686.0, 18688.0, 18600.0, 18628.0, 18688.0, 18672.0, 18680.0, 18680.0, 18676.0, 18676.0, 18646.0, 18686.0, 18686.0, 18602.0, 18684.0, 18684.0, 18688.0, 18674.0, 18678.0, 18668.0, 18712.0, 18638.0, 18678.0, 18686.0, 18676.0, 18686.0, 18682.0, 18688.0, 18688.0, 18686.0, 18648.0, 18688.0, 18690.0, 18678.0, 18684.0, 18682.0, 18682.0, 18684.0, 18686.0, 18678.0, 18686.0, 18688.0, 18674.0, 18706.0, 18632.0, 18688.0, 18686.0, 18680.0, 18636.0, 18680.0, 18686.0, 18670.0, 18686.0, 18680.0, 18678.0, 18684.0, 18690.0, 18688.0, 18682.0, 18684.0, 18688.0, 18684.0, 18682.0, 18646.0, 18680.0, 18682.0, 18684.0, 18642.0, 18684.0, 18684.0, 18714.0, 18684.0, 18686.0, 18686.0, 18680.0, 18682.0, 18686.0, 18640.0, 18688.0, 18686.0, 18688.0, 18684.0, 18686.0, 18686.0, 18680.0, 18682.0, 18688.0, 18680.0, 18684.0, 18680.0, 18680.0, 18688.0, 18636.0, 18590.0, 18652.0, 18712.0, 18662.0, 18678.0, 18594.0, 18632.0, 18634.0, 18646.0, 18688.0, 18694.0, 18690.0]
    },
    "slices": {}
  }
}