{
  "AcquisitionMatrixPE": 104,
  "AcquisitionNumber": 1,
  "AcquisitionTime": "16:01:21.325000",
  "BandwidthPerPixelPhaseEncode": 17.17,
  "BaseResolution": 104,
  "BodyPartExamined": "BRAIN",
  "CoilString": "HC1-7;NC1_2",
  "ConsistencyInfo": "N4_VE11C_LATEST_20160120",
  "ConversionSoftware": "dcm2niix",
  "ConversionSoftwareVersion": "v1.0.20190902",
  "DerivedVendorReportedEchoSpacing": 0.000560011,
  "DeviceSerialNumber": "167006",
  "DwellTime": 2.1e-06,
  "EchoTime": 0.037,
  "EchoTrainLength": 104,
  "EffectiveEchoSpacing": 0.000560011,
  "FlipAngle": 52,
  "ImageComments": "Unaliased_MB4_PE3_LB",
  "ImageOrientationPatientDICOM": [0.998645, -0.0516151, 0.006645, 0.0509387, 0.943345, -0.32788],
  "ImageType": [
    "ORIGINAL",
    "PRIMARY",
    "M",
    "MB",
    "ND",
    "MOSAIC"
],
  "ImagingFrequency": 123.259,
  "InPlanePhaseEncodingDirectionDICOM": "COL",
  "InstitutionAddress": "Chemin_Queen-Mary_4565_Montreal_District_CA_H3W_1W5",
  "InstitutionName": "IUGM",
  "InstitutionalDepartmentName": "Department",
  "MRAcquisitionType": "2D",
  "MagneticFieldStrength": 3,
  "Manufacturer": "Siemens",
  "ManufacturersModelName": "Prisma_fit",
  "Modality": "MR",
  "MultibandAccelerationFactor": 4,
  "PartialFourier": 1,
  "PatientPosition": "HFS",
  "PercentPhaseFOV": 100,
  "PhaseEncodingDirection": "j",
  "PhaseEncodingSteps": 104,
  "PhaseResolution": 1,
  "PixelBandwidth": 2290,
  "ProcedureStepDescription": "memory_things",
  "ProtocolName": "func_task-things_run-6",
  "PulseSequenceDetails": "%CustomerSeq%_cmrr_mbep2d_bold",
  "ReceiveCoilActiveElements": "HC1-7;NC1,2",
  "ReceiveCoilName": "HeadNeck_64",
  "ReconMatrixPE": 104,
  "RepetitionTime": 1.49,
  "SAR": 0.0380096,
  "ScanOptions": "FS",
  "ScanningSequence": "EP",
  "SequenceName": "epfid2d1_104",
  "SequenceVariant": "SK_SS",
  "SeriesDescription": "func_task-things_run-6",
  "SeriesNumber": 25,
  "ShimSetting": [623, -7247, -8821, 559, -8, -203, -51, -35],
  "SliceThickness": 2,
  "SliceTiming": [0, 0.7825, 0.0975, 0.88, 0.195, 0.98, 0.2925, 1.0775, 0.3925, 1.175, 0.49, 1.2725, 0.5875, 1.37, 0.685, 0, 0.7825, 0.0975, 0.88, 0.195, 0.98, 0.2925, 1.0775, 0.3925, 1.175, 0.49, 1.2725, 0.5875, 1.37, 0.685, 0, 0.7825, 0.0975, 0.88, 0.195, 0.98, 0.2925, 1.0775, 0.3925, 1.175, 0.49, 1.2725, 0.5875, 1.37, 0.685, 0, 0.7825, 0.0975, 0.88, 0.195, 0.98, 0.2925, 1.0775, 0.3925, 1.175, 0.49, 1.2725, 0.5875, 1.37, 0.685],
  "SoftwareVersions": "syngo_MR_E11",
  "SpacingBetweenSlices": 2,
  "StationName": "MRC35049",
  "TaskName": "things",
  "TotalReadoutTime": 0.0576811,
  "TxRefAmp": 240.739,
  "WipMemBlock": "66ab2185-30df-4b88-9909-03fb972536c3||Sequence: R016 ve11c/master r/e634e98; Dec 19 2017 11:00:25 by eja",
  "dcmmeta_affine": [
    [-1.9972898960113525, 0.10187730193138123, -0.021310120820999146, 102.44097900390625],
    [0.10323023796081543, 1.8866899013519287, -0.6555492281913757, -69.96168518066406],
    [0.013289996422827244, 0.6557608246803284, 1.8893917798995972, -61.63075256347656],
    [0.0, 0.0, 0.0, 1.0]
],
  "dcmmeta_reorient_transform": [
    [0.0, -1.0, 0.0, 103.0],
    [1.0, 0.0, 0.0, 0.0],
    [0.0, 0.0, 1.0, 0.0],
    [0.0, 0.0, 0.0, 1.0]
],
  "dcmmeta_shape": [104, 104, 60, 190],
  "dcmmeta_slice_dim": 2,
  "dcmmeta_version": 0.6,
  "global": {
    "const": {
      "AcquisitionMatrix": [104, 0, 0, 104],
      "AngioFlag": "N",
      "BitsAllocated": 16,
      "BitsStored": 16,
      "BodyPartExamined": "BRAIN",
      "Columns": 832,
      "EchoNumbers": 1,
      "EchoTime": 37.0,
      "EchoTrainLength": 104,
      "FlipAngle": 52.0,
      "HighBit": 15,
      "ImageOrientationPatient": [0.99864494367889, -0.0516151185299, 0.00664499840005, 0.05093865076541, 0.94334494561495, -0.327880416373],
      "ImagePositionPatient": [-877.03120093395, -773.54668424389, 239.77199716328],
      "ImageType": [
        "ORIGINAL",
        "PRIMARY",
        "M",
        "MB",
        "ND",
        "MOSAIC"
],
      "ImagedNucleus": "1H",
      "ImagingFrequency": 123.258891,
      "InPlanePhaseEncodingDirection": "COL",
      "MRAcquisitionType": "2D",
      "MagneticFieldStrength": 3.0,
      "Manufacturer": "SIEMENS",
      "ManufacturerModelName": "Prisma_fit",
      "Modality": "MR",
      "NumberOfAverages": 1.0,
      "NumberOfPhaseEncodingSteps": 104,
      "PercentPhaseFieldOfView": 100.0,
      "PercentSampling": 100.0,
      "PerformedProcedureStepStartTime": "145924.353000",
      "PhotometricInterpretation": "MONOCHROME2",
      "PixelBandwidth": 2290.0,
      "PixelRepresentation": 0,
      "PixelSpacing": [2.0, 2.0],
      "ProtocolName": "func_task-things_run-6",
      "RepetitionTime": 1490.0,
      "Rows": 832,
      "SAR": 0.03800960168162,
      "SamplesPerPixel": 1,
      "ScanOptions": "FS",
      "ScanningSequence": "EP",
      "SequenceName": "epfid2d1_104",
      "SequenceVariant": [
        "SK",
        "SS"
],
      "SeriesDescription": "func_task-things_run-6",
      "SeriesNumber": 25,
      "SeriesTime": "160234.947000",
      "SliceLocation": -36.382167270261,
      "SliceThickness": 2.0,
      "SmallestImagePixelValue": 0,
      "SoftwareVersions": "syngo MR E11",
      "SpacingBetweenSlices": 1.9999999914467,
      "SpecificCharacterSet": "ISO_IR 100",
      "StudyID": "1",
      "StudyTime": "145924.271000",
      "TransmitCoilName": "Body",
      "VariableFlipAngleFlag": "N",
      "WindowCenterWidthExplanation": "Algo1",
      "dBdt": 0.0},
    "slices": {}
  },
  "time": {
    "samples": {
      "AcquisitionNumber": [1, 2, 3, 4, 5, 6, 7, 8, 9, 10, 11, 12, 13, 14, 15, 16, 17, 18, 19, 20, 21, 22, 23, 24, 25, 26, 27, 28, 29, 30, 31, 32, 33, 34, 35, 36, 37, 38, 39, 40, 41, 42, 43, 44, 45, 46, 47, 48, 49, 50, 51, 52, 53, 54, 55, 56, 57, 58, 59, 60, 61, 62, 63, 64, 65, 66, 67, 68, 69, 70, 71, 72, 73, 74, 75, 76, 77, 78, 79, 80, 81, 82, 83, 84, 85, 86, 87, 88, 89, 90, 91, 92, 93, 94, 95, 96, 97, 98, 99, 100, 101, 102, 103, 104, 105, 106, 107, 108, 109, 110, 111, 112, 113, 114, 115, 116, 117, 118, 119, 120, 121, 122, 123, 124, 125, 126, 127, 128, 129, 130, 131, 132, 133, 134, 135, 136, 137, 138, 139, 140, 141, 142, 143, 144, 145, 146, 147, 148, 149, 150, 151, 152, 153, 154, 155, 156, 157, 158, 159, 160, 161, 162, 163, 164, 165, 166, 167, 168, 169, 170, 171, 172, 173, 174, 175, 176, 177, 178, 179, 180, 181, 182, 183, 184, 185, 186, 187, 188, 189, 190],
      "AcquisitionTime": ["160121.325000", "160122.815000", "160124.305000", "160125.795000", "160127.285000", "160128.775000", "160130.265000", "160131.755000", "160133.245000", "160134.735000", "160136.225000", "160137.715000", "160139.205000", "160140.695000", "160142.185000", "160143.675000", "160145.165000", "160146.655000", "160148.145000", "160149.635000", "160151.125000", "160152.615000", "160154.105000", "160155.595000", "160157.085000", "160158.575000", "160200.065000", "160201.555000", "160203.045000", "160204.535000", "160206.025000", "160207.515000", "160209.005000", "160210.495000", "160211.985000", "160213.475000", "160214.965000", "160216.455000", "160217.945000", "160219.435000", "160220.925000", "160222.415000", "160223.905000", "160225.395000", "160226.885000", "160228.375000", "160229.865000", "160231.355000", "160232.845000", "160234.335000", "160235.825000", "160237.315000", "160238.805000", "160240.295000", "160241.785000", "160243.275000", "160244.765000", "160246.255000", "160247.745000", "160249.235000", "160250.725000", "160252.215000", "160253.705000", "160255.195000", "160256.685000", "160258.175000", "160259.665000", "160301.155000", "160302.645000", "160304.135000", "160305.625000", "160307.115000", "160308.605000", "160310.095000", "160311.585000", "160313.075000", "160314.565000", "160316.055000", "160317.545000", "160319.035000", "160320.525000", "160322.015000", "160323.505000", "160324.995000", "160326.485000", "160327.975000", "160329.465000", "160330.955000", "160332.445000", "160333.935000", "160335.425000", "160336.915000", "160338.405000", "160339.895000", "160341.385000", "160342.875000", "160344.365000", "160345.855000", "160347.345000", "160348.835000", "160350.325000", "160351.815000", "160353.305000", "160354.795000", "160356.285000", "160357.775000", "160359.265000", "160400.755000", "160402.245000", "160403.735000", "160405.225000", "160406.715000", "160408.205000", "160409.695000", "160411.185000", "160412.675000", "160414.165000", "160415.655000", "160417.145000", "160418.635000", "160420.125000", "160421.615000", "160423.105000", "160424.595000", "160426.085000", "160427.575000", "160429.065000", "160430.555000", "160432.045000", "160433.535000", "160435.025000", "160436.515000", "160438.005000", "160439.495000", "160440.985000", "160442.475000", "160443.965000", "160445.455000", "160446.945000", "160448.435000", "160449.925000", "160451.415000", "160452.905000", "160454.395000", "160455.885000", "160457.375000", "160458.865000", "160500.355000", "160501.845000", "160503.335000", "160504.825000", "160506.315000", "160507.805000", "160509.295000", "160510.785000", "160512.275000", "160513.765000", "160515.255000", "160516.745000", "160518.235000", "160519.725000", "160521.215000", "160522.705000", "160524.195000", "160525.685000", "160527.175000", "160528.665000", "160530.155000", "160531.645000", "160533.135000", "160534.625000", "160536.115000", "160537.605000", "160539.095000", "160540.585000", "160542.075000", "160543.565000", "160545.055000", "160546.545000", "160548.035000", "160549.525000", "160551.015000", "160552.505000", "160553.995000", "160555.485000", "160556.975000", "160558.465000", "160559.955000", "160601.445000", "160602.935000"],
      "ContentTime": ["160234.950000", "160234.954000", "160234.957000", "160234.960000", "160234.963000", "160234.967000", "160234.970000", "160234.973000", "160234.977000", "160234.980000", "160234.983000", "160234.986000", "160234.990000", "160234.993000", "160235.007000", "160235.010000", "160235.014000", "160235.017000", "160235.020000", "160235.023000", "160235.027000", "160254.949000", "160254.953000", "160254.956000", "160254.959000", "160254.963000", "160254.966000", "160254.969000", "160254.973000", "160254.976000", "160254.979000", "160254.983000", "160254.986000", "160254.989000", "160254.992000", "160254.996000", "160254.999000", "160255.002000", "160255.006000", "160255.009000", "160255.012000", "160314.949000", "160314.953000", "160314.956000", "160314.959000", "160314.963000", "160314.966000", "160314.969000", "160314.973000", "160314.976000", "160314.979000", "160314.982000", "160314.986000", "160314.989000", "160314.992000", "160314.996000", "160314.999000", "160315.002000", "160315.006000", "160315.009000", "160315.012000", "160334.949000", "160334.953000", "160334.956000", "160334.959000", "160334.962000", "160334.966000", "160334.969000", "160334.972000", "160334.976000", "160334.979000", "160334.982000", "160334.986000", "160334.989000", "160334.992000", "160334.996000", "160335.000000", "160335.003000", "160335.006000", "160335.010000", "160335.013000", "160335.016000", "160354.949000", "160354.953000", "160354.956000", "160354.959000", "160354.963000", "160354.966000", "160354.970000", "160354.973000", "160354.976000", "160354.980000", "160354.983000", "160354.986000", "160354.990000", "160354.993000", "160354.996000", "160355.001000", "160355.004000", "160355.007000", "160355.011000", "160355.023000", "160434.948000", "160434.952000", "160434.955000", "160434.958000", "160434.962000", "160434.965000", "160434.969000", "160434.972000", "160434.975000", "160434.978000", "160434.982000", "160434.985000", "160434.988000", "160434.992000", "160434.995000", "160434.998000", "160435.002000", "160435.005000", "160435.008000", "160435.012000", "160435.015000", "160435.018000", "160435.022000", "160435.025000", "160435.028000", "160435.039000", "160435.043000", "160514.949000", "160514.953000", "160514.956000", "160514.960000", "160514.963000", "160514.966000", "160514.970000", "160514.973000", "160514.976000", "160514.980000", "160514.983000", "160514.986000", "160514.990000", "160514.993000", "160514.996000", "160515.000000", "160515.003000", "160515.006000", "160515.010000", "160515.013000", "160515.016000", "160515.020000", "160515.023000", "160515.026000", "160515.030000", "160515.033000", "160515.046000", "160554.949000", "160554.953000", "160554.957000", "160554.960000", "160554.963000", "160554.967000", "160554.970000", "160554.974000", "160554.977000", "160554.980000", "160554.983000", "160554.987000", "160554.990000", "160554.993000", "160554.997000", "160555.001000", "160555.005000", "160555.008000", "160555.011000", "160555.015000", "160555.018000", "160555.021000", "160555.025000", "160555.028000", "160555.031000", "160555.034000", "160555.038000", "160605.215000", "160605.218000", "160605.222000", "160605.225000", "160605.228000", "160605.232000", "160605.235000"],
      "InstanceCreationTime": ["160234.950000", "160234.954000", "160234.957000", "160234.960000", "160234.963000", "160234.967000", "160234.970000", "160234.973000", "160234.977000", "160234.980000", "160234.983000", "160234.986000", "160234.990000", "160234.993000", "160235.007000", "160235.010000", "160235.014000", "160235.017000", "160235.020000", "160235.023000", "160235.027000", "160254.949000", "160254.953000", "160254.956000", "160254.959000", "160254.963000", "160254.966000", "160254.969000", "160254.973000", "160254.976000", "160254.979000", "160254.983000", "160254.986000", "160254.989000", "160254.992000", "160254.996000", "160254.999000", "160255.002000", "160255.006000", "160255.009000", "160255.012000", "160314.949000", "160314.953000", "160314.956000", "160314.959000", "160314.963000", "160314.966000", "160314.969000", "160314.973000", "160314.976000", "160314.979000", "160314.982000", "160314.986000", "160314.989000", "160314.992000", "160314.996000", "160314.999000", "160315.002000", "160315.006000", "160315.009000", "160315.012000", "160334.949000", "160334.953000", "160334.956000", "160334.959000", "160334.962000", "160334.966000", "160334.969000", "160334.972000", "160334.976000", "160334.979000", "160334.982000", "160334.986000", "160334.989000", "160334.992000", "160334.996000", "160335.000000", "160335.003000", "160335.006000", "160335.010000", "160335.013000", "160335.016000", "160354.949000", "160354.953000", "160354.956000", "160354.959000", "160354.963000", "160354.966000", "160354.970000", "160354.973000", "160354.976000", "160354.980000", "160354.983000", "160354.986000", "160354.990000", "160354.993000", "160354.996000", "160355.001000", "160355.004000", "160355.007000", "160355.011000", "160355.023000", "160434.948000", "160434.952000", "160434.955000", "160434.958000", "160434.962000", "160434.965000", "160434.969000", "160434.972000", "160434.975000", "160434.978000", "160434.982000", "160434.985000", "160434.988000", "160434.992000", "160434.995000", "160434.998000", "160435.002000", "160435.005000", "160435.008000", "160435.012000", "160435.015000", "160435.018000", "160435.022000", "160435.025000", "160435.028000", "160435.039000", "160435.043000", "160514.949000", "160514.953000", "160514.956000", "160514.960000", "160514.963000", "160514.966000", "160514.970000", "160514.973000", "160514.976000", "160514.980000", "160514.983000", "160514.986000", "160514.990000", "160514.993000", "160514.996000", "160515.000000", "160515.003000", "160515.006000", "160515.010000", "160515.013000", "160515.016000", "160515.020000", "160515.023000", "160515.026000", "160515.030000", "160515.033000", "160515.046000", "160554.949000", "160554.953000", "160554.957000", "160554.960000", "160554.963000", "160554.967000", "160554.970000", "160554.974000", "160554.977000", "160554.980000", "160554.983000", "160554.987000", "160554.990000", "160554.993000", "160554.997000", "160555.001000", "160555.005000", "160555.008000", "160555.011000", "160555.015000", "160555.018000", "160555.021000", "160555.025000", "160555.028000", "160555.031000", "160555.034000", "160555.038000", "160605.215000", "160605.218000", "160605.222000", "160605.225000", "160605.228000", "160605.232000", "160605.235000"],
      "InstanceNumber": [1, 2, 3, 4, 5, 6, 7, 8, 9, 10, 11, 12, 13, 14, 15, 16, 17, 18, 19, 20, 21, 22, 23, 24, 25, 26, 27, 28, 29, 30, 31, 32, 33, 34, 35, 36, 37, 38, 39, 40, 41, 42, 43, 44, 45, 46, 47, 48, 49, 50, 51, 52, 53, 54, 55, 56, 57, 58, 59, 60, 61, 62, 63, 64, 65, 66, 67, 68, 69, 70, 71, 72, 73, 74, 75, 76, 77, 78, 79, 80, 81, 82, 83, 84, 85, 86, 87, 88, 89, 90, 91, 92, 93, 94, 95, 96, 97, 98, 99, 100, 101, 102, 103, 104, 105, 106, 107, 108, 109, 110, 111, 112, 113, 114, 115, 116, 117, 118, 119, 120, 121, 122, 123, 124, 125, 126, 127, 128, 129, 130, 131, 132, 133, 134, 135, 136, 137, 138, 139, 140, 141, 142, 143, 144, 145, 146, 147, 148, 149, 150, 151, 152, 153, 154, 155, 156, 157, 158, 159, 160, 161, 162, 163, 164, 165, 166, 167, 168, 169, 170, 171, 172, 173, 174, 175, 176, 177, 178, 179, 180, 181, 182, 183, 184, 185, 186, 187, 188, 189, 190],
      "LargestImagePixelValue": [46899, 45399, 44719, 44220, 44044, 43438, 43413, 43440, 43728, 43554, 44191, 43518, 43832, 44440, 44480, 43841, 44347, 44000, 43736, 43773, 43686, 44627, 43996, 44354, 44488, 44613, 44020, 43755, 43919, 43741, 42653, 43458, 42234, 42574, 42766, 43657, 42687, 43705, 43805, 43213, 42125, 44908, 42791, 42686, 42084, 42786, 43312, 43356, 43964, 43624, 43738, 43816, 43494, 43163, 43664, 44234, 44147, 43748, 44033, 44273, 44333, 44091, 43569, 44134, 43666, 43741, 43821, 44662, 44527, 43986, 44161, 44718, 43809, 44263, 44141, 44677, 43990, 44141, 44167, 44475, 44186, 43829, 44171, 44289, 44130, 44060, 43840, 44065, 43662, 43217, 43770, 43771, 43804, 43868, 43912, 43419, 43698, 43674, 43858, 43455, 43869, 44153, 43275, 43801, 43735, 43620, 43402, 43394, 43861, 43860, 43328, 43315, 43349, 43421, 43611, 43743, 43918, 43442, 43963, 43543, 43270, 43610, 43656, 43478, 43172, 43815, 43350, 43068, 43693, 43477, 43263, 44284, 43367, 43744, 43537, 43654, 43717, 43244, 43296, 43032, 43109, 43332, 43182, 42917, 42737, 42865, 43154, 43078, 42933, 43108, 42873, 43177, 43311, 43227, 43441, 43279, 43334, 43129, 42977, 42844, 43305, 42905, 42935, 43182, 42803, 42786, 43228, 43102, 43366, 43121, 43128, 43256, 43027, 43396, 43091, 42639, 42654, 42865, 43035, 43053, 42752, 43176, 41576, 42159, 43722, 42873, 43071, 43070, 43479, 43527],
      "WindowCenter": [10408.0, 10345.0, 10304.0, 10331.0, 10372.0, 10355.0, 10336.0, 10318.0, 10316.0, 10319.0, 10333.0, 10349.0, 10344.0, 10327.0, 10325.0, 10318.0, 10329.0, 10357.0, 10364.0, 10342.0, 10331.0, 10341.0, 10360.0, 10344.0, 10312.0, 10309.0, 10347.0, 10362.0, 10341.0, 10307.0, 10297.0, 10331.0, 10341.0, 10334.0, 10320.0, 10314.0, 10299.0, 10294.0, 10280.0, 10258.0, 10261.0, 10330.0, 10321.0, 10302.0, 10273.0, 10272.0, 10287.0, 10293.0, 10296.0, 10276.0, 10266.0, 10287.0, 10305.0, 10297.0, 10275.0, 10332.0, 10376.0, 10382.0, 10349.0, 10326.0, 10323.0, 10328.0, 10354.0, 10373.0, 10352.0, 10336.0, 10319.0, 10327.0, 10328.0, 10324.0, 10321.0, 10320.0, 10321.0, 10328.0, 10349.0, 10352.0, 10318.0, 10316.0, 10324.0, 10328.0, 10346.0, 10348.0, 10332.0, 10324.0, 10320.0, 10322.0, 10344.0, 10361.0, 10337.0, 10291.0, 10299.0, 10305.0, 10319.0, 10338.0, 10329.0, 10310.0, 10315.0, 10321.0, 10324.0, 10319.0, 10333.0, 10323.0, 10297.0, 10284.0, 10283.0, 10290.0, 10288.0, 10304.0, 10322.0, 10313.0, 10306.0, 10334.0, 10335.0, 10325.0, 10326.0, 10332.0, 10332.0, 10325.0, 10315.0, 10313.0, 10308.0, 10292.0, 10281.0, 10290.0, 10286.0, 10295.0, 10307.0, 10302.0, 10312.0, 10320.0, 10317.0, 10304.0, 10275.0, 10289.0, 10322.0, 10320.0, 10296.0, 10294.0, 10295.0, 10272.0, 10258.0, 10256.0, 10274.0, 10280.0, 10293.0, 10297.0, 10304.0, 10289.0, 10278.0, 10299.0, 10343.0, 10347.0, 10328.0, 10318.0, 10323.0, 10302.0, 10293.0, 10306.0, 10320.0, 10327.0, 10341.0, 10354.0, 10333.0, 10318.0, 10309.0, 10291.0, 10285.0, 10285.0, 10288.0, 10290.0, 10308.0, 10319.0, 10304.0, 10286.0, 10279.0, 10269.0, 10300.0, 10318.0, 10334.0, 10320.0, 10283.0, 10272.0, 10270.0, 10312.0, 10353.0, 10335.0, 10312.0, 10290.0, 10270.0, 10246.0],
      "WindowWidth": [22528.0, 22348.0, 22228.0, 22276.0, 22362.0, 22325.0, 22270.0, 22229.0, 22225.0, 22228.0, 22259.0, 22300.0, 22286.0, 22246.0, 22240.0, 22225.0, 22253.0, 22318.0, 22338.0, 22287.0, 22258.0, 22281.0, 22327.0, 22292.0, 22216.0, 22207.0, 22295.0, 22336.0, 22286.0, 22207.0, 22184.0, 22262.0, 22294.0, 22277.0, 22241.0, 22223.0, 22188.0, 22170.0, 22140.0, 22093.0, 22105.0, 22261.0, 22251.0, 22208.0, 22139.0, 22131.0, 22160.0, 22170.0, 22174.0, 22127.0, 22105.0, 22157.0, 22203.0, 22193.0, 22138.0, 22264.0, 22365.0, 22382.0, 22307.0, 22251.0, 22242.0, 22256.0, 22318.0, 22362.0, 22319.0, 22280.0, 22240.0, 22254.0, 22260.0, 22258.0, 22247.0, 22244.0, 22248.0, 22263.0, 22309.0, 22312.0, 22240.0, 22234.0, 22253.0, 22263.0, 22305.0, 22311.0, 22276.0, 22254.0, 22240.0, 22246.0, 22299.0, 22340.0, 22288.0, 22187.0, 22200.0, 22212.0, 22242.0, 22285.0, 22264.0, 22220.0, 22232.0, 22248.0, 22255.0, 22246.0, 22276.0, 22252.0, 22197.0, 22164.0, 22161.0, 22177.0, 22172.0, 22207.0, 22250.0, 22229.0, 22216.0, 22281.0, 22285.0, 22265.0, 22267.0, 22277.0, 22277.0, 22263.0, 22237.0, 22232.0, 22224.0, 22186.0, 22157.0, 22179.0, 22174.0, 22190.0, 22222.0, 22211.0, 22227.0, 22248.0, 22246.0, 22213.0, 22148.0, 22177.0, 22254.0, 22253.0, 22196.0, 22192.0, 22196.0, 22147.0, 22108.0, 22103.0, 22149.0, 22164.0, 22191.0, 22202.0, 22217.0, 22184.0, 22158.0, 22205.0, 22308.0, 22314.0, 22270.0, 22247.0, 22256.0, 22210.0, 22188.0, 22218.0, 22253.0, 22270.0, 22299.0, 22331.0, 22282.0, 22244.0, 22229.0, 22189.0, 22173.0, 22170.0, 22176.0, 22184.0, 22226.0, 22249.0, 22214.0, 22174.0, 22159.0, 22136.0, 22207.0, 22247.0, 22284.0, 22254.0, 22175.0, 22147.0, 22141.0, 22234.0, 22325.0, 22286.0, 22236.0, 22186.0, 22140.0, 22086.0]
    },
    "slices": {}
  }
}