{
  "AcquisitionMatrixPE": 104,
  "AcquisitionNumber": 1,
  "AcquisitionTime": "15:38:14.772500",
  "BandwidthPerPixelPhaseEncode": 17.17,
  "BaseResolution": 104,
  "BodyPartExamined": "BRAIN",
  "CoilString": "HC1-7;NC1_2",
  "ConsistencyInfo": "N4_VE11C_LATEST_20160120",
  "ConversionSoftware": "dcm2niix",
  "ConversionSoftwareVersion": "v1.0.20190902",
  "DerivedVendorReportedEchoSpacing": 0.000560011,
  "DeviceSerialNumber": "167006",
  "DwellTime": 2.1e-06,
  "EchoTime": 0.037,
  "EchoTrainLength": 104,
  "EffectiveEchoSpacing": 0.000560011,
  "FlipAngle": 52,
  "ImageComments": "Unaliased_MB4_PE3_LB",
  "ImageOrientationPatientDICOM": [0.998645, -0.0516151, 0.006645, 0.0509387, 0.943345, -0.32788],
  "ImageType": [
    "ORIGINAL",
    "PRIMARY",
    "P",
    "MB",
    "ND",
    "MOSAIC"
],
  "ImagingFrequency": 123.259,
  "InPlanePhaseEncodingDirectionDICOM": "COL",
  "InstitutionAddress": "Chemin_Queen-Mary_4565_Montreal_District_CA_H3W_1W5",
  "InstitutionName": "IUGM",
  "InstitutionalDepartmentName": "Department",
  "MRAcquisitionType": "2D",
  "MagneticFieldStrength": 3,
  "Manufacturer": "Siemens",
  "ManufacturersModelName": "Prisma_fit",
  "Modality": "MR",
  "MultibandAccelerationFactor": 4,
  "PartialFourier": 1,
  "PatientPosition": "HFS",
  "PercentPhaseFOV": 100,
  "PhaseEncodingDirection": "j",
  "PhaseEncodingSteps": 104,
  "PhaseResolution": 1,
  "PixelBandwidth": 2290,
  "ProcedureStepDescription": "memory_things",
  "ProtocolName": "func_task-things_run-3",
  "PulseSequenceDetails": "%CustomerSeq%_cmrr_mbep2d_bold",
  "ReceiveCoilActiveElements": "HC1-7;NC1,2",
  "ReceiveCoilName": "HeadNeck_64",
  "ReconMatrixPE": 104,
  "RepetitionTime": 1.49,
  "SAR": 0.0380096,
  "ScanOptions": "FS",
  "ScanningSequence": "EP",
  "SequenceName": "epfid2d1_104",
  "SequenceVariant": "SK_SS",
  "SeriesDescription": "func_task-things_run-3",
  "SeriesNumber": 17,
  "ShimSetting": [623, -7247, -8821, 559, -8, -203, -51, -35],
  "SliceThickness": 2,
  "SliceTiming": [0, 0.7825, 0.0975, 0.8825, 0.195, 0.98, 0.2925, 1.0775, 0.3925, 1.175, 0.49, 1.2725, 0.5875, 1.3725, 0.685, 0, 0.7825, 0.0975, 0.8825, 0.195, 0.98, 0.2925, 1.0775, 0.3925, 1.175, 0.49, 1.2725, 0.5875, 1.3725, 0.685, 0, 0.7825, 0.0975, 0.8825, 0.195, 0.98, 0.2925, 1.0775, 0.3925, 1.175, 0.49, 1.2725, 0.5875, 1.3725, 0.685, 0, 0.7825, 0.0975, 0.8825, 0.195, 0.98, 0.2925, 1.0775, 0.3925, 1.175, 0.49, 1.2725, 0.5875, 1.3725, 0.685],
  "SoftwareVersions": "syngo_MR_E11",
  "SpacingBetweenSlices": 2,
  "StationName": "MRC35049",
  "TaskName": "things",
  "TotalReadoutTime": 0.0576811,
  "TxRefAmp": 240.739,
  "WipMemBlock": "7ea21027-6950-4cdf-a17a-56ddaf96fb49||Sequence: R016 ve11c/master r/e634e98; Dec 19 2017 11:00:25 by eja",
  "dcmmeta_affine": [
    [-1.9972898960113525, 0.10187730193138123, -0.021310120820999146, 102.44097900390625],
    [0.10323023796081543, 1.8866899013519287, -0.6555492281913757, -69.96168518066406],
    [0.013289996422827244, 0.6557608246803284, 1.8893917798995972, -61.63075256347656],
    [0.0, 0.0, 0.0, 1.0]
],
  "dcmmeta_reorient_transform": [
    [0.0, -1.0, 0.0, 103.0],
    [1.0, 0.0, 0.0, 0.0],
    [0.0, 0.0, 1.0, 0.0],
    [0.0, 0.0, 0.0, 1.0]
],
  "dcmmeta_shape": [104, 104, 60, 190],
  "dcmmeta_slice_dim": 2,
  "dcmmeta_version": 0.6,
  "global": {
    "const": {
      "AcquisitionMatrix": [104, 0, 0, 104],
      "AngioFlag": "N",
      "BitsAllocated": 16,
      "BitsStored": 16,
      "BodyPartExamined": "BRAIN",
      "Columns": 832,
      "EchoNumbers": 1,
      "EchoTime": 37.0,
      "EchoTrainLength": 104,
      "FlipAngle": 52.0,
      "HighBit": 15,
      "ImageOrientationPatient": [0.99864494367889, -0.0516151185299, 0.00664499840005, 0.05093865076541, 0.94334494561495, -0.327880416373],
      "ImagePositionPatient": [-877.03120093395, -773.54668424389, 239.77199716328],
      "ImageType": [
        "ORIGINAL",
        "PRIMARY",
        "P",
        "MB",
        "ND",
        "MOSAIC"
],
      "ImagedNucleus": "1H",
      "ImagingFrequency": 123.258883,
      "InPlanePhaseEncodingDirection": "COL",
      "LargestImagePixelValue": 4095,
      "MRAcquisitionType": "2D",
      "MagneticFieldStrength": 3.0,
      "Manufacturer": "SIEMENS",
      "ManufacturerModelName": "Prisma_fit",
      "Modality": "MR",
      "NumberOfAverages": 1.0,
      "NumberOfPhaseEncodingSteps": 104,
      "PercentPhaseFieldOfView": 100.0,
      "PercentSampling": 100.0,
      "PerformedProcedureStepStartTime": "145924.353000",
      "PhotometricInterpretation": "MONOCHROME2",
      "PixelBandwidth": 2290.0,
      "PixelRepresentation": 0,
      "PixelSpacing": [2.0, 2.0],
      "ProtocolName": "func_task-things_run-3",
      "RepetitionTime": 1490.0,
      "RescaleIntercept": -4096.0,
      "RescaleSlope": 2.0,
      "RescaleType": "US",
      "Rows": 832,
      "SAR": 0.03800960168162,
      "SamplesPerPixel": 1,
      "ScanOptions": "FS",
      "ScanningSequence": "EP",
      "SequenceName": "epfid2d1_104",
      "SequenceVariant": [
        "SK",
        "SS"
],
      "SeriesDescription": "func_task-things_run-3",
      "SeriesNumber": 17,
      "SeriesTime": "153935.111000",
      "SliceLocation": -36.382167270261,
      "SliceThickness": 2.0,
      "SmallestImagePixelValue": 0,
      "SoftwareVersions": "syngo MR E11",
      "SpacingBetweenSlices": 1.9999999914467,
      "SpecificCharacterSet": "ISO_IR 100",
      "StudyID": "1",
      "StudyTime": "145924.271000",
      "TransmitCoilName": "Body",
      "VariableFlipAngleFlag": "N",
      "WindowCenterWidthExplanation": "Algo1",
      "dBdt": 0.0},
    "slices": {}
  },
  "time": {
    "samples": {
      "AcquisitionNumber": [1, 2, 3, 4, 5, 6, 7, 8, 9, 10, 11, 12, 13, 14, 15, 16, 17, 18, 19, 20, 21, 22, 23, 24, 25, 26, 27, 28, 29, 30, 31, 32, 33, 34, 35, 36, 37, 38, 39, 40, 41, 42, 43, 44, 45, 46, 47, 48, 49, 50, 51, 52, 53, 54, 55, 56, 57, 58, 59, 60, 61, 62, 63, 64, 65, 66, 67, 68, 69, 70, 71, 72, 73, 74, 75, 76, 77, 78, 79, 80, 81, 82, 83, 84, 85, 86, 87, 88, 89, 90, 91, 92, 93, 94, 95, 96, 97, 98, 99, 100, 101, 102, 103, 104, 105, 106, 107, 108, 109, 110, 111, 112, 113, 114, 115, 116, 117, 118, 119, 120, 121, 122, 123, 124, 125, 126, 127, 128, 129, 130, 131, 132, 133, 134, 135, 136, 137, 138, 139, 140, 141, 142, 143, 144, 145, 146, 147, 148, 149, 150, 151, 152, 153, 154, 155, 156, 157, 158, 159, 160, 161, 162, 163, 164, 165, 166, 167, 168, 169, 170, 171, 172, 173, 174, 175, 176, 177, 178, 179, 180, 181, 182, 183, 184, 185, 186, 187, 188, 189, 190],
      "AcquisitionTime": ["153814.772500", "153816.262500", "153817.752500", "153819.242500", "153820.732500", "153822.222500", "153823.712500", "153825.202500", "153826.692500", "153828.182500", "153829.672500", "153831.162500", "153832.652500", "153834.142500", "153835.632500", "153837.122500", "153838.612500", "153840.102500", "153841.592500", "153843.082500", "153844.572500", "153846.062500", "153847.552500", "153849.042500", "153850.532500", "153852.022500", "153853.512500", "153855.002500", "153856.492500", "153857.982500", "153859.472500", "153900.962500", "153902.452500", "153903.942500", "153905.432500", "153906.922500", "153908.412500", "153909.902500", "153911.392500", "153912.882500", "153914.372500", "153915.862500", "153917.352500", "153918.842500", "153920.332500", "153921.822500", "153923.312500", "153924.802500", "153926.292500", "153927.782500", "153929.272500", "153930.762500", "153932.252500", "153933.742500", "153935.232500", "153936.722500", "153938.212500", "153939.702500", "153941.192500", "153942.682500", "153944.172500", "153945.662500", "153947.152500", "153948.642500", "153950.132500", "153951.622500", "153953.112500", "153954.602500", "153956.092500", "153957.582500", "153959.072500", "154000.562500", "154002.052500", "154003.542500", "154005.032500", "154006.522500", "154008.012500", "154009.502500", "154010.992500", "154012.482500", "154013.972500", "154015.462500", "154016.952500", "154018.442500", "154019.932500", "154021.422500", "154022.912500", "154024.402500", "154025.892500", "154027.382500", "154028.872500", "154030.362500", "154031.852500", "154033.342500", "154034.832500", "154036.322500", "154037.812500", "154039.302500", "154040.792500", "154042.282500", "154043.772500", "154045.262500", "154046.752500", "154048.242500", "154049.732500", "154051.222500", "154052.712500", "154054.202500", "154055.692500", "154057.182500", "154058.672500", "154100.162500", "154101.652500", "154103.142500", "154104.632500", "154106.122500", "154107.612500", "154109.102500", "154110.592500", "154112.082500", "154113.572500", "154115.062500", "154116.552500", "154118.042500", "154119.532500", "154121.022500", "154122.512500", "154124.002500", "154125.492500", "154126.982500", "154128.472500", "154129.962500", "154131.452500", "154132.942500", "154134.432500", "154135.922500", "154137.412500", "154138.902500", "154140.392500", "154141.882500", "154143.372500", "154144.862500", "154146.352500", "154147.842500", "154149.332500", "154150.822500", "154152.312500", "154153.802500", "154155.292500", "154156.782500", "154158.272500", "154159.762500", "154201.252500", "154202.742500", "154204.232500", "154205.722500", "154207.212500", "154208.702500", "154210.192500", "154211.682500", "154213.172500", "154214.662500", "154216.152500", "154217.642500", "154219.132500", "154220.622500", "154222.112500", "154223.602500", "154225.092500", "154226.582500", "154228.072500", "154229.562500", "154231.052500", "154232.542500", "154234.032500", "154235.522500", "154237.012500", "154238.502500", "154239.992500", "154241.482500", "154242.972500", "154244.462500", "154245.952500", "154247.442500", "154248.932500", "154250.422500", "154251.912500", "154253.402500", "154254.892500", "154256.382500"],
      "ContentTime": ["153935.113000", "153935.116000", "153935.119000", "153935.121000", "153935.124000", "153935.126000", "153935.129000", "153935.136000", "153935.138000", "153935.141000", "153935.143000", "153935.145000", "153935.148000", "153935.150000", "153935.153000", "153935.155000", "153935.158000", "153935.160000", "153935.163000", "153935.165000", "153935.168000", "153935.170000", "153935.173000", "153935.175000", "153935.178000", "153935.180000", "153955.066000", "153955.069000", "153955.071000", "153955.074000", "153955.076000", "153955.079000", "153955.081000", "153955.084000", "153955.086000", "153955.089000", "153955.091000", "153955.094000", "153955.096000", "153955.098000", "153955.101000", "153955.104000", "153955.106000", "153955.117000", "153955.119000", "153955.121000", "154015.059000", "154015.062000", "154015.065000", "154015.067000", "154015.070000", "154015.072000", "154015.074000", "154015.077000", "154015.080000", "154015.082000", "154015.085000", "154015.092000", "154015.094000", "154015.097000", "154015.099000", "154015.102000", "154015.104000", "154015.107000", "154015.109000", "154015.112000", "154015.114000", "154035.052000", "154035.055000", "154035.058000", "154035.066000", "154035.068000", "154035.071000", "154035.073000", "154035.076000", "154035.090000", "154035.092000", "154035.095000", "154035.097000", "154035.100000", "154035.102000", "154035.105000", "154035.107000", "154035.110000", "154035.112000", "154035.115000", "154035.117000", "154055.052000", "154055.054000", "154055.057000", "154055.059000", "154055.062000", "154055.064000", "154055.067000", "154055.069000", "154055.072000", "154055.074000", "154055.077000", "154055.079000", "154055.082000", "154055.084000", "154055.087000", "154055.089000", "154055.092000", "154055.094000", "154055.097000", "154055.099000", "154135.104000", "154135.107000", "154135.110000", "154135.117000", "154135.128000", "154135.130000", "154135.132000", "154135.135000", "154135.137000", "154135.140000", "154135.142000", "154135.145000", "154135.147000", "154135.150000", "154135.152000", "154135.155000", "154135.157000", "154135.160000", "154135.171000", "154135.174000", "154135.176000", "154135.179000", "154135.182000", "154135.184000", "154135.186000", "154135.189000", "154215.096000", "154215.099000", "154215.101000", "154215.104000", "154215.106000", "154215.109000", "154215.111000", "154215.114000", "154215.117000", "154215.120000", "154215.122000", "154215.125000", "154215.127000", "154215.130000", "154215.132000", "154215.135000", "154215.137000", "154215.140000", "154215.142000", "154215.145000", "154215.147000", "154215.150000", "154215.152000", "154215.155000", "154215.158000", "154215.160000", "154215.163000", "154255.109000", "154255.112000", "154255.114000", "154255.117000", "154255.119000", "154255.122000", "154255.124000", "154255.127000", "154255.129000", "154255.132000", "154255.134000", "154255.137000", "154255.139000", "154255.142000", "154255.144000", "154255.147000", "154255.149000", "154255.163000", "154255.166000", "154255.168000", "154255.171000", "154255.173000", "154255.176000", "154255.178000", "154255.181000", "154255.183000", "154255.186000", "154258.983000", "154258.986000", "154258.989000"],
      "InstanceCreationTime": ["153935.113000", "153935.116000", "153935.119000", "153935.121000", "153935.124000", "153935.126000", "153935.129000", "153935.136000", "153935.138000", "153935.141000", "153935.143000", "153935.145000", "153935.148000", "153935.150000", "153935.153000", "153935.155000", "153935.158000", "153935.160000", "153935.163000", "153935.165000", "153935.168000", "153935.170000", "153935.173000", "153935.175000", "153935.178000", "153935.180000", "153955.066000", "153955.069000", "153955.071000", "153955.074000", "153955.076000", "153955.079000", "153955.081000", "153955.084000", "153955.086000", "153955.089000", "153955.091000", "153955.094000", "153955.096000", "153955.098000", "153955.101000", "153955.104000", "153955.106000", "153955.117000", "153955.119000", "153955.121000", "154015.059000", "154015.062000", "154015.065000", "154015.067000", "154015.070000", "154015.072000", "154015.074000", "154015.077000", "154015.080000", "154015.082000", "154015.085000", "154015.092000", "154015.094000", "154015.097000", "154015.099000", "154015.102000", "154015.104000", "154015.107000", "154015.109000", "154015.112000", "154015.114000", "154035.052000", "154035.055000", "154035.058000", "154035.066000", "154035.068000", "154035.071000", "154035.073000", "154035.076000", "154035.090000", "154035.092000", "154035.095000", "154035.097000", "154035.100000", "154035.102000", "154035.105000", "154035.107000", "154035.110000", "154035.112000", "154035.115000", "154035.117000", "154055.052000", "154055.054000", "154055.057000", "154055.059000", "154055.062000", "154055.064000", "154055.067000", "154055.069000", "154055.072000", "154055.074000", "154055.077000", "154055.079000", "154055.082000", "154055.084000", "154055.087000", "154055.089000", "154055.092000", "154055.094000", "154055.097000", "154055.099000", "154135.104000", "154135.107000", "154135.110000", "154135.117000", "154135.128000", "154135.130000", "154135.132000", "154135.135000", "154135.137000", "154135.140000", "154135.142000", "154135.145000", "154135.147000", "154135.150000", "154135.152000", "154135.155000", "154135.157000", "154135.160000", "154135.171000", "154135.174000", "154135.176000", "154135.179000", "154135.182000", "154135.184000", "154135.186000", "154135.189000", "154215.096000", "154215.099000", "154215.101000", "154215.104000", "154215.106000", "154215.109000", "154215.111000", "154215.114000", "154215.117000", "154215.120000", "154215.122000", "154215.125000", "154215.127000", "154215.130000", "154215.132000", "154215.135000", "154215.137000", "154215.140000", "154215.142000", "154215.145000", "154215.147000", "154215.150000", "154215.152000", "154215.155000", "154215.158000", "154215.160000", "154215.163000", "154255.109000", "154255.112000", "154255.114000", "154255.117000", "154255.119000", "154255.122000", "154255.124000", "154255.127000", "154255.129000", "154255.132000", "154255.134000", "154255.137000", "154255.139000", "154255.142000", "154255.144000", "154255.147000", "154255.149000", "154255.163000", "154255.166000", "154255.168000", "154255.171000", "154255.173000", "154255.176000", "154255.178000", "154255.181000", "154255.183000", "154255.186000", "154258.983000", "154258.986000", "154258.989000"],
      "InstanceNumber": [1, 2, 3, 4, 5, 6, 7, 8, 9, 10, 11, 12, 13, 14, 15, 16, 17, 18, 19, 20, 21, 22, 23, 24, 25, 26, 27, 28, 29, 30, 31, 32, 33, 34, 35, 36, 37, 38, 39, 40, 41, 42, 43, 44, 45, 46, 47, 48, 49, 50, 51, 52, 53, 54, 55, 56, 57, 58, 59, 60, 61, 62, 63, 64, 65, 66, 67, 68, 69, 70, 71, 72, 73, 74, 75, 76, 77, 78, 79, 80, 81, 82, 83, 84, 85, 86, 87, 88, 89, 90, 91, 92, 93, 94, 95, 96, 97, 98, 99, 100, 101, 102, 103, 104, 105, 106, 107, 108, 109, 110, 111, 112, 113, 114, 115, 116, 117, 118, 119, 120, 121, 122, 123, 124, 125, 126, 127, 128, 129, 130, 131, 132, 133, 134, 135, 136, 137, 138, 139, 140, 141, 142, 143, 144, 145, 146, 147, 148, 149, 150, 151, 152, 153, 154, 155, 156, 157, 158, 159, 160, 161, 162, 163, 164, 165, 166, 167, 168, 169, 170, 171, 172, 173, 174, 175, 176, 177, 178, 179, 180, 181, 182, 183, 184, 185, 186, 187, 188, 189, 190],
      "WindowCenter": [4880.0, 4844.0, 4838.0, 4878.0, 4876.0, 4842.0, 4874.0, 4878.0, 4840.0, 4872.0, 4880.0, 4872.0, 4876.0, 4874.0, 4874.0, 4872.0, 4850.0, 4878.0, 4872.0, 4876.0, 4840.0, 4846.0, 4802.0, 4848.0, 4872.0, 4878.0, 4854.0, 4882.0, 4832.0, 4802.0, 4870.0, 4878.0, 4876.0, 4874.0, 4844.0, 4850.0, 4872.0, 4842.0, 4838.0, 4836.0, 4806.0, 4870.0, 4838.0, 4878.0, 4884.0, 4850.0, 4848.0, 4882.0, 4872.0, 4846.0, 4882.0, 4810.0, 4810.0, 4802.0, 4830.0, 4882.0, 4826.0, 4854.0, 4878.0, 4874.0, 4806.0, 4808.0, 4808.0, 4808.0, 4836.0, 4874.0, 4840.0, 4872.0, 4876.0, 4878.0, 4882.0, 4884.0, 4874.0, 4878.0, 4838.0, 4834.0, 4850.0, 4874.0, 4840.0, 4838.0, 4880.0, 4872.0, 4878.0, 4872.0, 4840.0, 4844.0, 4838.0, 4808.0, 4802.0, 4806.0, 4844.0, 4846.0, 4880.0, 4876.0, 4876.0, 4874.0, 4844.0, 4834.0, 4802.0, 4840.0, 4810.0, 4840.0, 4870.0, 4868.0, 4868.0, 4842.0, 4838.0, 4834.0, 4812.0, 4800.0, 4800.0, 4798.0, 4804.0, 4872.0, 4836.0, 4832.0, 4874.0, 4806.0, 4800.0, 4804.0, 4800.0, 4802.0, 4804.0, 4808.0, 4846.0, 4868.0, 4834.0, 4798.0, 4832.0, 4874.0, 4810.0, 4872.0, 4810.0, 4872.0, 4836.0, 4846.0, 4808.0, 4808.0, 4802.0, 4808.0, 4810.0, 4840.0, 4808.0, 4842.0, 4844.0, 4852.0, 4838.0, 4846.0, 4836.0, 4814.0, 4840.0, 4842.0, 4848.0, 4816.0, 4850.0, 4850.0, 4812.0, 4846.0, 4844.0, 4872.0, 4846.0, 4848.0, 4852.0, 4802.0, 4816.0, 4810.0, 4804.0, 4840.0, 4874.0, 4880.0, 4848.0, 4844.0, 4838.0, 4808.0, 4804.0, 4804.0, 4804.0, 4802.0, 4836.0, 4844.0, 4876.0, 4838.0, 4872.0, 4846.0, 4874.0, 4842.0, 4836.0, 4836.0, 4838.0, 4810.0],
      "WindowWidth": [18674.0, 18638.0, 18634.0, 18676.0, 18674.0, 18640.0, 18674.0, 18676.0, 18638.0, 18674.0, 18678.0, 18678.0, 18680.0, 18670.0, 18676.0, 18674.0, 18644.0, 18678.0, 18670.0, 18678.0, 18638.0, 18640.0, 18592.0, 18640.0, 18676.0, 18676.0, 18642.0, 18674.0, 18622.0, 18590.0, 18666.0, 18666.0, 18658.0, 18682.0, 18640.0, 18646.0, 18678.0, 18646.0, 18632.0, 18630.0, 18592.0, 18674.0, 18638.0, 18674.0, 18676.0, 18640.0, 18638.0, 18680.0, 18674.0, 18636.0, 18670.0, 18594.0, 18612.0, 18590.0, 18624.0, 18676.0, 18580.0, 18620.0, 18668.0, 18680.0, 18592.0, 18598.0, 18602.0, 18600.0, 18626.0, 18678.0, 18636.0, 18670.0, 18664.0, 18678.0, 18678.0, 18672.0, 18676.0, 18676.0, 18632.0, 18630.0, 18640.0, 18678.0, 18634.0, 18632.0, 18678.0, 18676.0, 18680.0, 18676.0, 18636.0, 18640.0, 18632.0, 18602.0, 18588.0, 18592.0, 18638.0, 18644.0, 18680.0, 18678.0, 18678.0, 18678.0, 18638.0, 18628.0, 18590.0, 18636.0, 18598.0, 18638.0, 18676.0, 18678.0, 18678.0, 18646.0, 18636.0, 18632.0, 18598.0, 18590.0, 18590.0, 18588.0, 18594.0, 18680.0, 18638.0, 18628.0, 18682.0, 18596.0, 18586.0, 18594.0, 18584.0, 18594.0, 18592.0, 18600.0, 18646.0, 18678.0, 18634.0, 18590.0, 18626.0, 18682.0, 18598.0, 18676.0, 18600.0, 18682.0, 18630.0, 18646.0, 18594.0, 18596.0, 18592.0, 18596.0, 18602.0, 18632.0, 18594.0, 18640.0, 18642.0, 18648.0, 18636.0, 18638.0, 18630.0, 18600.0, 18636.0, 18632.0, 18642.0, 18596.0, 18644.0, 18648.0, 18596.0, 18642.0, 18642.0, 18670.0, 18640.0, 18644.0, 18646.0, 18588.0, 18600.0, 18602.0, 18588.0, 18630.0, 18678.0, 18682.0, 18648.0, 18638.0, 18632.0, 18598.0, 18590.0, 18592.0, 18592.0, 18600.0, 18634.0, 18644.0, 18680.0, 18638.0, 18676.0, 18644.0, 18674.0, 18640.0, 18626.0, 18628.0, 18634.0, 18598.0]
    },
    "slices": {}
  }
}