{
  "AcquisitionMatrixPE": 104,
  "AcquisitionNumber": 1,
  "AcquisitionTime": "15:38:14.772500",
  "BandwidthPerPixelPhaseEncode": 17.17,
  "BaseResolution": 104,
  "BodyPartExamined": "BRAIN",
  "CoilString": "HC1-7;NC1_2",
  "ConsistencyInfo": "N4_VE11C_LATEST_20160120",
  "ConversionSoftware": "dcm2niix",
  "ConversionSoftwareVersion": "v1.0.20190902",
  "DerivedVendorReportedEchoSpacing": 0.000560011,
  "DeviceSerialNumber": "167006",
  "DwellTime": 2.1e-06,
  "EchoTime": 0.037,
  "EchoTrainLength": 104,
  "EffectiveEchoSpacing": 0.000560011,
  "FlipAngle": 52,
  "ImageComments": "Unaliased_MB4_PE3_LB",
  "ImageOrientationPatientDICOM": [0.998645, -0.0516151, 0.006645, 0.0509387, 0.943345, -0.32788],
  "ImageType": [
    "ORIGINAL",
    "PRIMARY",
    "M",
    "MB",
    "ND",
    "MOSAIC"
],
  "ImagingFrequency": 123.259,
  "InPlanePhaseEncodingDirectionDICOM": "COL",
  "InstitutionAddress": "Chemin_Queen-Mary_4565_Montreal_District_CA_H3W_1W5",
  "InstitutionName": "IUGM",
  "InstitutionalDepartmentName": "Department",
  "MRAcquisitionType": "2D",
  "MagneticFieldStrength": 3,
  "Manufacturer": "Siemens",
  "ManufacturersModelName": "Prisma_fit",
  "Modality": "MR",
  "MultibandAccelerationFactor": 4,
  "PartialFourier": 1,
  "PatientPosition": "HFS",
  "PercentPhaseFOV": 100,
  "PhaseEncodingDirection": "j",
  "PhaseEncodingSteps": 104,
  "PhaseResolution": 1,
  "PixelBandwidth": 2290,
  "ProcedureStepDescription": "memory_things",
  "ProtocolName": "func_task-things_run-3",
  "PulseSequenceDetails": "%CustomerSeq%_cmrr_mbep2d_bold",
  "ReceiveCoilActiveElements": "HC1-7;NC1,2",
  "ReceiveCoilName": "HeadNeck_64",
  "ReconMatrixPE": 104,
  "RepetitionTime": 1.49,
  "SAR": 0.0380096,
  "ScanOptions": "FS",
  "ScanningSequence": "EP",
  "SequenceName": "epfid2d1_104",
  "SequenceVariant": "SK_SS",
  "SeriesDescription": "func_task-things_run-3",
  "SeriesNumber": 16,
  "ShimSetting": [623, -7247, -8821, 559, -8, -203, -51, -35],
  "SliceThickness": 2,
  "SliceTiming": [0, 0.7825, 0.0975, 0.8825, 0.195, 0.98, 0.2925, 1.0775, 0.3925, 1.175, 0.49, 1.2725, 0.5875, 1.3725, 0.685, 0, 0.7825, 0.0975, 0.8825, 0.195, 0.98, 0.2925, 1.0775, 0.3925, 1.175, 0.49, 1.2725, 0.5875, 1.3725, 0.685, 0, 0.7825, 0.0975, 0.8825, 0.195, 0.98, 0.2925, 1.0775, 0.3925, 1.175, 0.49, 1.2725, 0.5875, 1.3725, 0.685, 0, 0.7825, 0.0975, 0.8825, 0.195, 0.98, 0.2925, 1.0775, 0.3925, 1.175, 0.49, 1.2725, 0.5875, 1.3725, 0.685],
  "SoftwareVersions": "syngo_MR_E11",
  "SpacingBetweenSlices": 2,
  "StationName": "MRC35049",
  "TaskName": "things",
  "TotalReadoutTime": 0.0576811,
  "TxRefAmp": 240.739,
  "WipMemBlock": "7ea21027-6950-4cdf-a17a-56ddaf96fb49||Sequence: R016 ve11c/master r/e634e98; Dec 19 2017 11:00:25 by eja",
  "dcmmeta_affine": [
    [-1.9972898960113525, 0.10187730193138123, -0.021310120820999146, 102.44097900390625],
    [0.10323023796081543, 1.8866899013519287, -0.6555492281913757, -69.96168518066406],
    [0.013289996422827244, 0.6557608246803284, 1.8893917798995972, -61.63075256347656],
    [0.0, 0.0, 0.0, 1.0]
],
  "dcmmeta_reorient_transform": [
    [0.0, -1.0, 0.0, 103.0],
    [1.0, 0.0, 0.0, 0.0],
    [0.0, 0.0, 1.0, 0.0],
    [0.0, 0.0, 0.0, 1.0]
],
  "dcmmeta_shape": [104, 104, 60, 190],
  "dcmmeta_slice_dim": 2,
  "dcmmeta_version": 0.6,
  "global": {
    "const": {
      "AcquisitionMatrix": [104, 0, 0, 104],
      "AngioFlag": "N",
      "BitsAllocated": 16,
      "BitsStored": 16,
      "BodyPartExamined": "BRAIN",
      "Columns": 832,
      "EchoNumbers": 1,
      "EchoTime": 37.0,
      "EchoTrainLength": 104,
      "FlipAngle": 52.0,
      "HighBit": 15,
      "ImageOrientationPatient": [0.99864494367889, -0.0516151185299, 0.00664499840005, 0.05093865076541, 0.94334494561495, -0.327880416373],
      "ImagePositionPatient": [-877.03120093395, -773.54668424389, 239.77199716328],
      "ImageType": [
        "ORIGINAL",
        "PRIMARY",
        "M",
        "MB",
        "ND",
        "MOSAIC"
],
      "ImagedNucleus": "1H",
      "ImagingFrequency": 123.258883,
      "InPlanePhaseEncodingDirection": "COL",
      "MRAcquisitionType": "2D",
      "MagneticFieldStrength": 3.0,
      "Manufacturer": "SIEMENS",
      "ManufacturerModelName": "Prisma_fit",
      "Modality": "MR",
      "NumberOfAverages": 1.0,
      "NumberOfPhaseEncodingSteps": 104,
      "PercentPhaseFieldOfView": 100.0,
      "PercentSampling": 100.0,
      "PerformedProcedureStepStartTime": "145924.353000",
      "PhotometricInterpretation": "MONOCHROME2",
      "PixelBandwidth": 2290.0,
      "PixelRepresentation": 0,
      "PixelSpacing": [2.0, 2.0],
      "ProtocolName": "func_task-things_run-3",
      "RepetitionTime": 1490.0,
      "Rows": 832,
      "SAR": 0.03800960168162,
      "SamplesPerPixel": 1,
      "ScanOptions": "FS",
      "ScanningSequence": "EP",
      "SequenceName": "epfid2d1_104",
      "SequenceVariant": [
        "SK",
        "SS"
],
      "SeriesDescription": "func_task-things_run-3",
      "SeriesNumber": 16,
      "SeriesTime": "153934.982000",
      "SliceLocation": -36.382167270261,
      "SliceThickness": 2.0,
      "SmallestImagePixelValue": 0,
      "SoftwareVersions": "syngo MR E11",
      "SpacingBetweenSlices": 1.9999999914467,
      "SpecificCharacterSet": "ISO_IR 100",
      "StudyID": "1",
      "StudyTime": "145924.271000",
      "TransmitCoilName": "Body",
      "VariableFlipAngleFlag": "N",
      "WindowCenterWidthExplanation": "Algo1",
      "dBdt": 0.0},
    "slices": {}
  },
  "time": {
    "samples": {
      "AcquisitionNumber": [1, 2, 3, 4, 5, 6, 7, 8, 9, 10, 11, 12, 13, 14, 15, 16, 17, 18, 19, 20, 21, 22, 23, 24, 25, 26, 27, 28, 29, 30, 31, 32, 33, 34, 35, 36, 37, 38, 39, 40, 41, 42, 43, 44, 45, 46, 47, 48, 49, 50, 51, 52, 53, 54, 55, 56, 57, 58, 59, 60, 61, 62, 63, 64, 65, 66, 67, 68, 69, 70, 71, 72, 73, 74, 75, 76, 77, 78, 79, 80, 81, 82, 83, 84, 85, 86, 87, 88, 89, 90, 91, 92, 93, 94, 95, 96, 97, 98, 99, 100, 101, 102, 103, 104, 105, 106, 107, 108, 109, 110, 111, 112, 113, 114, 115, 116, 117, 118, 119, 120, 121, 122, 123, 124, 125, 126, 127, 128, 129, 130, 131, 132, 133, 134, 135, 136, 137, 138, 139, 140, 141, 142, 143, 144, 145, 146, 147, 148, 149, 150, 151, 152, 153, 154, 155, 156, 157, 158, 159, 160, 161, 162, 163, 164, 165, 166, 167, 168, 169, 170, 171, 172, 173, 174, 175, 176, 177, 178, 179, 180, 181, 182, 183, 184, 185, 186, 187, 188, 189, 190],
      "AcquisitionTime": ["153814.772500", "153816.262500", "153817.752500", "153819.242500", "153820.732500", "153822.222500", "153823.712500", "153825.202500", "153826.692500", "153828.182500", "153829.672500", "153831.162500", "153832.652500", "153834.142500", "153835.632500", "153837.122500", "153838.612500", "153840.102500", "153841.592500", "153843.082500", "153844.572500", "153846.062500", "153847.552500", "153849.042500", "153850.532500", "153852.022500", "153853.512500", "153855.002500", "153856.492500", "153857.982500", "153859.472500", "153900.962500", "153902.452500", "153903.942500", "153905.432500", "153906.922500", "153908.412500", "153909.902500", "153911.392500", "153912.882500", "153914.372500", "153915.862500", "153917.352500", "153918.842500", "153920.332500", "153921.822500", "153923.312500", "153924.802500", "153926.292500", "153927.782500", "153929.272500", "153930.762500", "153932.252500", "153933.742500", "153935.232500", "153936.722500", "153938.212500", "153939.702500", "153941.192500", "153942.682500", "153944.172500", "153945.662500", "153947.152500", "153948.642500", "153950.132500", "153951.622500", "153953.112500", "153954.602500", "153956.092500", "153957.582500", "153959.072500", "154000.562500", "154002.052500", "154003.542500", "154005.032500", "154006.522500", "154008.012500", "154009.502500", "154010.992500", "154012.482500", "154013.972500", "154015.462500", "154016.952500", "154018.442500", "154019.932500", "154021.422500", "154022.912500", "154024.402500", "154025.892500", "154027.382500", "154028.872500", "154030.362500", "154031.852500", "154033.342500", "154034.832500", "154036.322500", "154037.812500", "154039.302500", "154040.792500", "154042.282500", "154043.772500", "154045.262500", "154046.752500", "154048.242500", "154049.732500", "154051.222500", "154052.712500", "154054.202500", "154055.692500", "154057.182500", "154058.672500", "154100.162500", "154101.652500", "154103.142500", "154104.632500", "154106.122500", "154107.612500", "154109.102500", "154110.592500", "154112.082500", "154113.572500", "154115.062500", "154116.552500", "154118.042500", "154119.532500", "154121.022500", "154122.512500", "154124.002500", "154125.492500", "154126.982500", "154128.472500", "154129.962500", "154131.452500", "154132.942500", "154134.432500", "154135.922500", "154137.412500", "154138.902500", "154140.392500", "154141.882500", "154143.372500", "154144.862500", "154146.352500", "154147.842500", "154149.332500", "154150.822500", "154152.312500", "154153.802500", "154155.292500", "154156.782500", "154158.272500", "154159.762500", "154201.252500", "154202.742500", "154204.232500", "154205.722500", "154207.212500", "154208.702500", "154210.192500", "154211.682500", "154213.172500", "154214.662500", "154216.152500", "154217.642500", "154219.132500", "154220.622500", "154222.112500", "154223.602500", "154225.092500", "154226.582500", "154228.072500", "154229.562500", "154231.052500", "154232.542500", "154234.032500", "154235.522500", "154237.012500", "154238.502500", "154239.992500", "154241.482500", "154242.972500", "154244.462500", "154245.952500", "154247.442500", "154248.932500", "154250.422500", "154251.912500", "154253.402500", "154254.892500", "154256.382500"],
      "ContentTime": ["153934.986000", "153934.989000", "153934.992000", "153934.996000", "153935.000000", "153935.004000", "153935.007000", "153935.010000", "153935.013000", "153935.017000", "153935.020000", "153935.023000", "153935.027000", "153935.030000", "153935.033000", "153935.037000", "153935.040000", "153935.043000", "153935.047000", "153935.050000", "153935.053000", "153935.057000", "153935.060000", "153935.063000", "153935.066000", "153935.070000", "153954.949000", "153954.953000", "153954.956000", "153954.959000", "153954.963000", "153954.966000", "153954.982000", "153954.985000", "153954.988000", "153954.992000", "153954.995000", "153954.998000", "153955.002000", "153955.006000", "153955.009000", "153955.012000", "153955.016000", "153955.019000", "153955.023000", "153955.027000", "154014.949000", "154014.953000", "154014.956000", "154014.959000", "154014.962000", "154014.966000", "154014.969000", "154014.972000", "154014.976000", "154014.979000", "154014.982000", "154014.985000", "154014.989000", "154014.992000", "154014.995000", "154014.999000", "154015.002000", "154015.005000", "154015.008000", "154015.012000", "154015.015000", "154034.949000", "154034.953000", "154034.956000", "154034.959000", "154034.963000", "154034.966000", "154034.969000", "154034.973000", "154034.976000", "154034.979000", "154034.982000", "154034.986000", "154034.989000", "154034.992000", "154034.996000", "154035.000000", "154035.003000", "154035.007000", "154035.010000", "154035.013000", "154054.948000", "154054.952000", "154054.955000", "154054.958000", "154054.961000", "154054.965000", "154054.968000", "154054.972000", "154054.975000", "154054.978000", "154054.982000", "154054.985000", "154054.988000", "154054.992000", "154054.995000", "154054.998000", "154055.002000", "154055.005000", "154055.008000", "154055.012000", "154134.948000", "154134.952000", "154134.955000", "154134.958000", "154134.962000", "154134.965000", "154134.968000", "154134.972000", "154134.975000", "154134.978000", "154134.982000", "154134.985000", "154134.988000", "154134.992000", "154134.995000", "154134.998000", "154135.006000", "154135.010000", "154135.013000", "154135.017000", "154135.020000", "154135.023000", "154135.027000", "154135.030000", "154135.033000", "154135.048000", "154214.949000", "154214.953000", "154214.956000", "154214.959000", "154214.963000", "154214.966000", "154214.970000", "154214.973000", "154214.976000", "154214.980000", "154214.983000", "154214.986000", "154214.989000", "154214.993000", "154214.996000", "154214.999000", "154215.003000", "154215.006000", "154215.009000", "154215.012000", "154215.016000", "154215.019000", "154215.022000", "154215.026000", "154215.029000", "154215.032000", "154215.036000", "154254.949000", "154254.953000", "154254.956000", "154254.965000", "154254.968000", "154254.972000", "154254.975000", "154254.978000", "154254.982000", "154254.985000", "154254.988000", "154254.992000", "154254.995000", "154254.998000", "154255.003000", "154255.006000", "154255.009000", "154255.013000", "154255.016000", "154255.019000", "154255.022000", "154255.026000", "154255.029000", "154255.032000", "154255.036000", "154255.039000", "154255.042000", "154258.525000", "154258.529000", "154258.532000"],
      "InstanceCreationTime": ["153934.986000", "153934.989000", "153934.992000", "153934.996000", "153935.000000", "153935.004000", "153935.007000", "153935.010000", "153935.013000", "153935.017000", "153935.020000", "153935.023000", "153935.027000", "153935.030000", "153935.033000", "153935.037000", "153935.040000", "153935.043000", "153935.047000", "153935.050000", "153935.053000", "153935.057000", "153935.060000", "153935.063000", "153935.066000", "153935.070000", "153954.949000", "153954.953000", "153954.956000", "153954.959000", "153954.963000", "153954.966000", "153954.982000", "153954.985000", "153954.988000", "153954.992000", "153954.995000", "153954.998000", "153955.002000", "153955.006000", "153955.009000", "153955.012000", "153955.016000", "153955.019000", "153955.023000", "153955.027000", "154014.949000", "154014.953000", "154014.956000", "154014.959000", "154014.962000", "154014.966000", "154014.969000", "154014.972000", "154014.976000", "154014.979000", "154014.982000", "154014.985000", "154014.989000", "154014.992000", "154014.995000", "154014.999000", "154015.002000", "154015.005000", "154015.008000", "154015.012000", "154015.015000", "154034.949000", "154034.953000", "154034.956000", "154034.959000", "154034.963000", "154034.966000", "154034.969000", "154034.973000", "154034.976000", "154034.979000", "154034.982000", "154034.986000", "154034.989000", "154034.992000", "154034.996000", "154035.000000", "154035.003000", "154035.007000", "154035.010000", "154035.013000", "154054.948000", "154054.952000", "154054.955000", "154054.958000", "154054.961000", "154054.965000", "154054.968000", "154054.972000", "154054.975000", "154054.978000", "154054.982000", "154054.985000", "154054.988000", "154054.992000", "154054.995000", "154054.998000", "154055.002000", "154055.005000", "154055.008000", "154055.012000", "154134.948000", "154134.952000", "154134.955000", "154134.958000", "154134.962000", "154134.965000", "154134.968000", "154134.972000", "154134.975000", "154134.978000", "154134.982000", "154134.985000", "154134.988000", "154134.992000", "154134.995000", "154134.998000", "154135.006000", "154135.010000", "154135.013000", "154135.017000", "154135.020000", "154135.023000", "154135.027000", "154135.030000", "154135.033000", "154135.048000", "154214.949000", "154214.953000", "154214.956000", "154214.959000", "154214.963000", "154214.966000", "154214.970000", "154214.973000", "154214.976000", "154214.980000", "154214.983000", "154214.986000", "154214.989000", "154214.993000", "154214.996000", "154214.999000", "154215.003000", "154215.006000", "154215.009000", "154215.012000", "154215.016000", "154215.019000", "154215.022000", "154215.026000", "154215.029000", "154215.032000", "154215.036000", "154254.949000", "154254.953000", "154254.956000", "154254.965000", "154254.968000", "154254.972000", "154254.975000", "154254.978000", "154254.982000", "154254.985000", "154254.988000", "154254.992000", "154254.995000", "154254.998000", "154255.003000", "154255.006000", "154255.009000", "154255.013000", "154255.016000", "154255.019000", "154255.022000", "154255.026000", "154255.029000", "154255.032000", "154255.036000", "154255.039000", "154255.042000", "154258.525000", "154258.529000", "154258.532000"],
      "InstanceNumber": [1, 2, 3, 4, 5, 6, 7, 8, 9, 10, 11, 12, 13, 14, 15, 16, 17, 18, 19, 20, 21, 22, 23, 24, 25, 26, 27, 28, 29, 30, 31, 32, 33, 34, 35, 36, 37, 38, 39, 40, 41, 42, 43, 44, 45, 46, 47, 48, 49, 50, 51, 52, 53, 54, 55, 56, 57, 58, 59, 60, 61, 62, 63, 64, 65, 66, 67, 68, 69, 70, 71, 72, 73, 74, 75, 76, 77, 78, 79, 80, 81, 82, 83, 84, 85, 86, 87, 88, 89, 90, 91, 92, 93, 94, 95, 96, 97, 98, 99, 100, 101, 102, 103, 104, 105, 106, 107, 108, 109, 110, 111, 112, 113, 114, 115, 116, 117, 118, 119, 120, 121, 122, 123, 124, 125, 126, 127, 128, 129, 130, 131, 132, 133, 134, 135, 136, 137, 138, 139, 140, 141, 142, 143, 144, 145, 146, 147, 148, 149, 150, 151, 152, 153, 154, 155, 156, 157, 158, 159, 160, 161, 162, 163, 164, 165, 166, 167, 168, 169, 170, 171, 172, 173, 174, 175, 176, 177, 178, 179, 180, 181, 182, 183, 184, 185, 186, 187, 188, 189, 190],
      "LargestImagePixelValue": [46456, 45885, 45691, 44917, 44667, 44331, 44287, 44539, 44328, 44721, 44363, 44411, 44145, 44324, 44374, 43908, 44398, 44603, 44421, 43632, 44268, 43859, 43863, 44865, 44200, 44045, 45102, 44453, 43778, 44944, 45027, 44075, 45008, 44297, 44489, 44259, 44659, 44881, 44832, 45070, 45280, 45703, 45169, 45614, 45510, 44415, 44884, 45783, 44505, 44881, 44824, 42795, 45683, 46865, 45668, 44936, 44920, 45026, 44293, 43329, 44533, 44160, 44762, 44921, 45793, 45707, 45136, 45353, 45266, 43509, 45188, 44406, 44740, 45660, 44831, 45545, 45140, 45255, 44396, 45022, 45134, 45182, 45344, 45284, 45161, 44581, 45155, 45152, 45567, 45553, 45344, 45688, 45172, 45278, 44533, 45297, 45484, 44779, 45105, 45466, 44747, 45627, 45322, 45346, 45021, 45306, 45558, 45538, 45834, 45360, 46000, 45739, 45516, 46297, 45530, 45894, 45616, 44578, 45752, 46020, 45874, 45736, 45875, 46056, 45674, 45695, 44397, 45186, 45752, 44817, 45058, 45471, 44060, 45094, 44574, 44875, 44523, 44177, 44568, 44608, 44416, 44649, 44532, 44204, 43688, 43766, 43775, 44203, 43728, 43880, 43330, 43744, 43484, 43426, 43467, 43129, 43785, 44327, 43593, 44115, 43461, 43160, 43041, 42404, 43900, 42829, 44698, 44325, 44853, 44515, 43940, 43918, 44004, 43997, 44553, 44392, 43761, 44056, 43929, 43697, 43841, 43821, 43721, 43920, 44032, 43713, 43877, 44317, 44027, 43858],
      "WindowCenter": [10440.0, 10425.0, 10450.0, 10422.0, 10409.0, 10399.0, 10395.0, 10406.0, 10398.0, 10412.0, 10421.0, 10409.0, 10394.0, 10404.0, 10397.0, 10398.0, 10411.0, 10434.0, 10424.0, 10403.0, 10406.0, 10408.0, 10446.0, 10454.0, 10436.0, 10414.0, 10398.0, 10369.0, 10374.0, 10400.0, 10414.0, 10391.0, 10364.0, 10334.0, 10348.0, 10359.0, 10348.0, 10339.0, 10359.0, 10398.0, 10428.0, 10432.0, 10418.0, 10400.0, 10392.0, 10406.0, 10436.0, 10436.0, 10387.0, 10366.0, 10380.0, 10391.0, 10447.0, 10464.0, 10420.0, 10369.0, 10337.0, 10347.0, 10353.0, 10332.0, 10319.0, 10317.0, 10344.0, 10378.0, 10395.0, 10387.0, 10381.0, 10415.0, 10453.0, 10449.0, 10450.0, 10427.0, 10418.0, 10409.0, 10405.0, 10420.0, 10431.0, 10426.0, 10403.0, 10404.0, 10376.0, 10353.0, 10345.0, 10371.0, 10405.0, 10427.0, 10428.0, 10405.0, 10406.0, 10401.0, 10390.0, 10373.0, 10387.0, 10391.0, 10365.0, 10357.0, 10350.0, 10350.0, 10378.0, 10421.0, 10426.0, 10421.0, 10408.0, 10399.0, 10385.0, 10383.0, 10384.0, 10386.0, 10400.0, 10401.0, 10432.0, 10449.0, 10435.0, 10417.0, 10395.0, 10437.0, 10475.0, 10455.0, 10443.0, 10434.0, 10405.0, 10382.0, 10371.0, 10385.0, 10402.0, 10410.0, 10401.0, 10418.0, 10433.0, 10415.0, 10411.0, 10416.0, 10400.0, 10395.0, 10388.0, 10378.0, 10370.0, 10371.0, 10383.0, 10371.0, 10354.0, 10345.0, 10343.0, 10374.0, 10396.0, 10377.0, 10360.0, 10355.0, 10356.0, 10371.0, 10383.0, 10392.0, 10386.0, 10385.0, 10392.0, 10394.0, 10397.0, 10396.0, 10398.0, 10390.0, 10377.0, 10371.0, 10369.0, 10370.0, 10387.0, 10389.0, 10398.0, 10400.0, 10386.0, 10345.0, 10326.0, 10332.0, 10356.0, 10343.0, 10346.0, 10354.0, 10367.0, 10398.0, 10365.0, 10376.0, 10352.0, 10355.0, 10364.0, 10384.0, 10375.0, 10360.0, 10352.0, 10359.0, 10359.0, 10359.0],
      "WindowWidth": [22624.0, 22542.0, 22577.0, 22502.0, 22461.0, 22433.0, 22427.0, 22449.0, 22429.0, 22460.0, 22481.0, 22455.0, 22423.0, 22441.0, 22428.0, 22433.0, 22458.0, 22510.0, 22488.0, 22444.0, 22450.0, 22454.0, 22544.0, 22562.0, 22518.0, 22467.0, 22428.0, 22367.0, 22382.0, 22440.0, 22469.0, 22417.0, 22347.0, 22280.0, 22311.0, 22336.0, 22312.0, 22290.0, 22333.0, 22424.0, 22496.0, 22508.0, 22474.0, 22432.0, 22414.0, 22448.0, 22517.0, 22515.0, 22407.0, 22354.0, 22385.0, 22421.0, 22549.0, 22588.0, 22489.0, 22371.0, 22292.0, 22307.0, 22323.0, 22281.0, 22246.0, 22240.0, 22301.0, 22382.0, 22422.0, 22405.0, 22399.0, 22473.0, 22562.0, 22552.0, 22547.0, 22498.0, 22473.0, 22455.0, 22445.0, 22482.0, 22508.0, 22499.0, 22447.0, 22445.0, 22382.0, 22324.0, 22311.0, 22369.0, 22445.0, 22499.0, 22500.0, 22448.0, 22450.0, 22442.0, 22413.0, 22374.0, 22404.0, 22415.0, 22357.0, 22336.0, 22319.0, 22321.0, 22387.0, 22488.0, 22501.0, 22487.0, 22459.0, 22436.0, 22407.0, 22399.0, 22403.0, 22405.0, 22434.0, 22438.0, 22507.0, 22554.0, 22521.0, 22476.0, 22429.0, 22520.0, 22611.0, 22565.0, 22532.0, 22508.0, 22448.0, 22393.0, 22367.0, 22399.0, 22439.0, 22455.0, 22439.0, 22473.0, 22508.0, 22471.0, 22457.0, 22468.0, 22436.0, 22421.0, 22404.0, 22379.0, 22362.0, 22365.0, 22392.0, 22365.0, 22325.0, 22304.0, 22300.0, 22371.0, 22427.0, 22382.0, 22340.0, 22327.0, 22333.0, 22367.0, 22396.0, 22417.0, 22405.0, 22405.0, 22421.0, 22427.0, 22429.0, 22427.0, 22432.0, 22410.0, 22383.0, 22371.0, 22370.0, 22373.0, 22410.0, 22419.0, 22434.0, 22440.0, 22408.0, 22314.0, 22272.0, 22286.0, 22339.0, 22313.0, 22314.0, 22335.0, 22367.0, 22437.0, 22366.0, 22386.0, 22332.0, 22338.0, 22358.0, 22404.0, 22383.0, 22348.0, 22330.0, 22346.0, 22347.0, 22353.0]
    },
    "slices": {}
  }
}