{
  "AcquisitionMatrixPE": 104,
  "AcquisitionNumber": 1,
  "AcquisitionTime": "15:55:2.152500",
  "BandwidthPerPixelPhaseEncode": 17.17,
  "BaseResolution": 104,
  "BodyPartExamined": "BRAIN",
  "CoilString": "HC1-7;NC1_2",
  "ConsistencyInfo": "N4_VE11C_LATEST_20160120",
  "ConversionSoftware": "dcm2niix",
  "ConversionSoftwareVersion": "v1.0.20190902",
  "DerivedVendorReportedEchoSpacing": 0.000560011,
  "DeviceSerialNumber": "167006",
  "DwellTime": 2.1e-06,
  "EchoTime": 0.037,
  "EchoTrainLength": 104,
  "EffectiveEchoSpacing": 0.000560011,
  "FlipAngle": 52,
  "ImageComments": "Unaliased_MB4_PE3_LB",
  "ImageOrientationPatientDICOM": [0.998645, -0.0516151, 0.006645, 0.0509387, 0.943345, -0.32788],
  "ImageType": [
    "ORIGINAL",
    "PRIMARY",
    "P",
    "MB",
    "ND",
    "MOSAIC"
],
  "ImagingFrequency": 123.259,
  "InPlanePhaseEncodingDirectionDICOM": "COL",
  "InstitutionAddress": "Chemin_Queen-Mary_4565_Montreal_District_CA_H3W_1W5",
  "InstitutionName": "IUGM",
  "InstitutionalDepartmentName": "Department",
  "MRAcquisitionType": "2D",
  "MagneticFieldStrength": 3,
  "Manufacturer": "Siemens",
  "ManufacturersModelName": "Prisma_fit",
  "Modality": "MR",
  "MultibandAccelerationFactor": 4,
  "PartialFourier": 1,
  "PatientPosition": "HFS",
  "PercentPhaseFOV": 100,
  "PhaseEncodingDirection": "j",
  "PhaseEncodingSteps": 104,
  "PhaseResolution": 1,
  "PixelBandwidth": 2290,
  "ProcedureStepDescription": "memory_things",
  "ProtocolName": "func_task-things_run-5",
  "PulseSequenceDetails": "%CustomerSeq%_cmrr_mbep2d_bold",
  "ReceiveCoilActiveElements": "HC1-7;NC1,2",
  "ReceiveCoilName": "HeadNeck_64",
  "ReconMatrixPE": 104,
  "RepetitionTime": 1.49,
  "SAR": 0.0380096,
  "ScanOptions": "FS",
  "ScanningSequence": "EP",
  "SequenceName": "epfid2d1_104",
  "SequenceVariant": "SK_SS",
  "SeriesDescription": "func_task-things_run-5",
  "SeriesNumber": 23,
  "ShimSetting": [623, -7247, -8821, 559, -8, -203, -51, -35],
  "SliceThickness": 2,
  "SliceTiming": [0, 0.785, 0.0975, 0.8825, 0.195, 0.98, 0.295, 1.0775, 0.3925, 1.175, 0.49, 1.275, 0.5875, 1.3725, 0.685, 0, 0.785, 0.0975, 0.8825, 0.195, 0.98, 0.295, 1.0775, 0.3925, 1.175, 0.49, 1.275, 0.5875, 1.3725, 0.685, 0, 0.785, 0.0975, 0.8825, 0.195, 0.98, 0.295, 1.0775, 0.3925, 1.175, 0.49, 1.275, 0.5875, 1.3725, 0.685, 0, 0.785, 0.0975, 0.8825, 0.195, 0.98, 0.295, 1.0775, 0.3925, 1.175, 0.49, 1.275, 0.5875, 1.3725, 0.685],
  "SoftwareVersions": "syngo_MR_E11",
  "SpacingBetweenSlices": 2,
  "StationName": "MRC35049",
  "TaskName": "things",
  "TotalReadoutTime": 0.0576811,
  "TxRefAmp": 240.739,
  "WipMemBlock": "cc573b39-0e00-41d5-a105-069ff97e51b2||Sequence: R016 ve11c/master r/e634e98; Dec 19 2017 11:00:25 by eja",
  "dcmmeta_affine": [
    [-1.9972898960113525, 0.10187730193138123, -0.021310120820999146, 102.44097900390625],
    [0.10323023796081543, 1.8866899013519287, -0.6555492281913757, -69.96168518066406],
    [0.013289996422827244, 0.6557608246803284, 1.8893917798995972, -61.63075256347656],
    [0.0, 0.0, 0.0, 1.0]
],
  "dcmmeta_reorient_transform": [
    [0.0, -1.0, 0.0, 103.0],
    [1.0, 0.0, 0.0, 0.0],
    [0.0, 0.0, 1.0, 0.0],
    [0.0, 0.0, 0.0, 1.0]
],
  "dcmmeta_shape": [104, 104, 60, 190],
  "dcmmeta_slice_dim": 2,
  "dcmmeta_version": 0.6,
  "global": {
    "const": {
      "AcquisitionMatrix": [104, 0, 0, 104],
      "AngioFlag": "N",
      "BitsAllocated": 16,
      "BitsStored": 16,
      "BodyPartExamined": "BRAIN",
      "Columns": 832,
      "EchoNumbers": 1,
      "EchoTime": 37.0,
      "EchoTrainLength": 104,
      "FlipAngle": 52.0,
      "HighBit": 15,
      "ImageOrientationPatient": [0.99864494367889, -0.0516151185299, 0.00664499840005, 0.05093865076541, 0.94334494561495, -0.327880416373],
      "ImagePositionPatient": [-877.03120093395, -773.54668424389, 239.77199716328],
      "ImageType": [
        "ORIGINAL",
        "PRIMARY",
        "P",
        "MB",
        "ND",
        "MOSAIC"
],
      "ImagedNucleus": "1H",
      "ImagingFrequency": 123.258888,
      "InPlanePhaseEncodingDirection": "COL",
      "LargestImagePixelValue": 4095,
      "MRAcquisitionType": "2D",
      "MagneticFieldStrength": 3.0,
      "Manufacturer": "SIEMENS",
      "ManufacturerModelName": "Prisma_fit",
      "Modality": "MR",
      "NumberOfAverages": 1.0,
      "NumberOfPhaseEncodingSteps": 104,
      "PercentPhaseFieldOfView": 100.0,
      "PercentSampling": 100.0,
      "PerformedProcedureStepStartTime": "145924.353000",
      "PhotometricInterpretation": "MONOCHROME2",
      "PixelBandwidth": 2290.0,
      "PixelRepresentation": 0,
      "PixelSpacing": [2.0, 2.0],
      "ProtocolName": "func_task-things_run-5",
      "RepetitionTime": 1490.0,
      "RescaleIntercept": -4096.0,
      "RescaleSlope": 2.0,
      "RescaleType": "US",
      "Rows": 832,
      "SAR": 0.03800960168162,
      "SamplesPerPixel": 1,
      "ScanOptions": "FS",
      "ScanningSequence": "EP",
      "SequenceName": "epfid2d1_104",
      "SequenceVariant": [
        "SK",
        "SS"
],
      "SeriesDescription": "func_task-things_run-5",
      "SeriesNumber": 23,
      "SeriesTime": "155622.322000",
      "SliceLocation": -36.382167270261,
      "SliceThickness": 2.0,
      "SmallestImagePixelValue": 0,
      "SoftwareVersions": "syngo MR E11",
      "SpacingBetweenSlices": 1.9999999914467,
      "SpecificCharacterSet": "ISO_IR 100",
      "StudyID": "1",
      "StudyTime": "145924.271000",
      "TransmitCoilName": "Body",
      "VariableFlipAngleFlag": "N",
      "WindowCenterWidthExplanation": "Algo1",
      "dBdt": 0.0},
    "slices": {}
  },
  "time": {
    "samples": {
      "AcquisitionNumber": [1, 2, 3, 4, 5, 6, 7, 8, 9, 10, 11, 12, 13, 14, 15, 16, 17, 18, 19, 20, 21, 22, 23, 24, 25, 26, 27, 28, 29, 30, 31, 32, 33, 34, 35, 36, 37, 38, 39, 40, 41, 42, 43, 44, 45, 46, 47, 48, 49, 50, 51, 52, 53, 54, 55, 56, 57, 58, 59, 60, 61, 62, 63, 64, 65, 66, 67, 68, 69, 70, 71, 72, 73, 74, 75, 76, 77, 78, 79, 80, 81, 82, 83, 84, 85, 86, 87, 88, 89, 90, 91, 92, 93, 94, 95, 96, 97, 98, 99, 100, 101, 102, 103, 104, 105, 106, 107, 108, 109, 110, 111, 112, 113, 114, 115, 116, 117, 118, 119, 120, 121, 122, 123, 124, 125, 126, 127, 128, 129, 130, 131, 132, 133, 134, 135, 136, 137, 138, 139, 140, 141, 142, 143, 144, 145, 146, 147, 148, 149, 150, 151, 152, 153, 154, 155, 156, 157, 158, 159, 160, 161, 162, 163, 164, 165, 166, 167, 168, 169, 170, 171, 172, 173, 174, 175, 176, 177, 178, 179, 180, 181, 182, 183, 184, 185, 186, 187, 188, 189, 190],
      "AcquisitionTime": ["155502.152500", "155503.642500", "155505.132500", "155506.622500", "155508.112500", "155509.602500", "155511.092500", "155512.582500", "155514.072500", "155515.562500", "155517.052500", "155518.542500", "155520.032500", "155521.522500", "155523.012500", "155524.502500", "155525.992500", "155527.482500", "155528.972500", "155530.462500", "155531.952500", "155533.442500", "155534.932500", "155536.422500", "155537.912500", "155539.402500", "155540.892500", "155542.382500", "155543.872500", "155545.362500", "155546.852500", "155548.342500", "155549.832500", "155551.322500", "155552.812500", "155554.302500", "155555.792500", "155557.282500", "155558.772500", "155600.262500", "155601.752500", "155603.242500", "155604.732500", "155606.222500", "155607.712500", "155609.202500", "155610.692500", "155612.182500", "155613.672500", "155615.162500", "155616.652500", "155618.142500", "155619.632500", "155621.122500", "155622.612500", "155624.102500", "155625.592500", "155627.082500", "155628.572500", "155630.062500", "155631.552500", "155633.042500", "155634.532500", "155636.022500", "155637.512500", "155639.002500", "155640.492500", "155641.982500", "155643.472500", "155644.962500", "155646.452500", "155647.942500", "155649.432500", "155650.922500", "155652.412500", "155653.902500", "155655.392500", "155656.882500", "155658.372500", "155659.862500", "155701.352500", "155702.842500", "155704.332500", "155705.822500", "155707.312500", "155708.802500", "155710.292500", "155711.782500", "155713.272500", "155714.762500", "155716.252500", "155717.742500", "155719.232500", "155720.722500", "155722.212500", "155723.702500", "155725.192500", "155726.682500", "155728.172500", "155729.662500", "155731.152500", "155732.642500", "155734.132500", "155735.622500", "155737.112500", "155738.602500", "155740.092500", "155741.582500", "155743.072500", "155744.562500", "155746.052500", "155747.542500", "155749.032500", "155750.522500", "155752.012500", "155753.502500", "155754.992500", "155756.482500", "155757.972500", "155759.462500", "155800.952500", "155802.442500", "155803.932500", "155805.422500", "155806.912500", "155808.402500", "155809.892500", "155811.382500", "155812.872500", "155814.362500", "155815.852500", "155817.342500", "155818.832500", "155820.322500", "155821.812500", "155823.302500", "155824.792500", "155826.282500", "155827.772500", "155829.262500", "155830.752500", "155832.242500", "155833.732500", "155835.222500", "155836.712500", "155838.202500", "155839.692500", "155841.182500", "155842.672500", "155844.162500", "155845.652500", "155847.142500", "155848.632500", "155850.122500", "155851.612500", "155853.102500", "155854.592500", "155856.082500", "155857.572500", "155859.062500", "155900.552500", "155902.042500", "155903.532500", "155905.022500", "155906.512500", "155908.002500", "155909.492500", "155910.982500", "155912.472500", "155913.962500", "155915.452500", "155916.942500", "155918.432500", "155919.922500", "155921.412500", "155922.902500", "155924.392500", "155925.882500", "155927.372500", "155928.862500", "155930.352500", "155931.842500", "155933.332500", "155934.822500", "155936.312500", "155937.802500", "155939.292500", "155940.782500", "155942.272500", "155943.762500"],
      "ContentTime": ["155622.324000", "155622.327000", "155622.329000", "155622.332000", "155622.334000", "155622.337000", "155622.339000", "155622.342000", "155622.344000", "155622.347000", "155622.349000", "155622.351000", "155622.354000", "155622.356000", "155622.359000", "155622.361000", "155622.364000", "155622.366000", "155622.369000", "155622.371000", "155622.388000", "155622.390000", "155622.393000", "155622.396000", "155642.225000", "155642.227000", "155642.230000", "155642.232000", "155642.235000", "155642.237000", "155642.239000", "155642.242000", "155642.244000", "155642.247000", "155642.249000", "155642.258000", "155642.261000", "155642.263000", "155642.266000", "155642.268000", "155642.271000", "155642.273000", "155642.275000", "155642.278000", "155702.234000", "155702.237000", "155702.240000", "155702.242000", "155702.245000", "155702.247000", "155702.250000", "155702.252000", "155702.254000", "155702.257000", "155702.259000", "155702.262000", "155702.264000", "155702.267000", "155702.269000", "155702.272000", "155702.274000", "155702.277000", "155702.280000", "155702.283000", "155702.285000", "155722.234000", "155722.237000", "155722.240000", "155722.242000", "155722.245000", "155722.247000", "155722.250000", "155722.252000", "155722.254000", "155722.257000", "155722.260000", "155722.262000", "155722.265000", "155722.267000", "155722.270000", "155722.272000", "155722.279000", "155722.282000", "155722.284000", "155722.287000", "155742.222000", "155742.225000", "155742.227000", "155742.230000", "155742.232000", "155742.235000", "155742.237000", "155742.240000", "155742.242000", "155742.245000", "155742.247000", "155742.250000", "155742.252000", "155742.255000", "155742.257000", "155742.260000", "155742.262000", "155742.265000", "155742.267000", "155742.270000", "155822.275000", "155822.278000", "155822.281000", "155822.283000", "155822.286000", "155822.288000", "155822.291000", "155822.293000", "155822.296000", "155822.298000", "155822.301000", "155822.303000", "155822.306000", "155822.309000", "155822.311000", "155822.314000", "155822.316000", "155822.319000", "155822.321000", "155822.324000", "155822.326000", "155822.328000", "155822.331000", "155822.334000", "155822.336000", "155822.339000", "155822.341000", "155822.344000", "155902.260000", "155902.263000", "155902.265000", "155902.268000", "155902.270000", "155902.273000", "155902.275000", "155902.278000", "155902.280000", "155902.283000", "155902.285000", "155902.288000", "155902.290000", "155902.293000", "155902.295000", "155902.298000", "155902.300000", "155902.303000", "155902.305000", "155902.308000", "155902.310000", "155902.313000", "155902.315000", "155902.318000", "155902.320000", "155902.323000", "155902.325000", "155942.308000", "155942.311000", "155942.313000", "155942.316000", "155942.318000", "155942.321000", "155942.323000", "155942.326000", "155942.328000", "155942.331000", "155942.333000", "155942.336000", "155942.338000", "155942.341000", "155942.343000", "155942.346000", "155942.348000", "155942.351000", "155942.353000", "155942.356000", "155942.358000", "155942.361000", "155942.363000", "155942.366000", "155942.368000", "155942.371000", "155942.373000", "155946.391000", "155946.394000", "155946.397000"],
      "InstanceCreationTime": ["155622.324000", "155622.327000", "155622.329000", "155622.332000", "155622.334000", "155622.337000", "155622.339000", "155622.342000", "155622.344000", "155622.347000", "155622.349000", "155622.351000", "155622.354000", "155622.356000", "155622.359000", "155622.361000", "155622.364000", "155622.366000", "155622.369000", "155622.371000", "155622.388000", "155622.390000", "155622.393000", "155622.396000", "155642.225000", "155642.227000", "155642.230000", "155642.232000", "155642.235000", "155642.237000", "155642.239000", "155642.242000", "155642.244000", "155642.247000", "155642.249000", "155642.258000", "155642.261000", "155642.263000", "155642.266000", "155642.268000", "155642.271000", "155642.273000", "155642.275000", "155642.278000", "155702.234000", "155702.237000", "155702.240000", "155702.242000", "155702.245000", "155702.247000", "155702.250000", "155702.252000", "155702.254000", "155702.257000", "155702.259000", "155702.262000", "155702.264000", "155702.267000", "155702.269000", "155702.272000", "155702.274000", "155702.277000", "155702.280000", "155702.283000", "155702.285000", "155722.234000", "155722.237000", "155722.240000", "155722.242000", "155722.245000", "155722.247000", "155722.250000", "155722.252000", "155722.254000", "155722.257000", "155722.260000", "155722.262000", "155722.265000", "155722.267000", "155722.270000", "155722.272000", "155722.279000", "155722.282000", "155722.284000", "155722.287000", "155742.222000", "155742.225000", "155742.227000", "155742.230000", "155742.232000", "155742.235000", "155742.237000", "155742.240000", "155742.242000", "155742.245000", "155742.247000", "155742.250000", "155742.252000", "155742.255000", "155742.257000", "155742.260000", "155742.262000", "155742.265000", "155742.267000", "155742.270000", "155822.275000", "155822.278000", "155822.281000", "155822.283000", "155822.286000", "155822.288000", "155822.291000", "155822.293000", "155822.296000", "155822.298000", "155822.301000", "155822.303000", "155822.306000", "155822.309000", "155822.311000", "155822.314000", "155822.316000", "155822.319000", "155822.321000", "155822.324000", "155822.326000", "155822.328000", "155822.331000", "155822.334000", "155822.336000", "155822.339000", "155822.341000", "155822.344000", "155902.260000", "155902.263000", "155902.265000", "155902.268000", "155902.270000", "155902.273000", "155902.275000", "155902.278000", "155902.280000", "155902.283000", "155902.285000", "155902.288000", "155902.290000", "155902.293000", "155902.295000", "155902.298000", "155902.300000", "155902.303000", "155902.305000", "155902.308000", "155902.310000", "155902.313000", "155902.315000", "155902.318000", "155902.320000", "155902.323000", "155902.325000", "155942.308000", "155942.311000", "155942.313000", "155942.316000", "155942.318000", "155942.321000", "155942.323000", "155942.326000", "155942.328000", "155942.331000", "155942.333000", "155942.336000", "155942.338000", "155942.341000", "155942.343000", "155942.346000", "155942.348000", "155942.351000", "155942.353000", "155942.356000", "155942.358000", "155942.361000", "155942.363000", "155942.366000", "155942.368000", "155942.371000", "155942.373000", "155946.391000", "155946.394000", "155946.397000"],
      "InstanceNumber": [1, 2, 3, 4, 5, 6, 7, 8, 9, 10, 11, 12, 13, 14, 15, 16, 17, 18, 19, 20, 21, 22, 23, 24, 25, 26, 27, 28, 29, 30, 31, 32, 33, 34, 35, 36, 37, 38, 39, 40, 41, 42, 43, 44, 45, 46, 47, 48, 49, 50, 51, 52, 53, 54, 55, 56, 57, 58, 59, 60, 61, 62, 63, 64, 65, 66, 67, 68, 69, 70, 71, 72, 73, 74, 75, 76, 77, 78, 79, 80, 81, 82, 83, 84, 85, 86, 87, 88, 89, 90, 91, 92, 93, 94, 95, 96, 97, 98, 99, 100, 101, 102, 103, 104, 105, 106, 107, 108, 109, 110, 111, 112, 113, 114, 115, 116, 117, 118, 119, 120, 121, 122, 123, 124, 125, 126, 127, 128, 129, 130, 131, 132, 133, 134, 135, 136, 137, 138, 139, 140, 141, 142, 143, 144, 145, 146, 147, 148, 149, 150, 151, 152, 153, 154, 155, 156, 157, 158, 159, 160, 161, 162, 163, 164, 165, 166, 167, 168, 169, 170, 171, 172, 173, 174, 175, 176, 177, 178, 179, 180, 181, 182, 183, 184, 185, 186, 187, 188, 189, 190],
      "WindowCenter": [4842.0, 4834.0, 4874.0, 4776.0, 4812.0, 4876.0, 4874.0, 4876.0, 4844.0, 4880.0, 4880.0, 4880.0, 4876.0, 4800.0, 4808.0, 4874.0, 4880.0, 4882.0, 4876.0, 4836.0, 4838.0, 4840.0, 4874.0, 4876.0, 4842.0, 4774.0, 4842.0, 4878.0, 4870.0, 4874.0, 4868.0, 4802.0, 4846.0, 4878.0, 4880.0, 4882.0, 4880.0, 4836.0, 4868.0, 4846.0, 4802.0, 4848.0, 4880.0, 4880.0, 4846.0, 4880.0, 4878.0, 4840.0, 4874.0, 4812.0, 4808.0, 4844.0, 4878.0, 4880.0, 4836.0, 4846.0, 4880.0, 4840.0, 4844.0, 4802.0, 4810.0, 4870.0, 4804.0, 4846.0, 4880.0, 4810.0, 4844.0, 4810.0, 4836.0, 4808.0, 4840.0, 4844.0, 4842.0, 4872.0, 4874.0, 4874.0, 4848.0, 4802.0, 4800.0, 4846.0, 4842.0, 4874.0, 4844.0, 4870.0, 4870.0, 4836.0, 4844.0, 4836.0, 4802.0, 4850.0, 4880.0, 4848.0, 4880.0, 4846.0, 4810.0, 4800.0, 4806.0, 4846.0, 4880.0, 4868.0, 4806.0, 4836.0, 4842.0, 4844.0, 4806.0, 4806.0, 4870.0, 4878.0, 4810.0, 4806.0, 4848.0, 4840.0, 4872.0, 4876.0, 4840.0, 4868.0, 4848.0, 4800.0, 4846.0, 4852.0, 4838.0, 4808.0, 4806.0, 4808.0, 4878.0, 4876.0, 4842.0, 4878.0, 4870.0, 4802.0, 4810.0, 4842.0, 4846.0, 4846.0, 4850.0, 4846.0, 4800.0, 4842.0, 4836.0, 4874.0, 4874.0, 4838.0, 4846.0, 4846.0, 4838.0, 4808.0, 4806.0, 4814.0, 4804.0, 4848.0, 4874.0, 4812.0, 4846.0, 4872.0, 4838.0, 4848.0, 4840.0, 4806.0, 4802.0, 4810.0, 4872.0, 4872.0, 4846.0, 4872.0, 4876.0, 4838.0, 4804.0, 4804.0, 4812.0, 4840.0, 4812.0, 4876.0, 4842.0, 4876.0, 4846.0, 4812.0, 4848.0, 4836.0, 4806.0, 4838.0, 4832.0, 4850.0, 4840.0, 4848.0, 4842.0, 4800.0, 4808.0, 4808.0, 4802.0, 4806.0],
      "WindowWidth": [18636.0, 18628.0, 18680.0, 18558.0, 18600.0, 18682.0, 18680.0, 18676.0, 18640.0, 18684.0, 18684.0, 18678.0, 18678.0, 18584.0, 18590.0, 18678.0, 18680.0, 18674.0, 18684.0, 18638.0, 18640.0, 18632.0, 18680.0, 18680.0, 18642.0, 18552.0, 18638.0, 18686.0, 18678.0, 18680.0, 18682.0, 18590.0, 18642.0, 18684.0, 18684.0, 18686.0, 18680.0, 18624.0, 18674.0, 18640.0, 18590.0, 18640.0, 18682.0, 18682.0, 18646.0, 18680.0, 18680.0, 18640.0, 18682.0, 18602.0, 18596.0, 18644.0, 18680.0, 18684.0, 18638.0, 18648.0, 18682.0, 18640.0, 18650.0, 18590.0, 18596.0, 18676.0, 18590.0, 18646.0, 18688.0, 18600.0, 18644.0, 18602.0, 18630.0, 18598.0, 18640.0, 18636.0, 18644.0, 18678.0, 18680.0, 18672.0, 18644.0, 18586.0, 18590.0, 18648.0, 18644.0, 18682.0, 18642.0, 18676.0, 18682.0, 18632.0, 18636.0, 18636.0, 18592.0, 18650.0, 18684.0, 18652.0, 18684.0, 18644.0, 18600.0, 18590.0, 18588.0, 18646.0, 18682.0, 18678.0, 18598.0, 18632.0, 18642.0, 18644.0, 18592.0, 18594.0, 18682.0, 18684.0, 18596.0, 18592.0, 18652.0, 18640.0, 18676.0, 18680.0, 18638.0, 18676.0, 18644.0, 18592.0, 18642.0, 18650.0, 18632.0, 18590.0, 18590.0, 18600.0, 18688.0, 18678.0, 18634.0, 18686.0, 18682.0, 18586.0, 18596.0, 18634.0, 18640.0, 18646.0, 18646.0, 18638.0, 18584.0, 18636.0, 18636.0, 18684.0, 18680.0, 18632.0, 18644.0, 18644.0, 18636.0, 18596.0, 18588.0, 18598.0, 18590.0, 18646.0, 18678.0, 18600.0, 18640.0, 18678.0, 18630.0, 18644.0, 18636.0, 18584.0, 18592.0, 18596.0, 18678.0, 18680.0, 18642.0, 18678.0, 18678.0, 18636.0, 18586.0, 18584.0, 18592.0, 18634.0, 18596.0, 18684.0, 18640.0, 18676.0, 18648.0, 18596.0, 18646.0, 18634.0, 18594.0, 18634.0, 18630.0, 18642.0, 18636.0, 18642.0, 18642.0, 18588.0, 18594.0, 18590.0, 18592.0, 18594.0]
    },
    "slices": {}
  }
}