{
  "AcquisitionMatrixPE": 104,
  "AcquisitionNumber": 1,
  "AcquisitionTime": "11:21:34.307500",
  "BandwidthPerPixelPhaseEncode": 17.17,
  "BaseResolution": 104,
  "BodyPartExamined": "BRAIN",
  "CoilString": "HC1-7;NC1_2",
  "ConsistencyInfo": "N4_VE11C_LATEST_20160120",
  "ConversionSoftware": "dcm2niix",
  "ConversionSoftwareVersion": "v1.0.20190902",
  "DerivedVendorReportedEchoSpacing": 0.000560011,
  "DeviceSerialNumber": "167006",
  "DwellTime": 2.1e-06,
  "EchoTime": 0.037,
  "EchoTrainLength": 104,
  "EffectiveEchoSpacing": 0.000560011,
  "FlipAngle": 52,
  "ImageComments": "Unaliased_MB4_PE3_LB",
  "ImageOrientationPatientDICOM": [0.999652, 0.0203418, 0.0168113, -0.00907276, 0.86313, -0.5049],
  "ImageType": [
    "ORIGINAL",
    "PRIMARY",
    "P",
    "MB",
    "ND",
    "MOSAIC"
],
  "ImagingFrequency": 123.259,
  "InPlanePhaseEncodingDirectionDICOM": "COL",
  "InstitutionAddress": "Chemin_Queen-Mary_4565_Montreal_District_CA_H3W_1W5",
  "InstitutionName": "IUGM",
  "InstitutionalDepartmentName": "Department",
  "MRAcquisitionType": "2D",
  "MagneticFieldStrength": 3,
  "Manufacturer": "Siemens",
  "ManufacturersModelName": "Prisma_fit",
  "Modality": "MR",
  "MultibandAccelerationFactor": 4,
  "PartialFourier": 1,
  "PatientPosition": "HFS",
  "PercentPhaseFOV": 100,
  "PhaseEncodingDirection": "j",
  "PhaseEncodingSteps": 104,
  "PhaseResolution": 1,
  "PixelBandwidth": 2290,
  "ProcedureStepDescription": "memory_things",
  "ProtocolName": "func_task-things_run-4",
  "PulseSequenceDetails": "%CustomerSeq%_cmrr_mbep2d_bold",
  "ReceiveCoilActiveElements": "HC1-7;NC1,2",
  "ReceiveCoilName": "HeadNeck_64",
  "ReconMatrixPE": 104,
  "RepetitionTime": 1.49,
  "SAR": 0.0559709,
  "ScanOptions": "FS",
  "ScanningSequence": "EP",
  "SequenceName": "epfid2d1_104",
  "SequenceVariant": "SK_SS",
  "SeriesDescription": "func_task-things_run-4",
  "SeriesNumber": 20,
  "ShimSetting": [614, -7175, -8863, 324, -24, -133, -34, -24],
  "SliceThickness": 2,
  "SliceTiming": [0, 0.785, 0.0975, 0.8825, 0.1975, 0.98, 0.295, 1.0775, 0.3925, 1.1775, 0.49, 1.275, 0.5875, 1.3725, 0.6875, 0, 0.785, 0.0975, 0.8825, 0.1975, 0.98, 0.295, 1.0775, 0.3925, 1.1775, 0.49, 1.275, 0.5875, 1.3725, 0.6875, 0, 0.785, 0.0975, 0.8825, 0.1975, 0.98, 0.295, 1.0775, 0.3925, 1.1775, 0.49, 1.275, 0.5875, 1.3725, 0.6875, 0, 0.785, 0.0975, 0.8825, 0.1975, 0.98, 0.295, 1.0775, 0.3925, 1.1775, 0.49, 1.275, 0.5875, 1.3725, 0.6875],
  "SoftwareVersions": "syngo_MR_E11",
  "SpacingBetweenSlices": 2,
  "StationName": "MRC35049",
  "TaskName": "things",
  "TotalReadoutTime": 0.0576811,
  "TxRefAmp": 284.104,
  "WipMemBlock": "90675864-452f-451d-b3e9-d79b991d0954||Sequence: R016 ve11c/master r/e634e98; Dec 19 2017 11:00:25 by eja",
  "dcmmeta_affine": [
    [-1.9993034601211548, -0.01814551092684269, 0.049561768770217896, 106.95301818847656],
    [-0.04068358615040779, 1.7262598276138306, -1.0091441869735718, -49.49960708618164],
    [0.03362252563238144, 1.009800910949707, 1.7260277271270752, -96.88324737548828],
    [0.0, 0.0, 0.0, 1.0]
],
  "dcmmeta_reorient_transform": [
    [0.0, -1.0, 0.0, 103.0],
    [1.0, 0.0, 0.0, 0.0],
    [0.0, 0.0, 1.0, 0.0],
    [0.0, 0.0, 0.0, 1.0]
],
  "dcmmeta_shape": [104, 104, 60, 190],
  "dcmmeta_slice_dim": 2,
  "dcmmeta_version": 0.6,
  "global": {
    "const": {
      "AcquisitionMatrix": [104, 0, 0, 104],
      "AngioFlag": "N",
      "BitsAllocated": 16,
      "BitsStored": 16,
      "BodyPartExamined": "BRAIN",
      "Columns": 832,
      "EchoNumbers": 1,
      "EchoTime": 37.0,
      "EchoTrainLength": 104,
      "FlipAngle": 52.0,
      "HighBit": 15,
      "ImageOrientationPatient": [0.9996517358181, 0.02034179313078, 0.01681126194219, -0.0090727554805, 0.86312989091498, -0.5049004619894],
      "ImagePositionPatient": [-826.22553152613, -771.47253627988, 362.45518560015],
      "ImageType": [
        "ORIGINAL",
        "PRIMARY",
        "P",
        "MB",
        "ND",
        "MOSAIC"
],
      "ImagedNucleus": "1H",
      "ImagingFrequency": 123.258963,
      "InPlanePhaseEncodingDirection": "COL",
      "LargestImagePixelValue": 4095,
      "MRAcquisitionType": "2D",
      "MagneticFieldStrength": 3.0,
      "Manufacturer": "SIEMENS",
      "ManufacturerModelName": "Prisma_fit",
      "Modality": "MR",
      "NumberOfAverages": 1.0,
      "NumberOfPhaseEncodingSteps": 104,
      "PercentPhaseFieldOfView": 100.0,
      "PercentSampling": 100.0,
      "PerformedProcedureStepStartTime": "104343.419000",
      "PhotometricInterpretation": "MONOCHROME2",
      "PixelBandwidth": 2290.0,
      "PixelRepresentation": 0,
      "PixelSpacing": [2.0, 2.0],
      "ProtocolName": "func_task-things_run-4",
      "RepetitionTime": 1490.0,
      "RescaleIntercept": -4096.0,
      "RescaleSlope": 2.0,
      "RescaleType": "US",
      "Rows": 832,
      "SAR": 0.05597092993275,
      "SamplesPerPixel": 1,
      "ScanOptions": "FS",
      "ScanningSequence": "EP",
      "SequenceName": "epfid2d1_104",
      "SequenceVariant": [
        "SK",
        "SS"
],
      "SeriesDescription": "func_task-things_run-4",
      "SeriesNumber": 20,
      "SeriesTime": "112304.925000",
      "SliceLocation": -55.98507308248,
      "SliceThickness": 2.0,
      "SmallestImagePixelValue": 0,
      "SoftwareVersions": "syngo MR E11",
      "SpacingBetweenSlices": 2.0000000372016,
      "SpecificCharacterSet": "ISO_IR 100",
      "StudyID": "1",
      "StudyTime": "104343.357000",
      "TransmitCoilName": "Body",
      "VariableFlipAngleFlag": "N",
      "WindowCenterWidthExplanation": "Algo1",
      "dBdt": 0.0},
    "slices": {}
  },
  "time": {
    "samples": {
      "AcquisitionNumber": [1, 2, 3, 4, 5, 6, 7, 8, 9, 10, 11, 12, 13, 14, 15, 16, 17, 18, 19, 20, 21, 22, 23, 24, 25, 26, 27, 28, 29, 30, 31, 32, 33, 34, 35, 36, 37, 38, 39, 40, 41, 42, 43, 44, 45, 46, 47, 48, 49, 50, 51, 52, 53, 54, 55, 56, 57, 58, 59, 60, 61, 62, 63, 64, 65, 66, 67, 68, 69, 70, 71, 72, 73, 74, 75, 76, 77, 78, 79, 80, 81, 82, 83, 84, 85, 86, 87, 88, 89, 90, 91, 92, 93, 94, 95, 96, 97, 98, 99, 100, 101, 102, 103, 104, 105, 106, 107, 108, 109, 110, 111, 112, 113, 114, 115, 116, 117, 118, 119, 120, 121, 122, 123, 124, 125, 126, 127, 128, 129, 130, 131, 132, 133, 134, 135, 136, 137, 138, 139, 140, 141, 142, 143, 144, 145, 146, 147, 148, 149, 150, 151, 152, 153, 154, 155, 156, 157, 158, 159, 160, 161, 162, 163, 164, 165, 166, 167, 168, 169, 170, 171, 172, 173, 174, 175, 176, 177, 178, 179, 180, 181, 182, 183, 184, 185, 186, 187, 188, 189, 190],
      "AcquisitionTime": ["112134.307500", "112135.797500", "112137.287500", "112138.777500", "112140.267500", "112141.757500", "112143.247500", "112144.737500", "112146.227500", "112147.717500", "112149.207500", "112150.697500", "112152.187500", "112153.677500", "112155.167500", "112156.657500", "112158.147500", "112159.637500", "112201.127500", "112202.617500", "112204.107500", "112205.597500", "112207.087500", "112208.577500", "112210.067500", "112211.557500", "112213.047500", "112214.537500", "112216.027500", "112217.517500", "112219.007500", "112220.497500", "112221.987500", "112223.477500", "112224.967500", "112226.457500", "112227.947500", "112229.437500", "112230.927500", "112232.417500", "112233.907500", "112235.397500", "112236.887500", "112238.377500", "112239.867500", "112241.357500", "112242.847500", "112244.337500", "112245.827500", "112247.317500", "112248.807500", "112250.297500", "112251.787500", "112253.277500", "112254.767500", "112256.257500", "112257.747500", "112259.237500", "112300.727500", "112302.217500", "112303.707500", "112305.197500", "112306.687500", "112308.177500", "112309.667500", "112311.157500", "112312.647500", "112314.137500", "112315.627500", "112317.117500", "112318.607500", "112320.097500", "112321.587500", "112323.077500", "112324.567500", "112326.057500", "112327.547500", "112329.037500", "112330.527500", "112332.017500", "112333.507500", "112334.997500", "112336.487500", "112337.977500", "112339.467500", "112340.957500", "112342.447500", "112343.937500", "112345.427500", "112346.917500", "112348.407500", "112349.897500", "112351.387500", "112352.877500", "112354.367500", "112355.857500", "112357.347500", "112358.837500", "112400.327500", "112401.817500", "112403.307500", "112404.797500", "112406.287500", "112407.777500", "112409.267500", "112410.757500", "112412.247500", "112413.737500", "112415.227500", "112416.717500", "112418.207500", "112419.697500", "112421.187500", "112422.677500", "112424.167500", "112425.657500", "112427.147500", "112428.637500", "112430.127500", "112431.617500", "112433.107500", "112434.597500", "112436.087500", "112437.577500", "112439.067500", "112440.557500", "112442.047500", "112443.537500", "112445.027500", "112446.517500", "112448.007500", "112449.497500", "112450.987500", "112452.477500", "112453.967500", "112455.457500", "112456.947500", "112458.437500", "112459.927500", "112501.417500", "112502.907500", "112504.397500", "112505.887500", "112507.377500", "112508.867500", "112510.357500", "112511.847500", "112513.337500", "112514.827500", "112516.317500", "112517.807500", "112519.297500", "112520.787500", "112522.277500", "112523.767500", "112525.257500", "112526.747500", "112528.237500", "112529.727500", "112531.217500", "112532.707500", "112534.197500", "112535.687500", "112537.177500", "112538.667500", "112540.157500", "112541.647500", "112543.137500", "112544.627500", "112546.117500", "112547.607500", "112549.097500", "112550.587500", "112552.077500", "112553.567500", "112555.057500", "112556.547500", "112558.037500", "112559.527500", "112601.017500", "112602.507500", "112603.997500", "112605.487500", "112606.977500", "112608.467500", "112609.957500", "112611.447500", "112612.937500", "112614.427500", "112615.917500"],
      "ContentTime": ["112304.927000", "112304.930000", "112304.932000", "112304.935000", "112304.937000", "112304.940000", "112304.942000", "112304.945000", "112304.947000", "112304.950000", "112304.952000", "112304.955000", "112304.958000", "112304.960000", "112304.963000", "112304.965000", "112304.967000", "112304.970000", "112304.973000", "112304.975000", "112304.978000", "112304.980000", "112304.983000", "112304.985000", "112304.988000", "112304.990000", "112304.993000", "112304.995000", "112304.998000", "112305.002000", "112305.004000", "112305.007000", "112305.009000", "112305.012000", "112305.022000", "112305.024000", "112305.027000", "112324.815000", "112324.818000", "112324.821000", "112324.823000", "112324.826000", "112324.835000", "112324.838000", "112324.840000", "112324.843000", "112324.845000", "112324.848000", "112324.850000", "112324.853000", "112324.855000", "112324.858000", "112324.860000", "112324.863000", "112324.865000", "112324.868000", "112324.870000", "112344.820000", "112344.823000", "112344.825000", "112344.828000", "112344.831000", "112344.833000", "112344.836000", "112344.838000", "112344.841000", "112344.843000", "112344.846000", "112344.848000", "112344.851000", "112344.854000", "112344.856000", "112344.859000", "112344.861000", "112344.864000", "112344.866000", "112344.869000", "112404.838000", "112404.840000", "112404.843000", "112404.846000", "112404.849000", "112404.851000", "112404.854000", "112404.856000", "112404.859000", "112404.861000", "112404.864000", "112404.866000", "112404.869000", "112404.872000", "112404.874000", "112404.877000", "112404.879000", "112404.882000", "112404.884000", "112404.887000", "112444.856000", "112444.859000", "112444.862000", "112444.864000", "112444.867000", "112444.869000", "112444.872000", "112444.874000", "112444.877000", "112444.879000", "112444.882000", "112444.884000", "112444.887000", "112444.890000", "112444.892000", "112444.895000", "112444.897000", "112444.900000", "112444.902000", "112444.905000", "112444.908000", "112444.910000", "112444.913000", "112444.915000", "112444.918000", "112444.920000", "112444.923000", "112444.925000", "112444.928000", "112444.930000", "112524.841000", "112524.844000", "112524.846000", "112524.849000", "112524.852000", "112524.854000", "112524.857000", "112524.859000", "112524.862000", "112524.864000", "112524.867000", "112524.869000", "112524.872000", "112524.874000", "112524.877000", "112524.880000", "112524.882000", "112524.885000", "112524.887000", "112524.890000", "112524.892000", "112524.895000", "112524.897000", "112524.900000", "112524.902000", "112524.905000", "112524.907000", "112604.866000", "112604.868000", "112604.871000", "112604.874000", "112604.876000", "112604.879000", "112604.881000", "112604.884000", "112604.886000", "112604.889000", "112604.891000", "112604.894000", "112604.897000", "112604.899000", "112604.902000", "112604.904000", "112604.907000", "112604.909000", "112604.912000", "112604.914000", "112604.917000", "112604.919000", "112604.922000", "112604.924000", "112604.927000", "112604.929000", "112604.932000", "112618.136000", "112618.139000", "112618.141000", "112618.144000", "112618.147000", "112618.150000", "112618.152000", "112618.155000", "112618.157000"],
      "InstanceCreationTime": ["112304.927000", "112304.930000", "112304.932000", "112304.935000", "112304.937000", "112304.940000", "112304.942000", "112304.945000", "112304.947000", "112304.950000", "112304.952000", "112304.955000", "112304.958000", "112304.960000", "112304.963000", "112304.965000", "112304.967000", "112304.970000", "112304.973000", "112304.975000", "112304.978000", "112304.980000", "112304.983000", "112304.985000", "112304.988000", "112304.990000", "112304.993000", "112304.995000", "112304.998000", "112305.002000", "112305.004000", "112305.007000", "112305.009000", "112305.012000", "112305.022000", "112305.024000", "112305.027000", "112324.815000", "112324.818000", "112324.821000", "112324.823000", "112324.826000", "112324.835000", "112324.838000", "112324.840000", "112324.843000", "112324.845000", "112324.848000", "112324.850000", "112324.853000", "112324.855000", "112324.858000", "112324.860000", "112324.863000", "112324.865000", "112324.868000", "112324.870000", "112344.820000", "112344.823000", "112344.825000", "112344.828000", "112344.831000", "112344.833000", "112344.836000", "112344.838000", "112344.841000", "112344.843000", "112344.846000", "112344.848000", "112344.851000", "112344.854000", "112344.856000", "112344.859000", "112344.861000", "112344.864000", "112344.866000", "112344.869000", "112404.838000", "112404.840000", "112404.843000", "112404.846000", "112404.849000", "112404.851000", "112404.854000", "112404.856000", "112404.859000", "112404.861000", "112404.864000", "112404.866000", "112404.869000", "112404.872000", "112404.874000", "112404.877000", "112404.879000", "112404.882000", "112404.884000", "112404.887000", "112444.856000", "112444.859000", "112444.862000", "112444.864000", "112444.867000", "112444.869000", "112444.872000", "112444.874000", "112444.877000", "112444.879000", "112444.882000", "112444.884000", "112444.887000", "112444.890000", "112444.892000", "112444.895000", "112444.897000", "112444.900000", "112444.902000", "112444.905000", "112444.908000", "112444.910000", "112444.913000", "112444.915000", "112444.918000", "112444.920000", "112444.923000", "112444.925000", "112444.928000", "112444.930000", "112524.841000", "112524.844000", "112524.846000", "112524.849000", "112524.852000", "112524.854000", "112524.857000", "112524.859000", "112524.862000", "112524.864000", "112524.867000", "112524.869000", "112524.872000", "112524.874000", "112524.877000", "112524.880000", "112524.882000", "112524.885000", "112524.887000", "112524.890000", "112524.892000", "112524.895000", "112524.897000", "112524.900000", "112524.902000", "112524.905000", "112524.907000", "112604.866000", "112604.868000", "112604.871000", "112604.874000", "112604.876000", "112604.879000", "112604.881000", "112604.884000", "112604.886000", "112604.889000", "112604.891000", "112604.894000", "112604.897000", "112604.899000", "112604.902000", "112604.904000", "112604.907000", "112604.909000", "112604.912000", "112604.914000", "112604.917000", "112604.919000", "112604.922000", "112604.924000", "112604.927000", "112604.929000", "112604.932000", "112618.136000", "112618.139000", "112618.141000", "112618.144000", "112618.147000", "112618.150000", "112618.152000", "112618.155000", "112618.157000"],
      "InstanceNumber": [1, 2, 3, 4, 5, 6, 7, 8, 9, 10, 11, 12, 13, 14, 15, 16, 17, 18, 19, 20, 21, 22, 23, 24, 25, 26, 27, 28, 29, 30, 31, 32, 33, 34, 35, 36, 37, 38, 39, 40, 41, 42, 43, 44, 45, 46, 47, 48, 49, 50, 51, 52, 53, 54, 55, 56, 57, 58, 59, 60, 61, 62, 63, 64, 65, 66, 67, 68, 69, 70, 71, 72, 73, 74, 75, 76, 77, 78, 79, 80, 81, 82, 83, 84, 85, 86, 87, 88, 89, 90, 91, 92, 93, 94, 95, 96, 97, 98, 99, 100, 101, 102, 103, 104, 105, 106, 107, 108, 109, 110, 111, 112, 113, 114, 115, 116, 117, 118, 119, 120, 121, 122, 123, 124, 125, 126, 127, 128, 129, 130, 131, 132, 133, 134, 135, 136, 137, 138, 139, 140, 141, 142, 143, 144, 145, 146, 147, 148, 149, 150, 151, 152, 153, 154, 155, 156, 157, 158, 159, 160, 161, 162, 163, 164, 165, 166, 167, 168, 169, 170, 171, 172, 173, 174, 175, 176, 177, 178, 179, 180, 181, 182, 183, 184, 185, 186, 187, 188, 189, 190],
      "WindowCenter": [4720.0, 4718.0, 4760.0, 4748.0, 4712.0, 4718.0, 4716.0, 4746.0, 4748.0, 4718.0, 4794.0, 4764.0, 4716.0, 4742.0, 4708.0, 4706.0, 4712.0, 4710.0, 4750.0, 4754.0, 4754.0, 4750.0, 4754.0, 4750.0, 4716.0, 4724.0, 4710.0, 4718.0, 4718.0, 4748.0, 4744.0, 4752.0, 4726.0, 4716.0, 4712.0, 4714.0, 4746.0, 4744.0, 4788.0, 4754.0, 4788.0, 4744.0, 4746.0, 4718.0, 4708.0, 4710.0, 4714.0, 4724.0, 4718.0, 4760.0, 4752.0, 4750.0, 4746.0, 4718.0, 4714.0, 4716.0, 4722.0, 4712.0, 4788.0, 4792.0, 4748.0, 4718.0, 4716.0, 4704.0, 4708.0, 4710.0, 4716.0, 4738.0, 4746.0, 4748.0, 4824.0, 4796.0, 4750.0, 4766.0, 4766.0, 4706.0, 4702.0, 4730.0, 4730.0, 4710.0, 4716.0, 4786.0, 4792.0, 4790.0, 4780.0, 4750.0, 4718.0, 4708.0, 4718.0, 4714.0, 4738.0, 4760.0, 4718.0, 4754.0, 4756.0, 4718.0, 4748.0, 4710.0, 4710.0, 4718.0, 4806.0, 4806.0, 4724.0, 4712.0, 4704.0, 4728.0, 4712.0, 4706.0, 4750.0, 4750.0, 4784.0, 4784.0, 4786.0, 4756.0, 4744.0, 4724.0, 4714.0, 4720.0, 4758.0, 4720.0, 4712.0, 4762.0, 4728.0, 4710.0, 4726.0, 4718.0, 4716.0, 4760.0, 4744.0, 4744.0, 4750.0, 4716.0, 4722.0, 4740.0, 4750.0, 4746.0, 4758.0, 4750.0, 4744.0, 4790.0, 4760.0, 4712.0, 4706.0, 4726.0, 4714.0, 4764.0, 4750.0, 4756.0, 4762.0, 4720.0, 4748.0, 4716.0, 4720.0, 4714.0, 4746.0, 4748.0, 4724.0, 4792.0, 4750.0, 4746.0, 4720.0, 4710.0, 4714.0, 4712.0, 4722.0, 4742.0, 4760.0, 4746.0, 4758.0, 4720.0, 4750.0, 4714.0, 4710.0, 4748.0, 4720.0, 4756.0, 4750.0, 4750.0, 4810.0, 4808.0, 4710.0, 4732.0, 4762.0, 4756.0, 4730.0, 4736.0, 4802.0, 4834.0, 4792.0, 4790.0],
      "WindowWidth": [18498.0, 18492.0, 18542.0, 18534.0, 18488.0, 18498.0, 18492.0, 18536.0, 18536.0, 18496.0, 18574.0, 18542.0, 18494.0, 18528.0, 18488.0, 18488.0, 18490.0, 18488.0, 18534.0, 18540.0, 18542.0, 18536.0, 18536.0, 18530.0, 18498.0, 18504.0, 18490.0, 18500.0, 18494.0, 18534.0, 18530.0, 18538.0, 18504.0, 18492.0, 18492.0, 18492.0, 18536.0, 18532.0, 18574.0, 18544.0, 18572.0, 18532.0, 18530.0, 18496.0, 18486.0, 18490.0, 18496.0, 18504.0, 18496.0, 18544.0, 18540.0, 18536.0, 18532.0, 18496.0, 18494.0, 18498.0, 18498.0, 18494.0, 18580.0, 18574.0, 18534.0, 18496.0, 18494.0, 18484.0, 18484.0, 18490.0, 18498.0, 18528.0, 18534.0, 18534.0, 18612.0, 18582.0, 18538.0, 18544.0, 18546.0, 18486.0, 18486.0, 18526.0, 18522.0, 18490.0, 18492.0, 18580.0, 18582.0, 18584.0, 18578.0, 18538.0, 18494.0, 18488.0, 18496.0, 18492.0, 18526.0, 18542.0, 18498.0, 18540.0, 18542.0, 18498.0, 18536.0, 18488.0, 18492.0, 18494.0, 18568.0, 18566.0, 18498.0, 18490.0, 18484.0, 18522.0, 18492.0, 18486.0, 18534.0, 18538.0, 18576.0, 18578.0, 18576.0, 18542.0, 18528.0, 18500.0, 18492.0, 18496.0, 18532.0, 18498.0, 18492.0, 18536.0, 18502.0, 18490.0, 18504.0, 18494.0, 18498.0, 18546.0, 18530.0, 18530.0, 18536.0, 18498.0, 18502.0, 18528.0, 18538.0, 18534.0, 18544.0, 18534.0, 18534.0, 18574.0, 18534.0, 18492.0, 18486.0, 18516.0, 18492.0, 18540.0, 18532.0, 18540.0, 18544.0, 18498.0, 18532.0, 18492.0, 18496.0, 18492.0, 18528.0, 18530.0, 18502.0, 18578.0, 18528.0, 18532.0, 18494.0, 18490.0, 18494.0, 18492.0, 18500.0, 18524.0, 18544.0, 18536.0, 18542.0, 18500.0, 18532.0, 18486.0, 18486.0, 18530.0, 18498.0, 18538.0, 18532.0, 18530.0, 18568.0, 18566.0, 18486.0, 18528.0, 18576.0, 18564.0, 18518.0, 18528.0, 18584.0, 18612.0, 18580.0, 18584.0]
    },
    "slices": {}
  }
}