{
  "AcquisitionMatrixPE": 104,
  "AcquisitionNumber": 1,
  "AcquisitionTime": "11:07:45.575000",
  "BandwidthPerPixelPhaseEncode": 17.17,
  "BaseResolution": 104,
  "BodyPartExamined": "BRAIN",
  "CoilString": "HC1-7;NC1_2",
  "ConsistencyInfo": "N4_VE11C_LATEST_20160120",
  "ConversionSoftware": "dcm2niix",
  "ConversionSoftwareVersion": "v1.0.20190902",
  "DerivedVendorReportedEchoSpacing": 0.000560011,
  "DeviceSerialNumber": "167006",
  "DwellTime": 2.1e-06,
  "EchoTime": 0.037,
  "EchoTrainLength": 104,
  "EffectiveEchoSpacing": 0.000560011,
  "FlipAngle": 52,
  "ImageComments": "Unaliased_MB4_PE3_LB",
  "ImageOrientationPatientDICOM": [0.999652, 0.0203418, 0.0168113, -0.00907276, 0.86313, -0.5049],
  "ImageType": [
    "ORIGINAL",
    "PRIMARY",
    "P",
    "MB",
    "ND",
    "MOSAIC"
],
  "ImagingFrequency": 123.259,
  "InPlanePhaseEncodingDirectionDICOM": "COL",
  "InstitutionAddress": "Chemin_Queen-Mary_4565_Montreal_District_CA_H3W_1W5",
  "InstitutionName": "IUGM",
  "InstitutionalDepartmentName": "Department",
  "MRAcquisitionType": "2D",
  "MagneticFieldStrength": 3,
  "Manufacturer": "Siemens",
  "ManufacturersModelName": "Prisma_fit",
  "Modality": "MR",
  "MultibandAccelerationFactor": 4,
  "PartialFourier": 1,
  "PatientPosition": "HFS",
  "PercentPhaseFOV": 100,
  "PhaseEncodingDirection": "j",
  "PhaseEncodingSteps": 104,
  "PhaseResolution": 1,
  "PixelBandwidth": 2290,
  "ProcedureStepDescription": "memory_things",
  "ProtocolName": "func_task-things_run-2",
  "PulseSequenceDetails": "%CustomerSeq%_cmrr_mbep2d_bold",
  "ReceiveCoilActiveElements": "HC1-7;NC1,2",
  "ReceiveCoilName": "HeadNeck_64",
  "ReconMatrixPE": 104,
  "RepetitionTime": 1.49,
  "SAR": 0.0559709,
  "ScanOptions": "FS",
  "ScanningSequence": "EP",
  "SequenceName": "epfid2d1_104",
  "SequenceVariant": "SK_SS",
  "SeriesDescription": "func_task-things_run-2",
  "SeriesNumber": 14,
  "ShimSetting": [614, -7175, -8863, 324, -24, -133, -34, -24],
  "SliceThickness": 2,
  "SliceTiming": [0, 0.7825, 0.0975, 0.88, 0.195, 0.98, 0.2925, 1.0775, 0.39, 1.175, 0.49, 1.2725, 0.5875, 1.37, 0.685, 0, 0.7825, 0.0975, 0.88, 0.195, 0.98, 0.2925, 1.0775, 0.39, 1.175, 0.49, 1.2725, 0.5875, 1.37, 0.685, 0, 0.7825, 0.0975, 0.88, 0.195, 0.98, 0.2925, 1.0775, 0.39, 1.175, 0.49, 1.2725, 0.5875, 1.37, 0.685, 0, 0.7825, 0.0975, 0.88, 0.195, 0.98, 0.2925, 1.0775, 0.39, 1.175, 0.49, 1.2725, 0.5875, 1.37, 0.685],
  "SoftwareVersions": "syngo_MR_E11",
  "SpacingBetweenSlices": 2,
  "StationName": "MRC35049",
  "TaskName": "things",
  "TotalReadoutTime": 0.0576811,
  "TxRefAmp": 284.104,
  "WipMemBlock": "7b275036-2ede-4263-80c7-a004a9d551f8||Sequence: R016 ve11c/master r/e634e98; Dec 19 2017 11:00:25 by eja",
  "dcmmeta_affine": [
    [-1.9993034601211548, -0.01814551092684269, 0.049561768770217896, 106.95301818847656],
    [-0.04068358615040779, 1.7262598276138306, -1.0091441869735718, -49.49960708618164],
    [0.03362252563238144, 1.009800910949707, 1.7260277271270752, -96.88324737548828],
    [0.0, 0.0, 0.0, 1.0]
],
  "dcmmeta_reorient_transform": [
    [0.0, -1.0, 0.0, 103.0],
    [1.0, 0.0, 0.0, 0.0],
    [0.0, 0.0, 1.0, 0.0],
    [0.0, 0.0, 0.0, 1.0]
],
  "dcmmeta_shape": [104, 104, 60, 190],
  "dcmmeta_slice_dim": 2,
  "dcmmeta_version": 0.6,
  "global": {
    "const": {
      "AcquisitionMatrix": [104, 0, 0, 104],
      "AngioFlag": "N",
      "BitsAllocated": 16,
      "BitsStored": 16,
      "BodyPartExamined": "BRAIN",
      "Columns": 832,
      "EchoNumbers": 1,
      "EchoTime": 37.0,
      "EchoTrainLength": 104,
      "FlipAngle": 52.0,
      "HighBit": 15,
      "ImageOrientationPatient": [0.9996517358181, 0.02034179313078, 0.01681126194219, -0.0090727554805, 0.86312989091498, -0.5049004619894],
      "ImagePositionPatient": [-826.22553152613, -771.47253627988, 362.45518560015],
      "ImageType": [
        "ORIGINAL",
        "PRIMARY",
        "P",
        "MB",
        "ND",
        "MOSAIC"
],
      "ImagedNucleus": "1H",
      "ImagingFrequency": 123.25896,
      "InPlanePhaseEncodingDirection": "COL",
      "LargestImagePixelValue": 4095,
      "MRAcquisitionType": "2D",
      "MagneticFieldStrength": 3.0,
      "Manufacturer": "SIEMENS",
      "ManufacturerModelName": "Prisma_fit",
      "Modality": "MR",
      "NumberOfAverages": 1.0,
      "NumberOfPhaseEncodingSteps": 104,
      "PercentPhaseFieldOfView": 100.0,
      "PercentSampling": 100.0,
      "PerformedProcedureStepStartTime": "104343.419000",
      "PhotometricInterpretation": "MONOCHROME2",
      "PixelBandwidth": 2290.0,
      "PixelRepresentation": 0,
      "PixelSpacing": [2.0, 2.0],
      "ProtocolName": "func_task-things_run-2",
      "RepetitionTime": 1490.0,
      "RescaleIntercept": -4096.0,
      "RescaleSlope": 2.0,
      "RescaleType": "US",
      "Rows": 832,
      "SAR": 0.05597092993275,
      "SamplesPerPixel": 1,
      "ScanOptions": "FS",
      "ScanningSequence": "EP",
      "SequenceName": "epfid2d1_104",
      "SequenceVariant": [
        "SK",
        "SS"
],
      "SeriesDescription": "func_task-things_run-2",
      "SeriesNumber": 14,
      "SeriesTime": "110856.369000",
      "SliceLocation": -55.98507308248,
      "SliceThickness": 2.0,
      "SmallestImagePixelValue": 0,
      "SoftwareVersions": "syngo MR E11",
      "SpacingBetweenSlices": 2.0000000372016,
      "SpecificCharacterSet": "ISO_IR 100",
      "StudyID": "1",
      "StudyTime": "104343.357000",
      "TransmitCoilName": "Body",
      "VariableFlipAngleFlag": "N",
      "WindowCenterWidthExplanation": "Algo1",
      "dBdt": 0.0},
    "slices": {}
  },
  "time": {
    "samples": {
      "AcquisitionNumber": [1, 2, 3, 4, 5, 6, 7, 8, 9, 10, 11, 12, 13, 14, 15, 16, 17, 18, 19, 20, 21, 22, 23, 24, 25, 26, 27, 28, 29, 30, 31, 32, 33, 34, 35, 36, 37, 38, 39, 40, 41, 42, 43, 44, 45, 46, 47, 48, 49, 50, 51, 52, 53, 54, 55, 56, 57, 58, 59, 60, 61, 62, 63, 64, 65, 66, 67, 68, 69, 70, 71, 72, 73, 74, 75, 76, 77, 78, 79, 80, 81, 82, 83, 84, 85, 86, 87, 88, 89, 90, 91, 92, 93, 94, 95, 96, 97, 98, 99, 100, 101, 102, 103, 104, 105, 106, 107, 108, 109, 110, 111, 112, 113, 114, 115, 116, 117, 118, 119, 120, 121, 122, 123, 124, 125, 126, 127, 128, 129, 130, 131, 132, 133, 134, 135, 136, 137, 138, 139, 140, 141, 142, 143, 144, 145, 146, 147, 148, 149, 150, 151, 152, 153, 154, 155, 156, 157, 158, 159, 160, 161, 162, 163, 164, 165, 166, 167, 168, 169, 170, 171, 172, 173, 174, 175, 176, 177, 178, 179, 180, 181, 182, 183, 184, 185, 186, 187, 188, 189, 190],
      "AcquisitionTime": ["110745.575000", "110747.065000", "110748.555000", "110750.045000", "110751.535000", "110753.025000", "110754.515000", "110756.005000", "110757.495000", "110758.985000", "110800.475000", "110801.965000", "110803.455000", "110804.945000", "110806.435000", "110807.925000", "110809.415000", "110810.905000", "110812.395000", "110813.885000", "110815.375000", "110816.865000", "110818.355000", "110819.845000", "110821.335000", "110822.825000", "110824.315000", "110825.805000", "110827.295000", "110828.785000", "110830.275000", "110831.765000", "110833.255000", "110834.745000", "110836.235000", "110837.725000", "110839.215000", "110840.705000", "110842.195000", "110843.685000", "110845.175000", "110846.665000", "110848.155000", "110849.645000", "110851.135000", "110852.625000", "110854.115000", "110855.605000", "110857.095000", "110858.585000", "110900.075000", "110901.565000", "110903.055000", "110904.545000", "110906.035000", "110907.525000", "110909.015000", "110910.505000", "110911.995000", "110913.485000", "110914.975000", "110916.465000", "110917.955000", "110919.445000", "110920.935000", "110922.425000", "110923.915000", "110925.405000", "110926.895000", "110928.385000", "110929.875000", "110931.365000", "110932.855000", "110934.345000", "110935.835000", "110937.325000", "110938.815000", "110940.305000", "110941.795000", "110943.285000", "110944.775000", "110946.265000", "110947.755000", "110949.245000", "110950.735000", "110952.225000", "110953.715000", "110955.205000", "110956.695000", "110958.185000", "110959.675000", "111001.165000", "111002.655000", "111004.145000", "111005.635000", "111007.125000", "111008.615000", "111010.105000", "111011.595000", "111013.085000", "111014.575000", "111016.065000", "111017.555000", "111019.045000", "111020.535000", "111022.025000", "111023.515000", "111025.005000", "111026.495000", "111027.985000", "111029.475000", "111030.965000", "111032.455000", "111033.945000", "111035.435000", "111036.925000", "111038.415000", "111039.905000", "111041.395000", "111042.885000", "111044.375000", "111045.865000", "111047.355000", "111048.845000", "111050.335000", "111051.825000", "111053.315000", "111054.805000", "111056.295000", "111057.785000", "111059.275000", "111100.765000", "111102.255000", "111103.745000", "111105.235000", "111106.725000", "111108.215000", "111109.705000", "111111.195000", "111112.685000", "111114.175000", "111115.665000", "111117.155000", "111118.645000", "111120.135000", "111121.625000", "111123.115000", "111124.605000", "111126.095000", "111127.585000", "111129.075000", "111130.565000", "111132.055000", "111133.545000", "111135.035000", "111136.525000", "111138.015000", "111139.505000", "111140.995000", "111142.485000", "111143.975000", "111145.465000", "111146.955000", "111148.445000", "111149.935000", "111151.425000", "111152.915000", "111154.405000", "111155.895000", "111157.385000", "111158.875000", "111200.365000", "111201.855000", "111203.345000", "111204.835000", "111206.325000", "111207.815000", "111209.305000", "111210.795000", "111212.285000", "111213.775000", "111215.265000", "111216.755000", "111218.245000", "111219.735000", "111221.225000", "111222.715000", "111224.205000", "111225.695000", "111227.185000"],
      "ContentTime": ["110856.371000", "110856.374000", "110856.376000", "110856.379000", "110856.382000", "110856.384000", "110856.390000", "110856.392000", "110856.395000", "110856.398000", "110856.400000", "110856.403000", "110856.405000", "110856.409000", "110856.412000", "110856.414000", "110856.417000", "110916.349000", "110916.352000", "110916.355000", "110916.357000", "110916.360000", "110916.362000", "110916.365000", "110916.368000", "110916.370000", "110916.373000", "110916.375000", "110916.378000", "110916.380000", "110916.383000", "110916.385000", "110916.388000", "110916.390000", "110916.393000", "110916.395000", "110916.398000", "110916.400000", "110936.333000", "110936.336000", "110936.339000", "110936.341000", "110936.346000", "110936.349000", "110936.358000", "110936.361000", "110936.363000", "110936.366000", "110936.368000", "110936.371000", "110936.374000", "110936.376000", "110936.379000", "110936.381000", "110936.384000", "110936.386000", "110936.389000", "110936.391000", "110956.332000", "110956.335000", "110956.338000", "110956.341000", "110956.343000", "110956.346000", "110956.349000", "110956.351000", "110956.354000", "110956.356000", "110956.359000", "110956.361000", "110956.364000", "110956.366000", "110956.369000", "110956.371000", "110956.374000", "110956.377000", "110956.379000", "110956.382000", "111016.343000", "111016.346000", "111016.349000", "111016.352000", "111016.355000", "111016.358000", "111016.361000", "111016.363000", "111016.366000", "111016.369000", "111016.371000", "111016.374000", "111016.376000", "111016.379000", "111016.382000", "111016.384000", "111016.389000", "111016.392000", "111016.394000", "111016.397000", "111056.385000", "111056.388000", "111056.390000", "111056.393000", "111056.396000", "111056.398000", "111056.401000", "111056.403000", "111056.406000", "111056.408000", "111056.411000", "111056.413000", "111056.416000", "111056.418000", "111056.421000", "111056.423000", "111056.426000", "111056.429000", "111056.431000", "111056.434000", "111056.436000", "111056.439000", "111056.441000", "111056.444000", "111056.447000", "111056.449000", "111056.452000", "111056.454000", "111056.457000", "111136.359000", "111136.362000", "111136.364000", "111136.367000", "111136.369000", "111136.372000", "111136.374000", "111136.377000", "111136.379000", "111136.382000", "111136.384000", "111136.387000", "111136.389000", "111136.392000", "111136.395000", "111136.397000", "111136.400000", "111136.402000", "111136.405000", "111136.407000", "111136.410000", "111136.412000", "111136.415000", "111136.417000", "111136.420000", "111136.422000", "111136.425000", "111216.355000", "111216.357000", "111216.360000", "111216.363000", "111216.365000", "111216.368000", "111216.370000", "111216.373000", "111216.375000", "111216.378000", "111216.380000", "111216.397000", "111216.400000", "111216.402000", "111216.405000", "111216.408000", "111216.410000", "111216.413000", "111216.415000", "111216.418000", "111216.420000", "111216.423000", "111216.425000", "111216.428000", "111216.430000", "111216.433000", "111216.438000", "111229.035000", "111229.038000", "111229.041000", "111229.043000", "111229.046000", "111229.049000", "111229.051000", "111229.054000", "111229.056000"],
      "InstanceCreationTime": ["110856.371000", "110856.374000", "110856.376000", "110856.379000", "110856.382000", "110856.384000", "110856.390000", "110856.392000", "110856.395000", "110856.398000", "110856.400000", "110856.403000", "110856.405000", "110856.409000", "110856.412000", "110856.414000", "110856.417000", "110916.349000", "110916.352000", "110916.355000", "110916.357000", "110916.360000", "110916.362000", "110916.365000", "110916.368000", "110916.370000", "110916.373000", "110916.375000", "110916.378000", "110916.380000", "110916.383000", "110916.385000", "110916.388000", "110916.390000", "110916.393000", "110916.395000", "110916.398000", "110916.400000", "110936.333000", "110936.336000", "110936.339000", "110936.341000", "110936.346000", "110936.349000", "110936.358000", "110936.361000", "110936.363000", "110936.366000", "110936.368000", "110936.371000", "110936.374000", "110936.376000", "110936.379000", "110936.381000", "110936.384000", "110936.386000", "110936.389000", "110936.391000", "110956.332000", "110956.335000", "110956.338000", "110956.341000", "110956.343000", "110956.346000", "110956.349000", "110956.351000", "110956.354000", "110956.356000", "110956.359000", "110956.361000", "110956.364000", "110956.366000", "110956.369000", "110956.371000", "110956.374000", "110956.377000", "110956.379000", "110956.382000", "111016.343000", "111016.346000", "111016.349000", "111016.352000", "111016.355000", "111016.358000", "111016.361000", "111016.363000", "111016.366000", "111016.369000", "111016.371000", "111016.374000", "111016.376000", "111016.379000", "111016.382000", "111016.384000", "111016.389000", "111016.392000", "111016.394000", "111016.397000", "111056.385000", "111056.388000", "111056.390000", "111056.393000", "111056.396000", "111056.398000", "111056.401000", "111056.403000", "111056.406000", "111056.408000", "111056.411000", "111056.413000", "111056.416000", "111056.418000", "111056.421000", "111056.423000", "111056.426000", "111056.429000", "111056.431000", "111056.434000", "111056.436000", "111056.439000", "111056.441000", "111056.444000", "111056.447000", "111056.449000", "111056.452000", "111056.454000", "111056.457000", "111136.359000", "111136.362000", "111136.364000", "111136.367000", "111136.369000", "111136.372000", "111136.374000", "111136.377000", "111136.379000", "111136.382000", "111136.384000", "111136.387000", "111136.389000", "111136.392000", "111136.395000", "111136.397000", "111136.400000", "111136.402000", "111136.405000", "111136.407000", "111136.410000", "111136.412000", "111136.415000", "111136.417000", "111136.420000", "111136.422000", "111136.425000", "111216.355000", "111216.357000", "111216.360000", "111216.363000", "111216.365000", "111216.368000", "111216.370000", "111216.373000", "111216.375000", "111216.378000", "111216.380000", "111216.397000", "111216.400000", "111216.402000", "111216.405000", "111216.408000", "111216.410000", "111216.413000", "111216.415000", "111216.418000", "111216.420000", "111216.423000", "111216.425000", "111216.428000", "111216.430000", "111216.433000", "111216.438000", "111229.035000", "111229.038000", "111229.041000", "111229.043000", "111229.046000", "111229.049000", "111229.051000", "111229.054000", "111229.056000"],
      "InstanceNumber": [1, 2, 3, 4, 5, 6, 7, 8, 9, 10, 11, 12, 13, 14, 15, 16, 17, 18, 19, 20, 21, 22, 23, 24, 25, 26, 27, 28, 29, 30, 31, 32, 33, 34, 35, 36, 37, 38, 39, 40, 41, 42, 43, 44, 45, 46, 47, 48, 49, 50, 51, 52, 53, 54, 55, 56, 57, 58, 59, 60, 61, 62, 63, 64, 65, 66, 67, 68, 69, 70, 71, 72, 73, 74, 75, 76, 77, 78, 79, 80, 81, 82, 83, 84, 85, 86, 87, 88, 89, 90, 91, 92, 93, 94, 95, 96, 97, 98, 99, 100, 101, 102, 103, 104, 105, 106, 107, 108, 109, 110, 111, 112, 113, 114, 115, 116, 117, 118, 119, 120, 121, 122, 123, 124, 125, 126, 127, 128, 129, 130, 131, 132, 133, 134, 135, 136, 137, 138, 139, 140, 141, 142, 143, 144, 145, 146, 147, 148, 149, 150, 151, 152, 153, 154, 155, 156, 157, 158, 159, 160, 161, 162, 163, 164, 165, 166, 167, 168, 169, 170, 171, 172, 173, 174, 175, 176, 177, 178, 179, 180, 181, 182, 183, 184, 185, 186, 187, 188, 189, 190],
      "WindowCenter": [4788.0, 4762.0, 4792.0, 4764.0, 4730.0, 4790.0, 4764.0, 4734.0, 4856.0, 4830.0, 4862.0, 4790.0, 4796.0, 4732.0, 4758.0, 4756.0, 4762.0, 4760.0, 4792.0, 4788.0, 4798.0, 4824.0, 4766.0, 4794.0, 4790.0, 4762.0, 4760.0, 4766.0, 4760.0, 4798.0, 4766.0, 4798.0, 4788.0, 4828.0, 4800.0, 4788.0, 4762.0, 4758.0, 4794.0, 4734.0, 4798.0, 4792.0, 4856.0, 4790.0, 4824.0, 4764.0, 4762.0, 4762.0, 4762.0, 4766.0, 4762.0, 4790.0, 4758.0, 4796.0, 4762.0, 4788.0, 4762.0, 4818.0, 4762.0, 4794.0, 4758.0, 4734.0, 4790.0, 4794.0, 4792.0, 4760.0, 4792.0, 4756.0, 4792.0, 4792.0, 4786.0, 4760.0, 4762.0, 4758.0, 4758.0, 4794.0, 4756.0, 4794.0, 4760.0, 4788.0, 4760.0, 4792.0, 4758.0, 4794.0, 4764.0, 4794.0, 4762.0, 4792.0, 4756.0, 4790.0, 4758.0, 4790.0, 4760.0, 4794.0, 4754.0, 4792.0, 4762.0, 4760.0, 4790.0, 4790.0, 4790.0, 4788.0, 4792.0, 4758.0, 4764.0, 4790.0, 4764.0, 4764.0, 4790.0, 4762.0, 4760.0, 4794.0, 4758.0, 4794.0, 4760.0, 4758.0, 4792.0, 4766.0, 4790.0, 4762.0, 4790.0, 4758.0, 4788.0, 4758.0, 4788.0, 4790.0, 4792.0, 4764.0, 4732.0, 4758.0, 4756.0, 4790.0, 4758.0, 4796.0, 4760.0, 4822.0, 4734.0, 4790.0, 4736.0, 4764.0, 4820.0, 4796.0, 4800.0, 4734.0, 4790.0, 4732.0, 4762.0, 4760.0, 4760.0, 4786.0, 4734.0, 4732.0, 4796.0, 4788.0, 4796.0, 4786.0, 4800.0, 4756.0, 4756.0, 4760.0, 4732.0, 4762.0, 4760.0, 4788.0, 4762.0, 4792.0, 4732.0, 4794.0, 4762.0, 4790.0, 4756.0, 4790.0, 4732.0, 4762.0, 4762.0, 4762.0, 4798.0, 4762.0, 4796.0, 4828.0, 4754.0, 4788.0, 4734.0, 4762.0, 4738.0, 4762.0, 4756.0, 4798.0, 4794.0, 4854.0],
      "WindowWidth": [18602.0, 18566.0, 18606.0, 18568.0, 18520.0, 18604.0, 18570.0, 18532.0, 18694.0, 18660.0, 18698.0, 18606.0, 18612.0, 18524.0, 18564.0, 18556.0, 18562.0, 18556.0, 18608.0, 18602.0, 18618.0, 18650.0, 18572.0, 18610.0, 18604.0, 18572.0, 18562.0, 18572.0, 18562.0, 18612.0, 18566.0, 18612.0, 18602.0, 18660.0, 18618.0, 18604.0, 18568.0, 18558.0, 18612.0, 18530.0, 18618.0, 18610.0, 18692.0, 18604.0, 18652.0, 18566.0, 18564.0, 18564.0, 18568.0, 18570.0, 18564.0, 18602.0, 18560.0, 18616.0, 18562.0, 18602.0, 18564.0, 18646.0, 18566.0, 18610.0, 18560.0, 18526.0, 18600.0, 18610.0, 18606.0, 18562.0, 18604.0, 18556.0, 18606.0, 18606.0, 18598.0, 18560.0, 18562.0, 18562.0, 18558.0, 18608.0, 18558.0, 18610.0, 18558.0, 18602.0, 18562.0, 18606.0, 18558.0, 18612.0, 18566.0, 18610.0, 18566.0, 18610.0, 18558.0, 18606.0, 18558.0, 18604.0, 18564.0, 18606.0, 18554.0, 18606.0, 18564.0, 18566.0, 18606.0, 18604.0, 18602.0, 18604.0, 18608.0, 18556.0, 18566.0, 18602.0, 18566.0, 18566.0, 18604.0, 18566.0, 18564.0, 18614.0, 18562.0, 18608.0, 18562.0, 18560.0, 18608.0, 18572.0, 18606.0, 18566.0, 18604.0, 18564.0, 18602.0, 18560.0, 18602.0, 18604.0, 18606.0, 18572.0, 18526.0, 18564.0, 18554.0, 18606.0, 18564.0, 18612.0, 18562.0, 18646.0, 18524.0, 18606.0, 18528.0, 18568.0, 18646.0, 18612.0, 18620.0, 18528.0, 18602.0, 18518.0, 18562.0, 18562.0, 18558.0, 18604.0, 18528.0, 18526.0, 18614.0, 18604.0, 18614.0, 18606.0, 18618.0, 18556.0, 18562.0, 18556.0, 18528.0, 18566.0, 18560.0, 18604.0, 18566.0, 18614.0, 18526.0, 18612.0, 18566.0, 18606.0, 18558.0, 18602.0, 18526.0, 18568.0, 18568.0, 18564.0, 18618.0, 18570.0, 18610.0, 18652.0, 18558.0, 18602.0, 18522.0, 18566.0, 18526.0, 18566.0, 18556.0, 18618.0, 18612.0, 18694.0]
    },
    "slices": {}
  }
}