{
  "AcquisitionMatrixPE": 104,
  "AcquisitionNumber": 1,
  "AcquisitionTime": "11:27:55.092500",
  "BandwidthPerPixelPhaseEncode": 17.17,
  "BaseResolution": 104,
  "BodyPartExamined": "BRAIN",
  "CoilString": "HC1-7;NC1_2",
  "ConsistencyInfo": "N4_VE11C_LATEST_20160120",
  "ConversionSoftware": "dcm2niix",
  "ConversionSoftwareVersion": "v1.0.20190902",
  "DerivedVendorReportedEchoSpacing": 0.000560011,
  "DeviceSerialNumber": "167006",
  "DwellTime": 2.1e-06,
  "EchoTime": 0.037,
  "EchoTrainLength": 104,
  "EffectiveEchoSpacing": 0.000560011,
  "FlipAngle": 52,
  "ImageComments": "Unaliased_MB4_PE3_LB",
  "ImageOrientationPatientDICOM": [0.999652, 0.0203418, 0.0168113, -0.00907276, 0.86313, -0.5049],
  "ImageType": [
    "ORIGINAL",
    "PRIMARY",
    "P",
    "MB",
    "ND",
    "MOSAIC"
],
  "ImagingFrequency": 123.259,
  "InPlanePhaseEncodingDirectionDICOM": "COL",
  "InstitutionAddress": "Chemin_Queen-Mary_4565_Montreal_District_CA_H3W_1W5",
  "InstitutionName": "IUGM",
  "InstitutionalDepartmentName": "Department",
  "MRAcquisitionType": "2D",
  "MagneticFieldStrength": 3,
  "Manufacturer": "Siemens",
  "ManufacturersModelName": "Prisma_fit",
  "Modality": "MR",
  "MultibandAccelerationFactor": 4,
  "PartialFourier": 1,
  "PatientPosition": "HFS",
  "PercentPhaseFOV": 100,
  "PhaseEncodingDirection": "j",
  "PhaseEncodingSteps": 104,
  "PhaseResolution": 1,
  "PixelBandwidth": 2290,
  "ProcedureStepDescription": "memory_things",
  "ProtocolName": "func_task-things_run-5",
  "PulseSequenceDetails": "%CustomerSeq%_cmrr_mbep2d_bold",
  "ReceiveCoilActiveElements": "HC1-7;NC1,2",
  "ReceiveCoilName": "HeadNeck_64",
  "ReconMatrixPE": 104,
  "RepetitionTime": 1.49,
  "SAR": 0.0559709,
  "ScanOptions": "FS",
  "ScanningSequence": "EP",
  "SequenceName": "epfid2d1_104",
  "SequenceVariant": "SK_SS",
  "SeriesDescription": "func_task-things_run-5",
  "SeriesNumber": 23,
  "ShimSetting": [614, -7175, -8863, 324, -24, -133, -34, -24],
  "SliceThickness": 2,
  "SliceTiming": [0, 0.785, 0.1, 0.8825, 0.1975, 0.98, 0.295, 1.08, 0.3925, 1.1775, 0.49, 1.275, 0.59, 1.3725, 0.6875, 0, 0.785, 0.1, 0.8825, 0.1975, 0.98, 0.295, 1.08, 0.3925, 1.1775, 0.49, 1.275, 0.59, 1.3725, 0.6875, 0, 0.785, 0.1, 0.8825, 0.1975, 0.98, 0.295, 1.08, 0.3925, 1.1775, 0.49, 1.275, 0.59, 1.3725, 0.6875, 0, 0.785, 0.1, 0.8825, 0.1975, 0.98, 0.295, 1.08, 0.3925, 1.1775, 0.49, 1.275, 0.59, 1.3725, 0.6875],
  "SoftwareVersions": "syngo_MR_E11",
  "SpacingBetweenSlices": 2,
  "StationName": "MRC35049",
  "TaskName": "things",
  "TotalReadoutTime": 0.0576811,
  "TxRefAmp": 284.104,
  "WipMemBlock": "a7c0979a-912f-4d71-ae26-fb4698e1395e||Sequence: R016 ve11c/master r/e634e98; Dec 19 2017 11:00:25 by eja",
  "dcmmeta_affine": [
    [-1.9993034601211548, -0.01814551092684269, 0.049561768770217896, 106.95301818847656],
    [-0.04068358615040779, 1.7262598276138306, -1.0091441869735718, -49.49960708618164],
    [0.03362252563238144, 1.009800910949707, 1.7260277271270752, -96.88324737548828],
    [0.0, 0.0, 0.0, 1.0]
],
  "dcmmeta_reorient_transform": [
    [0.0, -1.0, 0.0, 103.0],
    [1.0, 0.0, 0.0, 0.0],
    [0.0, 0.0, 1.0, 0.0],
    [0.0, 0.0, 0.0, 1.0]
],
  "dcmmeta_shape": [104, 104, 60, 190],
  "dcmmeta_slice_dim": 2,
  "dcmmeta_version": 0.6,
  "global": {
    "const": {
      "AcquisitionMatrix": [104, 0, 0, 104],
      "AngioFlag": "N",
      "BitsAllocated": 16,
      "BitsStored": 16,
      "BodyPartExamined": "BRAIN",
      "Columns": 832,
      "EchoNumbers": 1,
      "EchoTime": 37.0,
      "EchoTrainLength": 104,
      "FlipAngle": 52.0,
      "HighBit": 15,
      "ImageOrientationPatient": [0.9996517358181, 0.02034179313078, 0.01681126194219, -0.0090727554805, 0.86312989091498, -0.5049004619894],
      "ImagePositionPatient": [-826.22553152613, -771.47253627988, 362.45518560015],
      "ImageType": [
        "ORIGINAL",
        "PRIMARY",
        "P",
        "MB",
        "ND",
        "MOSAIC"
],
      "ImagedNucleus": "1H",
      "ImagingFrequency": 123.258965,
      "InPlanePhaseEncodingDirection": "COL",
      "LargestImagePixelValue": 4095,
      "MRAcquisitionType": "2D",
      "MagneticFieldStrength": 3.0,
      "Manufacturer": "SIEMENS",
      "ManufacturerModelName": "Prisma_fit",
      "Modality": "MR",
      "NumberOfAverages": 1.0,
      "NumberOfPhaseEncodingSteps": 104,
      "PercentPhaseFieldOfView": 100.0,
      "PercentSampling": 100.0,
      "PerformedProcedureStepStartTime": "104343.419000",
      "PhotometricInterpretation": "MONOCHROME2",
      "PixelBandwidth": 2290.0,
      "PixelRepresentation": 0,
      "PixelSpacing": [2.0, 2.0],
      "ProtocolName": "func_task-things_run-5",
      "RepetitionTime": 1490.0,
      "RescaleIntercept": -4096.0,
      "RescaleSlope": 2.0,
      "RescaleType": "US",
      "Rows": 832,
      "SAR": 0.05597092993275,
      "SamplesPerPixel": 1,
      "ScanOptions": "FS",
      "ScanningSequence": "EP",
      "SequenceName": "epfid2d1_104",
      "SequenceVariant": [
        "SK",
        "SS"
],
      "SeriesDescription": "func_task-things_run-5",
      "SeriesNumber": 23,
      "SeriesTime": "112856.328000",
      "SliceLocation": -55.98507308248,
      "SliceThickness": 2.0,
      "SmallestImagePixelValue": 0,
      "SoftwareVersions": "syngo MR E11",
      "SpacingBetweenSlices": 2.0000000372016,
      "SpecificCharacterSet": "ISO_IR 100",
      "StudyID": "1",
      "StudyTime": "104343.357000",
      "TransmitCoilName": "Body",
      "VariableFlipAngleFlag": "N",
      "WindowCenterWidthExplanation": "Algo1",
      "dBdt": 0.0},
    "slices": {}
  },
  "time": {
    "samples": {
      "AcquisitionNumber": [1, 2, 3, 4, 5, 6, 7, 8, 9, 10, 11, 12, 13, 14, 15, 16, 17, 18, 19, 20, 21, 22, 23, 24, 25, 26, 27, 28, 29, 30, 31, 32, 33, 34, 35, 36, 37, 38, 39, 40, 41, 42, 43, 44, 45, 46, 47, 48, 49, 50, 51, 52, 53, 54, 55, 56, 57, 58, 59, 60, 61, 62, 63, 64, 65, 66, 67, 68, 69, 70, 71, 72, 73, 74, 75, 76, 77, 78, 79, 80, 81, 82, 83, 84, 85, 86, 87, 88, 89, 90, 91, 92, 93, 94, 95, 96, 97, 98, 99, 100, 101, 102, 103, 104, 105, 106, 107, 108, 109, 110, 111, 112, 113, 114, 115, 116, 117, 118, 119, 120, 121, 122, 123, 124, 125, 126, 127, 128, 129, 130, 131, 132, 133, 134, 135, 136, 137, 138, 139, 140, 141, 142, 143, 144, 145, 146, 147, 148, 149, 150, 151, 152, 153, 154, 155, 156, 157, 158, 159, 160, 161, 162, 163, 164, 165, 166, 167, 168, 169, 170, 171, 172, 173, 174, 175, 176, 177, 178, 179, 180, 181, 182, 183, 184, 185, 186, 187, 188, 189, 190],
      "AcquisitionTime": ["112755.092500", "112756.582500", "112758.072500", "112759.562500", "112801.052500", "112802.542500", "112804.032500", "112805.522500", "112807.012500", "112808.502500", "112809.992500", "112811.482500", "112812.972500", "112814.462500", "112815.952500", "112817.442500", "112818.932500", "112820.422500", "112821.912500", "112823.402500", "112824.892500", "112826.382500", "112827.872500", "112829.362500", "112830.852500", "112832.342500", "112833.832500", "112835.322500", "112836.812500", "112838.302500", "112839.792500", "112841.282500", "112842.772500", "112844.262500", "112845.752500", "112847.242500", "112848.732500", "112850.222500", "112851.712500", "112853.202500", "112854.692500", "112856.182500", "112857.672500", "112859.162500", "112900.652500", "112902.142500", "112903.632500", "112905.122500", "112906.612500", "112908.102500", "112909.592500", "112911.082500", "112912.572500", "112914.062500", "112915.552500", "112917.042500", "112918.532500", "112920.022500", "112921.512500", "112923.002500", "112924.492500", "112925.982500", "112927.472500", "112928.962500", "112930.452500", "112931.942500", "112933.432500", "112934.922500", "112936.412500", "112937.902500", "112939.392500", "112940.882500", "112942.372500", "112943.862500", "112945.352500", "112946.842500", "112948.332500", "112949.822500", "112951.312500", "112952.802500", "112954.292500", "112955.782500", "112957.272500", "112958.762500", "113000.252500", "113001.742500", "113003.232500", "113004.722500", "113006.212500", "113007.702500", "113009.192500", "113010.682500", "113012.172500", "113013.662500", "113015.152500", "113016.642500", "113018.132500", "113019.622500", "113021.112500", "113022.602500", "113024.092500", "113025.582500", "113027.072500", "113028.562500", "113030.052500", "113031.542500", "113033.032500", "113034.522500", "113036.012500", "113037.502500", "113038.992500", "113040.482500", "113041.972500", "113043.462500", "113044.952500", "113046.442500", "113047.932500", "113049.422500", "113050.912500", "113052.402500", "113053.892500", "113055.382500", "113056.872500", "113058.362500", "113059.852500", "113101.342500", "113102.832500", "113104.322500", "113105.812500", "113107.302500", "113108.792500", "113110.282500", "113111.772500", "113113.262500", "113114.752500", "113116.242500", "113117.732500", "113119.222500", "113120.712500", "113122.202500", "113123.692500", "113125.182500", "113126.672500", "113128.162500", "113129.652500", "113131.142500", "113132.632500", "113134.122500", "113135.612500", "113137.102500", "113138.592500", "113140.082500", "113141.572500", "113143.062500", "113144.552500", "113146.042500", "113147.532500", "113149.022500", "113150.512500", "113152.002500", "113153.492500", "113154.982500", "113156.472500", "113157.962500", "113159.452500", "113200.942500", "113202.432500", "113203.922500", "113205.412500", "113206.902500", "113208.392500", "113209.882500", "113211.372500", "113212.862500", "113214.352500", "113215.842500", "113217.332500", "113218.822500", "113220.312500", "113221.802500", "113223.292500", "113224.782500", "113226.272500", "113227.762500", "113229.252500", "113230.742500", "113232.232500", "113233.722500", "113235.212500", "113236.702500"],
      "ContentTime": ["112856.330000", "112856.332000", "112856.335000", "112856.337000", "112856.346000", "112856.349000", "112856.352000", "112916.333000", "112916.336000", "112916.339000", "112916.341000", "112916.344000", "112916.346000", "112916.349000", "112916.351000", "112916.354000", "112916.356000", "112916.359000", "112916.361000", "112916.364000", "112916.366000", "112916.369000", "112916.371000", "112916.374000", "112916.376000", "112916.379000", "112916.381000", "112916.384000", "112936.338000", "112936.340000", "112936.343000", "112936.346000", "112936.348000", "112936.351000", "112936.353000", "112936.356000", "112936.358000", "112936.361000", "112936.363000", "112936.366000", "112936.369000", "112936.371000", "112936.374000", "112936.376000", "112936.379000", "112936.381000", "112936.384000", "112936.387000", "112956.350000", "112956.352000", "112956.355000", "112956.357000", "112956.360000", "112956.362000", "112956.365000", "112956.367000", "112956.370000", "112956.372000", "112956.375000", "112956.378000", "112956.380000", "112956.383000", "112956.385000", "112956.388000", "112956.390000", "112956.393000", "112956.395000", "112956.398000", "113016.331000", "113016.334000", "113016.336000", "113016.339000", "113016.341000", "113016.344000", "113016.346000", "113016.349000", "113016.351000", "113016.354000", "113016.356000", "113016.359000", "113016.361000", "113016.364000", "113016.366000", "113016.369000", "113016.372000", "113016.374000", "113016.377000", "113016.379000", "113056.403000", "113056.405000", "113056.408000", "113056.410000", "113056.413000", "113056.415000", "113056.418000", "113056.420000", "113056.423000", "113056.426000", "113056.428000", "113056.431000", "113056.433000", "113056.436000", "113056.438000", "113056.441000", "113056.443000", "113056.446000", "113056.448000", "113056.451000", "113056.453000", "113056.456000", "113056.458000", "113056.461000", "113056.463000", "113056.466000", "113056.469000", "113056.471000", "113056.474000", "113056.476000", "113056.479000", "113056.482000", "113056.484000", "113136.370000", "113136.373000", "113136.375000", "113136.378000", "113136.380000", "113136.383000", "113136.385000", "113136.388000", "113136.390000", "113136.393000", "113136.395000", "113136.398000", "113136.401000", "113136.403000", "113136.406000", "113136.408000", "113136.411000", "113136.413000", "113136.416000", "113136.419000", "113136.421000", "113136.424000", "113136.426000", "113136.429000", "113136.431000", "113136.434000", "113136.436000", "113216.401000", "113216.403000", "113216.414000", "113216.417000", "113216.420000", "113216.422000", "113216.425000", "113216.427000", "113216.430000", "113216.432000", "113216.435000", "113216.438000", "113216.440000", "113216.443000", "113216.445000", "113216.448000", "113216.450000", "113216.453000", "113216.456000", "113216.458000", "113216.461000", "113216.463000", "113216.466000", "113216.468000", "113216.471000", "113216.473000", "113238.794000", "113238.797000", "113238.800000", "113238.802000", "113238.805000", "113238.808000", "113238.810000", "113238.813000", "113238.815000", "113238.823000", "113238.825000", "113238.828000", "113238.830000", "113238.833000", "113238.836000", "113238.838000"],
      "InstanceCreationTime": ["112856.330000", "112856.332000", "112856.335000", "112856.337000", "112856.346000", "112856.349000", "112856.352000", "112916.333000", "112916.336000", "112916.339000", "112916.341000", "112916.344000", "112916.346000", "112916.349000", "112916.351000", "112916.354000", "112916.356000", "112916.359000", "112916.361000", "112916.364000", "112916.366000", "112916.369000", "112916.371000", "112916.374000", "112916.376000", "112916.379000", "112916.381000", "112916.384000", "112936.338000", "112936.340000", "112936.343000", "112936.346000", "112936.348000", "112936.351000", "112936.353000", "112936.356000", "112936.358000", "112936.361000", "112936.363000", "112936.366000", "112936.369000", "112936.371000", "112936.374000", "112936.376000", "112936.379000", "112936.381000", "112936.384000", "112936.387000", "112956.350000", "112956.352000", "112956.355000", "112956.357000", "112956.360000", "112956.362000", "112956.365000", "112956.367000", "112956.370000", "112956.372000", "112956.375000", "112956.378000", "112956.380000", "112956.383000", "112956.385000", "112956.388000", "112956.390000", "112956.393000", "112956.395000", "112956.398000", "113016.331000", "113016.334000", "113016.336000", "113016.339000", "113016.341000", "113016.344000", "113016.346000", "113016.349000", "113016.351000", "113016.354000", "113016.356000", "113016.359000", "113016.361000", "113016.364000", "113016.366000", "113016.369000", "113016.372000", "113016.374000", "113016.377000", "113016.379000", "113056.403000", "113056.405000", "113056.408000", "113056.410000", "113056.413000", "113056.415000", "113056.418000", "113056.420000", "113056.423000", "113056.426000", "113056.428000", "113056.431000", "113056.433000", "113056.436000", "113056.438000", "113056.441000", "113056.443000", "113056.446000", "113056.448000", "113056.451000", "113056.453000", "113056.456000", "113056.458000", "113056.461000", "113056.463000", "113056.466000", "113056.469000", "113056.471000", "113056.474000", "113056.476000", "113056.479000", "113056.482000", "113056.484000", "113136.370000", "113136.373000", "113136.375000", "113136.378000", "113136.380000", "113136.383000", "113136.385000", "113136.388000", "113136.390000", "113136.393000", "113136.395000", "113136.398000", "113136.401000", "113136.403000", "113136.406000", "113136.408000", "113136.411000", "113136.413000", "113136.416000", "113136.419000", "113136.421000", "113136.424000", "113136.426000", "113136.429000", "113136.431000", "113136.434000", "113136.436000", "113216.401000", "113216.403000", "113216.414000", "113216.417000", "113216.420000", "113216.422000", "113216.425000", "113216.427000", "113216.430000", "113216.432000", "113216.435000", "113216.438000", "113216.440000", "113216.443000", "113216.445000", "113216.448000", "113216.450000", "113216.453000", "113216.456000", "113216.458000", "113216.461000", "113216.463000", "113216.466000", "113216.468000", "113216.471000", "113216.473000", "113238.794000", "113238.797000", "113238.800000", "113238.802000", "113238.805000", "113238.808000", "113238.810000", "113238.813000", "113238.815000", "113238.823000", "113238.825000", "113238.828000", "113238.830000", "113238.833000", "113238.836000", "113238.838000"],
      "InstanceNumber": [1, 2, 3, 4, 5, 6, 7, 8, 9, 10, 11, 12, 13, 14, 15, 16, 17, 18, 19, 20, 21, 22, 23, 24, 25, 26, 27, 28, 29, 30, 31, 32, 33, 34, 35, 36, 37, 38, 39, 40, 41, 42, 43, 44, 45, 46, 47, 48, 49, 50, 51, 52, 53, 54, 55, 56, 57, 58, 59, 60, 61, 62, 63, 64, 65, 66, 67, 68, 69, 70, 71, 72, 73, 74, 75, 76, 77, 78, 79, 80, 81, 82, 83, 84, 85, 86, 87, 88, 89, 90, 91, 92, 93, 94, 95, 96, 97, 98, 99, 100, 101, 102, 103, 104, 105, 106, 107, 108, 109, 110, 111, 112, 113, 114, 115, 116, 117, 118, 119, 120, 121, 122, 123, 124, 125, 126, 127, 128, 129, 130, 131, 132, 133, 134, 135, 136, 137, 138, 139, 140, 141, 142, 143, 144, 145, 146, 147, 148, 149, 150, 151, 152, 153, 154, 155, 156, 157, 158, 159, 160, 161, 162, 163, 164, 165, 166, 167, 168, 169, 170, 171, 172, 173, 174, 175, 176, 177, 178, 179, 180, 181, 182, 183, 184, 185, 186, 187, 188, 189, 190],
      "WindowCenter": [4724.0, 4712.0, 4726.0, 4714.0, 4762.0, 4720.0, 4754.0, 4798.0, 4722.0, 4714.0, 4710.0, 4704.0, 4712.0, 4714.0, 4748.0, 4750.0, 4788.0, 4754.0, 4764.0, 4766.0, 4730.0, 4712.0, 4710.0, 4706.0, 4712.0, 4716.0, 4754.0, 4754.0, 4800.0, 4802.0, 4724.0, 4754.0, 4708.0, 4714.0, 4702.0, 4704.0, 4710.0, 4718.0, 4758.0, 4762.0, 4792.0, 4760.0, 4756.0, 4718.0, 4716.0, 4710.0, 4718.0, 4714.0, 4728.0, 4720.0, 4752.0, 4720.0, 4796.0, 4806.0, 4726.0, 4702.0, 4728.0, 4708.0, 4706.0, 4724.0, 4754.0, 4788.0, 4804.0, 4760.0, 4760.0, 4720.0, 4720.0, 4732.0, 4710.0, 4708.0, 4708.0, 4710.0, 4714.0, 4716.0, 4750.0, 4758.0, 4788.0, 4754.0, 4794.0, 4760.0, 4716.0, 4708.0, 4706.0, 4710.0, 4708.0, 4752.0, 4744.0, 4764.0, 4762.0, 4752.0, 4752.0, 4722.0, 4714.0, 4714.0, 4714.0, 4716.0, 4730.0, 4720.0, 4758.0, 4724.0, 4756.0, 4720.0, 4724.0, 4716.0, 4724.0, 4716.0, 4750.0, 4716.0, 4750.0, 4748.0, 4722.0, 4724.0, 4722.0, 4752.0, 4714.0, 4728.0, 4754.0, 4720.0, 4754.0, 4718.0, 4746.0, 4756.0, 4716.0, 4728.0, 4718.0, 4746.0, 4718.0, 4722.0, 4724.0, 4746.0, 4802.0, 4768.0, 4720.0, 4708.0, 4730.0, 4710.0, 4800.0, 4770.0, 4718.0, 4718.0, 4712.0, 4706.0, 4762.0, 4838.0, 4796.0, 4710.0, 4756.0, 4760.0, 4728.0, 4712.0, 4746.0, 4800.0, 4824.0, 4798.0, 4804.0, 4758.0, 4708.0, 4708.0, 4704.0, 4724.0, 4714.0, 4718.0, 4746.0, 4752.0, 4754.0, 4762.0, 4804.0, 4758.0, 4752.0, 4760.0, 4710.0, 4704.0, 4706.0, 4704.0, 4720.0, 4724.0, 4748.0, 4750.0, 4758.0, 4758.0, 4746.0, 4756.0, 4720.0, 4714.0, 4726.0, 4714.0, 4758.0, 4798.0, 4750.0, 4708.0],
      "WindowWidth": [18496.0, 18492.0, 18504.0, 18494.0, 18538.0, 18498.0, 18532.0, 18566.0, 18498.0, 18494.0, 18490.0, 18484.0, 18490.0, 18488.0, 18534.0, 18532.0, 18572.0, 18538.0, 18546.0, 18542.0, 18502.0, 18492.0, 18492.0, 18490.0, 18490.0, 18494.0, 18542.0, 18540.0, 18576.0, 18572.0, 18498.0, 18532.0, 18490.0, 18496.0, 18482.0, 18488.0, 18490.0, 18502.0, 18540.0, 18550.0, 18578.0, 18544.0, 18540.0, 18500.0, 18492.0, 18488.0, 18494.0, 18492.0, 18500.0, 18500.0, 18532.0, 18502.0, 18564.0, 18564.0, 18500.0, 18484.0, 18524.0, 18494.0, 18490.0, 18500.0, 18538.0, 18576.0, 18580.0, 18540.0, 18542.0, 18494.0, 18496.0, 18496.0, 18492.0, 18488.0, 18484.0, 18492.0, 18496.0, 18492.0, 18536.0, 18538.0, 18574.0, 18540.0, 18574.0, 18540.0, 18494.0, 18488.0, 18488.0, 18488.0, 18490.0, 18536.0, 18530.0, 18546.0, 18546.0, 18536.0, 18540.0, 18498.0, 18492.0, 18492.0, 18492.0, 18500.0, 18506.0, 18500.0, 18542.0, 18502.0, 18540.0, 18496.0, 18500.0, 18492.0, 18498.0, 18498.0, 18532.0, 18498.0, 18536.0, 18530.0, 18498.0, 18500.0, 18502.0, 18540.0, 18492.0, 18504.0, 18542.0, 18500.0, 18534.0, 18494.0, 18534.0, 18538.0, 18496.0, 18504.0, 18500.0, 18532.0, 18496.0, 18504.0, 18500.0, 18532.0, 18570.0, 18542.0, 18498.0, 18484.0, 18522.0, 18490.0, 18568.0, 18536.0, 18498.0, 18496.0, 18494.0, 18488.0, 18538.0, 18584.0, 18566.0, 18484.0, 18562.0, 18572.0, 18524.0, 18496.0, 18536.0, 18584.0, 18610.0, 18590.0, 18582.0, 18538.0, 18486.0, 18488.0, 18486.0, 18518.0, 18496.0, 18496.0, 18530.0, 18536.0, 18540.0, 18546.0, 18576.0, 18548.0, 18538.0, 18540.0, 18492.0, 18490.0, 18486.0, 18486.0, 18496.0, 18496.0, 18534.0, 18540.0, 18546.0, 18548.0, 18534.0, 18546.0, 18498.0, 18490.0, 18502.0, 18492.0, 18538.0, 18580.0, 18536.0, 18486.0]
    },
    "slices": {}
  }
}