{
  "AcquisitionMatrixPE": 104,
  "AcquisitionNumber": 1,
  "AcquisitionTime": "11:33:58.087500",
  "BandwidthPerPixelPhaseEncode": 17.17,
  "BaseResolution": 104,
  "BodyPartExamined": "BRAIN",
  "CoilString": "HC1-7;NC1_2",
  "ConsistencyInfo": "N4_VE11C_LATEST_20160120",
  "ConversionSoftware": "dcm2niix",
  "ConversionSoftwareVersion": "v1.0.20190902",
  "DerivedVendorReportedEchoSpacing": 0.000560011,
  "DeviceSerialNumber": "167006",
  "DwellTime": 2.1e-06,
  "EchoTime": 0.037,
  "EchoTrainLength": 104,
  "EffectiveEchoSpacing": 0.000560011,
  "FlipAngle": 52,
  "ImageComments": "Unaliased_MB4_PE3_LB",
  "ImageOrientationPatientDICOM": [0.999652, 0.0203418, 0.0168113, -0.00907276, 0.86313, -0.5049],
  "ImageType": [
    "ORIGINAL",
    "PRIMARY",
    "P",
    "MB",
    "ND",
    "MOSAIC"
],
  "ImagingFrequency": 123.259,
  "InPlanePhaseEncodingDirectionDICOM": "COL",
  "InstitutionAddress": "Chemin_Queen-Mary_4565_Montreal_District_CA_H3W_1W5",
  "InstitutionName": "IUGM",
  "InstitutionalDepartmentName": "Department",
  "MRAcquisitionType": "2D",
  "MagneticFieldStrength": 3,
  "Manufacturer": "Siemens",
  "ManufacturersModelName": "Prisma_fit",
  "Modality": "MR",
  "MultibandAccelerationFactor": 4,
  "PartialFourier": 1,
  "PatientPosition": "HFS",
  "PercentPhaseFOV": 100,
  "PhaseEncodingDirection": "j",
  "PhaseEncodingSteps": 104,
  "PhaseResolution": 1,
  "PixelBandwidth": 2290,
  "ProcedureStepDescription": "memory_things",
  "ProtocolName": "func_task-things_run-6",
  "PulseSequenceDetails": "%CustomerSeq%_cmrr_mbep2d_bold",
  "ReceiveCoilActiveElements": "HC1-7;NC1,2",
  "ReceiveCoilName": "HeadNeck_64",
  "ReconMatrixPE": 104,
  "RepetitionTime": 1.49,
  "SAR": 0.0559709,
  "ScanOptions": "FS",
  "ScanningSequence": "EP",
  "SequenceName": "epfid2d1_104",
  "SequenceVariant": "SK_SS",
  "SeriesDescription": "func_task-things_run-6",
  "SeriesNumber": 26,
  "ShimSetting": [614, -7175, -8863, 324, -24, -133, -34, -24],
  "SliceThickness": 2,
  "SliceTiming": [0, 0.7825, 0.0975, 0.88, 0.195, 0.98, 0.2925, 1.0775, 0.39, 1.175, 0.49, 1.2725, 0.5875, 1.37, 0.685, 0, 0.7825, 0.0975, 0.88, 0.195, 0.98, 0.2925, 1.0775, 0.39, 1.175, 0.49, 1.2725, 0.5875, 1.37, 0.685, 0, 0.7825, 0.0975, 0.88, 0.195, 0.98, 0.2925, 1.0775, 0.39, 1.175, 0.49, 1.2725, 0.5875, 1.37, 0.685, 0, 0.7825, 0.0975, 0.88, 0.195, 0.98, 0.2925, 1.0775, 0.39, 1.175, 0.49, 1.2725, 0.5875, 1.37, 0.685],
  "SoftwareVersions": "syngo_MR_E11",
  "SpacingBetweenSlices": 2,
  "StationName": "MRC35049",
  "TaskName": "things",
  "TotalReadoutTime": 0.0576811,
  "TxRefAmp": 284.104,
  "WipMemBlock": "21683b0e-e4d6-456d-a023-e6a69badf1a1||Sequence: R016 ve11c/master r/e634e98; Dec 19 2017 11:00:25 by eja",
  "dcmmeta_affine": [
    [-1.9993034601211548, -0.01814551092684269, 0.049561768770217896, 106.95301818847656],
    [-0.04068358615040779, 1.7262598276138306, -1.0091441869735718, -49.49960708618164],
    [0.03362252563238144, 1.009800910949707, 1.7260277271270752, -96.88324737548828],
    [0.0, 0.0, 0.0, 1.0]
],
  "dcmmeta_reorient_transform": [
    [0.0, -1.0, 0.0, 103.0],
    [1.0, 0.0, 0.0, 0.0],
    [0.0, 0.0, 1.0, 0.0],
    [0.0, 0.0, 0.0, 1.0]
],
  "dcmmeta_shape": [104, 104, 60, 190],
  "dcmmeta_slice_dim": 2,
  "dcmmeta_version": 0.6,
  "global": {
    "const": {
      "AcquisitionMatrix": [104, 0, 0, 104],
      "AngioFlag": "N",
      "BitsAllocated": 16,
      "BitsStored": 16,
      "BodyPartExamined": "BRAIN",
      "Columns": 832,
      "EchoNumbers": 1,
      "EchoTime": 37.0,
      "EchoTrainLength": 104,
      "FlipAngle": 52.0,
      "HighBit": 15,
      "ImageOrientationPatient": [0.9996517358181, 0.02034179313078, 0.01681126194219, -0.0090727554805, 0.86312989091498, -0.5049004619894],
      "ImagePositionPatient": [-826.22553152613, -771.47253627988, 362.45518560015],
      "ImageType": [
        "ORIGINAL",
        "PRIMARY",
        "P",
        "MB",
        "ND",
        "MOSAIC"
],
      "ImagedNucleus": "1H",
      "ImagingFrequency": 123.258969,
      "InPlanePhaseEncodingDirection": "COL",
      "LargestImagePixelValue": 4095,
      "MRAcquisitionType": "2D",
      "MagneticFieldStrength": 3.0,
      "Manufacturer": "SIEMENS",
      "ManufacturerModelName": "Prisma_fit",
      "Modality": "MR",
      "NumberOfAverages": 1.0,
      "NumberOfPhaseEncodingSteps": 104,
      "PercentPhaseFieldOfView": 100.0,
      "PercentSampling": 100.0,
      "PerformedProcedureStepStartTime": "104343.419000",
      "PhotometricInterpretation": "MONOCHROME2",
      "PixelBandwidth": 2290.0,
      "PixelRepresentation": 0,
      "PixelSpacing": [2.0, 2.0],
      "ProtocolName": "func_task-things_run-6",
      "RepetitionTime": 1490.0,
      "RescaleIntercept": -4096.0,
      "RescaleSlope": 2.0,
      "RescaleType": "US",
      "Rows": 832,
      "SAR": 0.05597092993275,
      "SamplesPerPixel": 1,
      "ScanOptions": "FS",
      "ScanningSequence": "EP",
      "SequenceName": "epfid2d1_104",
      "SequenceVariant": [
        "SK",
        "SS"
],
      "SeriesDescription": "func_task-things_run-6",
      "SeriesNumber": 26,
      "SeriesTime": "113521.173000",
      "SliceLocation": -55.98507308248,
      "SliceThickness": 2.0,
      "SmallestImagePixelValue": 0,
      "SoftwareVersions": "syngo MR E11",
      "SpacingBetweenSlices": 2.0000000372016,
      "SpecificCharacterSet": "ISO_IR 100",
      "StudyID": "1",
      "StudyTime": "104343.357000",
      "TransmitCoilName": "Body",
      "VariableFlipAngleFlag": "N",
      "WindowCenterWidthExplanation": "Algo1",
      "dBdt": 0.0},
    "slices": {}
  },
  "time": {
    "samples": {
      "AcquisitionNumber": [1, 2, 3, 4, 5, 6, 7, 8, 9, 10, 11, 12, 13, 14, 15, 16, 17, 18, 19, 20, 21, 22, 23, 24, 25, 26, 27, 28, 29, 30, 31, 32, 33, 34, 35, 36, 37, 38, 39, 40, 41, 42, 43, 44, 45, 46, 47, 48, 49, 50, 51, 52, 53, 54, 55, 56, 57, 58, 59, 60, 61, 62, 63, 64, 65, 66, 67, 68, 69, 70, 71, 72, 73, 74, 75, 76, 77, 78, 79, 80, 81, 82, 83, 84, 85, 86, 87, 88, 89, 90, 91, 92, 93, 94, 95, 96, 97, 98, 99, 100, 101, 102, 103, 104, 105, 106, 107, 108, 109, 110, 111, 112, 113, 114, 115, 116, 117, 118, 119, 120, 121, 122, 123, 124, 125, 126, 127, 128, 129, 130, 131, 132, 133, 134, 135, 136, 137, 138, 139, 140, 141, 142, 143, 144, 145, 146, 147, 148, 149, 150, 151, 152, 153, 154, 155, 156, 157, 158, 159, 160, 161, 162, 163, 164, 165, 166, 167, 168, 169, 170, 171, 172, 173, 174, 175, 176, 177, 178, 179, 180, 181, 182, 183, 184, 185, 186, 187, 188, 189, 190],
      "AcquisitionTime": ["113358.087500", "113359.577500", "113401.067500", "113402.557500", "113404.047500", "113405.537500", "113407.027500", "113408.517500", "113410.007500", "113411.497500", "113412.987500", "113414.477500", "113415.967500", "113417.457500", "113418.947500", "113420.437500", "113421.927500", "113423.417500", "113424.907500", "113426.397500", "113427.887500", "113429.377500", "113430.867500", "113432.357500", "113433.847500", "113435.337500", "113436.827500", "113438.317500", "113439.807500", "113441.297500", "113442.787500", "113444.277500", "113445.767500", "113447.257500", "113448.747500", "113450.237500", "113451.727500", "113453.217500", "113454.707500", "113456.197500", "113457.687500", "113459.177500", "113500.667500", "113502.157500", "113503.647500", "113505.137500", "113506.627500", "113508.117500", "113509.607500", "113511.097500", "113512.587500", "113514.077500", "113515.567500", "113517.057500", "113518.547500", "113520.037500", "113521.527500", "113523.017500", "113524.507500", "113525.997500", "113527.487500", "113528.977500", "113530.467500", "113531.957500", "113533.447500", "113534.937500", "113536.427500", "113537.917500", "113539.407500", "113540.897500", "113542.387500", "113543.877500", "113545.367500", "113546.857500", "113548.347500", "113549.837500", "113551.327500", "113552.817500", "113554.307500", "113555.797500", "113557.287500", "113558.777500", "113600.267500", "113601.757500", "113603.247500", "113604.737500", "113606.227500", "113607.717500", "113609.207500", "113610.697500", "113612.187500", "113613.677500", "113615.167500", "113616.657500", "113618.147500", "113619.637500", "113621.127500", "113622.617500", "113624.107500", "113625.597500", "113627.087500", "113628.577500", "113630.067500", "113631.557500", "113633.047500", "113634.537500", "113636.027500", "113637.517500", "113639.007500", "113640.497500", "113641.987500", "113643.477500", "113644.967500", "113646.457500", "113647.947500", "113649.437500", "113650.927500", "113652.417500", "113653.907500", "113655.397500", "113656.887500", "113658.377500", "113659.867500", "113701.357500", "113702.847500", "113704.337500", "113705.827500", "113707.317500", "113708.807500", "113710.297500", "113711.787500", "113713.277500", "113714.767500", "113716.257500", "113717.747500", "113719.237500", "113720.727500", "113722.217500", "113723.707500", "113725.197500", "113726.687500", "113728.177500", "113729.667500", "113731.157500", "113732.647500", "113734.137500", "113735.627500", "113737.117500", "113738.607500", "113740.097500", "113741.587500", "113743.077500", "113744.567500", "113746.057500", "113747.547500", "113749.037500", "113750.527500", "113752.017500", "113753.507500", "113754.997500", "113756.487500", "113757.977500", "113759.467500", "113800.957500", "113802.447500", "113803.937500", "113805.427500", "113806.917500", "113808.407500", "113809.897500", "113811.387500", "113812.877500", "113814.367500", "113815.857500", "113817.347500", "113818.837500", "113820.327500", "113821.817500", "113823.307500", "113824.797500", "113826.287500", "113827.777500", "113829.267500", "113830.757500", "113832.247500", "113833.737500", "113835.227500", "113836.717500", "113838.207500", "113839.697500"],
      "ContentTime": ["113521.175000", "113521.178000", "113521.181000", "113521.183000", "113521.186000", "113521.188000", "113521.191000", "113521.193000", "113521.196000", "113521.198000", "113521.201000", "113521.203000", "113521.206000", "113521.209000", "113521.211000", "113521.214000", "113521.216000", "113521.219000", "113521.221000", "113521.224000", "113521.226000", "113521.229000", "113521.233000", "113521.236000", "113521.238000", "113521.241000", "113521.244000", "113521.246000", "113541.104000", "113541.107000", "113541.109000", "113541.112000", "113541.114000", "113541.117000", "113541.119000", "113541.122000", "113541.124000", "113541.127000", "113541.129000", "113541.132000", "113541.135000", "113541.137000", "113541.140000", "113541.142000", "113541.145000", "113541.147000", "113541.150000", "113541.152000", "113541.155000", "113601.084000", "113601.087000", "113601.089000", "113601.092000", "113601.094000", "113601.097000", "113601.099000", "113601.102000", "113601.104000", "113601.107000", "113601.110000", "113601.112000", "113601.115000", "113601.117000", "113601.120000", "113601.122000", "113601.125000", "113601.127000", "113601.131000", "113601.134000", "113621.078000", "113621.081000", "113621.084000", "113621.086000", "113621.089000", "113621.091000", "113621.094000", "113621.096000", "113621.099000", "113621.101000", "113621.104000", "113621.107000", "113621.109000", "113621.112000", "113621.124000", "113621.126000", "113621.129000", "113621.131000", "113621.134000", "113621.137000", "113701.144000", "113701.147000", "113701.149000", "113701.152000", "113701.154000", "113701.157000", "113701.160000", "113701.162000", "113701.165000", "113701.167000", "113701.170000", "113701.172000", "113701.175000", "113701.178000", "113701.180000", "113701.183000", "113701.185000", "113701.188000", "113701.190000", "113701.193000", "113701.195000", "113701.198000", "113701.201000", "113701.203000", "113701.206000", "113701.208000", "113701.211000", "113701.213000", "113701.216000", "113701.218000", "113701.221000", "113701.224000", "113701.226000", "113741.117000", "113741.120000", "113741.123000", "113741.125000", "113741.128000", "113741.131000", "113741.133000", "113741.136000", "113741.139000", "113741.141000", "113741.144000", "113741.146000", "113741.149000", "113741.151000", "113741.154000", "113741.156000", "113741.159000", "113741.162000", "113741.164000", "113741.167000", "113741.169000", "113741.172000", "113741.294000", "113741.296000", "113741.299000", "113741.301000", "113801.046000", "113801.049000", "113801.052000", "113801.054000", "113801.057000", "113801.059000", "113801.062000", "113801.064000", "113801.067000", "113801.069000", "113801.072000", "113801.074000", "113801.077000", "113801.079000", "113841.112000", "113841.115000", "113841.117000", "113841.120000", "113841.122000", "113841.125000", "113841.127000", "113841.130000", "113841.132000", "113841.135000", "113841.137000", "113841.140000", "113841.142000", "113841.145000", "113841.147000", "113841.150000", "113841.152000", "113841.155000", "113841.158000", "113841.160000", "113841.163000", "113841.165000", "113841.168000", "113841.170000", "113841.173000", "113841.218000", "113841.220000", "113842.282000"],
      "InstanceCreationTime": ["113521.175000", "113521.178000", "113521.181000", "113521.183000", "113521.186000", "113521.188000", "113521.191000", "113521.193000", "113521.196000", "113521.198000", "113521.201000", "113521.203000", "113521.206000", "113521.209000", "113521.211000", "113521.214000", "113521.216000", "113521.219000", "113521.221000", "113521.224000", "113521.226000", "113521.229000", "113521.233000", "113521.236000", "113521.238000", "113521.241000", "113521.244000", "113521.246000", "113541.104000", "113541.107000", "113541.109000", "113541.112000", "113541.114000", "113541.117000", "113541.119000", "113541.122000", "113541.124000", "113541.127000", "113541.129000", "113541.132000", "113541.135000", "113541.137000", "113541.140000", "113541.142000", "113541.145000", "113541.147000", "113541.150000", "113541.152000", "113541.155000", "113601.084000", "113601.087000", "113601.089000", "113601.092000", "113601.094000", "113601.097000", "113601.099000", "113601.102000", "113601.104000", "113601.107000", "113601.110000", "113601.112000", "113601.115000", "113601.117000", "113601.120000", "113601.122000", "113601.125000", "113601.127000", "113601.131000", "113601.134000", "113621.078000", "113621.081000", "113621.084000", "113621.086000", "113621.089000", "113621.091000", "113621.094000", "113621.096000", "113621.099000", "113621.101000", "113621.104000", "113621.107000", "113621.109000", "113621.112000", "113621.124000", "113621.126000", "113621.129000", "113621.131000", "113621.134000", "113621.137000", "113701.144000", "113701.147000", "113701.149000", "113701.152000", "113701.154000", "113701.157000", "113701.160000", "113701.162000", "113701.165000", "113701.167000", "113701.170000", "113701.172000", "113701.175000", "113701.178000", "113701.180000", "113701.183000", "113701.185000", "113701.188000", "113701.190000", "113701.193000", "113701.195000", "113701.198000", "113701.201000", "113701.203000", "113701.206000", "113701.208000", "113701.211000", "113701.213000", "113701.216000", "113701.218000", "113701.221000", "113701.224000", "113701.226000", "113741.117000", "113741.120000", "113741.123000", "113741.125000", "113741.128000", "113741.131000", "113741.133000", "113741.136000", "113741.139000", "113741.141000", "113741.144000", "113741.146000", "113741.149000", "113741.151000", "113741.154000", "113741.156000", "113741.159000", "113741.162000", "113741.164000", "113741.167000", "113741.169000", "113741.172000", "113741.294000", "113741.296000", "113741.299000", "113741.301000", "113801.046000", "113801.049000", "113801.052000", "113801.054000", "113801.057000", "113801.059000", "113801.062000", "113801.064000", "113801.067000", "113801.069000", "113801.072000", "113801.074000", "113801.077000", "113801.079000", "113841.112000", "113841.115000", "113841.117000", "113841.120000", "113841.122000", "113841.125000", "113841.127000", "113841.130000", "113841.132000", "113841.135000", "113841.137000", "113841.140000", "113841.142000", "113841.145000", "113841.147000", "113841.150000", "113841.152000", "113841.155000", "113841.158000", "113841.160000", "113841.163000", "113841.165000", "113841.168000", "113841.170000", "113841.173000", "113841.218000", "113841.220000", "113842.282000"],
      "InstanceNumber": [1, 2, 3, 4, 5, 6, 7, 8, 9, 10, 11, 12, 13, 14, 15, 16, 17, 18, 19, 20, 21, 22, 23, 24, 25, 26, 27, 28, 29, 30, 31, 32, 33, 34, 35, 36, 37, 38, 39, 40, 41, 42, 43, 44, 45, 46, 47, 48, 49, 50, 51, 52, 53, 54, 55, 56, 57, 58, 59, 60, 61, 62, 63, 64, 65, 66, 67, 68, 69, 70, 71, 72, 73, 74, 75, 76, 77, 78, 79, 80, 81, 82, 83, 84, 85, 86, 87, 88, 89, 90, 91, 92, 93, 94, 95, 96, 97, 98, 99, 100, 101, 102, 103, 104, 105, 106, 107, 108, 109, 110, 111, 112, 113, 114, 115, 116, 117, 118, 119, 120, 121, 122, 123, 124, 125, 126, 127, 128, 129, 130, 131, 132, 133, 134, 135, 136, 137, 138, 139, 140, 141, 142, 143, 144, 145, 146, 147, 148, 149, 150, 151, 152, 153, 154, 155, 156, 157, 158, 159, 160, 161, 162, 163, 164, 165, 166, 167, 168, 169, 170, 171, 172, 173, 174, 175, 176, 177, 178, 179, 180, 181, 182, 183, 184, 185, 186, 187, 188, 189, 190],
      "WindowCenter": [4730.0, 4726.0, 4704.0, 4728.0, 4700.0, 4726.0, 4730.0, 4702.0, 4724.0, 4702.0, 4726.0, 4704.0, 4732.0, 4734.0, 4728.0, 4754.0, 4822.0, 4860.0, 4884.0, 4730.0, 4700.0, 4706.0, 4718.0, 4714.0, 4710.0, 4730.0, 4730.0, 4706.0, 4756.0, 4856.0, 4916.0, 4882.0, 4756.0, 4726.0, 4710.0, 4750.0, 4722.0, 4716.0, 4706.0, 4728.0, 4730.0, 4692.0, 4690.0, 4702.0, 4856.0, 4912.0, 4824.0, 4790.0, 4728.0, 4712.0, 4712.0, 4724.0, 4714.0, 4706.0, 4726.0, 4792.0, 4818.0, 4818.0, 4706.0, 4716.0, 4706.0, 4712.0, 4704.0, 4730.0, 4726.0, 4758.0, 4754.0, 4726.0, 4756.0, 4710.0, 4736.0, 4730.0, 4706.0, 4850.0, 4912.0, 4886.0, 4760.0, 4702.0, 4712.0, 4740.0, 4712.0, 4706.0, 4706.0, 4706.0, 4760.0, 4728.0, 4786.0, 4726.0, 4730.0, 4706.0, 4726.0, 4730.0, 4732.0, 4714.0, 4706.0, 4712.0, 4726.0, 4702.0, 4758.0, 4726.0, 4762.0, 4726.0, 4730.0, 4704.0, 4728.0, 4704.0, 4706.0, 4704.0, 4732.0, 4760.0, 4760.0, 4702.0, 4706.0, 4706.0, 4706.0, 4708.0, 4728.0, 4704.0, 4758.0, 4756.0, 4784.0, 4726.0, 4732.0, 4706.0, 4728.0, 4710.0, 4730.0, 4706.0, 4732.0, 4730.0, 4730.0, 4726.0, 4756.0, 4732.0, 4726.0, 4728.0, 4710.0, 4730.0, 4704.0, 4726.0, 4730.0, 4734.0, 4724.0, 4736.0, 4704.0, 4848.0, 4882.0, 4884.0, 4762.0, 4754.0, 4710.0, 4714.0, 4714.0, 4716.0, 4706.0, 4704.0, 4760.0, 4756.0, 4796.0, 4756.0, 4732.0, 4704.0, 4706.0, 4712.0, 4708.0, 4726.0, 4714.0, 4704.0, 4726.0, 4756.0, 4792.0, 4790.0, 4794.0, 4764.0, 4714.0, 4724.0, 4710.0, 4712.0, 4704.0, 4702.0, 4762.0, 4730.0, 4790.0, 4728.0, 4702.0, 4726.0, 4704.0, 4728.0, 4702.0, 4730.0],
      "WindowWidth": [18526.0, 18520.0, 18490.0, 18524.0, 18484.0, 18518.0, 18524.0, 18486.0, 18516.0, 18488.0, 18516.0, 18486.0, 18526.0, 18500.0, 18498.0, 18566.0, 18664.0, 18710.0, 18740.0, 18534.0, 18484.0, 18490.0, 18496.0, 18498.0, 18490.0, 18504.0, 18500.0, 18482.0, 18582.0, 18710.0, 18776.0, 18738.0, 18574.0, 18520.0, 18492.0, 18536.0, 18500.0, 18496.0, 18486.0, 18522.0, 18522.0, 18460.0, 18454.0, 18484.0, 18712.0, 18772.0, 18670.0, 18618.0, 18522.0, 18492.0, 18496.0, 18508.0, 18490.0, 18488.0, 18520.0, 18616.0, 18660.0, 18654.0, 18486.0, 18490.0, 18488.0, 18492.0, 18486.0, 18530.0, 18524.0, 18574.0, 18568.0, 18524.0, 18570.0, 18490.0, 18504.0, 18496.0, 18484.0, 18700.0, 18776.0, 18744.0, 18576.0, 18488.0, 18492.0, 18526.0, 18492.0, 18492.0, 18488.0, 18486.0, 18570.0, 18526.0, 18610.0, 18520.0, 18530.0, 18488.0, 18518.0, 18526.0, 18530.0, 18492.0, 18484.0, 18494.0, 18518.0, 18490.0, 18572.0, 18526.0, 18576.0, 18520.0, 18528.0, 18486.0, 18518.0, 18484.0, 18490.0, 18486.0, 18528.0, 18572.0, 18566.0, 18488.0, 18490.0, 18486.0, 18488.0, 18486.0, 18520.0, 18490.0, 18570.0, 18566.0, 18604.0, 18516.0, 18530.0, 18488.0, 18520.0, 18492.0, 18522.0, 18484.0, 18528.0, 18518.0, 18522.0, 18520.0, 18562.0, 18528.0, 18522.0, 18520.0, 18490.0, 18520.0, 18484.0, 18522.0, 18520.0, 18530.0, 18496.0, 18500.0, 18494.0, 18700.0, 18742.0, 18738.0, 18580.0, 18562.0, 18494.0, 18490.0, 18498.0, 18496.0, 18492.0, 18486.0, 18564.0, 18562.0, 18620.0, 18566.0, 18526.0, 18484.0, 18490.0, 18490.0, 18488.0, 18516.0, 18490.0, 18488.0, 18528.0, 18566.0, 18616.0, 18614.0, 18622.0, 18574.0, 18492.0, 18502.0, 18490.0, 18488.0, 18486.0, 18484.0, 18574.0, 18528.0, 18618.0, 18524.0, 18482.0, 18524.0, 18484.0, 18526.0, 18486.0, 18526.0]
    },
    "slices": {}
  }
}