{
  "AcquisitionMatrixPE": 104,
  "AcquisitionNumber": 1,
  "AcquisitionTime": "13:48:4.802500",
  "BandwidthPerPixelPhaseEncode": 17.17,
  "BaseResolution": 104,
  "BodyPartExamined": "BRAIN",
  "CoilString": "HC1-7;NC1_2",
  "ConsistencyInfo": "N4_VE11C_LATEST_20160120",
  "ConversionSoftware": "dcm2niix",
  "ConversionSoftwareVersion": "v1.0.20190902",
  "DerivedVendorReportedEchoSpacing": 0.000560011,
  "DeviceSerialNumber": "167006",
  "DwellTime": 2.1e-06,
  "EchoTime": 0.037,
  "EchoTrainLength": 104,
  "EffectiveEchoSpacing": 0.000560011,
  "FlipAngle": 52,
  "ImageComments": "Unaliased_MB4_PE3_LB",
  "ImageOrientationPatientDICOM": [0.999848, 0.00300941, 0.0171708, 0.00226854, 0.954149, -0.299323],
  "ImageType": [
    "ORIGINAL",
    "PRIMARY",
    "P",
    "MB",
    "ND",
    "MOSAIC"
],
  "ImagingFrequency": 123.259,
  "InPlanePhaseEncodingDirectionDICOM": "COL",
  "InstitutionAddress": "Chemin_Queen-Mary_4565_Montreal_District_CA_H3W_1W5",
  "InstitutionName": "IUGM",
  "InstitutionalDepartmentName": "Department",
  "MRAcquisitionType": "2D",
  "MagneticFieldStrength": 3,
  "Manufacturer": "Siemens",
  "ManufacturersModelName": "Prisma_fit",
  "Modality": "MR",
  "MultibandAccelerationFactor": 4,
  "PartialFourier": 1,
  "PatientPosition": "HFS",
  "PercentPhaseFOV": 100,
  "PhaseEncodingDirection": "j",
  "PhaseEncodingSteps": 104,
  "PhaseResolution": 1,
  "PixelBandwidth": 2290,
  "ProcedureStepDescription": "memory_things",
  "ProtocolName": "func_task-things_run-4",
  "PulseSequenceDetails": "%CustomerSeq%_cmrr_mbep2d_bold",
  "ReceiveCoilActiveElements": "HC1-7;NC1,2",
  "ReceiveCoilName": "HeadNeck_64",
  "ReconMatrixPE": 104,
  "RepetitionTime": 1.49,
  "SAR": 0.0470987,
  "ScanOptions": "FS",
  "ScanningSequence": "EP",
  "SequenceName": "epfid2d1_104",
  "SequenceVariant": "SK_SS",
  "SeriesDescription": "func_task-things_run-4",
  "SeriesNumber": 20,
  "ShimSetting": [628, -7197, -8791, 716, 11, 56, 8, -9],
  "SliceThickness": 2,
  "SliceTiming": [0, 0.785, 0.0975, 0.8825, 0.195, 0.98, 0.295, 1.0775, 0.3925, 1.175, 0.49, 1.2725, 0.5875, 1.3725, 0.685, 0, 0.785, 0.0975, 0.8825, 0.195, 0.98, 0.295, 1.0775, 0.3925, 1.175, 0.49, 1.2725, 0.5875, 1.3725, 0.685, 0, 0.785, 0.0975, 0.8825, 0.195, 0.98, 0.295, 1.0775, 0.3925, 1.175, 0.49, 1.2725, 0.5875, 1.3725, 0.685, 0, 0.785, 0.0975, 0.8825, 0.195, 0.98, 0.295, 1.0775, 0.3925, 1.175, 0.49, 1.2725, 0.5875, 1.3725, 0.685],
  "SoftwareVersions": "syngo_MR_E11",
  "SpacingBetweenSlices": 2,
  "StationName": "MRC35049",
  "TaskName": "things",
  "TotalReadoutTime": 0.0576811,
  "TxRefAmp": 230.019,
  "WipMemBlock": "863706d6-1f7e-4118-8c40-ba38e128e675||Sequence: R016 ve11c/master r/e634e98; Dec 19 2017 11:00:25 by eja",
  "dcmmeta_affine": [
    [-1.999696135520935, 0.004537072964012623, 0.034568510949611664, 108.13180541992188],
    [-0.006018810905516148, 1.9082980155944824, -0.598633885383606, -71.47090148925781],
    [0.03434153273701668, 0.5986469388008118, 1.9079943895339966, -67.8319091796875],
    [0.0, 0.0, 0.0, 1.0]
],
  "dcmmeta_reorient_transform": [
    [0.0, -1.0, 0.0, 103.0],
    [1.0, 0.0, 0.0, 0.0],
    [0.0, 0.0, 1.0, 0.0],
    [0.0, 0.0, 0.0, 1.0]
],
  "dcmmeta_shape": [104, 104, 60, 190],
  "dcmmeta_slice_dim": 2,
  "dcmmeta_version": 0.6,
  "global": {
    "const": {
      "AcquisitionMatrix": [104, 0, 0, 104],
      "AngioFlag": "N",
      "BitsAllocated": 16,
      "BitsStored": 16,
      "BodyPartExamined": "BRAIN",
      "Columns": 832,
      "EchoNumbers": 1,
      "EchoTime": 37.0,
      "EchoTrainLength": 104,
      "FlipAngle": 52.0,
      "HighBit": 15,
      "ImageOrientationPatient": [0.99984804260071, 0.00300940554652, 0.01717076544002, 0.00226853637472, 0.95414900247797, -0.2993234618486],
      "ImagePositionPatient": [-838.13999437131, -821.89511356109, 199.23588380498],
      "ImageType": [
        "ORIGINAL",
        "PRIMARY",
        "P",
        "MB",
        "ND",
        "MOSAIC"
],
      "ImagedNucleus": "1H",
      "ImagingFrequency": 123.259173,
      "InPlanePhaseEncodingDirection": "COL",
      "LargestImagePixelValue": 4095,
      "MRAcquisitionType": "2D",
      "MagneticFieldStrength": 3.0,
      "Manufacturer": "SIEMENS",
      "ManufacturerModelName": "Prisma_fit",
      "Modality": "MR",
      "NumberOfAverages": 1.0,
      "NumberOfPhaseEncodingSteps": 104,
      "PercentPhaseFieldOfView": 100.0,
      "PercentSampling": 100.0,
      "PerformedProcedureStepStartTime": "131323.231000",
      "PhotometricInterpretation": "MONOCHROME2",
      "PixelBandwidth": 2290.0,
      "PixelRepresentation": 0,
      "PixelSpacing": [2.0, 2.0],
      "ProtocolName": "func_task-things_run-4",
      "RepetitionTime": 1490.0,
      "RescaleIntercept": -4096.0,
      "RescaleSlope": 2.0,
      "RescaleType": "US",
      "Rows": 832,
      "SAR": 0.04709872859495,
      "SamplesPerPixel": 1,
      "ScanOptions": "FS",
      "ScanningSequence": "EP",
      "SequenceName": "epfid2d1_104",
      "SequenceVariant": [
        "SK",
        "SS"
],
      "SeriesDescription": "func_task-things_run-4",
      "SeriesNumber": 20,
      "SeriesTime": "134929.534000",
      "SliceLocation": -41.450024829071,
      "SliceThickness": 2.0,
      "SmallestImagePixelValue": 0,
      "SoftwareVersions": "syngo MR E11",
      "SpacingBetweenSlices": 2.0000000435742,
      "SpecificCharacterSet": "ISO_IR 100",
      "StudyID": "1",
      "StudyTime": "131323.050000",
      "TransmitCoilName": "Body",
      "VariableFlipAngleFlag": "N",
      "WindowCenterWidthExplanation": "Algo1",
      "dBdt": 0.0},
    "slices": {}
  },
  "time": {
    "samples": {
      "AcquisitionNumber": [1, 2, 3, 4, 5, 6, 7, 8, 9, 10, 11, 12, 13, 14, 15, 16, 17, 18, 19, 20, 21, 22, 23, 24, 25, 26, 27, 28, 29, 30, 31, 32, 33, 34, 35, 36, 37, 38, 39, 40, 41, 42, 43, 44, 45, 46, 47, 48, 49, 50, 51, 52, 53, 54, 55, 56, 57, 58, 59, 60, 61, 62, 63, 64, 65, 66, 67, 68, 69, 70, 71, 72, 73, 74, 75, 76, 77, 78, 79, 80, 81, 82, 83, 84, 85, 86, 87, 88, 89, 90, 91, 92, 93, 94, 95, 96, 97, 98, 99, 100, 101, 102, 103, 104, 105, 106, 107, 108, 109, 110, 111, 112, 113, 114, 115, 116, 117, 118, 119, 120, 121, 122, 123, 124, 125, 126, 127, 128, 129, 130, 131, 132, 133, 134, 135, 136, 137, 138, 139, 140, 141, 142, 143, 144, 145, 146, 147, 148, 149, 150, 151, 152, 153, 154, 155, 156, 157, 158, 159, 160, 161, 162, 163, 164, 165, 166, 167, 168, 169, 170, 171, 172, 173, 174, 175, 176, 177, 178, 179, 180, 181, 182, 183, 184, 185, 186, 187, 188, 189, 190],
      "AcquisitionTime": ["134804.802500", "134806.292500", "134807.782500", "134809.272500", "134810.762500", "134812.252500", "134813.742500", "134815.232500", "134816.722500", "134818.212500", "134819.702500", "134821.192500", "134822.682500", "134824.172500", "134825.662500", "134827.152500", "134828.642500", "134830.132500", "134831.622500", "134833.112500", "134834.602500", "134836.092500", "134837.582500", "134839.072500", "134840.562500", "134842.052500", "134843.542500", "134845.032500", "134846.522500", "134848.012500", "134849.502500", "134850.992500", "134852.482500", "134853.972500", "134855.462500", "134856.952500", "134858.442500", "134859.932500", "134901.422500", "134902.912500", "134904.402500", "134905.892500", "134907.382500", "134908.872500", "134910.362500", "134911.852500", "134913.342500", "134914.832500", "134916.322500", "134917.812500", "134919.302500", "134920.792500", "134922.282500", "134923.772500", "134925.262500", "134926.752500", "134928.242500", "134929.732500", "134931.222500", "134932.712500", "134934.202500", "134935.692500", "134937.182500", "134938.672500", "134940.162500", "134941.652500", "134943.142500", "134944.632500", "134946.122500", "134947.612500", "134949.102500", "134950.592500", "134952.082500", "134953.572500", "134955.062500", "134956.552500", "134958.042500", "134959.532500", "135001.022500", "135002.512500", "135004.002500", "135005.492500", "135006.982500", "135008.472500", "135009.962500", "135011.452500", "135012.942500", "135014.432500", "135015.922500", "135017.412500", "135018.902500", "135020.392500", "135021.882500", "135023.372500", "135024.862500", "135026.352500", "135027.842500", "135029.332500", "135030.822500", "135032.312500", "135033.802500", "135035.292500", "135036.782500", "135038.272500", "135039.762500", "135041.252500", "135042.742500", "135044.232500", "135045.722500", "135047.212500", "135048.702500", "135050.192500", "135051.682500", "135053.172500", "135054.662500", "135056.152500", "135057.642500", "135059.132500", "135100.622500", "135102.112500", "135103.602500", "135105.092500", "135106.582500", "135108.072500", "135109.562500", "135111.052500", "135112.542500", "135114.032500", "135115.522500", "135117.012500", "135118.502500", "135119.992500", "135121.482500", "135122.972500", "135124.462500", "135125.952500", "135127.442500", "135128.932500", "135130.422500", "135131.912500", "135133.402500", "135134.892500", "135136.382500", "135137.872500", "135139.362500", "135140.852500", "135142.342500", "135143.832500", "135145.322500", "135146.812500", "135148.302500", "135149.792500", "135151.282500", "135152.772500", "135154.262500", "135155.752500", "135157.242500", "135158.732500", "135200.222500", "135201.712500", "135203.202500", "135204.692500", "135206.182500", "135207.672500", "135209.162500", "135210.652500", "135212.142500", "135213.632500", "135215.122500", "135216.612500", "135218.102500", "135219.592500", "135221.082500", "135222.572500", "135224.062500", "135225.552500", "135227.042500", "135228.532500", "135230.022500", "135231.512500", "135233.002500", "135234.492500", "135235.982500", "135237.472500", "135238.962500", "135240.452500", "135241.942500", "135243.432500", "135244.922500", "135246.412500"],
      "ContentTime": ["134929.536000", "134929.539000", "134929.541000", "134929.544000", "134929.546000", "134929.549000", "134929.551000", "134929.558000", "134929.561000", "134929.563000", "134929.566000", "134929.568000", "134929.571000", "134929.573000", "134929.576000", "134929.578000", "134929.581000", "134929.583000", "134929.586000", "134929.588000", "134929.590000", "134929.593000", "134929.595000", "134929.598000", "134929.600000", "134929.603000", "134929.605000", "134929.607000", "134929.615000", "134929.617000", "134949.466000", "134949.469000", "134949.471000", "134949.473000", "134949.476000", "134949.478000", "134949.481000", "134949.483000", "134949.486000", "134949.488000", "134949.491000", "134949.493000", "134949.498000", "134949.501000", "134949.504000", "134949.506000", "134949.509000", "134949.511000", "134949.514000", "134949.516000", "135009.465000", "135009.467000", "135009.470000", "135009.472000", "135009.475000", "135009.477000", "135009.480000", "135009.483000", "135009.485000", "135009.488000", "135009.490000", "135009.493000", "135009.495000", "135009.498000", "135009.500000", "135009.503000", "135009.505000", "135009.508000", "135009.510000", "135009.513000", "135029.464000", "135029.466000", "135029.469000", "135029.471000", "135029.474000", "135029.476000", "135029.479000", "135029.481000", "135029.484000", "135029.486000", "135029.489000", "135029.491000", "135029.494000", "135029.496000", "135029.498000", "135029.501000", "135029.503000", "135029.506000", "135029.508000", "135029.511000", "135109.512000", "135109.515000", "135109.518000", "135109.520000", "135109.523000", "135109.525000", "135109.528000", "135109.530000", "135109.533000", "135109.535000", "135109.538000", "135109.540000", "135109.543000", "135109.545000", "135109.548000", "135109.550000", "135109.553000", "135109.555000", "135109.558000", "135109.560000", "135109.563000", "135109.566000", "135109.568000", "135109.571000", "135109.573000", "135109.576000", "135109.578000", "135109.581000", "135109.583000", "135109.586000", "135109.588000", "135109.591000", "135109.593000", "135149.485000", "135149.488000", "135149.490000", "135149.493000", "135149.511000", "135149.514000", "135149.516000", "135149.518000", "135149.521000", "135149.524000", "135149.526000", "135149.528000", "135149.531000", "135149.534000", "135149.536000", "135149.538000", "135149.541000", "135149.544000", "135149.546000", "135149.549000", "135149.551000", "135149.554000", "135149.556000", "135149.559000", "135149.561000", "135149.564000", "135229.494000", "135229.496000", "135229.499000", "135229.501000", "135229.504000", "135229.507000", "135229.509000", "135229.511000", "135229.514000", "135229.517000", "135229.519000", "135229.521000", "135229.524000", "135229.527000", "135229.529000", "135229.531000", "135229.534000", "135229.537000", "135229.539000", "135229.541000", "135229.544000", "135229.547000", "135229.549000", "135229.552000", "135229.554000", "135229.557000", "135229.560000", "135249.093000", "135249.096000", "135249.098000", "135249.111000", "135249.113000", "135249.116000", "135249.118000", "135249.122000", "135249.124000", "135249.127000", "135249.129000", "135249.132000", "135249.135000", "135249.137000"],
      "InstanceCreationTime": ["134929.536000", "134929.539000", "134929.541000", "134929.544000", "134929.546000", "134929.549000", "134929.551000", "134929.558000", "134929.561000", "134929.563000", "134929.566000", "134929.568000", "134929.571000", "134929.573000", "134929.576000", "134929.578000", "134929.581000", "134929.583000", "134929.586000", "134929.588000", "134929.590000", "134929.593000", "134929.595000", "134929.598000", "134929.600000", "134929.603000", "134929.605000", "134929.607000", "134929.615000", "134929.617000", "134949.466000", "134949.469000", "134949.471000", "134949.473000", "134949.476000", "134949.478000", "134949.481000", "134949.483000", "134949.486000", "134949.488000", "134949.491000", "134949.493000", "134949.498000", "134949.501000", "134949.504000", "134949.506000", "134949.509000", "134949.511000", "134949.514000", "134949.516000", "135009.465000", "135009.467000", "135009.470000", "135009.472000", "135009.475000", "135009.477000", "135009.480000", "135009.483000", "135009.485000", "135009.488000", "135009.490000", "135009.493000", "135009.495000", "135009.498000", "135009.500000", "135009.503000", "135009.505000", "135009.508000", "135009.510000", "135009.513000", "135029.464000", "135029.466000", "135029.469000", "135029.471000", "135029.474000", "135029.476000", "135029.479000", "135029.481000", "135029.484000", "135029.486000", "135029.489000", "135029.491000", "135029.494000", "135029.496000", "135029.498000", "135029.501000", "135029.503000", "135029.506000", "135029.508000", "135029.511000", "135109.512000", "135109.515000", "135109.518000", "135109.520000", "135109.523000", "135109.525000", "135109.528000", "135109.530000", "135109.533000", "135109.535000", "135109.538000", "135109.540000", "135109.543000", "135109.545000", "135109.548000", "135109.550000", "135109.553000", "135109.555000", "135109.558000", "135109.560000", "135109.563000", "135109.566000", "135109.568000", "135109.571000", "135109.573000", "135109.576000", "135109.578000", "135109.581000", "135109.583000", "135109.586000", "135109.588000", "135109.591000", "135109.593000", "135149.485000", "135149.488000", "135149.490000", "135149.493000", "135149.511000", "135149.514000", "135149.516000", "135149.518000", "135149.521000", "135149.524000", "135149.526000", "135149.528000", "135149.531000", "135149.534000", "135149.536000", "135149.538000", "135149.541000", "135149.544000", "135149.546000", "135149.549000", "135149.551000", "135149.554000", "135149.556000", "135149.559000", "135149.561000", "135149.564000", "135229.494000", "135229.496000", "135229.499000", "135229.501000", "135229.504000", "135229.507000", "135229.509000", "135229.511000", "135229.514000", "135229.517000", "135229.519000", "135229.521000", "135229.524000", "135229.527000", "135229.529000", "135229.531000", "135229.534000", "135229.537000", "135229.539000", "135229.541000", "135229.544000", "135229.547000", "135229.549000", "135229.552000", "135229.554000", "135229.557000", "135229.560000", "135249.093000", "135249.096000", "135249.098000", "135249.111000", "135249.113000", "135249.116000", "135249.118000", "135249.122000", "135249.124000", "135249.127000", "135249.129000", "135249.132000", "135249.135000", "135249.137000"],
      "InstanceNumber": [1, 2, 3, 4, 5, 6, 7, 8, 9, 10, 11, 12, 13, 14, 15, 16, 17, 18, 19, 20, 21, 22, 23, 24, 25, 26, 27, 28, 29, 30, 31, 32, 33, 34, 35, 36, 37, 38, 39, 40, 41, 42, 43, 44, 45, 46, 47, 48, 49, 50, 51, 52, 53, 54, 55, 56, 57, 58, 59, 60, 61, 62, 63, 64, 65, 66, 67, 68, 69, 70, 71, 72, 73, 74, 75, 76, 77, 78, 79, 80, 81, 82, 83, 84, 85, 86, 87, 88, 89, 90, 91, 92, 93, 94, 95, 96, 97, 98, 99, 100, 101, 102, 103, 104, 105, 106, 107, 108, 109, 110, 111, 112, 113, 114, 115, 116, 117, 118, 119, 120, 121, 122, 123, 124, 125, 126, 127, 128, 129, 130, 131, 132, 133, 134, 135, 136, 137, 138, 139, 140, 141, 142, 143, 144, 145, 146, 147, 148, 149, 150, 151, 152, 153, 154, 155, 156, 157, 158, 159, 160, 161, 162, 163, 164, 165, 166, 167, 168, 169, 170, 171, 172, 173, 174, 175, 176, 177, 178, 179, 180, 181, 182, 183, 184, 185, 186, 187, 188, 189, 190],
      "WindowCenter": [4800.0, 4798.0, 4796.0, 4800.0, 4798.0, 4798.0, 4796.0, 4798.0, 4794.0, 4796.0, 4798.0, 4802.0, 4798.0, 4798.0, 4800.0, 4802.0, 4796.0, 4800.0, 4802.0, 4798.0, 4800.0, 4796.0, 4798.0, 4798.0, 4796.0, 4800.0, 4798.0, 4798.0, 4798.0, 4798.0, 4802.0, 4798.0, 4796.0, 4802.0, 4798.0, 4800.0, 4796.0, 4798.0, 4800.0, 4800.0, 4798.0, 4800.0, 4796.0, 4802.0, 4796.0, 4798.0, 4798.0, 4796.0, 4796.0, 4796.0, 4802.0, 4796.0, 4798.0, 4800.0, 4800.0, 4800.0, 4796.0, 4798.0, 4800.0, 4800.0, 4800.0, 4800.0, 4800.0, 4798.0, 4798.0, 4800.0, 4796.0, 4804.0, 4796.0, 4798.0, 4798.0, 4798.0, 4796.0, 4798.0, 4796.0, 4802.0, 4798.0, 4798.0, 4796.0, 4800.0, 4800.0, 4798.0, 4798.0, 4800.0, 4800.0, 4798.0, 4798.0, 4796.0, 4802.0, 4796.0, 4800.0, 4798.0, 4802.0, 4796.0, 4796.0, 4798.0, 4802.0, 4798.0, 4800.0, 4798.0, 4800.0, 4800.0, 4802.0, 4798.0, 4802.0, 4772.0, 4800.0, 4798.0, 4800.0, 4798.0, 4800.0, 4798.0, 4802.0, 4798.0, 4798.0, 4796.0, 4802.0, 4802.0, 4800.0, 4800.0, 4798.0, 4798.0, 4800.0, 4796.0, 4800.0, 4796.0, 4802.0, 4798.0, 4800.0, 4796.0, 4802.0, 4800.0, 4798.0, 4800.0, 4800.0, 4796.0, 4798.0, 4796.0, 4802.0, 4798.0, 4802.0, 4794.0, 4828.0, 4804.0, 4794.0, 4768.0, 4792.0, 4794.0, 4800.0, 4802.0, 4802.0, 4796.0, 4802.0, 4802.0, 4802.0, 4798.0, 4798.0, 4794.0, 4800.0, 4798.0, 4800.0, 4798.0, 4800.0, 4800.0, 4802.0, 4802.0, 4798.0, 4798.0, 4798.0, 4798.0, 4800.0, 4798.0, 4796.0, 4800.0, 4802.0, 4802.0, 4800.0, 4798.0, 4798.0, 4798.0, 4798.0, 4800.0, 4800.0, 4798.0, 4798.0, 4802.0, 4800.0, 4800.0, 4804.0, 4798.0],
      "WindowWidth": [18562.0, 18560.0, 18558.0, 18558.0, 18556.0, 18554.0, 18560.0, 18556.0, 18556.0, 18562.0, 18556.0, 18560.0, 18560.0, 18556.0, 18562.0, 18558.0, 18558.0, 18562.0, 18560.0, 18558.0, 18560.0, 18558.0, 18558.0, 18558.0, 18552.0, 18560.0, 18556.0, 18562.0, 18556.0, 18560.0, 18566.0, 18560.0, 18556.0, 18564.0, 18556.0, 18562.0, 18558.0, 18558.0, 18558.0, 18562.0, 18556.0, 18562.0, 18558.0, 18558.0, 18560.0, 18558.0, 18558.0, 18556.0, 18558.0, 18562.0, 18558.0, 18558.0, 18562.0, 18562.0, 18554.0, 18560.0, 18560.0, 18560.0, 18562.0, 18552.0, 18560.0, 18556.0, 18560.0, 18562.0, 18558.0, 18552.0, 18558.0, 18568.0, 18556.0, 18558.0, 18562.0, 18552.0, 18554.0, 18558.0, 18556.0, 18558.0, 18558.0, 18552.0, 18556.0, 18556.0, 18562.0, 18558.0, 18556.0, 18556.0, 18560.0, 18554.0, 18562.0, 18556.0, 18560.0, 18556.0, 18556.0, 18554.0, 18560.0, 18558.0, 18560.0, 18558.0, 18558.0, 18558.0, 18558.0, 18560.0, 18556.0, 18560.0, 18562.0, 18554.0, 18564.0, 18528.0, 18560.0, 18558.0, 18550.0, 18558.0, 18558.0, 18560.0, 18558.0, 18562.0, 18548.0, 18562.0, 18566.0, 18558.0, 18562.0, 18560.0, 18556.0, 18556.0, 18556.0, 18554.0, 18560.0, 18558.0, 18564.0, 18556.0, 18562.0, 18554.0, 18560.0, 18558.0, 18556.0, 18560.0, 18558.0, 18558.0, 18554.0, 18556.0, 18558.0, 18558.0, 18556.0, 18558.0, 18590.0, 18562.0, 18554.0, 18528.0, 18564.0, 18556.0, 18560.0, 18560.0, 18554.0, 18558.0, 18558.0, 18562.0, 18560.0, 18556.0, 18564.0, 18554.0, 18558.0, 18554.0, 18554.0, 18554.0, 18562.0, 18556.0, 18558.0, 18560.0, 18556.0, 18554.0, 18558.0, 18556.0, 18562.0, 18556.0, 18556.0, 18554.0, 18554.0, 18558.0, 18554.0, 18552.0, 18556.0, 18556.0, 18558.0, 18558.0, 18560.0, 18554.0, 18560.0, 18562.0, 18560.0, 18560.0, 18562.0, 18560.0]
    },
    "slices": {}
  }
}