{
  "AcquisitionMatrixPE": 104,
  "AcquisitionNumber": 1,
  "AcquisitionTime": "13:54:22.530000",
  "BandwidthPerPixelPhaseEncode": 17.17,
  "BaseResolution": 104,
  "BodyPartExamined": "BRAIN",
  "CoilString": "HC1-7;NC1_2",
  "ConsistencyInfo": "N4_VE11C_LATEST_20160120",
  "ConversionSoftware": "dcm2niix",
  "ConversionSoftwareVersion": "v1.0.20190902",
  "DerivedVendorReportedEchoSpacing": 0.000560011,
  "DeviceSerialNumber": "167006",
  "DwellTime": 2.1e-06,
  "EchoTime": 0.037,
  "EchoTrainLength": 104,
  "EffectiveEchoSpacing": 0.000560011,
  "FlipAngle": 52,
  "ImageComments": "Unaliased_MB4_PE3_LB",
  "ImageOrientationPatientDICOM": [0.999848, 0.00300941, 0.0171708, 0.00226854, 0.954149, -0.299323],
  "ImageType": [
    "ORIGINAL",
    "PRIMARY",
    "M",
    "MB",
    "ND",
    "MOSAIC"
],
  "ImagingFrequency": 123.259,
  "InPlanePhaseEncodingDirectionDICOM": "COL",
  "InstitutionAddress": "Chemin_Queen-Mary_4565_Montreal_District_CA_H3W_1W5",
  "InstitutionName": "IUGM",
  "InstitutionalDepartmentName": "Department",
  "MRAcquisitionType": "2D",
  "MagneticFieldStrength": 3,
  "Manufacturer": "Siemens",
  "ManufacturersModelName": "Prisma_fit",
  "Modality": "MR",
  "MultibandAccelerationFactor": 4,
  "PartialFourier": 1,
  "PatientPosition": "HFS",
  "PercentPhaseFOV": 100,
  "PhaseEncodingDirection": "j",
  "PhaseEncodingSteps": 104,
  "PhaseResolution": 1,
  "PixelBandwidth": 2290,
  "ProcedureStepDescription": "memory_things",
  "ProtocolName": "func_task-things_run-5",
  "PulseSequenceDetails": "%CustomerSeq%_cmrr_mbep2d_bold",
  "ReceiveCoilActiveElements": "HC1-7;NC1,2",
  "ReceiveCoilName": "HeadNeck_64",
  "ReconMatrixPE": 104,
  "RepetitionTime": 1.49,
  "SAR": 0.0470987,
  "ScanOptions": "FS",
  "ScanningSequence": "EP",
  "SequenceName": "epfid2d1_104",
  "SequenceVariant": "SK_SS",
  "SeriesDescription": "func_task-things_run-5",
  "SeriesNumber": 22,
  "ShimSetting": [628, -7197, -8791, 716, 11, 56, 8, -9],
  "SliceThickness": 2,
  "SliceTiming": [0, 0.785, 0.0975, 0.8825, 0.195, 0.98, 0.295, 1.0775, 0.3925, 1.175, 0.49, 1.2725, 0.5875, 1.3725, 0.685, 0, 0.785, 0.0975, 0.8825, 0.195, 0.98, 0.295, 1.0775, 0.3925, 1.175, 0.49, 1.2725, 0.5875, 1.3725, 0.685, 0, 0.785, 0.0975, 0.8825, 0.195, 0.98, 0.295, 1.0775, 0.3925, 1.175, 0.49, 1.2725, 0.5875, 1.3725, 0.685, 0, 0.785, 0.0975, 0.8825, 0.195, 0.98, 0.295, 1.0775, 0.3925, 1.175, 0.49, 1.2725, 0.5875, 1.3725, 0.685],
  "SoftwareVersions": "syngo_MR_E11",
  "SpacingBetweenSlices": 2,
  "StationName": "MRC35049",
  "TaskName": "things",
  "TotalReadoutTime": 0.0576811,
  "TxRefAmp": 230.019,
  "WipMemBlock": "0567c497-5674-48ec-98b8-95aa770ccee8||Sequence: R016 ve11c/master r/e634e98; Dec 19 2017 11:00:25 by eja",
  "dcmmeta_affine": [
    [-1.999696135520935, 0.004537072964012623, 0.034568510949611664, 108.13180541992188],
    [-0.006018810905516148, 1.9082980155944824, -0.598633885383606, -71.47090148925781],
    [0.03434153273701668, 0.5986469388008118, 1.9079943895339966, -67.8319091796875],
    [0.0, 0.0, 0.0, 1.0]
],
  "dcmmeta_reorient_transform": [
    [0.0, -1.0, 0.0, 103.0],
    [1.0, 0.0, 0.0, 0.0],
    [0.0, 0.0, 1.0, 0.0],
    [0.0, 0.0, 0.0, 1.0]
],
  "dcmmeta_shape": [104, 104, 60, 190],
  "dcmmeta_slice_dim": 2,
  "dcmmeta_version": 0.6,
  "global": {
    "const": {
      "AcquisitionMatrix": [104, 0, 0, 104],
      "AngioFlag": "N",
      "BitsAllocated": 16,
      "BitsStored": 16,
      "BodyPartExamined": "BRAIN",
      "Columns": 832,
      "EchoNumbers": 1,
      "EchoTime": 37.0,
      "EchoTrainLength": 104,
      "FlipAngle": 52.0,
      "HighBit": 15,
      "ImageOrientationPatient": [0.99984804260071, 0.00300940554652, 0.01717076544002, 0.00226853637472, 0.95414900247797, -0.2993234618486],
      "ImagePositionPatient": [-838.13999437131, -821.89511356109, 199.23588380498],
      "ImageType": [
        "ORIGINAL",
        "PRIMARY",
        "M",
        "MB",
        "ND",
        "MOSAIC"
],
      "ImagedNucleus": "1H",
      "ImagingFrequency": 123.259176,
      "InPlanePhaseEncodingDirection": "COL",
      "MRAcquisitionType": "2D",
      "MagneticFieldStrength": 3.0,
      "Manufacturer": "SIEMENS",
      "ManufacturerModelName": "Prisma_fit",
      "Modality": "MR",
      "NumberOfAverages": 1.0,
      "NumberOfPhaseEncodingSteps": 104,
      "PercentPhaseFieldOfView": 100.0,
      "PercentSampling": 100.0,
      "PerformedProcedureStepStartTime": "131323.231000",
      "PhotometricInterpretation": "MONOCHROME2",
      "PixelBandwidth": 2290.0,
      "PixelRepresentation": 0,
      "PixelSpacing": [2.0, 2.0],
      "ProtocolName": "func_task-things_run-5",
      "RepetitionTime": 1490.0,
      "Rows": 832,
      "SAR": 0.04709872859495,
      "SamplesPerPixel": 1,
      "ScanOptions": "FS",
      "ScanningSequence": "EP",
      "SequenceName": "epfid2d1_104",
      "SequenceVariant": [
        "SK",
        "SS"
],
      "SeriesDescription": "func_task-things_run-5",
      "SeriesNumber": 22,
      "SeriesTime": "135543.268000",
      "SliceLocation": -41.450024829071,
      "SliceThickness": 2.0,
      "SmallestImagePixelValue": 0,
      "SoftwareVersions": "syngo MR E11",
      "SpacingBetweenSlices": 2.0000000435742,
      "SpecificCharacterSet": "ISO_IR 100",
      "StudyID": "1",
      "StudyTime": "131323.050000",
      "TransmitCoilName": "Body",
      "VariableFlipAngleFlag": "N",
      "WindowCenterWidthExplanation": "Algo1",
      "dBdt": 0.0},
    "slices": {}
  },
  "time": {
    "samples": {
      "AcquisitionNumber": [1, 2, 3, 4, 5, 6, 7, 8, 9, 10, 11, 12, 13, 14, 15, 16, 17, 18, 19, 20, 21, 22, 23, 24, 25, 26, 27, 28, 29, 30, 31, 32, 33, 34, 35, 36, 37, 38, 39, 40, 41, 42, 43, 44, 45, 46, 47, 48, 49, 50, 51, 52, 53, 54, 55, 56, 57, 58, 59, 60, 61, 62, 63, 64, 65, 66, 67, 68, 69, 70, 71, 72, 73, 74, 75, 76, 77, 78, 79, 80, 81, 82, 83, 84, 85, 86, 87, 88, 89, 90, 91, 92, 93, 94, 95, 96, 97, 98, 99, 100, 101, 102, 103, 104, 105, 106, 107, 108, 109, 110, 111, 112, 113, 114, 115, 116, 117, 118, 119, 120, 121, 122, 123, 124, 125, 126, 127, 128, 129, 130, 131, 132, 133, 134, 135, 136, 137, 138, 139, 140, 141, 142, 143, 144, 145, 146, 147, 148, 149, 150, 151, 152, 153, 154, 155, 156, 157, 158, 159, 160, 161, 162, 163, 164, 165, 166, 167, 168, 169, 170, 171, 172, 173, 174, 175, 176, 177, 178, 179, 180, 181, 182, 183, 184, 185, 186, 187, 188, 189, 190],
      "AcquisitionTime": ["135422.530000", "135424.020000", "135425.510000", "135427.000000", "135428.490000", "135429.980000", "135431.470000", "135432.960000", "135434.450000", "135435.940000", "135437.430000", "135438.920000", "135440.410000", "135441.900000", "135443.390000", "135444.880000", "135446.370000", "135447.860000", "135449.350000", "135450.840000", "135452.330000", "135453.820000", "135455.310000", "135456.800000", "135458.290000", "135459.780000", "135501.270000", "135502.760000", "135504.250000", "135505.740000", "135507.230000", "135508.720000", "135510.210000", "135511.700000", "135513.190000", "135514.680000", "135516.170000", "135517.660000", "135519.150000", "135520.640000", "135522.130000", "135523.620000", "135525.110000", "135526.600000", "135528.090000", "135529.580000", "135531.070000", "135532.560000", "135534.050000", "135535.540000", "135537.030000", "135538.520000", "135540.010000", "135541.500000", "135542.990000", "135544.480000", "135545.970000", "135547.460000", "135548.950000", "135550.440000", "135551.930000", "135553.420000", "135554.910000", "135556.400000", "135557.890000", "135559.380000", "135600.870000", "135602.360000", "135603.850000", "135605.340000", "135606.830000", "135608.320000", "135609.810000", "135611.300000", "135612.790000", "135614.280000", "135615.770000", "135617.260000", "135618.750000", "135620.240000", "135621.730000", "135623.220000", "135624.710000", "135626.200000", "135627.690000", "135629.180000", "135630.670000", "135632.160000", "135633.650000", "135635.140000", "135636.630000", "135638.120000", "135639.610000", "135641.100000", "135642.590000", "135644.080000", "135645.570000", "135647.060000", "135648.550000", "135650.040000", "135651.530000", "135653.020000", "135654.510000", "135656.000000", "135657.490000", "135658.980000", "135700.470000", "135701.960000", "135703.450000", "135704.940000", "135706.430000", "135707.920000", "135709.410000", "135710.900000", "135712.390000", "135713.880000", "135715.370000", "135716.860000", "135718.350000", "135719.840000", "135721.330000", "135722.820000", "135724.310000", "135725.800000", "135727.290000", "135728.780000", "135730.270000", "135731.760000", "135733.250000", "135734.740000", "135736.230000", "135737.720000", "135739.210000", "135740.700000", "135742.190000", "135743.680000", "135745.170000", "135746.660000", "135748.150000", "135749.640000", "135751.130000", "135752.620000", "135754.110000", "135755.600000", "135757.090000", "135758.580000", "135800.070000", "135801.560000", "135803.050000", "135804.540000", "135806.030000", "135807.520000", "135809.010000", "135810.500000", "135811.990000", "135813.480000", "135814.970000", "135816.460000", "135817.950000", "135819.440000", "135820.930000", "135822.420000", "135823.910000", "135825.400000", "135826.890000", "135828.380000", "135829.870000", "135831.360000", "135832.850000", "135834.340000", "135835.830000", "135837.320000", "135838.810000", "135840.300000", "135841.790000", "135843.280000", "135844.770000", "135846.260000", "135847.750000", "135849.240000", "135850.730000", "135852.220000", "135853.710000", "135855.200000", "135856.690000", "135858.180000", "135859.670000", "135901.160000", "135902.650000", "135904.140000"],
      "ContentTime": ["135543.272000", "135543.276000", "135543.279000", "135543.282000", "135543.285000", "135543.289000", "135543.292000", "135543.295000", "135543.298000", "135543.302000", "135543.305000", "135543.308000", "135543.311000", "135543.315000", "135543.318000", "135543.326000", "135543.330000", "135543.333000", "135543.337000", "135543.340000", "135543.343000", "135543.346000", "135543.350000", "135543.359000", "135543.362000", "135543.366000", "135603.236000", "135603.240000", "135603.243000", "135603.246000", "135603.250000", "135603.257000", "135603.261000", "135603.264000", "135603.267000", "135603.270000", "135603.274000", "135603.277000", "135603.280000", "135603.283000", "135603.287000", "135603.290000", "135603.293000", "135603.297000", "135603.300000", "135603.303000", "135623.236000", "135623.240000", "135623.243000", "135623.246000", "135623.250000", "135623.253000", "135623.256000", "135623.260000", "135623.263000", "135623.266000", "135623.269000", "135623.272000", "135623.276000", "135623.279000", "135623.282000", "135623.286000", "135623.297000", "135623.300000", "135623.304000", "135623.307000", "135643.236000", "135643.240000", "135643.243000", "135643.247000", "135643.250000", "135643.263000", "135643.267000", "135643.270000", "135643.273000", "135643.277000", "135643.280000", "135643.284000", "135643.288000", "135643.291000", "135643.296000", "135643.299000", "135643.303000", "135643.306000", "135643.309000", "135643.313000", "135703.236000", "135703.240000", "135703.243000", "135703.246000", "135703.250000", "135703.253000", "135703.256000", "135703.260000", "135703.263000", "135703.266000", "135703.269000", "135703.273000", "135703.276000", "135703.279000", "135703.282000", "135703.286000", "135703.289000", "135703.292000", "135703.295000", "135703.299000", "135703.302000", "135743.236000", "135743.240000", "135743.243000", "135743.246000", "135743.249000", "135743.253000", "135743.256000", "135743.265000", "135743.269000", "135743.272000", "135743.275000", "135743.278000", "135743.281000", "135743.285000", "135743.288000", "135743.291000", "135743.294000", "135743.298000", "135743.301000", "135743.304000", "135743.307000", "135743.311000", "135743.314000", "135743.317000", "135743.320000", "135743.334000", "135743.337000", "135823.236000", "135823.240000", "135823.243000", "135823.246000", "135823.250000", "135823.253000", "135823.256000", "135823.260000", "135823.263000", "135823.266000", "135823.269000", "135823.273000", "135823.276000", "135823.279000", "135823.282000", "135823.285000", "135823.289000", "135823.292000", "135823.295000", "135823.298000", "135823.302000", "135823.305000", "135823.308000", "135823.311000", "135823.315000", "135823.318000", "135903.236000", "135903.240000", "135903.243000", "135903.246000", "135903.249000", "135903.253000", "135903.256000", "135903.259000", "135903.262000", "135903.266000", "135903.269000", "135903.272000", "135903.275000", "135903.279000", "135903.282000", "135903.285000", "135903.288000", "135903.292000", "135903.295000", "135903.298000", "135903.301000", "135903.304000", "135903.308000", "135903.311000", "135903.314000", "135903.317000", "135903.320000", "135906.608000", "135906.612000", "135906.615000"],
      "InstanceCreationTime": ["135543.272000", "135543.276000", "135543.279000", "135543.282000", "135543.285000", "135543.289000", "135543.292000", "135543.295000", "135543.298000", "135543.302000", "135543.305000", "135543.308000", "135543.311000", "135543.315000", "135543.318000", "135543.326000", "135543.330000", "135543.333000", "135543.337000", "135543.340000", "135543.343000", "135543.346000", "135543.350000", "135543.359000", "135543.362000", "135543.366000", "135603.236000", "135603.240000", "135603.243000", "135603.246000", "135603.250000", "135603.257000", "135603.261000", "135603.264000", "135603.267000", "135603.270000", "135603.274000", "135603.277000", "135603.280000", "135603.283000", "135603.287000", "135603.290000", "135603.293000", "135603.297000", "135603.300000", "135603.303000", "135623.236000", "135623.240000", "135623.243000", "135623.246000", "135623.250000", "135623.253000", "135623.256000", "135623.260000", "135623.263000", "135623.266000", "135623.269000", "135623.272000", "135623.276000", "135623.279000", "135623.282000", "135623.286000", "135623.297000", "135623.300000", "135623.304000", "135623.307000", "135643.236000", "135643.240000", "135643.243000", "135643.247000", "135643.250000", "135643.263000", "135643.267000", "135643.270000", "135643.273000", "135643.277000", "135643.280000", "135643.284000", "135643.288000", "135643.291000", "135643.296000", "135643.299000", "135643.303000", "135643.306000", "135643.309000", "135643.313000", "135703.236000", "135703.240000", "135703.243000", "135703.246000", "135703.250000", "135703.253000", "135703.256000", "135703.260000", "135703.263000", "135703.266000", "135703.269000", "135703.273000", "135703.276000", "135703.279000", "135703.282000", "135703.286000", "135703.289000", "135703.292000", "135703.295000", "135703.299000", "135703.302000", "135743.236000", "135743.240000", "135743.243000", "135743.246000", "135743.249000", "135743.253000", "135743.256000", "135743.265000", "135743.269000", "135743.272000", "135743.275000", "135743.278000", "135743.281000", "135743.285000", "135743.288000", "135743.291000", "135743.294000", "135743.298000", "135743.301000", "135743.304000", "135743.307000", "135743.311000", "135743.314000", "135743.317000", "135743.320000", "135743.334000", "135743.337000", "135823.236000", "135823.240000", "135823.243000", "135823.246000", "135823.250000", "135823.253000", "135823.256000", "135823.260000", "135823.263000", "135823.266000", "135823.269000", "135823.273000", "135823.276000", "135823.279000", "135823.282000", "135823.285000", "135823.289000", "135823.292000", "135823.295000", "135823.298000", "135823.302000", "135823.305000", "135823.308000", "135823.311000", "135823.315000", "135823.318000", "135903.236000", "135903.240000", "135903.243000", "135903.246000", "135903.249000", "135903.253000", "135903.256000", "135903.259000", "135903.262000", "135903.266000", "135903.269000", "135903.272000", "135903.275000", "135903.279000", "135903.282000", "135903.285000", "135903.288000", "135903.292000", "135903.295000", "135903.298000", "135903.301000", "135903.304000", "135903.308000", "135903.311000", "135903.314000", "135903.317000", "135903.320000", "135906.608000", "135906.612000", "135906.615000"],
      "InstanceNumber": [1, 2, 3, 4, 5, 6, 7, 8, 9, 10, 11, 12, 13, 14, 15, 16, 17, 18, 19, 20, 21, 22, 23, 24, 25, 26, 27, 28, 29, 30, 31, 32, 33, 34, 35, 36, 37, 38, 39, 40, 41, 42, 43, 44, 45, 46, 47, 48, 49, 50, 51, 52, 53, 54, 55, 56, 57, 58, 59, 60, 61, 62, 63, 64, 65, 66, 67, 68, 69, 70, 71, 72, 73, 74, 75, 76, 77, 78, 79, 80, 81, 82, 83, 84, 85, 86, 87, 88, 89, 90, 91, 92, 93, 94, 95, 96, 97, 98, 99, 100, 101, 102, 103, 104, 105, 106, 107, 108, 109, 110, 111, 112, 113, 114, 115, 116, 117, 118, 119, 120, 121, 122, 123, 124, 125, 126, 127, 128, 129, 130, 131, 132, 133, 134, 135, 136, 137, 138, 139, 140, 141, 142, 143, 144, 145, 146, 147, 148, 149, 150, 151, 152, 153, 154, 155, 156, 157, 158, 159, 160, 161, 162, 163, 164, 165, 166, 167, 168, 169, 170, 171, 172, 173, 174, 175, 176, 177, 178, 179, 180, 181, 182, 183, 184, 185, 186, 187, 188, 189, 190],
      "LargestImagePixelValue": [39971, 38545, 37998, 37507, 37820, 37048, 37158, 37592, 37294, 37652, 37258, 37549, 37429, 37682, 37596, 36931, 37832, 37621, 37725, 37485, 38511, 37161, 38203, 38413, 37887, 37728, 38566, 37890, 37793, 38179, 37831, 37616, 38654, 37923, 37900, 38109, 37715, 37626, 38822, 37363, 38206, 37613, 37832, 37541, 38385, 37642, 37329, 37714, 37993, 37449, 37922, 37668, 37947, 37764, 37345, 37750, 38110, 37713, 37901, 37964, 38043, 37593, 38255, 38150, 37408, 37945, 37315, 37634, 37509, 38194, 37838, 37506, 38055, 37783, 37812, 37635, 38226, 38164, 37796, 37667, 38005, 37208, 37383, 37872, 37877, 37583, 37326, 37913, 37509, 37799, 37947, 38736, 37974, 38191, 37753, 37939, 37832, 37554, 38085, 37851, 37821, 37978, 37923, 37972, 37759, 38043, 37767, 37470, 37876, 37688, 37851, 37528, 37972, 38033, 37921, 37383, 38023, 37805, 37305, 38119, 37471, 37305, 37696, 37887, 37703, 38190, 38067, 37612, 37031, 38130, 38093, 37926, 38075, 37832, 37137, 38268, 37756, 38039, 38094, 37958, 37288, 37960, 37848, 37913, 37413, 37887, 37606, 38004, 37820, 38210, 37684, 37559, 37622, 37552, 37350, 37491, 37607, 37789, 37386, 37719, 37522, 37503, 37798, 38212, 37762, 37366, 37343, 37609, 38030, 37415, 37918, 37408, 38225, 37428, 37899, 38110, 37705, 37412, 37923, 37646, 37284, 37812, 38225, 37655, 37293, 38068, 37805, 37935, 37495, 37426],
      "WindowCenter": [10138.0, 10087.0, 10073.0, 10075.0, 10099.0, 10097.0, 10080.0, 10069.0, 10068.0, 10079.0, 10091.0, 10101.0, 10104.0, 10092.0, 10083.0, 10077.0, 10091.0, 10091.0, 10085.0, 10086.0, 10105.0, 10093.0, 10092.0, 10097.0, 10090.0, 10083.0, 10086.0, 10071.0, 10064.0, 10079.0, 10088.0, 10089.0, 10085.0, 10088.0, 10092.0, 10082.0, 10081.0, 10093.0, 10103.0, 10075.0, 10072.0, 10073.0, 10082.0, 10070.0, 10072.0, 10055.0, 10064.0, 10079.0, 10080.0, 10064.0, 10054.0, 10071.0, 10097.0, 10092.0, 10070.0, 10058.0, 10036.0, 10012.0, 10026.0, 10043.0, 10044.0, 10031.0, 10042.0, 10044.0, 10047.0, 10053.0, 10037.0, 10052.0, 10065.0, 10071.0, 10065.0, 10056.0, 10043.0, 10053.0, 10062.0, 10073.0, 10082.0, 10079.0, 10063.0, 10063.0, 10070.0, 10075.0, 10081.0, 10077.0, 10081.0, 10083.0, 10075.0, 10074.0, 10091.0, 10109.0, 10101.0, 10094.0, 10088.0, 10124.0, 10153.0, 10137.0, 10096.0, 10067.0, 10048.0, 10023.0, 10018.0, 10008.0, 10009.0, 10017.0, 10018.0, 10033.0, 10043.0, 10042.0, 10048.0, 10063.0, 10072.0, 10076.0, 10089.0, 10080.0, 10071.0, 10065.0, 10078.0, 10080.0, 10091.0, 10091.0, 10083.0, 10081.0, 10082.0, 10080.0, 10089.0, 10107.0, 10116.0, 10100.0, 10078.0, 10071.0, 10078.0, 10095.0, 10099.0, 10085.0, 10076.0, 10077.0, 10072.0, 10080.0, 10088.0, 10096.0, 10094.0, 10098.0, 10091.0, 10082.0, 10074.0, 10070.0, 10079.0, 10081.0, 10078.0, 10079.0, 10095.0, 10095.0, 10082.0, 10057.0, 10046.0, 10040.0, 10051.0, 10068.0, 10058.0, 10072.0, 10058.0, 10050.0, 10047.0, 10065.0, 10079.0, 10084.0, 10067.0, 10079.0, 10090.0, 10076.0, 10066.0, 10058.0, 10063.0, 10058.0, 10072.0, 10070.0, 10065.0, 10060.0, 10069.0, 10056.0, 10056.0, 10079.0, 10104.0, 10094.0, 10085.0, 10094.0, 10089.0, 10096.0, 10069.0, 10057.0],
      "WindowWidth": [21591.0, 21458.0, 21410.0, 21411.0, 21462.0, 21459.0, 21419.0, 21393.0, 21391.0, 21412.0, 21443.0, 21467.0, 21473.0, 21445.0, 21420.0, 21412.0, 21442.0, 21441.0, 21428.0, 21434.0, 21471.0, 21446.0, 21442.0, 21452.0, 21435.0, 21420.0, 21423.0, 21391.0, 21376.0, 21409.0, 21430.0, 21433.0, 21421.0, 21431.0, 21442.0, 21418.0, 21414.0, 21446.0, 21459.0, 21401.0, 21394.0, 21398.0, 21417.0, 21394.0, 21394.0, 21357.0, 21377.0, 21412.0, 21413.0, 21375.0, 21354.0, 21393.0, 21453.0, 21442.0, 21391.0, 21363.0, 21309.0, 21256.0, 21290.0, 21329.0, 21331.0, 21304.0, 21325.0, 21331.0, 21343.0, 21351.0, 21317.0, 21349.0, 21384.0, 21393.0, 21378.0, 21358.0, 21329.0, 21352.0, 21374.0, 21399.0, 21421.0, 21409.0, 21374.0, 21374.0, 21392.0, 21406.0, 21418.0, 21409.0, 21416.0, 21420.0, 21406.0, 21404.0, 21442.0, 21481.0, 21462.0, 21442.0, 21432.0, 21520.0, 21585.0, 21546.0, 21449.0, 21381.0, 21338.0, 21285.0, 21269.0, 21247.0, 21250.0, 21269.0, 21273.0, 21304.0, 21329.0, 21331.0, 21344.0, 21376.0, 21396.0, 21408.0, 21431.0, 21412.0, 21390.0, 21381.0, 21408.0, 21413.0, 21442.0, 21441.0, 21420.0, 21415.0, 21418.0, 21414.0, 21435.0, 21478.0, 21496.0, 21457.0, 21411.0, 21392.0, 21407.0, 21449.0, 21459.0, 21429.0, 21407.0, 21406.0, 21398.0, 21416.0, 21432.0, 21450.0, 21450.0, 21455.0, 21437.0, 21418.0, 21400.0, 21390.0, 21410.0, 21415.0, 21408.0, 21410.0, 21446.0, 21450.0, 21418.0, 21362.0, 21336.0, 21328.0, 21348.0, 21384.0, 21367.0, 21394.0, 21364.0, 21347.0, 21340.0, 21377.0, 21412.0, 21427.0, 21386.0, 21411.0, 21437.0, 21408.0, 21384.0, 21366.0, 21375.0, 21367.0, 21395.0, 21391.0, 21382.0, 21373.0, 21387.0, 21361.0, 21362.0, 21411.0, 21468.0, 21450.0, 21425.0, 21439.0, 21430.0, 21443.0, 21387.0, 21356.0]
    },
    "slices": {}
  }
}